BVP Green Neck Signal
2.904832294236492016e-02
1.987330410701869735e-02
-2.162818963112540620e-03
-2.695856038867652793e-02
-4.762570585384230670e-02
-6.655962925215319625e-02
-8.877033421327881757e-02
-1.166791053513381859e-01
-1.479076269983763126e-01
-1.795260703718783990e-01
-2.115897753091444677e-01
-2.459969253009256229e-01
-2.826981997227399623e-01
-3.201867312177799074e-01
-3.567499140922587020e-01
-3.911856770449819720e-01
-4.243896681973138296e-01
-4.547694116878091553e-01
-4.813223042307102073e-01
-5.030185174174991447e-01
-5.182041825667444979e-01
-5.276925082165859759e-01
-5.296122987408392602e-01
-5.237426803317544177e-01
-5.098111603552066828e-01
-4.867164705616153775e-01
-4.556232049812628526e-01
-4.155270823327965601e-01
-3.671396245428359961e-01
-3.110919159356420605e-01
-2.474309529077503012e-01
-1.777015655424622753e-01
-1.024574476112075638e-01
-2.282862756023577161e-02
5.959102155247320703e-02
1.437254493469960204e-01
2.280675510466753375e-01
3.107654125426070335e-01
3.909730517156164709e-01
4.665297828062964780e-01
5.361889177023995146e-01
5.990071521042494851e-01
6.527911042537398734e-01
6.977210359168817266e-01
7.318127688076585535e-01
7.546596390444296754e-01
7.662716710863303193e-01
7.652540067165634063e-01
7.530639969838218706e-01
7.286667868238171364e-01
6.929637264231891525e-01
6.469643137132274902e-01
5.907182213026851425e-01
5.264706010092243815e-01
4.545410054443104753e-01
3.767084083889181145e-01
2.946334664743305853e-01
2.095756206632596597e-01
1.235469300758931521e-01
3.801847469315063760e-02
-4.545771866863979049e-02
-1.251856376859740438e-01
-1.996553282891658510e-01
-2.680906587306449151e-01
-3.285890425150524985e-01
-3.809091731581758511e-01
-4.239122352422621809e-01
-4.568975765436312231e-01
-4.806326056402970837e-01
-4.936602130844970904e-01
-4.973424999620111309e-01
-4.913517459779871421e-01
-4.762491687332290891e-01
-4.537519302276803446e-01
-4.234003004412827398e-01
-3.874491506711222333e-01
-3.462228920742781435e-01
-3.011153504579301421e-01
-2.538415561319140035e-01
-2.048128784211288023e-01
-1.559886045697125578e-01
-1.079622918687955652e-01
-6.205233062967310115e-02
-1.917817390200024855e-02
1.989723120247397989e-02
5.444937054622335515e-02
8.395477916274518559e-02
1.079144038040705106e-01
1.264334368828931854e-01
1.389035968347167305e-01
1.459948780530173906e-01
1.473842799636418954e-01
1.435302639316992646e-01
1.352012462805741999e-01
1.221676982157596236e-01
1.058823080909888775e-01
8.618017839685308823e-02
6.404676296108546829e-02
4.030354568928077447e-02
1.505566888125360603e-02
-1.035236163547451765e-02
-3.597930764240759444e-02
-6.090679139360206246e-02
-8.468911350539835847e-02
-1.070238973292010481e-01
-1.272753032763654646e-01
-1.453672711181768495e-01
-1.608132117590536092e-01
-1.736040035195489661e-01
-1.833608440008817619e-01
-1.902259988116773437e-01
-1.939651334544010008e-01
-1.945548142323778040e-01
-1.922518167560157698e-01
-1.867242876094361570e-01
-1.785836375755979755e-01
-1.675541505045921864e-01
-1.539128453646827765e-01
-1.380231785237150399e-01
-1.197506062103059626e-01
-9.978860793786518968e-02
-7.806551909124549715e-02
-5.496479106295638906e-02
-3.090918813146949912e-02
-6.063776142261321535e-03
1.907342209256472285e-02
4.418418735556229465e-02
6.895444592316123111e-02
9.292331516853273576e-02
1.156936240740733812e-01
1.371117250951932320e-01
1.565317791249586366e-01
1.738754529989631203e-01
1.887436575013572426e-01
2.007685568175889002e-01
2.101369424131286912e-01
2.162201922097892748e-01
2.192641048408679738e-01
2.190820287198954053e-01
2.156007445239832843e-01
2.092563573189227255e-01
1.997747900444080404e-01
1.876661026437370927e-01
1.730397903675004734e-01
1.561859754718272764e-01
1.376159995865864627e-01
1.175176031564540147e-01
9.643593394274838082e-02
7.472205576232292257e-02
5.285081326061231988e-02
3.119361339461031168e-02
1.025143772317022202e-02
-9.688093481946184402e-03
-2.818478844590251511e-02
-4.487544331450765006e-02
-5.967484640674681345e-02
-7.204329041005015644e-02
-8.212487432332901682e-02
-8.954474591696183483e-02
-9.426699919060006760e-02
-9.648742146131517039e-02
-9.586578491507480315e-02
-9.292053512385611835e-02
-8.743843399567914620e-02
-7.972558826976004764e-02
-7.012297494807524789e-02
-5.859501733044501087e-02
-4.578467359521427166e-02
-3.167439511925060347e-02
-1.674526243150464139e-02
-1.316540426582106385e-03
1.438136677810659958e-02
2.987062035873219723e-02
4.498833112851747390e-02
5.931242286102843264e-02
7.265556490559947622e-02
8.466375802289261010e-02
9.520597007461203964e-02
1.040114529857677494e-01
1.109000631881926074e-01
1.158541323460443029e-01
1.185809086797054018e-01
1.193070913346680473e-01
1.177842636697900153e-01
1.141305325380354424e-01
1.084854974611384609e-01
1.007607887868422480e-01
9.139895705529542391e-02
8.031039234939432725e-02
6.782044891635657935e-02
5.418004407225855690e-02
3.953096977340362500e-02
2.431412006818943136e-02
8.663560425236879400e-03
-7.079322045436896305e-03
-2.262245825823407455e-02
-3.770192393287619820e-02
-5.206627149413285693e-02
-6.541356960313185476e-02
-7.757933910375701403e-02
-8.831175366546002714e-02
-9.741191944494533017e-02
-1.048723393476209548e-01
-1.103990298658939356e-01
-1.140919478897211292e-01
-1.158123428196957683e-01
-1.155726932358438069e-01
-1.135567039416475049e-01
-1.096495950407180842e-01
-1.041677752357761805e-01
-9.712885094299897326e-02
-8.877080773239097444e-02
-7.936528336493019198e-02
-6.903133347935679065e-02
-5.814639467829738062e-02
-4.687002510078690926e-02
-3.552974381041072022e-02
-2.436843804135549810e-02
-1.364060822335363271e-02
-3.589553624615496145e-03
5.568119791048476569e-03
1.362562019619188367e-02
2.047215593989215252e-02
2.589936695859417978e-02
2.993979934964483003e-02
3.243617978595202817e-02
3.344935026003612033e-02
3.305571024418927500e-02
3.121977011094907370e-02
2.825639452663805673e-02
2.413095664138728558e-02
1.914089686988235464e-02
1.350961587326738461e-02
7.336746693347945790e-03
1.061315184122529464e-03
-5.286010444535383171e-03
-1.138249434134690555e-02
-1.700202822654462570e-02
-2.208627260883744281e-02
-2.631652711687989046e-02
-2.972748637729945298e-02
-3.220772107293788655e-02
-3.367962145015337971e-02
-3.426391151509112359e-02
-3.391706457028241528e-02
-3.279002602307092701e-02
-3.103595779482296729e-02
-2.874427824212259786e-02
-2.614772386560252140e-02
-2.342134661366031961e-02
-2.071440040379707651e-02
-1.826235527216919438e-02
-1.619143423878717167e-02
-1.461490983360928982e-02
-1.373601134352049266e-02
-1.351929353795690986e-02
-1.404592815606320495e-02
-1.534722711409938940e-02
-1.724450324116338570e-02
-1.984826470951548197e-02
-2.287780225084713390e-02
-2.619545070591663277e-02
-2.974095158270291528e-02
-3.310099139610861441e-02
-3.632407924915039693e-02
-3.902489770581189094e-02
-4.098785303771553673e-02
-4.217794610089568852e-02
-4.217865123296456881e-02
-4.110079192062704445e-02
-3.866703266488188268e-02
-3.478652285044464554e-02
-2.955788876803559784e-02
-2.278995399446843984e-02
-1.471276301844995187e-02
-5.305968713606712232e-03
5.319769044905695715e-03
1.692370838978812103e-02
2.939954582122517382e-02
4.248511428096786446e-02
5.593127564390117101e-02
6.953671081274975796e-02
8.300179837538407268e-02
9.603081310698179107e-02
1.084840059829217801e-01
1.199496472747402648e-01
1.303226770735293194e-01
1.393421248705385973e-01
1.467110519452387019e-01
1.524887720208029651e-01
1.562660425047025792e-01
1.581286914036523772e-01
1.579192466354562285e-01
1.554900350235293160e-01
1.510419780567254511e-01
1.443457068234042795e-01
1.356184327585772953e-01
1.248704477556832476e-01
1.121690854006734822e-01
9.775597486083816012e-02
8.173813705896583459e-02
6.433548108796162401e-02
4.582386128569856248e-02
2.647097015916079557e-02
6.524525274517138825e-03
-1.352233715975685417e-02
-3.354630103415866260e-02
-5.296591873619274637e-02
-7.143385430241512568e-02
-8.869715760662193194e-02
-1.040639229445278896e-01
-1.175737359052012321e-01
-1.285204249021077716e-01
-1.367182716485888794e-01
-1.419882818535468660e-01
-1.438610659786224433e-01
-1.425860358206788581e-01
-1.377308943737553526e-01
-1.295105037005817583e-01
-1.179696952902856005e-01
-1.032579485407079389e-01
-8.579443979940315490e-02
-6.576791398454492898e-02
-4.379941250530628577e-02
-2.021444555659667255e-02
4.194516365594929026e-03
2.903687973782570486e-02
5.352512467554010334e-02
7.696359218080656150e-02
9.890756454168911360e-02
1.183750046795437189e-01
1.352550590006116049e-01
1.486343128083843224e-01
1.582121437656907326e-01
1.637309450984826276e-01
1.646405875854305145e-01
1.612876448758340797e-01
1.531992606726956252e-01
1.407444176203329067e-01
1.240840545489692442e-01
1.034377120986724186e-01
7.954373446402425440e-02
5.262457757544544701e-02
2.354367170659940264e-02
-7.159774367178630208e-03
-3.870252264463689557e-02
-7.031174144113312707e-02
-1.012913272021149641e-01
-1.308514910198469716e-01
-1.583805147125619539e-01
-1.831271601000815652e-01
-2.047309469952159067e-01
-2.225111226768529682e-01
-2.363091777473848576e-01
-2.457671965436436234e-01
-2.506730755371980868e-01
-2.512777060158227771e-01
-2.472690126469228589e-01
-2.392302629560028038e-01
-2.271565112255690688e-01
-2.114128497581969079e-01
-1.926704433771706249e-01
-1.709919589796742301e-01
-1.473052486965390762e-01
-1.218396397269548986e-01
-9.515824785320145529e-02
-6.797167602335647818e-02
-4.050293149802298293e-02
-1.346316123246401979e-02
1.282459688454424922e-02
3.803583145636310614e-02
6.168799618959531356e-02
8.359073529328370222e-02
1.035845151879552922e-01
1.212980152161354380e-01
1.368375683027572842e-01
1.499897248579655507e-01
1.606560738965700508e-01
1.692029186010358954e-01
1.752115759658081917e-01
1.791183871521382920e-01
1.808898231645668098e-01
1.804827559165915751e-01
1.785278124124367316e-01
1.746065847959855921e-01
1.692363460707640432e-01
1.624818871091611161e-01
1.543077690297067761e-01
1.453218971724719866e-01
1.352155235757268037e-01
1.243674080744057858e-01
1.129182139919461675e-01
1.008338070006617598e-01
8.850061098141696891e-02
7.584340717189062830e-02
6.299449905626938739e-02
5.017236569267551072e-02
3.734596997317751049e-02
2.466752877088274759e-02
1.229365872694433703e-02
1.377690308503373012e-04
-1.151359570329615369e-02
-2.267761825220669658e-02
-3.336020053436789673e-02
-4.324823128226545216e-02
-5.255479319094338853e-02
-6.095987484875691614e-02
-6.846884439645024856e-02
-7.515906234634645022e-02
-8.068078587954992387e-02
-8.528874433548014333e-02
-8.869646712193450522e-02
-9.093308075441898508e-02
-9.209874455778956082e-02
-9.194443407658380030e-02
-9.072210175973914603e-02
-8.826518804169040944e-02
-8.467560750214921106e-02
-8.007257193064035161e-02
-7.440920738797489331e-02
-6.791692620444504669e-02
-6.061227745155681884e-02
-5.267876227530333966e-02
-4.426481558453788934e-02
-3.552461796288351736e-02
-2.664086980985246739e-02
-1.779575909388700014e-02
-9.178899829649495717e-03
-9.487259376012170242e-04
6.670237488371260834e-03
1.359712455097180327e-02
1.959927182017502309e-02
2.461383079314130931e-02
2.852494652928896229e-02
3.123013683640250490e-02
3.278832495927441054e-02
3.306656878716652398e-02
3.221901728385600377e-02
3.021422012415192135e-02
2.719273063518698116e-02
2.332030470586992157e-02
1.864666829540845630e-02
1.349986385457572179e-02
7.919684255804280287e-03
2.242680958249524369e-03
-3.365752134552901439e-03
-8.718513151725289234e-03
-1.348275317995212101e-02
-1.761296474111939334e-02
-2.076973781793356455e-02
-2.290194518839402948e-02
-2.383316679096759982e-02
-2.341313445630496121e-02
-2.166690408723287442e-02
-1.847016028517703065e-02
-1.392443763002234290e-02
-8.030580901302498617e-03
-9.006572960089177012e-04
7.330369665639345500e-03
1.647388367094920758e-02
2.634185562306146436e-02
3.668832117229307854e-02
4.723113296227030022e-02
5.776489104884250519e-02
6.789346614003445579e-02
7.747808985757756450e-02
8.613553004240119548e-02
9.362858032955491405e-02
9.979601053148706713e-02
1.042758201374387045e-01
1.071194195060666543e-01
1.080120758624134453e-01
1.069565122222607828e-01
1.039526125517908628e-01
9.887791243421975573e-02
9.201627080664780134e-02
8.327741396108763461e-02
7.292667966054229567e-02
6.115207226556888115e-02
4.808896647969711224e-02
3.414070811929020843e-02
1.944171457718524981e-02
4.335909501546398800e-03
-1.088592384463213207e-02
-2.599818775842503010e-02
-4.067882079401823753e-02
-5.468899920252157099e-02
-6.785650920936871222e-02
-7.989918886938354725e-02
-9.069549835331389143e-02
-1.001390676557953191e-01
-1.080019317613577085e-01
-1.144051611377505939e-01
-1.191240732028062688e-01
-1.222112532592981027e-01
-1.237616935716504413e-01
-1.236030694263682700e-01
-1.220741654352127809e-01
-1.190073706795978653e-01
-1.145636456634197414e-01
-1.089340617452992516e-01
-1.020110565693965604e-01
-9.416769065435090513e-02
-8.531750841360956350e-02
-7.562321278670317004e-02
-6.528889127638175249e-02
-5.429887969005291887e-02
-4.290581616037158347e-02
-3.117665604096574866e-02
-1.921070050704358143e-02
-7.208900336654977190e-03
4.719699549562902073e-03
1.650777787976730540e-02
2.788363552170117221e-02
3.883369959028646484e-02
4.915728741929092233e-02
5.864179463679029813e-02
6.740352693492290825e-02
7.501645178553924265e-02
8.156741870829334329e-02
8.688954604823284633e-02
9.077431142218447824e-02
9.346139177921637675e-02
9.455239987193739259e-02
9.423752660180446938e-02
9.244816279702386397e-02
8.910583232155734612e-02
8.450483075532889965e-02
7.845157228517321557e-02
7.120700713206491728e-02
6.283758568266367694e-02
5.344678804054874000e-02
4.329684641028265502e-02
3.246500369531879482e-02
2.119130278403234119e-02
9.652372242716471262e-03
-1.919316402531332172e-03
-1.338667226359017103e-02
-2.445201285742280156e-02
-3.500728256855071413e-02
-4.482568063195942198e-02
-5.366003592830559388e-02
-6.154189924510990867e-02
-6.807892529476536336e-02
-7.335417998799562134e-02
-7.715572393898224857e-02
-7.933556991282904314e-02
-8.006285887716101113e-02
-7.900963337778985074e-02
-7.642029838742410430e-02
-7.216759273542541764e-02
-6.627389367455978342e-02
-5.896911138735707464e-02
-5.014190039495348278e-02
-4.009492546239085825e-02
-2.886283544940753190e-02
-1.664374060972002162e-02
-3.652166720753206343e-03
9.919754547798394564e-03
2.384472149252092957e-02
3.787830106823059789e-02
5.172207394555795867e-02
6.523330071284552667e-02
7.796076461633215382e-02
8.986849765162183146e-02
1.005442090169477720e-01
1.097308931258175885e-01
1.173954644898115296e-01
1.230175615454230098e-01
1.267967001518899850e-01
1.283094500220675338e-01
1.274854563557665521e-01
1.244210175447255096e-01
1.187917529792450883e-01
1.109658412855341475e-01
1.007364237124505901e-01
8.828225252814786428e-02
7.382568255858339146e-02
5.744518053849157618e-02
3.950907634857330625e-02
2.021923986065343043e-02
-7.284215677108183892e-05
-2.105091195245226143e-02
-4.221392022078507278e-02
-6.338431584892603721e-02
-8.392278190577620589e-02
-1.034972658949722540e-01
-1.217668130079917754e-01
-1.380366774671720476e-01
-1.523940483827364023e-01
-1.640205555336812504e-01
-1.728102897918721015e-01
-1.785219083485166391e-01
-1.806455254263022170e-01
-1.795207210508746876e-01
-1.745725615229971606e-01
-1.660505276439141475e-01
-1.539720303032756921e-01
-1.383316156517100937e-01
-1.196455031229431420e-01
-9.792707964416455524e-02
-7.372872481262525424e-02
-4.741820398312692614e-02
-1.952817987784383896e-02
9.399198845630936036e-03
3.873905145513779902e-02
6.790828187505117131e-02
9.628364400836904313e-02
1.231227048643318833e-01
1.480746992106284077e-01
1.702608146431630332e-01
1.894425116664251729e-01
2.050221429823544939e-01
2.165481062048037475e-01
2.240503869449158025e-01
2.269126574855732659e-01
2.254693689476138241e-01
2.194514358146336663e-01
2.090183920756619740e-01
1.946070768282218144e-01
1.761923778645940186e-01
1.545680772731934938e-01
1.299230521156261586e-01
1.029283448820499380e-01
7.424161234875037430e-02
4.436174798171640954e-02
1.411662022175503260e-02
-1.596937734055289479e-02
-4.517569791348644004e-02
-7.292857663385445000e-02
-9.859627894002175041e-02
-1.217924653038538613e-01
-1.419381152581687677e-01
-1.587614377275979594e-01
-1.720086483962004476e-01
-1.813361465359715763e-01
-1.870054138031994606e-01
-1.886369635366570152e-01
-1.865920714927154778e-01
-1.809721907333533553e-01
-1.718955477277745447e-01
-1.600831952685580206e-01
-1.454614481644193325e-01
-1.287923788991099938e-01
-1.103921446791025079e-01
-9.070155226706437535e-02
-7.046731464803743239e-02
-4.987493605771013000e-02
-2.962197690420645402e-02
-1.004272533384828470e-02
8.412961729007240042e-03
2.537339200622468899e-02
4.053002197285966030e-02
5.364235234469947461e-02
6.450078184315284624e-02
7.292884372929020476e-02
7.903799128811032915e-02
8.257980182778475176e-02
8.385121672634494872e-02
8.280502655791406597e-02
7.960728531572668076e-02
7.468962041306206889e-02
6.795389417343969396e-02
5.999897852926223268e-02
5.087844758357550068e-02
4.093796963695579133e-02
3.062969919838058608e-02
1.996997799230198004e-02
9.485452816464835096e-03
-7.655625297995768356e-04
-1.050197398288515820e-02
-1.949428885815354326e-02
-2.768583897870037155e-02
-3.488181485456062075e-02
-4.105620241507842300e-02
-4.612158362852795956e-02
-5.012068644237948484e-02
-5.297448246720688758e-02
-5.482711720564680674e-02
-5.564289502565513551e-02
-5.547944100929187022e-02
-5.453453389139491236e-02
-5.267640719261074134e-02
-5.021164587009179642e-02
-4.704957422543491058e-02
-4.326469635754778831e-02
-3.906846057666980843e-02
-3.427552165018343810e-02
-2.917167754852661998e-02
-2.364236600014643641e-02
-1.770669295591658157e-02
-1.153880755128526038e-02
-4.970124481218426461e-03
1.807796859785619839e-03
8.837871870830309520e-03
1.613511369290491701e-02
2.353597075629009286e-02
3.110411840172378276e-02
3.873174344362888266e-02
4.632522970155318609e-02
5.389031658538730868e-02
6.126025209543475847e-02
6.837350417556155302e-02
7.519487963966096922e-02
8.152653909227636220e-02
8.736752937097233551e-02
9.258587461104750282e-02
9.706180372658379518e-02
1.008375351220979627e-01
1.037128944118320129e-01
1.057129083107780504e-01
1.067824889675083599e-01
1.068412246130944487e-01
1.059764747670695895e-01
1.040898510116226861e-01
1.012375514716158525e-01
9.744469256885038289e-02
9.273746331017802824e-02
8.717852300860214065e-02
8.084278361882009378e-02
7.379390839395606749e-02
6.613462855094304205e-02
5.801062326755908327e-02
4.945094156133910540e-02
4.070693682656541940e-02
3.184117706896331945e-02
2.305093503955192580e-02
1.454171900612121274e-02
6.373729368537808630e-03
-1.133213143432445060e-03
-7.925757826437403175e-03
-1.374171851470430347e-02
-1.848079207830059453e-02
-2.199296204931860607e-02
-2.414060968236157734e-02
-2.492039543207917596e-02
-2.414582196504133638e-02
-2.203675234518903334e-02
-1.837898039079579465e-02
-1.349047627572734671e-02
-7.464226090423201065e-03
-3.663199780696662061e-04
7.176283694196733398e-03
1.536789050829108667e-02
2.339000291260650427e-02
3.109311729135803837e-02
3.814116440168539846e-02
4.370881612415968009e-02
4.798371258239254172e-02
4.999079987320521890e-02
4.968643645929827352e-02
4.671784451082103967e-02
4.051164889791656482e-02
3.133567316164549699e-02
1.864263418908225153e-02
2.658784466509188892e-03
-1.659638163218693854e-02
-3.905955273628057556e-02
-6.429425864325878648e-02
-9.199414480444198516e-02
-1.216976311082494239e-01
-1.527899382772391068e-01
-1.845849703609630521e-01
-2.165575928393868588e-01
-2.476256014764537661e-01
-2.774118942991417591e-01
-3.048709389185885188e-01
-3.291688337188519164e-01
-3.499741264719746225e-01
-3.660031591428212772e-01
-3.774004337003808440e-01
-3.831778160960562785e-01
-3.829740593399135751e-01
-3.769656459974298768e-01
-3.643539155181644840e-01
-3.460140380423264439e-01
-3.215128056809478663e-01
-2.912490849229525947e-01
-2.559992097985780979e-01
-2.157812244866464113e-01
-1.718927956928231471e-01
-1.246748673254565870e-01
-7.496820740771800717e-02
-2.390676920198513133e-02
2.793290395224111433e-02
7.942832526046469943e-02
1.297098199474845392e-01
1.781574809225130451e-01
2.236845507495865137e-01
2.657344000941803674e-01
3.038408234658523943e-01
3.370665631470747825e-01
3.655087703465892401e-01
3.884237959502965798e-01
4.057107061089660349e-01
4.176522557569224414e-01
4.236023998861382367e-01
4.243892766923693105e-01
4.197045207225477692e-01
4.099509254210499942e-01
3.958956101859622545e-01
3.773178522027883508e-01
3.553624527909256536e-01
3.301156530370423781e-01
3.021948343773301349e-01
2.724694049115911620e-01
2.410705566300945513e-01
2.089163325940369131e-01
1.763978987799235121e-01
1.439478389097850475e-01
1.122553238788379232e-01
8.160736467723604670e-02
5.232483803425364011e-02
2.498768943757400177e-02
-4.320740550802398047e-04
-2.353443888055981037e-02
-4.408302190370110701e-02
-6.240674204571584199e-02
-7.786996806986898334e-02
-9.097850622165001844e-02
-1.015852044730733150e-01
-1.096057928296579054e-01
-1.157860528070200068e-01
-1.195433054024176572e-01
-1.216327969442298207e-01
-1.220506364731324539e-01
-1.208212318012505671e-01
-1.187568268928402143e-01
-1.153864310253220476e-01
-1.113958440069574979e-01
-1.068255336167982933e-01
-1.016912217174706090e-01
-9.659504057248857745e-02
-9.119857531946805318e-02
-8.588992832605818473e-02
-8.070880291486770552e-02
-7.558064088807936454e-02
-7.078623451330615102e-02
-6.613171087470677556e-02
-6.166052731351891886e-02
-5.741192663185145512e-02
-5.324590108241264441e-02
-4.914762459447662851e-02
-4.510229199802143901e-02
-4.091698431326381419e-02
-3.665236058313067757e-02
-3.222355453343347942e-02
-2.742319569777436350e-02
-2.246515140184753012e-02
-1.709463990112373641e-02
-1.142476871967388133e-02
-5.568577468510465568e-03
7.668541382382259609e-04
7.103781237740897266e-03
1.362884128012248341e-02
2.015673787773872641e-02
2.632977481692855282e-02
3.245570241590665928e-02
3.785295246000471014e-02
4.262100444875777799e-02
4.653067408450142078e-02
4.910861457636547106e-02
5.063795725242324630e-02
5.045018892727368837e-02
4.862851241373061101e-02
4.500223371902692393e-02
3.924802627925103732e-02
3.161443257061251344e-02
2.177099748955419606e-02
9.876448654440109221e-03
-4.018315484610616127e-03
-1.983142043046623795e-02
-3.733003637216280451e-02
-5.624766278638167194e-02
-7.632651912744620182e-02
-9.717712731186178843e-02
-1.182698629387744227e-01
-1.393947514272056709e-01
-1.597277320527003830e-01
-1.790319648377319273e-01
-1.966702042956244567e-01
-2.119451483276637849e-01
-2.247677122442050535e-01
-2.341759143724456427e-01
-2.401749496626174596e-01
-2.422160443249410378e-01
-2.398948233833294308e-01
-2.333950554479336525e-01
-2.221977453676134140e-01
-2.066893742398974998e-01
-1.868083974331696817e-01
-1.627468284910462415e-01
-1.350319510311095150e-01
-1.039340607321396492e-01
-7.010447620462341434e-02
-3.414872316521266882e-02
3.262808672341396387e-03
4.137878476360163510e-02
7.929631212528555351e-02
1.164615082957187880e-01
1.518067749573884240e-01
1.846865088095604179e-01
2.144172387332281271e-01
2.400570168807396598e-01
2.615403891362478861e-01
2.778556662156738133e-01
2.889352845495492539e-01
2.944776086073313537e-01
2.941670707731801060e-01
2.885142434167946579e-01
2.771373992482780713e-01
2.607145625031105363e-01
2.394549168287987972e-01
2.139278610080825593e-01
1.849277338814656058e-01
1.529194002183578427e-01
1.189511344785724872e-01
8.359311120697034136e-02
4.796390419733789073e-02
1.266208374464840997e-02
-2.128545330370081382e-02
-5.312157282374698614e-02
-8.222797436720820363e-02
-1.076007043123695661e-01
-1.292099743261881928e-01
-1.460079650353938163e-01
-1.580255839678110508e-01
-1.648769133783793694e-01
-1.662192039971912005e-01
-1.626263412174014378e-01
-1.535123440188945754e-01
-1.397072221400195158e-01
-1.211904603705055150e-01
-9.840225437452966573e-02
-7.222043003558913099e-02
-4.272945322067404211e-02
-1.108754667248525692e-02
2.238656418137897897e-02
5.679050725206598316e-02
9.139234282644159713e-02
1.255481654727595708e-01
1.584395313275445416e-01
1.895456797383076875e-01
2.180266682876099149e-01
2.436512969744847046e-01
2.655262158232907788e-01
2.836382337493764116e-01
2.974265856577173461e-01
3.064998592344871930e-01
3.111990469604561382e-01
3.106950773908911390e-01
3.057694997928204206e-01
2.959555076410366192e-01
2.813595710588698839e-01
2.626955360647559856e-01
2.394186913429718899e-01
2.126786873159684510e-01
1.822570895917855482e-01
1.485500976035519505e-01
1.123833614322828911e-01
7.364199748279513791e-02
3.331373887685048357e-02
-8.363745653500261404e-03
-5.096760773845415704e-02
-9.370425187237332865e-02
-1.362030905794688884e-01
-1.779914813924649286e-01
-2.182421667109681329e-01
-2.567109196592510800e-01
-2.926873854197953317e-01
-3.254508433159633007e-01
-3.551464033498937245e-01
-3.805159058414875894e-01
-4.016462457009691289e-01
-4.180192052256238022e-01
-4.289607409303854979e-01
-4.350755906521130423e-01
-4.352621357547594161e-01
-4.299990324653925611e-01
-4.191729885242628795e-01
-4.025719190080655485e-01
-3.811099879582975913e-01
-3.543868008197750274e-01
-3.232056428342419685e-01
-2.880180280786112101e-01
-2.492090670586463164e-01
-2.077929771510853840e-01
-1.642242405014398277e-01
-1.193196319545551387e-01
-7.399596339723760186e-02
-2.893019124490027114e-02
1.509051595818647513e-02
5.710362145486234248e-02
9.675826085820053712e-02
1.330317816084601312e-01
1.655066869378073180e-01
1.939328593844016069e-01
2.174075437978012781e-01
2.363649953223191102e-01
2.500388462506450415e-01
2.586306712476382219e-01
2.624718745197616721e-01
2.610977258986865168e-01
2.555935360103916421e-01
2.455883347266710759e-01
2.318082202581384643e-01
2.148920241864955005e-01
1.948453603801675871e-01
1.728741042724403765e-01
1.489456279972446451e-01
1.238865976207376013e-01
9.826149478191884001e-02
7.236988255327320152e-02
4.695807658184002198e-02
2.224234521954767535e-02
-1.266788908612048693e-03
-2.330566623888752006e-02
-4.345606957226157835e-02
-6.170978669348616691e-02
-7.763172125695487480e-02
-9.117948267787412409e-02
-1.023662472550412594e-01
-1.107463552164143633e-01
-1.169227936308811638e-01
-1.202793750499433073e-01
-1.211250258328700757e-01
-1.196004136496566367e-01
-1.153064486403915373e-01
-1.091003066046504627e-01
-1.003481359197848505e-01
-8.950318149808859924e-02
-7.674801686110914456e-02
-6.185912072601802009e-02
-4.562038146936380628e-02
-2.766364775148709085e-02
-8.442373088016956115e-03
1.178362350159594361e-02
3.292678006978715793e-02
5.446454129846876185e-02
7.626428247639668867e-02
9.796292648201571085e-02
1.191901299869236736e-01
1.395752867762273530e-01
1.588971025447593610e-01
1.766076106697752612e-01
1.925345837127580839e-01
2.063037143029451681e-01
2.174905240242316906e-01
2.262062287275546646e-01
2.318336786258203275e-01
2.345104092994752809e-01
2.340671801752498560e-01
2.302975718394909277e-01
2.236583966468868312e-01
2.137982642549681733e-01
2.011674529105733078e-01
1.859224463059452048e-01
1.681588797669509028e-01
1.485362931807006348e-01
1.270651185295916807e-01
1.042800371039155766e-01
8.057911381148281926e-02
5.618653921499001253e-02
3.168296217588321972e-02
7.312033030431159229e-03
-1.663291149116674639e-02
-3.967664931921637689e-02
-6.170095840287052186e-02
-8.239636813816129945e-02
-1.014365086995885762e-01
-1.189186744628788345e-01
-1.343638327562277079e-01
-1.478460246478068285e-01
-1.592961467353708194e-01
-1.683895132303397935e-01
-1.755097837949358974e-01
-1.802008357899259339e-01
-1.826843442512441351e-01
-1.830087993327446094e-01
-1.809528817191478067e-01
-1.769874330056174783e-01
-1.707992372412499016e-01
-1.627024077360081922e-01
-1.528210760304163085e-01
-1.411774593384613752e-01
-1.281809420143917577e-01
-1.138395181539975237e-01
-9.850637117031346701e-02
-8.240542295657758698e-02
-6.584403094340808560e-02
-4.907312482992329250e-02
-3.246635800353338958e-02
-1.629813523948160300e-02
-8.603669609661384731e-04
1.341857749368846262e-02
2.652641948836788333e-02
3.790839100665748668e-02
4.753615977871259585e-02
5.517008736567807076e-02
6.054589508138776693e-02
6.392220937479331511e-02
6.486157004743685339e-02
6.367664855403117052e-02
6.029807419662841506e-02
5.482991049189706728e-02
4.768936102057108606e-02
3.878640317664325959e-02
2.866874416971433581e-02
1.744448810146350531e-02
5.518555523633214555e-03
-6.696738571304131429e-03
-1.900709880948629402e-02
-3.088461912174730872e-02
-4.215560665471962398e-02
-5.239386139012615351e-02
-6.135922310039144262e-02
-6.881497982633411059e-02
-7.450650116747919993e-02
-7.833697330364289280e-02
-8.014666347419727166e-02
-7.993883731471879139e-02
-7.767387790811237924e-02
-7.346007412777291745e-02
-6.736556849446201367e-02
-5.960302212621270551e-02
-5.036562835015778727e-02
-3.989573326995022456e-02
-2.854029454575639918e-02
-1.652065877371884303e-02
-4.277735683362514536e-03
7.945188651008974756e-03
1.975031637213378599e-02
3.080991400288310422e-02
4.086281027647423875e-02
4.954280600105625404e-02
5.670633607305345519e-02
6.206132126640984820e-02
6.552489102196820681e-02
6.695601355462725557e-02
6.632502966186439031e-02
6.366560051059429182e-02
5.901643671979443784e-02
5.258050473054081547e-02
4.444710792796990884e-02
3.496160141615230199e-02
2.428616911172425119e-02
1.282015452011285757e-02
8.653579754785015524e-04
-1.127892649092245535e-02
-2.311406681436474833e-02
-3.450332479198424396e-02
-4.487614599976861435e-02
-5.412368912473162347e-02
-6.187116447219714183e-02
-6.778773651615191409e-02
-7.190619543769866118e-02
-7.375189616657813751e-02
-7.358052170089310340e-02
-7.109092853664251976e-02
-6.630348687527040652e-02
-5.944263855938405200e-02
-5.030091674862635642e-02
-3.941302916851115862e-02
-2.664620678129933640e-02
-1.230884620423057692e-02
3.275252211265301024e-03
2.002500141001116452e-02
3.740976343864432091e-02
5.533134556536918602e-02
7.341992677521859412e-02
9.135913587510305356e-02
1.088702069001983574e-01
1.256722714700734822e-01
1.414405963115406561e-01
1.559594265935096147e-01
1.689846604529571250e-01
1.801812766198721549e-01
1.896025145766125075e-01
1.968030551975472053e-01
2.018261748019637147e-01
2.045477646305385866e-01
2.047111005310164045e-01
2.026672041446762329e-01
1.980151001374057251e-01
1.910401162501602634e-01
1.817898828807217870e-01
1.701624425702554511e-01
1.566980402815952855e-01
1.411855723142851071e-01
1.240283346854171298e-01
1.054704818271327144e-01
8.554175611369843613e-02
6.482102262125828684e-02
4.333044415943855532e-02
2.140197801638265424e-02
-5.642962899354965565e-04
-2.251631026487426607e-02
-4.399014272826770600e-02
-6.479409815543932250e-02
-8.483292921248911100e-02
-1.036347105309939898e-01
-1.212339760063026739e-01
-1.373698461339952770e-01
-1.517804108009211950e-01
-1.646527496867555562e-01
-1.755235854833993858e-01
-1.845460436644228985e-01
-1.916579225697858102e-01
-1.966145705077304850e-01
-1.997999129832281062e-01
-2.008375253822742013e-01
-1.999583661604309726e-01
-1.972473431983742531e-01
-1.925524864067305053e-01
-1.863033872229962751e-01
-1.783022314930064744e-01
-1.687866079103098882e-01
-1.579442221276048386e-01
-1.457706512032516388e-01
-1.326025007559682167e-01
-1.185019563944123139e-01
-1.036440002616224598e-01
-8.829944569325456905e-02
-7.261245284710887704e-02
-5.675063854030452243e-02
-4.104601008562577119e-02
-2.555271500399090845e-02
-1.060268678954100902e-02
3.595218301436856230e-03
1.705299320940784069e-02
2.928022375105415742e-02
4.039172614096991215e-02
5.005660978777941306e-02
5.816450029261293481e-02
6.484789123549339340e-02
6.970054435442206431e-02
7.301885422778475743e-02
7.457366330546286171e-02
7.449019926373963429e-02
7.297734589354813728e-02
6.990310655994105837e-02
6.569815290578666367e-02
6.030249709907839484e-02
5.407405599204616331e-02
4.722737719637744302e-02
3.991519954404047082e-02
3.255098480752232487e-02
2.520168854732855387e-02
1.828155742504449996e-02
1.189766784224229740e-02
6.320616391881578658e-03
1.753760157850468631e-03
-1.727277974135971910e-03
-3.878686038413358544e-03
-4.779418584307384282e-03
-4.243220922495610087e-03
-2.368601131723069644e-03
8.397423341310809690e-04
5.346268538514022811e-03
1.092136282087956961e-02
1.756905810630380455e-02
2.497988988775646721e-02
3.306938558413565626e-02
4.159740868917809892e-02
5.032340789101866219e-02
5.910567153945794211e-02
6.764147738852253899e-02
7.582591831655000059e-02
8.339391798941860057e-02
9.023815317619433840e-02
9.616649296515712708e-02
1.010736208239973039e-01
1.048786178557530729e-01
1.074317548217690599e-01
1.088074682917663794e-01
1.088305380946421735e-01
1.076357311060471139e-01
1.051689595627502555e-01
1.014167767657525171e-01
9.658193859050084873e-02
9.052839019780023477e-02
8.353136028877400365e-02
7.556597859124408734e-02
6.668887174561370645e-02
5.715116630177427548e-02
4.687140290225011441e-02
3.612070726521495606e-02
2.494642681715282528e-02
1.339998450789189888e-02
1.736067836788699522e-03
-1.004521659532236696e-02
-2.178619718241690470e-02
-3.331084676095086988e-02
-4.462168716016365333e-02
-5.548084997181534223e-02
-6.580069585181443081e-02
-7.558653875331705629e-02
-8.453322782104454036e-02
-9.271999845029105236e-02
-9.995242631363625285e-02
-1.060971368511867546e-01
-1.112978554944736853e-01
-1.152103927593941951e-01
-1.179812056226943462e-01
-1.194940053236560468e-01
-1.196335708425212696e-01
-1.186271390576508905e-01
-1.162086791062925673e-01
-1.125619377689736911e-01
-1.076811412037046167e-01
-1.015271663914908695e-01
-9.434596379831471091e-02
-8.604856903410387781e-02
-7.680978599531036732e-02
-6.675342155839351921e-02
-5.594042602223527061e-02
-4.457818277842781618e-02
-3.279719172814160588e-02
-2.070770244255958070e-02
-8.557336767368830394e-03
3.520464767782251030e-03
1.539747160307479261e-02
2.676271642717680671e-02
3.762518678389070031e-02
4.766007871745381319e-02
5.673919813932652018e-02
6.484052839410131552e-02
7.159103033673336336e-02
7.715466747272856085e-02
8.121942262514295074e-02
8.375541901487737473e-02
8.485754047043633785e-02
8.424198292874009175e-02
8.221342774666022535e-02
7.857628857822383794e-02
7.344900330275540290e-02
6.702197407924861960e-02
5.921332151461106141e-02
5.037949945286632203e-02
4.051061814211354833e-02
2.983550935053592632e-02
1.857424639406253172e-02
6.865827344108753338e-03
-5.032476000310192113e-03
-1.694164348139503770e-02
-2.863722464172999832e-02
-3.995624017490557317e-02
-5.060845705983480630e-02
-6.057200864811781993e-02
-6.952731156743643948e-02
-7.736875315539910869e-02
-8.404135132683265841e-02
-8.921008072641420372e-02
-9.311750227310403027e-02
-9.538279666974100457e-02
-9.606324277377011056e-02
-9.520741103144131356e-02
-9.254601375791333961e-02
-8.848729608152756942e-02
-8.270940800247676694e-02
-7.539863624266440745e-02
-6.668403702636210850e-02
-5.647262975060534512e-02
-4.514741877086118210e-02
-3.262453757922712666e-02
-1.913211272191808407e-02
-4.874722032709368803e-03
1.001347362520789430e-02
2.528618587519889174e-02
4.070774917651285435e-02
5.608890598374358799e-02
7.115173754205518508e-02
8.558374587062245187e-02
9.930857840406256964e-02
1.118453486042712691e-01
1.231213172488024865e-01
1.328393790013130960e-01
1.406722135661096773e-01
1.467074494825926223e-01
1.504522313400718792e-01
1.520138415099371865e-01
1.512016574425971704e-01
1.478842334233475275e-01
1.422903107625036745e-01
1.342004617405759548e-01
1.239022150965466557e-01
1.114480945033998749e-01
9.702373540258218965e-02
8.094024230615678994e-02
6.341387805839428238e-02
4.479504145286212352e-02
2.542073025985110146e-02
5.712887175427635786e-03
-1.404989521970815940e-02
-3.329607510404639092e-02
-5.182354339558299661e-02
-6.911624165577620604e-02
-8.476996932218476555e-02
-9.866380155481067893e-02
-1.101530175096647607e-01
-1.193550500082175697e-01
-1.257768106481628456e-01
-1.292937612287869131e-01
-1.299980686586204304e-01
-1.274967824035297681e-01
-1.222235659160703647e-01
-1.139187892375065625e-01
-1.028404627066073634e-01
-8.925292491545006035e-02
-7.322001647201627217e-02
-5.529440227525839885e-02
-3.559180834147673139e-02
-1.463508913649074102e-02
7.240685881465182272e-03
2.952691587605881310e-02
5.183832152953701117e-02
7.367592808508294233e-02
9.452668003929040608e-02
1.141009573468545757e-01
1.316780219401387786e-01
1.472635734304598154e-01
1.601451552096503361e-01
1.701092986763735326e-01
1.770239129994181926e-01
1.803179678771180683e-01
1.804185569503241604e-01
1.767330517958212999e-01
1.694892607966533571e-01
1.588008699098148180e-01
1.445475786222863990e-01
1.273973183916150276e-01
1.072126281866003505e-01
8.455971947651963472e-02
5.981674907465225899e-02
3.333903164995198620e-02
5.810161123161892462e-03
-2.240536035670216350e-02
-5.068868354562240663e-02
-7.849133401786383135e-02
-1.052578198885661537e-01
-1.305079520627376588e-01
-1.536364230970064249e-01
-1.743128415013872889e-01
-1.920238618889219262e-01
-2.064328934897319279e-01
-2.174108990376852069e-01
-2.245274429239986769e-01
-2.279503178239391525e-01
-2.274328732511004814e-01
-2.231444651982221195e-01
-2.153298041778305416e-01
-2.040234894976758473e-01
-1.898306693592230476e-01
-1.728867002773040451e-01
-1.538045055398704064e-01
-1.330758114181269658e-01
-1.111492574601568722e-01
-8.874289500876052228e-02
-6.627191511787144940e-02
-4.438816653329659412e-02
-2.359081887339615699e-02
-4.367726924408251929e-03
1.286269982493716546e-02
2.768478711507675605e-02
3.989352691628419295e-02
4.921504000502342768e-02
5.554941974508189467e-02
5.901149235809211024e-02
5.944705220070712476e-02
5.730647340224383907e-02
5.261121611259947373e-02
4.579276246252601129e-02
3.737559854320438024e-02
2.750851551502131107e-02
1.705032809168350802e-02
6.164899241252615701e-03
-4.449059191053782170e-03
-1.426524503938725492e-02
-2.304020385016595368e-02
-3.004273812076415501e-02
-3.522514352913942021e-02
-3.809039385480467860e-02
-3.849784010711391341e-02
-3.638515182422496358e-02
-3.157016321649695062e-02
-2.426540330859672939e-02
-1.448044561605022103e-02
-2.523615653990426803e-03
1.137127721507977425e-02
2.683961405498250588e-02
4.349487962026325066e-02
6.089120799825294139e-02
7.856394725461776640e-02
9.608662873457557430e-02
1.129265758708197509e-01
1.287430955257028442e-01
1.430070157433961930e-01
1.554538447561624737e-01
1.657021395752935611e-01
1.734703017313994622e-01
1.786365161848573191e-01
1.809370317054750099e-01
1.804697163134374727e-01
1.770975802185754677e-01
1.709593170689842900e-01
1.621933169731934188e-01
1.509235258103175936e-01
1.375293260168977405e-01
1.221755766158023754e-01
1.052830698678480642e-01
8.718782242579664610e-02
6.825806209127524560e-02
4.894269484815896853e-02
2.960282865882109607e-02
1.062908137897151245e-02
-7.569060832435154512e-03
-2.467839025453783669e-02
-4.039179203711750626e-02
-5.436839570320575049e-02
-6.652949135554478421e-02
-7.653699865541517544e-02
-8.439046671039394931e-02
-9.003555197536047827e-02
-9.334303766998307272e-02
-9.462303017209226785e-02
-9.370318126682325444e-02
-9.093367920022933648e-02
-8.647660397327505688e-02
-8.044163599713310964e-02
-7.335942759106661715e-02
-6.520901718733231045e-02
-5.648220688596708450e-02
-4.741329296681218858e-02
-3.819461530159469487e-02
-2.929350514154998794e-02
-2.073888202499866301e-02
-1.286552533077894682e-02
-5.842356548159898487e-03
2.651468737510768742e-04
5.242708947112236298e-03
9.109176825353235488e-03
1.185600162743156299e-02
1.341643808842806450e-02
1.395517498257589986e-02
1.349862515011553306e-02
1.214669169498638381e-02
1.016763683874909174e-02
7.552788432828134828e-03
4.640771863885248191e-03
1.559390520099739009e-03
-1.542617341340140431e-03
-4.312442262045361636e-03
-6.755156698848923183e-03
-8.536233357559446303e-03
-9.552483980525544940e-03
-9.707824608784092896e-03
-8.767572577549249263e-03
-6.773969538278242636e-03
-3.612889264128602007e-03
7.599544747474043342e-04
6.237598596131989706e-03
1.283477241803337478e-02
2.044140669678667574e-02
2.881952315991238509e-02
3.799540431386803224e-02
4.756337270050975397e-02
5.736276930776666033e-02
6.721283327054020096e-02
7.657674613931042540e-02
8.553824240977228599e-02
9.346159256916225511e-02
1.001758355470683398e-01
1.054936867488400348e-01
1.088223959182255951e-01
1.103801161764829675e-01
1.095501944626219998e-01
1.063441220363860323e-01
1.007025896396511744e-01
9.228184381001622305e-02
8.147846527633831326e-02
6.799377206208596924e-02
5.211545126050788623e-02
3.404156142661250023e-02
1.384377774080012072e-02
-7.938506160467475800e-03
-3.114480373059833745e-02
-5.530875561101925020e-02
-7.996941973729811137e-02
-1.047494959156364258e-01
-1.291120251641046379e-01
-1.525796504044552859e-01
-1.747715136768664690e-01
-1.951335593258751167e-01
-2.133114393891659966e-01
-2.289753010981415704e-01
-2.416697890727176612e-01
-2.513636912323269357e-01
-2.576634078942293127e-01
-2.605454647912273103e-01
-2.600312295807152285e-01
-2.559776276334675416e-01
-2.487771407413524316e-01
-2.383681255377681218e-01
-2.251103685133722387e-01
-2.093671590207111521e-01
-1.913357307516004024e-01
-1.716560716364922135e-01
-1.505705978761331110e-01
-1.285701364571553984e-01
-1.062033525279766216e-01
-8.375024227218783035e-02
-6.179728542762542159e-02
-4.068099578137028549e-02
-2.065078092737074322e-02
-2.241945275417923239e-03
1.453699736023674957e-02
2.936005685876364596e-02
4.205478006620226583e-02
5.283276570217993601e-02
6.130146629283736437e-02
6.792385535474743108e-02
7.262243401281284760e-02
7.554274249599990387e-02
7.727498989898355652e-02
7.758644946350477800e-02
7.730869275376521521e-02
7.644391940893563442e-02
7.539136093015562368e-02
7.479954325844878626e-02
7.451658850803836998e-02
7.537962288793256804e-02
7.729122681506138404e-02
8.063697888950839554e-02
8.577731021810966472e-02
9.252240498550481917e-02
1.013061041493723280e-01
1.118663607932311177e-01
1.242665723668081590e-01
1.384296669294288185e-01
1.540493566039793649e-01
1.709576685470320656e-01
1.888239736525134105e-01
2.072480760516439147e-01
2.258580409211919937e-01
2.442591516570531140e-01
2.618203264199466251e-01
2.783447610447095100e-01
2.931000894755720343e-01
3.057533451237458011e-01
3.159584628973712839e-01
3.229981783493185432e-01
3.270018405395929695e-01
3.272309352271123850e-01
3.236988833728965953e-01
3.162950486830116148e-01
3.045892075167711543e-01
2.891279142423685555e-01
2.694929618460649157e-01
2.461445296973265862e-01
2.193524383193266314e-01
1.891170125953189618e-01
1.563413181568211185e-01
1.210511905957502715e-01
8.396739855305139499e-02
4.572890026931272778e-02
6.577850461843959447e-03
-3.246550756843538665e-02
-7.110165649644845098e-02
-1.087608470490470103e-01
-1.446391818476011337e-01
-1.786507478137101534e-01
-2.099907625015131896e-01
-2.384008493610354218e-01
-2.638503615173025674e-01
-2.856135708143010543e-01
-3.040404020723999068e-01
-3.187514651597597726e-01
-3.296906692697396668e-01
-3.374442717143690817e-01
-3.414476078583546514e-01
-3.424033425882484494e-01
-3.403169239397254020e-01
-3.352266129853403442e-01
-3.280453453623336513e-01
-3.183191533716298038e-01
-3.067409319332230488e-01
-2.935191291672257230e-01
-2.785900736994373350e-01
-2.627467157804510567e-01
-2.456610146597886513e-01
-2.276658299560598286e-01
-2.090470912998782793e-01
-1.895602433726363278e-01
-1.696538040676890402e-01
-1.492102612198642764e-01
-1.281275300858128463e-01
-1.067914943672931827e-01
-8.491777317741171227e-02
-6.264438554418548522e-02
-4.022954341956657548e-02
-1.731388743080033293e-02
5.516275987158070736e-03
2.835879052534918954e-02
5.121283724704443069e-02
7.337423172161168516e-02
9.523697080135988535e-02
1.160081256066057970e-01
1.355294999838967673e-01
1.538320907016792194e-01
1.699551995891016021e-01
1.842668208107804129e-01
1.959654713003908810e-01
2.048339178450006848e-01
2.109860751406889834e-01
2.136211475005967420e-01
2.131756370366108266e-01
2.091586821310127964e-01
2.016019423383566267e-01
1.907988661445190748e-01
1.765059271567721022e-01
1.592743888160433885e-01
1.391488846158094039e-01
1.165410056077001710e-01
9.189319306203923288e-02
6.563156356976602990e-02
3.825381039330672667e-02
1.031924894006098353e-02
-1.757002029339272547e-02
-4.500934225862583682e-02
-7.113623695284618242e-02
-9.581285378097142980e-02
-1.181953273212321270e-01
-1.378623677436587036e-01
-1.546465886085269803e-01
-1.676648009412967377e-01
-1.773312969805660999e-01
-1.828248396289570421e-01
-1.841859575129454751e-01
-1.815575009063042089e-01
-1.744163165989726927e-01
-1.636238077661127666e-01
-1.486704714499700875e-01
-1.300664414007765834e-01
-1.081988726431592496e-01
-8.310305165199130539e-02
-5.571465429970502703e-02
-2.605196430100273353e-02
5.163836961460890711e-03
3.742663982185490124e-02
7.018025394534221917e-02
1.028462186642391252e-01
1.348087785600288746e-01
1.655057750856100685e-01
1.944352588547371141e-01
2.208057522189416089e-01
2.445708060286722330e-01
2.647755463530164777e-01
2.812824564830121443e-01
2.937228117085036172e-01
3.014702673450176396e-01
3.049561690296238581e-01
3.033491584978453282e-01
2.970115484288753938e-01
2.858650667276936841e-01
2.697765865917644001e-01
2.494859678218961652e-01
2.247246228995776196e-01
1.962238161773743883e-01
1.643333003423496641e-01
1.294831500048230222e-01
9.251643977714314737e-02
5.387883039294328463e-02
1.435271679741708696e-02
-2.530702663510022918e-02
-6.439388468180669289e-02
-1.022077726857571478e-01
-1.378679699363901112e-01
-1.709642030673616808e-01
-2.006082163264776841e-01
-2.263354674581442572e-01
-2.478502906989479559e-01
-2.643860478348652454e-01
-2.762212683422318737e-01
-2.827230914064863820e-01
-2.840659834743664014e-01
-2.804892037713727082e-01
-2.717659984916184213e-01
-2.588201726277412629e-01
-2.415071070427798894e-01
-2.205908386772517937e-01
-1.967005930504184541e-01
-1.701543772688491052e-01
-1.420566333143068183e-01
-1.126797984427997668e-01
-8.288542821823335904e-02
-5.332664703592705085e-02
-2.451219071013794465e-02
2.893249175202567813e-03
2.844702580185164489e-02
5.175392257175183419e-02
7.245756733239133718e-02
9.022105914192767029e-02
1.051672684775120381e-01
1.168508290475773065e-01
1.255492533548192569e-01
1.312451505260224249e-01
1.338568514335472526e-01
1.341438566320046488e-01
1.316571339082807657e-01
1.270907964347639252e-01
1.205746203279270679e-01
1.121334813553950538e-01
1.026780684130260690e-01
9.175751318206855356e-02
8.004209933019380829e-02
6.763780560840548794e-02
5.456207416912372404e-02
4.141294185961506835e-02
2.791463911348442475e-02
1.441852939065586293e-02
1.003831592163788875e-03
-1.230401148333914313e-02
-2.532997159201901341e-02
-3.802246817754584979e-02
-5.036054181685994946e-02
-6.220249986775300971e-02
-7.341544903467643601e-02
-8.414023079848166609e-02
-9.394655784335448345e-02
-1.030057021548678869e-01
-1.110667916980176556e-01
-1.178425508934691363e-01
-1.236288555028951103e-01
-1.277454087478926414e-01
-1.304311383636727051e-01
-1.314002351945216251e-01
-1.303088435253793309e-01
-1.275185333478810190e-01
-1.223891085300442688e-01
-1.152015207374546268e-01
-1.058131947588580452e-01
-9.402815995380908731e-02
-8.026488428767412919e-02
-6.423924905369603200e-02
-4.628816025497526493e-02
-2.657959115966450694e-02
-5.212444484362669002e-03
1.735497634336734957e-02
4.089880167939601019e-02
6.509318496188967740e-02
8.943478928997913857e-02
1.135878646359865934e-01
1.371552885568237679e-01
1.595224912986858978e-01
1.805555958057371013e-01
1.995748164445707573e-01
2.162561059231240534e-01
2.304242709274610945e-01
2.413886761077485843e-01
2.493908492512059427e-01
2.538327588372722987e-01
2.546619156386618621e-01
2.520398487328889270e-01
2.455156826576125328e-01
2.357263346703755147e-01
2.223755851406402917e-01
2.057537656446067897e-01
1.863357004340773504e-01
1.640510424222142716e-01
1.397080499146387822e-01
1.133991163411667419e-01
8.557065488538606601e-02
5.684539313724533416e-02
2.745486951281186222e-02
-2.000121648847761648e-03
-3.108314239086189951e-02
-5.951053951069737447e-02
-8.671368076100220701e-02
-1.123548000917790751e-01
-1.363225082358524853e-01
-1.579583778856509524e-01
-1.773533648234978388e-01
-1.941055242555582983e-01
-2.079482448656308213e-01
-2.192279162175979346e-01
-2.272549164544495626e-01
-2.324564724934574111e-01
-2.346079724694623836e-01
-2.336006027617876513e-01
-2.299981557321902348e-01
-2.232833788308899725e-01
-2.140166184677074201e-01
-2.021519922479372566e-01
-1.877715480302521445e-01
-1.714021266508088392e-01
-1.529016578759519185e-01
-1.327513026270420171e-01
-1.111385944408667253e-01
-8.833872007517749869e-02
-6.471509601895536479e-02
-4.061057702788353069e-02
-1.629375254542706625e-02
7.771516285627089703e-03
3.119452585641285802e-02
5.378624144541680613e-02
7.483137501893961929e-02
9.434069779637711817e-02
1.116675118208443063e-01
1.265031573105802609e-01
1.388240424566044851e-01
1.478954414783791582e-01
1.540341946061212219e-01
1.566732425284170782e-01
1.558319918382393698e-01
1.516726929821862746e-01
1.438657125001433779e-01
1.329882942454106431e-01
1.188520886181155950e-01
1.019161030005498042e-01
8.252081394111399071e-02
6.095646563728638473e-02
3.787216384454453189e-02
1.357576491516237008e-02
-1.121075720233077021e-02
-3.608527518240009502e-02
-6.030468083144905483e-02
-8.345491101041921378e-02
-1.048978965030023941e-01
-1.240497995178408558e-01
-1.406439482805453001e-01
-1.539306832491367238e-01
-1.639855759366874444e-01
-1.701915175935449220e-01
-1.724683043662194326e-01
-1.708467807224696711e-01
-1.650069633737406005e-01
-1.555328900364910116e-01
-1.421594178747629111e-01
-1.253807549890365580e-01
-1.055464513329440884e-01
-8.291607040821730168e-02
-5.830640479593197228e-02
-3.192946369040120663e-02
-4.552509111719585562e-03
2.330246909955720550e-02
5.102221785563988005e-02
7.798172202724358570e-02
1.036372940335272691e-01
1.274345897148038698e-01
1.489096952554829767e-01
1.675445329563738928e-01
1.831695492205144271e-01
1.952701003964772974e-01
2.038357197789895658e-01
2.086464247964769370e-01
2.096249579612754210e-01
2.070703837819023452e-01
2.007923291500023910e-01
1.913113787229121510e-01
1.787102031328865470e-01
1.633836147964273788e-01
1.458814775780701289e-01
1.264094013310592401e-01
1.056857851545552757e-01
8.402093662958975973e-02
6.200494010461082145e-02
4.012780820154061845e-02
1.882709080883751204e-02
-1.422692660466515603e-03
-2.024188273841655977e-02
-3.723448352943131701e-02
-5.220329588312777602e-02
-6.474931771594093222e-02
-7.491656020395170978e-02
-8.240277030455184226e-02
-8.724242696182921142e-02
-8.955745066319195646e-02
-8.917695831441249665e-02
-8.659850054560726262e-02
-8.165689025805270007e-02
-7.475913372845351124e-02
-6.617848053110551854e-02
-5.599711542615893461e-02
-4.483448384207672915e-02
-3.265971664774419692e-02
-1.999303242191030616e-02
-7.053489626423185485e-03
5.902590452844363664e-03
1.848514934746081292e-02
3.059054730518163609e-02
4.184090777484516382e-02
5.217051079617637810e-02
6.124464397475669342e-02
6.906829679558372515e-02
7.539953277415797905e-02
8.011938040095271940e-02
8.329487610534754005e-02
8.459941180249096193e-02
8.437794633549898504e-02
8.230528999600823792e-02
7.849921038397461581e-02
7.310781239863796410e-02
6.590587413607651435e-02
5.740279096866635761e-02
4.733413701215480329e-02
3.596186377682885488e-02
2.349800314868422460e-02
9.905506212362238591e-03
-4.348178429349337619e-03
-1.929329175774091229e-02
-3.464910759744928292e-02
-5.014702596295071702e-02
-6.563547223914162343e-02
-8.082203926634970448e-02
-9.547194550290372117e-02
-1.094063155042043906e-01
-1.223480197256965885e-01
-1.340634638278912494e-01
-1.444909320511819639e-01
-1.532656395239128111e-01
-1.603957129170271168e-01
-1.656841655020295789e-01
-1.689619264914610230e-01
-1.703928176552814977e-01
-1.696728376818274209e-01
-1.670040186352688139e-01
-1.623468086268517185e-01
-1.556859202302831036e-01
-1.473363132106782769e-01
-1.371910722865038457e-01
-1.255531414041393123e-01
-1.125674378333837017e-01
-9.835632717580146400e-02
-8.327238913708899515e-02
-6.743828623950853807e-02
-5.110877695186166747e-02
-3.459009162262965259e-02
-1.804330893738392491e-02
-1.754846168686718033e-03
1.399097712910100932e-02
2.912191688705880951e-02
4.323840475062801919e-02
5.626635842417183897e-02
6.804890973685834288e-02
7.827583139221783171e-02
8.711248948058340769e-02
9.416948212856067479e-02
9.954608925228755623e-02
1.032221622483388696e-01
1.050104112098038250e-01
1.052493685246565086e-01
1.036740537944384200e-01
1.005535849729437964e-01
9.595302526822892253e-02
8.991080405450338486e-02
8.276330122213299001e-02
7.446221242682626862e-02
6.534880552854914482e-02
5.549225807412107303e-02
4.518176332199833056e-02
3.455070211586275253e-02
2.382263001620803233e-02
1.328169458885644985e-02
2.956130800317471538e-03
-6.661450341523260377e-03
-1.573946482492157017e-02
-2.378581621163812151e-02
-3.066285458976299866e-02
-3.636940462346644615e-02
-4.034102616846219069e-02
-4.298970863372772455e-02
-4.368973873100452654e-02
-4.249065254630027960e-02
-3.941161616521398486e-02
-3.406408224063977447e-02
-2.689529394050367214e-02
-1.749465708738616107e-02
-6.088283311818661926e-03
7.225769835919511504e-03
2.242143632204287446e-02
3.914608500920179618e-02
5.730322564132397933e-02
7.653106691371491799e-02
9.657657723506414549e-02
1.169220249154912239e-01
1.373895419220094449e-01
1.573153144176450136e-01
1.763411106728921540e-01
1.940877115396592578e-01
2.097509380727015371e-01
2.234065740455842275e-01
2.341022901323892014e-01
2.417103132938172305e-01
2.459170870876727921e-01
2.460472103054848203e-01
2.425046648095856849e-01
2.345366186349885362e-01
2.224214630837043072e-01
2.061681879768426651e-01
1.855912912504902867e-01
1.614074657272091262e-01
1.334571486624877013e-01
1.023692227493208373e-01
6.860966759451539443e-02
3.252213671383994559e-02
-5.044750376421974075e-03
-4.361326119053084843e-02
-8.253547794256460568e-02
-1.209902268300541012e-01
-1.584304242021950249e-01
-1.941691040270313029e-01
-2.274057685458130695e-01
-2.578942460039875262e-01
-2.847385321862896390e-01
-3.076433767158793797e-01
-3.263248514753044893e-01
-3.401074904627371387e-01
-3.493696852141681686e-01
-3.534461160858411999e-01
-3.525589275633072561e-01
-3.468895174668500947e-01
-3.362004050971105218e-01
-3.213645114045720619e-01
-3.021515944788563113e-01
-2.792094859210583202e-01
-2.530695703776771888e-01
-2.239627369017511971e-01
-1.928545023599425312e-01
-1.599945498875571803e-01
-1.260815791922203222e-01
-9.179618800861079342e-02
-5.760983039879759293e-02
-2.414741873707964420e-02
7.981290880441834282e-03
3.844744316655888949e-02
6.661597411367514709e-02
9.212108917480762993e-02
1.148931149326094386e-01
1.342314689743278888e-01
1.503964454562286002e-01
1.629384934686561315e-01
1.718765441782130476e-01
1.775862225697376062e-01
1.796030687553778760e-01
1.786679536236243648e-01
1.745734145967456075e-01
1.677578498981140143e-01
1.587617287407966093e-01
1.475133166483584835e-01
1.348838628256026073e-01
1.208763936414527090e-01
1.061347314605278341e-01
9.106662191147069096e-02
7.592903444252208089e-02
6.132802347386378389e-02
4.738965619670909568e-02
3.464597752489972926e-02
2.320143274871865058e-02
1.343495552805871324e-02
5.458265527515862060e-03
-5.735099932250443521e-04
-4.470381943780850180e-03
-6.416011179381840221e-03
-6.127789162987043806e-03
-3.951240624777732982e-03
2.253879346791327724e-04
6.212799977010102781e-03
1.369222787755204444e-02
2.271328077800631798e-02
3.272421173090397928e-02
4.374678255156354972e-02
5.535138521253024635e-02
6.727930523946375196e-02
7.932432674828643338e-02
9.105365211051767715e-02
1.023835564399584869e-01
1.128617356258952015e-01
1.224404137112593549e-01
1.307254860411914688e-01
1.376432225290074585e-01
1.430170244062818341e-01
1.465427396325767184e-01
1.484255624552603681e-01
1.481885781122382062e-01
1.461544750499646772e-01
1.420912589766677725e-01
1.358893502294724331e-01
1.279306988745608220e-01
1.177717437206651785e-01
1.059575810273815644e-01
9.228876539682726032e-02
7.679154634909340915e-02
5.989936452505491282e-02
4.134090235758511311e-02
2.161108453771913226e-02
7.094914498296340730e-04
-2.128272967561087997e-02
-4.395110637441648760e-02
-6.724620347728059444e-02
-9.092784213399666970e-02
-1.146056927719099200e-01
-1.381883816572263557e-01
-1.612624415614677398e-01
-1.834158658818125232e-01
-2.046634097911890215e-01
-2.242269961806652723e-01
-2.420288969878665875e-01
-2.576497548277436600e-01
-2.705066188660825710e-01
-2.807486628276770202e-01
-2.875433780921303195e-01
-2.909042310585278068e-01
-2.905435228280478510e-01
-2.861035947251700517e-01
-2.778267914106994918e-01
-2.653456720284476655e-01
-2.489020400424040713e-01
-2.286054211217682375e-01
-2.046769234601672482e-01
-1.775209697437224454e-01
-1.475782880880315284e-01
-1.153600543013878071e-01
-8.152501571303547023e-02
-4.683106767896671324e-02
-1.185571630185433198e-02
2.235780539962857125e-02
5.525926958312953052e-02
8.586974089173615710e-02
1.134515202354847152e-01
1.374692992864636754e-01
1.570165504915980448e-01
1.719501558611273573e-01
1.815388235565351949e-01
1.857867105488060777e-01
1.845548025979750761e-01
1.778206349972568934e-01
1.661614600617811743e-01
1.495747615695686428e-01
1.290719776932145457e-01
1.050637836395985625e-01
7.851284963353988289e-02
5.051455111998319480e-02
2.172144113604129734e-02
-6.397546132449787731e-03
-3.320192526153024210e-02
-5.746891177422174674e-02
-7.831949834501593377e-02
-9.509215396889024452e-02
-1.069026790157919377e-01
-1.135101780074399686e-01
-1.144102157216571880e-01
-1.096895375808796813e-01
-9.932079769675164482e-02
-8.367868101936053182e-02
-6.328655679910617782e-02
-3.868813114796637587e-02
-1.101231553614738859e-02
1.916255521246436333e-02
5.055419730439644072e-02
8.220473217848417447e-02
1.131971504192161582e-01
1.421240439034401892e-01
1.685131550604043460e-01
1.912904956502215204e-01
2.098245334654373628e-01
2.238484813630248205e-01
2.326677499879392375e-01
2.365388958914631801e-01
2.354775064981552701e-01
2.296373858175299876e-01
2.197570553050118558e-01
2.062245365131384622e-01
1.898827144201378214e-01
1.717178152867452068e-01
1.524062591698456814e-01
1.330151273910702980e-01
1.145098729645578350e-01
9.749540591688730939e-02
8.296688058902890184e-02
7.140967969916464653e-02
6.310322633323664498e-02
5.876933671293273209e-02
5.799205858051352525e-02
6.089174341091489057e-02
6.729690355778601696e-02
7.618210891065242685e-02
8.766710921773331056e-02
1.003427534939982518e-01
1.134582330481354734e-01
1.264259492726604317e-01
1.375113171077437801e-01
1.466038490652075976e-01
1.522008223592087317e-01
1.535105561106809013e-01
1.502545795997941303e-01
1.412043728891100580e-01
1.266517315737592797e-01
1.060613863239806831e-01
7.941642057232059515e-02
4.729029700612574078e-02
9.754908251818975029e-03
-3.229627245592063545e-02
-7.805656413465171528e-02
-1.267581769659289481e-01
-1.770873344949931705e-01
-2.279396599866255202e-01
-2.782697425529926383e-01
-3.264885679920492279e-01
-3.718226685940092535e-01
-4.128486158762653679e-01
-4.484504456232794589e-01
-4.780958813654522244e-01
-5.004036498472611560e-01
-5.154174454411675210e-01
-5.222493234135048290e-01
-5.206696526187988283e-01
-5.109925210349309799e-01
-4.927619743576479028e-01
-4.670195745813797705e-01
-4.337303412309329032e-01
-3.936925561429259202e-01
-3.479168504512982207e-01
-2.969478408637282740e-01
-2.422718334241695526e-01
-1.846533309686298197e-01
-1.252925094740177658e-01
-6.545922352698321789e-02
-6.193731975876729315e-03
5.143633376424248255e-02
1.061953655700043353e-01
1.573901610844591348e-01
2.039470690173477985e-01
2.450772785066464843e-01
2.806743914208713608e-01
3.095564665183216380e-01
3.320930091390617567e-01
3.476891164987179206e-01
3.563281215259432311e-01
3.587956167980324018e-01
3.544257080113841774e-01
3.445090639566856794e-01
3.289580706466436189e-01
3.085014216500658324e-01
2.842963395923153169e-01
2.563126997587690248e-01
2.260723330396156028e-01
1.938299524784431738e-01
1.605688949724745629e-01
1.272162609175563619e-01
9.417052112591904611e-02
6.242531845913085187e-02
3.237329983437462616e-02
4.672849642870534337e-03
-2.030431449290314924e-02
-4.207102469165850678e-02
-6.053631861987981977e-02
-7.530960271538440776e-02
-8.637131250412538597e-02
-9.385578238629090075e-02
-9.746479650623052216e-02
-9.786826750480107084e-02
-9.475952910224605397e-02
-8.869126644820157779e-02
-8.004246416752720805e-02
-6.882014702931575634e-02
-5.599404085002611386e-02
-4.140395436458394612e-02
-2.584526307801297482e-02
-9.690645484762921980e-03
6.810634965324136036e-03
2.286225353931376630e-02
3.845897111272662816e-02
5.295200202601603456e-02
6.611431577860178710e-02
7.765968019623513408e-02
8.723876717272049941e-02
9.476110692941767943e-02
9.999518268269542987e-02
1.029032347185483282e-01
1.034015840012245946e-01
1.015980980175969495e-01
9.747469770774598585e-02
9.125769543299598607e-02
8.307791455178260842e-02
7.317163254142582118e-02
6.189971655826423391e-02
4.943139102849136712e-02
3.624801273262127227e-02
2.256966623466377664e-02
8.846692539007629946e-03
-4.595602197099925637e-03
-1.743650606657868099e-02
-2.926706246429805480e-02
-3.989038180872735151e-02
-4.891596236487905786e-02
-5.624876057952466618e-02
-6.159850819453224074e-02
-6.487789117676476258e-02
-6.600528160197609295e-02
-6.491803483969824096e-02
-6.174446541713602549e-02
-5.645104034434115375e-02
-4.930247698502464304e-02
-4.037044500155776566e-02
-3.000681678319784551e-02
-1.842705331352128065e-02
-5.948225584231680088e-03
6.992590944082660923e-03
2.020398332547627268e-02
3.307581361982593615e-02
4.548399720526061923e-02
5.687884538662342504e-02
6.693670645886914961e-02
7.545475100082295328e-02
8.188283607021347443e-02
8.632143486544738287e-02
8.826287465748254568e-02
8.772010973421678903e-02
8.461820374959297397e-02
7.875303077477967262e-02
7.046950825459025181e-02
5.956636405054086675e-02
4.641208956127963747e-02
3.115212630381993322e-02
1.400304325029558782e-02
-4.558022406141057532e-03
-2.433335185350778487e-02
-4.480971933881455760e-02
-6.563967486269212115e-02
-8.636838518123064745e-02
-1.065912620025177976e-01
-1.258419562322324881e-01
-1.437930169952725268e-01
-1.600267076147915413e-01
-1.741688735603664218e-01
-1.860857994195207477e-01
-1.952978228853334275e-01
-2.019073281783909657e-01
-2.055880417385135828e-01
-2.062764782871603919e-01
-2.041734837665062363e-01
-1.989846092074862571e-01
-1.912182825800473052e-01
-1.807301561757435060e-01
-1.677483513677347771e-01
-1.526954779962987618e-01
-1.355044374713507693e-01
-1.168124122506307011e-01
-9.667583388409188572e-02
-7.540263118617124283e-02
-5.346335891474975760e-02
-3.096250288146189245e-02
-8.347351699680125720e-03
1.410945671878513497e-02
3.623535377166682558e-02
5.761101446580386976e-02
7.802883155725255648e-02
9.739758259692857245e-02
1.152261991911838757e-01
1.315774048143464603e-01
1.461063610311995331e-01
1.585935713994873208e-01
1.692490896881708451e-01
1.774981335042705166e-01
1.836165190896743293e-01
1.873673430094811576e-01
1.886374454292342462e-01
1.877992403661851162e-01
1.844297102156493284e-01
1.789369630449350046e-01
1.712661115691524183e-01
1.615010855119002608e-01
1.500549137208123107e-01
1.368409223514078787e-01
1.222802117616904743e-01
1.065435503303861220e-01
8.988974657184127526e-02
7.266277034770270149e-02
5.512081712884183554e-02
3.754366258355576469e-02
2.027657073322892967e-02
3.605012518533210614e-03
-1.228356544270285677e-02
-2.695199878265123680e-02
-4.038588375458646712e-02
-5.218725707150168036e-02
-6.222583723683474538e-02
-7.049691492882496913e-02
-7.661867897860309695e-02
-8.085940873565569675e-02
-8.290290280239416554e-02
-8.288099051642590365e-02
-8.092834983463481624e-02
-7.690593655006039420e-02
-7.125585693975790280e-02
-6.384629755050130751e-02
-5.504379408275833496e-02
-4.503960298977116583e-02
-3.399809996265602124e-02
-2.234719842682784952e-02
-1.017650032629672033e-02
2.063910495193235339e-03
1.421057242277035809e-02
2.588725831712321290e-02
3.686306489779485329e-02
4.688318610592068919e-02
5.561978770399598343e-02
6.300509894722799986e-02
6.865645989120043591e-02
7.263787642568192426e-02
7.467486517728313955e-02
7.471941544782713385e-02
7.283870146644297328e-02
6.885707994555326228e-02
6.309387180653892868e-02
5.542340032549900736e-02
4.609119914144158697e-02
3.528860306683322817e-02
2.314390252640698489e-02
1.005945016674527660e-02
-3.845828946226275205e-03
-1.818537336264050217e-02
-3.271255810175410783e-02
-4.707443163173000850e-02
-6.100856705755915849e-02
-7.418741512344140254e-02
-8.631882128885001726e-02
-9.720004871261241075e-02
-1.064648311784869295e-01
-1.141122407165993530e-01
-1.197787791719800710e-01
-1.234309270711036605e-01
-1.249902744096982182e-01
-1.242823768594914641e-01
-1.215425177638146809e-01
-1.165696620644583875e-01
-1.095954344435620537e-01
-1.007036478881187941e-01
-8.999626417964877445e-02
-7.782141941836953625e-02
-6.425429652714126361e-02
-4.965305950777096355e-02
-3.425368630165071676e-02
-1.835834146434121850e-02
-2.278051459958042695e-03
1.366955398055626734e-02
2.920710587595450047e-02
4.401229408320842668e-02
5.777743205254177311e-02
7.034279406301971460e-02
8.131667663481002839e-02
9.066743682147263006e-02
9.809696087175530377e-02
1.034931254816866542e-01
1.068888918248113717e-01
1.080322369586623893e-01
1.071715592634188280e-01
1.041513563687017363e-01
9.914604989509004374e-02
9.234327447423680557e-02
8.376985749815751836e-02
7.383205868266240479e-02
6.258230494662449239e-02
5.039887466757875939e-02
3.751974703010026863e-02
2.422910096760982901e-02
1.086805015956950927e-02
-2.332550627126904301e-03
-1.500267566331121676e-02
-2.697172459365981823e-02
-3.786021876589926866e-02
-4.758068751559797749e-02
-5.582762909673270879e-02
-6.244292040500492441e-02
-6.738527214712398961e-02
-7.038014010473164772e-02
-7.162717246787007885e-02
-7.087827167734168932e-02
-6.826184038011301469e-02
-6.385512305861043569e-02
-5.762863830817304550e-02
-4.993867398952162723e-02
-4.071827388665286845e-02
-3.030351263895141034e-02
-1.884590579404940222e-02
-6.588415785842047928e-03
6.156820504824608679e-03
1.920364939495445428e-02
3.218351338157400543e-02
4.491699147291291355e-02
5.699315376217453655e-02
6.829629076623013051e-02
7.844177109147641713e-02
8.721487411019993030e-02
9.446971244118057554e-02
9.983977641760823085e-02
1.034398870546224675e-01
1.048986704947955095e-01
1.042656502809917313e-01
1.015107506800497217e-01
9.651704460116368456e-02
8.957999455258307264e-02
8.056872590080778329e-02
6.977720997573265416e-02
5.734925324512370887e-02
4.348395210389573162e-02
2.853731869894047743e-02
1.271054314403119619e-02
-3.621694143870997536e-03
-2.016726498824147895e-02
-3.654165815367954595e-02
-5.248315117526661938e-02
-6.756724949917221335e-02
-8.156741768433485584e-02
-9.415396364679826102e-02
-1.050030764083699081e-01
-1.140600810112371716e-01
-1.209086768617094187e-01
-1.256192586857110827e-01
-1.279577838860406769e-01
-1.278586910655340747e-01
-1.254844878490834759e-01
-1.206399374239815470e-01
-1.136684972639537966e-01
-1.045308576477281259e-01
-9.345505286023426950e-02
-8.074231875833501326e-02
-6.650683711830994438e-02
-5.118979255670964845e-02
-3.497792216621431471e-02
-1.825368385397827323e-02
-1.338294414326166764e-03
1.542201641510852761e-02
3.172073304415312656e-02
4.720543480069151060e-02
6.157393768613463741e-02
7.460162338334414001e-02
8.591036871039914313e-02
9.549952287981784693e-02
1.029917861161956799e-01
1.083612595377555082e-01
1.115583760001071512e-01
1.123830774060813470e-01
1.111586126463934704e-01
1.076419888269056491e-01
1.021197060614934815e-01
9.472125213291121559e-02
8.551799062718525024e-02
7.499362623308536424e-02
6.312833783967655710e-02
5.035921413194311552e-02
3.691100884008779309e-02
2.305219618736718823e-02
9.157008751043407488e-03
-4.585188104927807352e-03
-1.784570730885803175e-02
-3.041779389004318351e-02
-4.200941109382114874e-02
-5.253524979042879794e-02
-6.169629588605062692e-02
-6.944085820610755577e-02
-7.564154302802564289e-02
-8.012913365442508873e-02
-8.308548731375316188e-02
-8.423120902637261376e-02
-8.377622909993635847e-02
-8.167487556459245013e-02
-7.793292305775448292e-02
-7.285241795058641778e-02
-6.628324975963818810e-02
-5.855767040983181349e-02
-4.971103337946606443e-02
-3.990201188942091998e-02
-2.940634211952615831e-02
-1.827676843360908840e-02
-6.810064748289188646e-03
4.859869256059427302e-03
1.649129852649524122e-02
2.791334787532367967e-02
3.887911670640084583e-02
4.924293907569864126e-02
5.878496146688057949e-02
6.728952739604023014e-02
7.471697690014458826e-02
8.074497504871534781e-02
8.543386119674563350e-02
8.855950284731099742e-02
9.004765060177494229e-02
8.998979889422585587e-02
8.816505874092578354e-02
8.481711841802459795e-02
7.983469319825588217e-02
7.333876892851430573e-02
6.551932250172694261e-02
5.638326722470651114e-02
4.624533875098180841e-02
3.518110113869196004e-02
2.344666448850046825e-02
1.125661750254132801e-02
-1.157491260610486608e-03
-1.357376511578694406e-02
-2.574233644355551631e-02
-3.741675754810282195e-02
-4.843693219065618727e-02
-5.846422122958018497e-02
-6.748836750962047826e-02
-7.516902808316974771e-02
-8.140649343801072135e-02
-8.613683373390189357e-02
-8.907906941554898095e-02
-9.043973276422047347e-02
-8.992124408402629721e-02
-8.763090277041217513e-02
-8.361186539798100281e-02
-7.778655697994847629e-02
-7.048111613135550624e-02
-6.159110970399107182e-02
-5.139169552247638273e-02
-4.003266538788995133e-02
-2.769914997977562451e-02
-1.468644108361422639e-02
-1.179876923411224713e-03
1.250779795555645620e-02
2.614554001412273954e-02
3.937880010949788151e-02
5.204592220180454670e-02
6.375693572809378040e-02
7.432301675614781666e-02
8.351072879253441938e-02
9.100647104631835738e-02
9.684104390823432273e-02
1.006431291928338578e-01
1.024732618994125266e-01
1.022128283893080081e-01
9.979163416090131022e-02
9.543559501469305040e-02
8.900830734454880100e-02
8.082258230697343671e-02
7.095333358269215185e-02
5.962259677758876414e-02
4.716879758376294612e-02
3.375002987846720259e-02
1.977430309749713538e-02
5.478815194167640894e-03
-8.777490493005347255e-03
-2.269805161141169245e-02
-3.596546955255428002e-02
-4.831755629243753708e-02
-5.948266793437799460e-02
-6.921817631337755239e-02
-7.740813256651001006e-02
-8.379310972894787879e-02
-8.841576794956457208e-02
-9.109722151889437791e-02
-9.187142150386479189e-02
-9.082794992410457569e-02
-8.790507876787494179e-02
-8.341125359032192099e-02
-7.731219889024783243e-02
-6.988210307257020082e-02
-6.132752218739611488e-02
-5.178244806534647304e-02
-4.162666154330964957e-02
-3.095472603075134083e-02
-2.010069185197217723e-02
-9.270034351860051425e-03
1.312738507138401945e-03
1.140727931376666303e-02
2.084055298614561486e-02
2.941470223485812344e-02
3.700331347511623403e-02
4.342432479405995693e-02
4.868508280889588535e-02
5.260079752390278696e-02
5.521034238908654329e-02
5.648890473717412680e-02
5.638776405410665660e-02
5.513140890388447402e-02
5.259191423068002719e-02
4.900978443753035291e-02
4.444603293809596539e-02
3.899536530140169932e-02
3.296494046865654920e-02
2.632994345933786784e-02
1.939167703765591957e-02
1.225443724924556513e-02
5.085527251992635368e-03
-1.891548899244752937e-03
-8.602464169158901067e-03
-1.485297885420626927e-02
-2.055395702082237624e-02
-2.557394155251859272e-02
-2.987234335451589839e-02
-3.333834134195003823e-02
-3.597897130759014628e-02
-3.776328628596233028e-02
-3.865474265287636296e-02
-3.880188999538562722e-02
-3.809852220180882931e-02
-3.672447863230881432e-02
-3.469873359582070077e-02
-3.204586683167128663e-02
-2.900882289546454634e-02
-2.547759623180754357e-02
-2.167329918592571583e-02
-1.761497172977437298e-02
-1.330593948592960138e-02
-8.950555771153891407e-03
-4.427771605557585463e-03
1.315163671592269913e-04
4.728411699807167148e-03
9.410747771194286071e-03
1.408250546510469645e-02
1.881740118615753132e-02
2.360999356401222507e-02
2.842858118746881269e-02
3.331205127095923646e-02
3.824607171647251974e-02
4.315930082164030207e-02
4.811854681429312414e-02
5.298587621354303168e-02
5.771293061363833715e-02
6.230790899376701525e-02
6.651831966065277491e-02
7.042881896196516445e-02
7.379718908391329213e-02
7.649179514257595236e-02
7.853687848755450118e-02
7.959460819194190406e-02
7.977798361303931052e-02
7.885339054391049540e-02
7.670946610312803782e-02
7.344184087315158704e-02
6.880777731627141236e-02
6.298848540653520511e-02
5.590749127935962931e-02
4.757821014240461860e-02
3.820629243334810327e-02
2.777583095037284427e-02
1.651164164907001700e-02
4.567082966198942121e-03
-7.926041100410795986e-03
-2.069561825068368804e-02
-3.354036396940099363e-02
-4.630917152586153107e-02
-5.866174931379213031e-02
-7.046958400765146457e-02
-8.149351386360992322e-02
-9.144635374583853782e-02
-1.003593164861334569e-01
-1.078325144722172418e-01
-1.138665428558341408e-01
-1.183321667969593760e-01
-1.210102092151193048e-01
-1.221150035405786649e-01
-1.213347861332089439e-01
-1.188317267178498615e-01
-1.146117996520758797e-01
-1.086188602029607708e-01
-1.011660086898244215e-01
-9.214016588900635074e-02
-8.180208994799091637e-02
-7.029257539455414927e-02
-5.772880585476630744e-02
-4.441568385194055030e-02
-3.048156642329395011e-02
-1.616961811608326124e-02
-1.738558581846434822e-03
1.259847351851490008e-02
2.662378247349933211e-02
4.002808219557137809e-02
5.270096658057778216e-02
6.432140326314481071e-02
7.471781770596340466e-02
8.380261287107727830e-02
9.124548851662661608e-02
9.713933841033547956e-02
1.012093144963057967e-01
1.034609226209963484e-01
1.039521686377764542e-01
1.025181558774054397e-01
9.944307445272634882e-02
9.461487360063031149e-02
8.825941210795032466e-02
8.055001480555315507e-02
7.157959823381791764e-02
6.170264988285775049e-02
5.101172250285434390e-02
3.984948991785019351e-02
2.841617727391447870e-02
1.699592499449693525e-02
5.828312384799929323e-03
-4.850765339676107492e-03
-1.477517846316325593e-02
-2.381719491177176212e-02
-3.167282401253325441e-02
-3.834854077861968302e-02
-4.358040452555011351e-02
-4.732847276635904210e-02
-4.957929592738123670e-02
-5.017025585027403561e-02
-4.933663394978073102e-02
-4.689565027469487501e-02
-4.304573473008083129e-02
-3.786112446985166052e-02
-3.139697200349348544e-02
-2.397117942864372686e-02
-1.556473410558431407e-02
-6.503714936175276906e-03
3.096028023478111617e-03
1.297987104230149957e-02
2.292383431451181300e-02
3.274580833308553263e-02
4.215516538759842002e-02
5.103606115866657356e-02
5.904468869485112598e-02
6.615922674342680776e-02
7.206614168419606115e-02
7.665062937007717514e-02
7.984901640941212408e-02
8.138917396665965032e-02
8.146506064363498445e-02
7.979247920941803796e-02
7.648792906918948364e-02
7.159473683699250912e-02
6.503042619592601381e-02
5.714257225377421950e-02
4.781515715227165758e-02
3.733365897608245665e-02
2.586374677574431596e-02
1.351210614001663660e-02
6.504026318946774365e-04
-1.263733646739765432e-02
-2.606182176388707403e-02
-3.938493357484408597e-02
-5.242512468375589568e-02
-6.493653080280011036e-02
-7.670602052776061275e-02
-8.761550106729819321e-02
-9.743128639118789347e-02
-1.060285145520512146e-01
-1.133727346015296344e-01
-1.192165896160170963e-01
-1.236843442652814512e-01
-1.265955344041251041e-01
-1.279369348648141391e-01
-1.278640852475942669e-01
-1.261606760703790353e-01
-1.231267406731688524e-01
-1.186547440439951195e-01
-1.128116524060177595e-01
-1.058527454196321466e-01
-9.763451978171901191e-02
-8.848628646676720555e-02
-7.839879871218449758e-02
-6.745346484491372696e-02
-5.591787762046361576e-02
-4.376057027320332665e-02
-3.120374130636723725e-02
-1.838120396681839491e-02
-5.340885338266105307e-03
7.678986614535099516e-03
2.056960023783281633e-02
3.328459723555719091e-02
4.551840167125139475e-02
5.727665283655224843e-02
6.835937060247462838e-02
7.853837137871702567e-02
8.794231290901061149e-02
9.613752875860634428e-02
1.031963944582450637e-01
1.089733424752245411e-01
1.132166966283476295e-01
1.161865354896044061e-01
1.174606550736821825e-01
1.171963504194411115e-01
1.153456401566256423e-01
1.117827474924681652e-01
1.068088151507380068e-01
1.002172426768264124e-01
9.223677177282861572e-02
8.295476207571315930e-02
7.246779577811295059e-02
6.102410346186385587e-02
4.874451318007733125e-02
3.585962992612936467e-02
2.257981476905188481e-02
9.192949074454115355e-03
-4.183936778244645889e-03
-1.715094682422510855e-02
-2.958204816503402779e-02
-4.120633358595752332e-02
-5.168377876837874224e-02
-6.106970419672134304e-02
-6.885425676795137173e-02
-7.510312860678851343e-02
-7.957514197518200660e-02
-8.205253917808860709e-02
-8.274899139810071302e-02
-8.126426528895439039e-02
-7.787105192938674481e-02
-7.245572314776362044e-02
-6.504445765122965351e-02
-5.595346003762554504e-02
-4.506792320809628605e-02
-3.279030821645171484e-02
-1.920518475192901225e-02
-4.579622783270443503e-03
1.075087600299176778e-02
2.657727646198736540e-02
4.252613165016653346e-02
5.832633319417897255e-02
7.361789934483231601e-02
8.815414209352950836e-02
1.015367231923246377e-01
1.136075435930673783e-01
1.240251174114678084e-01
1.325558936167887947e-01
1.391454630311063367e-01
1.434355048712241953e-01
1.455925477045910688e-01
1.453654955260719750e-01
1.427925893974095473e-01
1.380460847310297501e-01
1.309839460425538948e-01
1.220363279925448241e-01
1.111506934988776285e-01
9.859896568495762903e-02
8.470639296357017345e-02
6.956831016058888373e-02
5.365494946134100052e-02
3.711939679236414547e-02
2.026927656028097366e-02
3.446177886652909000e-03
-1.312893163188635567e-02
-2.919196005165855187e-02
-4.444365843675045225e-02
-5.874728179782974513e-02
-7.184215919770349512e-02
-8.352392333298458427e-02
-9.382980247440568522e-02
-1.024025477696064168e-01
-1.093521707915144359e-01
-1.145152845478988601e-01
-1.178257911902407945e-01
-1.194883351220099449e-01
-1.192506326319331539e-01
-1.173874590179308369e-01
-1.138194358251661542e-01
-1.086938199085137613e-01
-1.021805078704295794e-01
-9.430165518515896961e-02
-8.534990523810830065e-02
-7.534364263490306302e-02
-6.466617733324604711e-02
-5.330957623140967355e-02
-4.168004507528026009e-02
-2.995733961723690691e-02
-1.829308219526609713e-02
-7.246316963385086157e-03
3.391023035867475176e-03
1.288028181219795162e-02
2.123127602110354978e-02
2.817337873170820337e-02
3.314943612319654759e-02
3.649801834294064823e-02
3.742128639873053275e-02
3.613667551939288292e-02
3.238429435671009993e-02
2.587308903503841503e-02
1.696908255089322332e-02
5.239400371673849643e-03
-8.950467621250905031e-03
-2.562906976727388070e-02
-4.460205737443419943e-02
-6.558180332999437312e-02
-8.826868587216105122e-02
-1.123140336607551248e-01
-1.373261766873375422e-01
-1.626147846815637343e-01
-1.880751717943453249e-01
-2.126000565780443996e-01
-2.361035895366195569e-01
-2.577655606773819885e-01
-2.766648548683682263e-01
-2.929752249818586840e-01
-3.051117999151312654e-01
-3.134683437118007676e-01
-3.170539576859776609e-01
-3.151552960661212488e-01
-3.082952026157114722e-01
-2.950518870977905106e-01
-2.763420968543789380e-01
-2.514872786972125462e-01
-2.203577450313818076e-01
-1.838449965041275280e-01
-1.413444305368619369e-01
-9.406625980074989624e-02
-4.214388105066103202e-02
1.391423636667880361e-02
7.293298323158814433e-02
1.344062244367927594e-01
1.973080125156266018e-01
2.604746038099747252e-01
3.231236965413083473e-01
3.840252328056237840e-01
4.418493695374412500e-01
4.962479211217670771e-01
5.453321354394292664e-01
5.886432643426467992e-01
6.252503914752906011e-01
6.537642998474355593e-01
6.747295889632215493e-01
6.863568691051451509e-01
6.889746270858448929e-01
6.823324787344258180e-01
6.657514313900229075e-01
6.406099438802137502e-01
6.060219988387295365e-01
5.631397102109702013e-01
5.126021638928295321e-01
4.547214868676980881e-01
3.913222309833274681e-01
3.227282834929585675e-01
2.503900344075661311e-01
1.756897899274855179e-01
9.951897295915804187e-02
2.352365438036376280e-02
-5.112097394170862785e-02
-1.235080718070826339e-01
-1.919767388129586805e-01
-2.558661623802889751e-01
-3.142736659583637016e-01
-3.659051979255240616e-01
-4.110164439272195325e-01
-4.481804746737642620e-01
-4.775791563347483448e-01
-4.992345875584275339e-01
-5.123419197469198938e-01
-5.182820262852231297e-01
-5.161663364805442189e-01
-5.070209922647241907e-01
-4.915274671066255374e-01
-4.695580512848057109e-01
-4.429527845280660792e-01
-4.114214017034226178e-01
-3.762903256321259993e-01
-3.384320249857795671e-01
-2.982117904879574288e-01
-2.570723369510531375e-01
-2.152526652002123564e-01
-1.737002837486856244e-01
-1.331219686400325064e-01
-9.405200102044257437e-02
-5.698557866997260718e-02
-2.258146174389760036e-02
8.995243085757571172e-03
3.730811531410546666e-02
6.192244554666484491e-02
8.330888342255456103e-02
1.005539196454652839e-01
1.142531389198709890e-01
1.241760955802530403e-01
1.301390967164510470e-01
1.331829188336809966e-01
1.323965184010042484e-01
1.288066964767809741e-01
1.223084073498437452e-01
1.130163404012935191e-01
1.020137540780098745e-01
8.868787390254358194e-02
7.407786476462682734e-02
5.817657749958165397e-02
4.136505774608498914e-02
2.432076679537092598e-02
6.963027400451084724e-03
-9.999637478015861725e-03
-2.648123682870393361e-02
-4.199858175032492730e-02
-5.635581570757890874e-02
-6.922052997037486666e-02
-8.033924703782849286e-02
-8.957242716355548473e-02
-9.653910165189935610e-02
-1.014204772957126022e-01
-1.037610887659955738e-01
-1.037249048858846223e-01
-1.012136485870632485e-01
-9.611552145092477906e-02
-8.882190774621266660e-02
-7.906731236902568571e-02
-6.728710388034196688e-02
-5.353782454346143332e-02
-3.802781021098618902e-02
-2.120092510859361914e-02
-3.156989393461533122e-03
1.561070109406334505e-02
3.484455331676858392e-02
5.413391390066513847e-02
7.312454389616594719e-02
9.141078476331332414e-02
1.086767459716393019e-01
1.245448485260568228e-01
1.386465181286687387e-01
1.508345982648958417e-01
1.606429553992003711e-01
1.680972613076217870e-01
1.728725564877373333e-01
1.748687498380900873e-01
1.741968241830180175e-01
1.705997738965158717e-01
1.644410301765987792e-01
1.556139808070876596e-01
1.443478235893507766e-01
1.309598797877415399e-01
1.155350433687003103e-01
9.857689578888066684e-02
8.026541174506884868e-02
6.100565901089762683e-02
4.117820699313556876e-02
2.114504335913950164e-02
1.249911351396113847e-03
-1.809044380661701742e-02
-3.656386661913031688e-02
-5.388149579366661307e-02
-6.959505908614163627e-02
-8.374378297976789454e-02
-9.579460291984812081e-02
-1.057326528492008588e-01
-1.134395666684129833e-01
-1.185722638922139666e-01
-1.215605834166603449e-01
-1.218983873485856850e-01
-1.198881043639182381e-01
-1.155699228714708732e-01
-1.088270822270381438e-01
-1.002574410004284378e-01
-8.955680059068921173e-02
-7.719019666724492856e-02
-6.331364433804563541e-02
-4.806027214751295434e-02
-3.193438608917921473e-02
-1.496289314137032138e-02
2.431985122722870284e-03
2.000626663419618687e-02
3.745416822653958172e-02
5.450017917853319099e-02
7.081070711829391684e-02
8.616222979051613162e-02
1.002640148008177579e-01
1.127903416864082103e-01
1.237277324644535659e-01
1.326076544281330205e-01
1.394870790048097220e-01
1.441221997136789279e-01
1.463421773639013435e-01
1.463665085140386513e-01
1.438383255242045855e-01
1.390798227384279218e-01
1.320137005938336328e-01
1.227252407098307907e-01
1.115880953650269236e-01
9.853769309615764693e-02
8.402693686085462021e-02
6.820553758086431162e-02
5.136059507883054126e-02
3.388187833586737280e-02
1.600422928236968495e-02
-1.917314436224182685e-03
-1.955495664919483859e-02
-3.660694481408605094e-02
-5.282279755454512976e-02
-6.780932749675565308e-02
-8.151375841159283486e-02
-9.354188687909109623e-02
-1.037634084517861793e-01
-1.121487784717100505e-01
-1.183200874527770147e-01
-1.225746506082890097e-01
-1.245575432466539817e-01
-1.243746497907874810e-01
-1.221845192479103087e-01
-1.177491808231394960e-01
-1.115767710961967363e-01
-1.034391300018921850e-01
-9.360698657325589034e-02
-8.232741842867861981e-02
-6.956964633603780757e-02
-5.581043264746884253e-02
-4.103837150234241476e-02
-2.555082817715279356e-02
-9.594641555577631750e-03
6.628723477936865859e-03
2.289500560899204382e-02
3.892058643367685145e-02
5.451024410009178145e-02
6.946258590021360535e-02
8.337258965649477216e-02
9.638182698022261519e-02
1.079104284158181742e-01
1.179451461826824532e-01
1.263517620341503001e-01
1.326481692449839045e-01
1.372584063952078381e-01
1.395007325036049795e-01
1.395436669631516247e-01
1.373511147403304045e-01
1.325494354758280646e-01
1.256857028791391606e-01
1.162586405773508441e-01
1.045700467337092460e-01
9.073200623400520803e-02
7.465534374644945681e-02
5.684184456115927431e-02
3.722324476250954417e-02
1.613994551151343507e-02
-6.106743563484852075e-03
-2.925376084625382761e-02
-5.297224823948688821e-02
-7.680710681501563830e-02
-1.005051010900601255e-01
-1.235867267577895473e-01
-1.455407752088656581e-01
-1.662630325880422588e-01
-1.849316657496228866e-01
-2.014975207178750505e-01
-2.154151669218911103e-01
-2.261905309394420804e-01
-2.339377119486429901e-01
-2.378608474378356152e-01
-2.381843563019701848e-01
-2.345349325956087305e-01
-2.267543284801575298e-01
-2.151566545587542123e-01
-1.994397635410229686e-01
-1.800751394874579581e-01
-1.571413341935570807e-01
-1.309898802710642018e-01
-1.021003523678894465e-01
-7.092741602265151268e-02
-3.801543137673534661e-02
-4.022027791770700286e-03
3.033698019781366079e-02
6.453280445904381601e-02
9.751884651868132636e-02
1.289950106168084309e-01
1.579160491645747733e-01
1.836566130101949801e-01
2.058721835702532754e-01
2.234754397501444445e-01
2.367372361417504623e-01
2.446838674668705971e-01
2.472711630223742851e-01
2.445828129137487261e-01
2.360719982814779017e-01
2.226748563263923619e-01
2.039220538497258650e-01
1.804938635097162458e-01
1.529568593964601431e-01
1.214954986302120010e-01
8.741509598892474586e-02
5.085933169875912069e-02
1.286280751532026950e-02
-2.574974659460379373e-02
-6.438172211687372137e-02
-1.019434386181967689e-01
-1.379185289633459988e-01
-1.715763274618199163e-01
-2.022086231566016246e-01
-2.293732570087687883e-01
-2.526721638246981483e-01
-2.716241701660241925e-01
-2.862697806082868945e-01
-2.962953313480194417e-01
-3.017617139807446947e-01
-3.030640198733512425e-01
-2.999846454819585229e-01
-2.932952908074609732e-01
-2.830929672594896807e-01
-2.697972133720967225e-01
-2.543307371795661687e-01
-2.366082935571475199e-01
-2.176506646711670601e-01
-1.977514356778751203e-01
-1.771887375094999828e-01
-1.569842592899835521e-01
-1.368561287342545396e-01
-1.175122011084243634e-01
-9.918729218724781083e-02
-8.157676353935627844e-02
-6.549172477971414164e-02
-5.024916428499236892e-02
-3.599486846695847814e-02
-2.281171922021488913e-02
-9.793283460554261244e-03
2.484714739860183815e-03
1.496575629756464153e-02
2.786562261406965932e-02
4.111694825589563840e-02
5.579388648170136716e-02
7.135259611861176354e-02
8.857988709344889744e-02
1.076130286192100022e-01
1.281670638394894479e-01
1.509308193057282421e-01
1.751964869799890467e-01
2.012277372055469027e-01
2.287921596238382815e-01
2.572997755043413548e-01
2.868143304365264878e-01
3.164969402107165042e-01
3.460810268869201067e-01
3.750547657166509730e-01
4.027091807608029761e-01
4.287097271177691682e-01
4.523511182336233949e-01
4.731949254818030859e-01
4.908067269966139290e-01
5.047117381248442669e-01
5.146345566790038184e-01
5.203052945942109320e-01
5.215506800907746543e-01
5.183192959207799655e-01
5.106545526045601635e-01
4.986357531448621372e-01
4.825581008416662820e-01
4.626901273013833138e-01
4.393776355063517269e-01
4.132041909816010494e-01
3.845051014394212374e-01
3.540213765531711743e-01
3.222324802272014677e-01
2.896407996118958161e-01
2.570795641689449518e-01
2.247502865706691721e-01
1.935591045565245305e-01
1.637203824409416142e-01
1.356125407758612955e-01
1.098829435221964218e-01
8.624659044516137796e-02
6.550732553194971164e-02
4.723811077083235610e-02
3.160153439327419850e-02
1.873890253688309873e-02
7.863454576383575173e-03
-4.374387419555584699e-04
-7.238676733238637653e-03
-1.242773584096787051e-02
-1.640908351337457688e-02
-2.011076476048040060e-02
-2.311443942821227865e-02
-2.678587648725604814e-02
-3.077858930740993981e-02
-3.583667858657980931e-02
-4.253228672068262023e-02
-5.050742511297220266e-02
-6.094660474502607700e-02
-7.308037751309320873e-02
-8.771374377978666259e-02
-1.047438588989177827e-01
-1.238149626014554000e-01
-1.456339149578924630e-01
-1.690487748575749405e-01
-1.947549256234078763e-01
-2.220124795164657439e-01
-2.505146739248150789e-01
-2.805097607638219470e-01
-3.107128935384617097e-01
-3.417143749706034739e-01
-3.724640997822925015e-01
-4.028161997089694246e-01
-4.327962196851939392e-01
-4.612857154549979688e-01
-4.888650865142727953e-01
-5.145368161740002666e-01
-5.383978030419976912e-01
-5.604692487153318803e-01
-5.799794558476448758e-01
-5.975506607193026287e-01
-6.124122358036283575e-01
-6.249073770843315279e-01
-6.350940332226906460e-01
-6.425711731716864383e-01
-6.479608452232213933e-01
-6.506802310794100874e-01
-6.512864269273130891e-01
-6.497641401691296448e-01
-6.460440245402742088e-01
-6.406586725039232766e-01
-6.331000556968001680e-01
-6.241198656212749718e-01
-6.134942323853611601e-01
-6.014665657777996666e-01
-5.883781819990157036e-01
-5.737694730979995272e-01
-5.585204659779813285e-01
-5.421381921351964284e-01
-5.251689532700430929e-01
-5.076537197258147449e-01
-4.892751512941030945e-01
-4.708716322900399764e-01
-4.517207543240170375e-01
-4.326227222465696132e-01
-4.132371934462921170e-01
-3.934820160036127112e-01
-3.739670271394923695e-01
-3.538403135386617993e-01
-3.340556092023604373e-01
-3.138543903689667292e-01
-2.934870267770737229e-01
-2.731584019886282855e-01
-2.520523462852802266e-01
-2.311665205089834252e-01
-2.093703133884947387e-01
-1.873470599309851881e-01
-1.647984022755516753e-01
-1.411599126035669172e-01
-1.173859418793917198e-01
-9.209618297240911022e-02
-6.648297644500861248e-02
-3.972015884141912728e-02
-1.169554983788837800e-02
1.677448337628315717e-02
4.718174913666407094e-02
7.784198448508676538e-02
1.100981640725127580e-01
1.435053853171258387e-01
1.775135283313171719e-01
2.136092645352149488e-01
2.497576414570550074e-01
2.877590138183331869e-01
3.266217202580113388e-01
3.661761201520068454e-01
4.077801800585957870e-01
4.492585273893275333e-01
4.926990719718847278e-01
5.366389160910131073e-01
5.813011060415312903e-01
6.277423425294130777e-01
6.738370119829208971e-01
7.216672897355727034e-01
7.693927708695559309e-01
8.175230681792621246e-01
8.666259078875160338e-01
9.147688243846123779e-01
9.637165380202230569e-01
1.011375804476712270e+00
1.058413604078086934e+00
1.104810045656156037e+00
1.148968597666259805e+00
1.192159942805034012e+00
1.232234246001631339e+00
1.269986438044740762e+00
1.304880676359621461e+00
1.335851283271425771e+00
1.363709673024154689e+00
1.386521103814258860e+00
1.405314638584476139e+00
1.419250078958636196e+00
1.428016721249030896e+00
1.432086328288380450e+00
1.430124385264384790e+00
1.423399414546975716e+00
1.411005680747905666e+00
1.393522884601366973e+00
1.371167267839745740e+00
1.343342870243641629e+00
1.311522036699839466e+00
1.274778863054112366e+00
1.234526585871798421e+00
1.190608500960815164e+00
1.143133407225994658e+00
1.093520316479023702e+00
1.040731904521598583e+00
9.867788682123088684e-01
9.308605210983875722e-01
8.737190727355150788e-01
8.162950781260991384e-01
7.574007593993403731e-01
6.993306649028602218e-01
6.404073750557355282e-01
5.820297988978591075e-01
5.242217910453991214e-01
4.658286871445244115e-01
4.091094784082643931e-01
3.514773526436252848e-01
2.951098213039476392e-01
2.387802534028794221e-01
1.817760001867843589e-01
1.259917806373127835e-01
6.814004897670042360e-02
1.126861445752043792e-02
-4.724644859892396936e-02
-1.071929897950956445e-01
-1.673664773182983734e-01
-2.313461350972653707e-01
-2.952822387441692564e-01
-3.630668321405504662e-01
-4.331997670489873831e-01
-5.053925198726807455e-01
-5.829810218442397218e-01
-6.615705119497664599e-01
-7.458504203280406086e-01
-8.329284291698513254e-01
-9.234196727080079548e-01
-1.019855985317403402e+00
-1.117670731539436302e+00
-1.221586469486476645e+00
-1.327528886364989003e+00
-1.436721685667691206e+00
-1.550457061547717785e+00
-1.664403484872968075e+00
-1.782489705416405501e+00
-1.899966605087325178e+00
-2.018232377722696036e+00
-2.137199748025019552e+00
-2.253178269164594738e+00
-2.368747124373168145e+00
-2.479177307340892256e+00
-2.585742514395429126e+00
-2.687210186704886539e+00
-2.780941052219298548e+00
-2.868102917514235184e+00
-2.944765558544791606e+00
-3.012079923245758906e+00
-3.068212508275567796e+00
-3.112000866466044346e+00
-3.143641267664039951e+00
-3.160619955807870252e+00
-3.164341637267088725e+00
-3.152953210821267671e+00
-3.127156202921056671e+00
-3.086848306507478323e+00
-3.031071454132558962e+00
-2.962114899228309728e+00
-2.878360552517552406e+00
-2.782559731612061604e+00
-2.674625161612407265e+00
-2.555070365941587873e+00
-2.427161134718140989e+00
-2.289377790581145877e+00
-2.146283447610970452e+00
-1.997420981599821621e+00
-1.844526061605845646e+00
-1.691050218025247798e+00
-1.535185118131811466e+00
-1.382533045949271289e+00
-1.231318945448279134e+00
-1.084238925615822025e+00
-9.434237023766717245e-01
-8.065777381836090054e-01
-6.791818703210195096e-01
-5.572421832159688559e-01
-4.443286298468800410e-01
-3.396688964389811272e-01
-2.409197487397570225e-01
-1.522329262261383487e-01
-6.723979078910675977e-02
9.464795946338394605e-03
8.245597123049808186e-02
1.529479922633652234e-01
2.189925848413744325e-01
2.884035504150255225e-01
3.552944701179860942e-01
4.277711715804066173e-01
5.043994231764363789e-01
5.857007224388248723e-01
6.827935069765843634e-01
7.903619782522622872e-01
8.939078166995048091e-01
1.000706616273436600e+00
1.137225866349893311e+00
1.319075108374163641e+00
1.507526119742406578e+00
1.655453329467555079e+00
1.793006273133403994e+00
2.008597463545549910e+00
2.321811328996173263e+00
2.611721324393044164e+00
2.766274588986626259e+00
2.879103516400502993e+00
3.171276968580995614e+00
3.665616412296397453e+00
4.060760815073705565e+00
4.098837651230435419e+00
4.013518505942105463e+00
4.363249047519879298e+00
5.262936412288699906e+00
5.937952861831362839e+00
5.335310733041278120e+00
3.276503436455897145e+00
8.339298867782106717e-01
