BVP Green Neck Signal
3.038085577252819941e-02
1.339284729892701101e-02
-4.257103748989510099e-03
-2.297772871766731381e-02
-4.317775895355235177e-02
-6.526592292290175901e-02
-8.958748805271504745e-02
-1.162604998724521554e-01
-1.453423068058758150e-01
-1.767131547363302579e-01
-2.101000477762847984e-01
-2.451550561791937255e-01
-2.813060936783275401e-01
-3.179278700459337581e-01
-3.542663596896007960e-01
-3.894664318007716175e-01
-4.226481183546291764e-01
-4.528677956552925044e-01
-4.791734222630102402e-01
-5.006525086056817786e-01
-5.164208624577861784e-01
-5.256536724093613389e-01
-5.276781188457281280e-01
-5.218638760366127727e-01
-5.077929703759859192e-01
-4.851849916225732806e-01
-4.538861421180634959e-01
-4.140320118039270691e-01
-3.658269268524800832e-01
-3.097572592228670096e-01
-2.464750176831481399e-01
-1.767610920362066851e-01
-1.016625109748506284e-01
-2.228081208084699630e-02
6.009404453752740377e-02
1.440721006808318716e-01
2.282183368530094347e-01
3.110140422149506034e-01
3.909363919897950179e-01
4.665040592761653948e-01
5.362567040238978011e-01
5.988282804294369210e-01
6.530141479891482525e-01
6.976658552250692980e-01
7.319196098923953508e-01
7.550376145667844208e-01
7.664914092804060441e-01
7.660766550209587855e-01
7.536788967776124615e-01
7.295729534823058859e-01
6.941891450667828645e-01
6.481769432261020869e-01
5.924935977903129647e-01
5.281691545958194789e-01
4.565120879253475872e-01
3.789304109180091085e-01
2.969292299422965908e-01
2.121373983797893714e-01
1.261919532533132549e-01
4.073061346603015082e-02
-4.261203146279927967e-02
-1.223030813035877462e-01
-1.969273833845542887e-01
-2.651388480645308077e-01
-3.258712571926137835e-01
-3.781467297244007209e-01
-4.212398517111152763e-01
-4.546906176474497241e-01
-4.781466030738487638e-01
-4.916360533330127458e-01
-4.952944262897214234e-01
-4.895082696776477116e-01
-4.749038171570422184e-01
-4.521872781830105770e-01
-4.223174568957887565e-01
-3.863154704651777238e-01
-3.453048581191605071e-01
-3.004979250702471960e-01
-2.531109449553920476e-01
-2.043635019634265637e-01
-1.554698960391217299e-01
-1.075524692479984112e-01
-6.166116252288040417e-02
-1.877482490922443778e-02
2.032705258511524962e-02
5.491617529264303244e-02
8.447138809818011129e-02
1.086195315774375891e-01
1.270842706523545584e-01
1.398318825551374822e-01
1.468830304055684099e-01
1.484404283161407101e-01
1.448247523793851077e-01
1.364183048741499649e-01
1.237425012345047814e-01
1.073445546174779663e-01
8.783307180101693201e-02
6.585260323097139046e-02
4.204704898511997524e-02
1.705798628799837235e-02
-8.479094146108626454e-03
-3.398088591294280703e-02
-5.889210261960010212e-02
-8.270065802705850455e-02
-1.049760139449790741e-01
-1.253084061094753843e-01
-1.433809828205814541e-01
-1.589219302256393851e-01
-1.717081026756259732e-01
-1.815994454340974229e-01
-1.884747534543226577e-01
-1.922882670892474555e-01
-1.930273475372122904e-01
-1.907148961697563982e-01
-1.854288678789274836e-01
-1.772600187264381510e-01
-1.663497639666771111e-01
-1.528597563818137883e-01
-1.369785591930508806e-01
-1.189325918976246177e-01
-9.895827512600530174e-02
-7.733218769633420919e-02
-5.434549045392633726e-02
-3.031082500665446128e-02
-5.568268371565286701e-03
1.953615448921289938e-02
4.463554971146012351e-02
6.935650023213582593e-02
9.332584611807664965e-02
1.161707283018790227e-01
1.375246473075452669e-01
1.570495693624774924e-01
1.744170670196860673e-01
1.893397920666079204e-01
2.015736572988846842e-01
2.108976924979323320e-01
2.171754922649160036e-01
2.202953395498968014e-01
2.202190730893266446e-01
2.169788702429319704e-01
2.106377995824529059e-01
2.013598517674682620e-01
1.893353578886789179e-01
1.748209367044339657e-01
1.581307628648389862e-01
1.395987118958711415e-01
1.196159491971983402e-01
9.858620886720023679e-02
7.692962589895124825e-02
5.507925268173673866e-02
3.346209492391967466e-02
1.248667756370000839e-02
-7.445108782693533878e-03
-2.597586700242356453e-02
-4.278006490550167323e-02
-5.756221301688049102e-02
-7.010302379825000818e-02
-8.020210181061279697e-02
-8.773723583145884297e-02
-9.263700734993421393e-02
-9.486766595886403364e-02
-9.448147932419198591e-02
-9.154972625555896082e-02
-8.621282487478837409e-02
-7.865190760608173348e-02
-6.907420945300765669e-02
-5.774086722133998234e-02
-4.492317681608765795e-02
-3.092254787454304377e-02
-1.605639946071451760e-02
-6.459650949937950290e-04
1.498054479333285963e-02
3.049602227005580868e-02
4.558840615471342061e-02
5.995307920851277589e-02
7.330441822400571295e-02
8.538939540421117136e-02
9.596529394774128141e-02
1.048396777144529890e-01
1.118424121530850468e-01
1.168385317739419338e-01
1.197477106235965705e-01
1.205046944626329553e-01
1.191094731184004218e-01
1.155882166039248204e-01
1.100050849941800746e-01
1.024777826431498007e-01
9.313749734055268292e-02
8.216854916543472886e-02
6.977446243562396289e-02
5.618258144468130100e-02
4.165072296768274757e-02
2.644211711583167868e-02
1.083719481533221458e-02
-4.878333253725261609e-03
-2.042226548710067077e-02
-3.551648002210801292e-02
-4.988912058883990253e-02
-6.329547688817954709e-02
-7.549972702666241098e-02
-8.629804833207971315e-02
-9.552037597140808356e-02
-1.030128813075923966e-01
-1.086805832455502718e-01
-1.124455432813503131e-01
-1.142775953366024777e-01
-1.141923364688428311e-01
-1.122248118269554007e-01
-1.084734963799099394e-01
-1.030534254586324971e-01
-9.612098999177592917e-02
-8.786855207499497111e-02
-7.850091170606246505e-02
-6.825913566963645596e-02
-5.739227587037327299e-02
-4.616000891574604387e-02
-3.483039409403807657e-02
-2.366732257008853646e-02
-1.292195962030517897e-02
-2.840812932690508011e-03
6.361462903846560983e-03
1.449306747838330182e-02
2.138463763736468681e-02
2.692387881071910127e-02
3.101281162830800409e-02
3.361388226428234371e-02
3.472886166349781201e-02
3.438856427149936112e-02
3.269023982261166916e-02
2.974540002655081880e-02
2.571454719009799370e-02
2.078705204481591864e-02
1.516541280590389187e-02
9.079057285065805782e-03
2.760326465371779753e-03
-3.562994286592897734e-03
-9.665704151697838975e-03
-1.534107746935809216e-02
-2.041755539552326040e-02
-2.473488885282752389e-02
-2.819174937751302984e-02
-3.071555082897239886e-02
-3.227110953237274232e-02
-3.288738972864468924e-02
-3.260806022049441560e-02
-3.153615597363693124e-02
-2.980073744266136665e-02
-2.755093586487221066e-02
-2.496703719224722950e-02
-2.223211199502852717e-02
-1.952974036817373138e-02
-1.704327200131181344e-02
-1.493571750505547427e-02
-1.334132629634866840e-02
-1.238182453025351258e-02
-1.212059074701859508e-02
-1.259943652666286121e-02
-1.381737275423328484e-02
-1.571854225702398050e-02
-1.823176341206380474e-02
-2.122676841090491776e-02
-2.455393322294091227e-02
-2.803935103413030677e-02
-3.148085667116553438e-02
-3.467348379766908850e-02
-3.740681583386170489e-02
-3.946962973303418803e-02
-4.066923772627977635e-02
-4.083254067147049776e-02
-3.980039348236115437e-02
-3.746613365414423052e-02
-3.373863333943454001e-02
-2.857610120172601048e-02
-2.198409033225921794e-02
-1.398899352850412406e-02
-4.685532065481892543e-03
5.813764183589691104e-03
1.735281124241995487e-02
2.973757537093842454e-02
4.276175997734962125e-02
5.618352327409931180e-02
6.975330371033724997e-02
8.321298506837734865e-02
9.629769058290274519e-02
1.087468732805897398e-01
1.203130800791209487e-01
1.307532082960742303e-01
1.398509895829224969e-01
1.474094387634092840e-01
1.532486033941772019e-01
1.572318228004974949e-01
1.592331122738944726e-01
1.591701117780739139e-01
1.569889067352195078e-01
1.526577658384817848e-01
1.461958549105493166e-01
1.376343381824095824e-01
1.270528797680246513e-01
1.145598465178448710e-01
1.002887463798625145e-01
8.442547209590253732e-02
6.716809983238836157e-02
4.876479354949642131e-02
2.949058964289743776e-02
9.643603475256173549e-03
-1.043445898379193743e-02
-3.039354672047821920e-02
-4.985601536307830706e-02
-6.843095789424752384e-02
-8.572805517069087555e-02
-1.013581490278448183e-01
-1.149379231692583825e-01
-1.261248305525845270e-01
-1.345947984784038043e-01
-1.400724725488988187e-01
-1.423585359046639631e-01
-1.412796221686017095e-01
-1.367848675686723359e-01
-1.288730595203153584e-01
-1.176297613624479599e-01
-1.032633057833546308e-01
-8.601589796285594169e-02
-6.626851360220004095e-02
-4.445259039356271036e-02
-2.106660468149580689e-02
3.304899321002922625e-03
2.806229029758076920e-02
5.255833125041555615e-02
7.613134510842456404e-02
9.813658984315656864e-02
1.179490777141217195e-01
1.349670915915241187e-01
1.486889484807708550e-01
1.586456021862794885e-01
1.644808185011658319e-01
1.659577933780541914e-01
1.628941476501988839e-01
1.553042097063784543e-01
1.432587144205475504e-01
1.269727414467591853e-01
1.068001297096045632e-01
8.314455853127553087e-02
5.656966193832273226e-02
2.767910529752438259e-02
-2.852727304871089525e-03
-3.428972908024149197e-02
-6.589177164851228730e-02
-9.691241143576143080e-02
-1.266079874778975045e-01
-1.542982770171968943e-01
-1.793533567125251138e-01
-2.011943460058222277e-01
-2.193866974485045862e-01
-2.335331080151076544e-01
-2.433873136251108737e-01
-2.488117237455422792e-01
-2.497382205294703672e-01
-2.462738668918742491e-01
-2.385646082243267629e-01
-2.268818007167682227e-01
-2.115786246636852941e-01
-1.930464461463422543e-01
-1.717630811644430822e-01
-1.482211728046798627e-01
-1.229383550647744905e-01
-9.644693108089608113e-02
-6.926729152507141163e-02
-4.189418777652308135e-02
-1.481237916396822840e-02
1.155450441042742311e-02
3.681580947856510216e-02
6.062300795155012301e-02
8.270756554476091371e-02
1.028203388422318509e-01
1.207955434468177824e-01
1.365080460051528721e-01
1.498728790025998237e-01
1.608740994304597438e-01
1.695103128064623654e-01
1.758349615802667076e-01
1.799256352537910164e-01
1.818796952368118280e-01
1.818253108464317480e-01
1.798958157888584930e-01
1.762402733221128670e-01
1.710139245035392219e-01
1.643731887575667350e-01
1.564761374901524893e-01
1.474797982303025501e-01
1.375345755944441251e-01
1.267883667359488709e-01
1.153822547146539090e-01
1.034485551955488802e-01
9.111671488413725095e-02
7.850459009945648381e-02
6.572616355394242382e-02
5.288869411672859205e-02
4.009158785119158741e-02
2.743220624147959738e-02
1.500067287211636832e-02
2.884948815379441509e-03
-8.829991579290990752e-03
-2.006234137063601930e-02
-3.073112508430664996e-02
-4.075811524234423250e-02
-5.006591028834567192e-02
-5.857991700585347961e-02
-6.622824663023962888e-02
-7.294130138142362885e-02
-7.865738809493999506e-02
-8.331721004719894186e-02
-8.687254901469607105e-02
-8.928487482362210126e-02
-9.052277367263375507e-02
-9.057687381844908847e-02
-8.944375695566392226e-02
-8.714333090346998434e-02
-8.371402450169787568e-02
-7.920599056051080833e-02
-7.370203691859236739e-02
-6.729282855354501436e-02
-6.009540913199885176e-02
-5.224582956153183549e-02
-4.388936103371501168e-02
-3.519430173837025111e-02
-2.633333093493137739e-02
-1.748694374095505905e-02
-8.840720799327780877e-03
-5.763217419888226785e-04
7.134031590462145203e-03
1.412201734056878384e-02
2.024561962788271399e-02
2.537848677035650299e-02
2.941489756783266518e-02
3.229248870220084028e-02
3.395999971489667424e-02
3.441687782324836381e-02
3.368990161218831519e-02
3.183262657901443637e-02
2.894943253601014316e-02
2.515566071274788137e-02
2.060868083428491968e-02
1.548631345087850449e-02
9.979905469840014837e-03
4.304014058337629102e-03
-1.324269983764096541e-03
-6.686277706210295990e-03
-1.156286672969479914e-02
-1.574813261659905803e-02
-1.905694151712151660e-02
-2.131311446859619763e-02
-2.238589397481051749e-02
-2.216310066628600361e-02
-2.056981979648479092e-02
-1.758405378987591347e-02
-1.319992343207571431e-02
-7.480110557895550821e-03
-5.125052142777161354e-04
7.574636441156528885e-03
1.660104427658744969e-02
2.637378466782511893e-02
3.665315524751612541e-02
4.718424225712137404e-02
5.769884186601256792e-02
6.791320488717411674e-02
7.754537245789527855e-02
8.632550567622779281e-02
9.398838061912320740e-02
1.002991692689170489e-01
1.050553360955054638e-01
1.080727113525636052e-01
1.092352969307329724e-01
1.084471132301488838e-01
1.056711546682515546e-01
1.009273069731247141e-01
9.425920258810008279e-02
8.578829224299641676e-02
7.565621370517330857e-02
6.405094237151538750e-02
5.120104154819423575e-02
3.734639694658985209e-02
2.275925916799194371e-02
7.718494397508639943e-03
-7.496303505461338751e-03
-2.260497034991419685e-02
-3.733648946018496007e-02
-5.144657901515024834e-02
-6.469862001830148368e-02
-7.689422655121305739e-02
-8.786262443367201525e-02
-9.745352783747041059e-02
-1.055687552994958867e-01
-1.121222118737849882e-01
-1.170710446215690870e-01
-1.204007266250297914e-01
-1.221133556332591463e-01
-1.222490931924020696e-01
-1.208558355741271850e-01
-1.180048022912393024e-01
-1.137810567384044680e-01
-1.082761910576865438e-01
-1.015952966444229888e-01
-9.384585984537274772e-02
-8.514145966191061232e-02
-7.559895264789720515e-02
-6.533699781250057459e-02
-5.447765527199092267e-02
-4.314381396238484850e-02
-3.146194398834970679e-02
-1.956027485488275389e-02
-7.569326362016666129e-03
4.376425565396271228e-03
1.614171509995065978e-02
2.758844797167933627e-02
3.857731477977489193e-02
4.897015735445864326e-02
5.863063475106104067e-02
6.742423026170152323e-02
7.522704282474682036e-02
8.191961179883461286e-02
8.739558748726961035e-02
9.156727826482818910e-02
9.435418219124899752e-02
9.570856696673235575e-02
9.559493415428213514e-02
9.400339971698704056e-02
9.095714879681393583e-02
8.648986594010654727e-02
8.067743719676673253e-02
7.360990648646539847e-02
6.540200255879941027e-02
5.619738506810999235e-02
4.614719087656973806e-02
3.542903685209778525e-02
2.422839231170184973e-02
1.273942373836804004e-02
1.165553210842783498e-03
-1.028991737597366625e-02
-2.142599996431113901e-02
-3.204283105515352836e-02
-4.195216284541330304e-02
-5.097697277455776749e-02
-5.894810892323601448e-02
-6.572338856592230272e-02
-7.116822601712416430e-02
-7.517495457451039975e-02
-7.765952951828400397e-02
-7.855107787762483085e-02
-7.781904402309733348e-02
-7.544327140289444622e-02
-7.143825018090960155e-02
-6.584607521968730004e-02
-5.872433886956755084e-02
-5.017370044816064911e-02
-4.030512898932561011e-02
-2.926340739851968076e-02
-1.721777185508671301e-02
-4.350528774992734257e-03
9.123115131983990794e-03
2.298100683951891793e-02
3.698188695430029704e-02
5.087197432601532621e-02
6.439466768225032833e-02
7.728721382178244115e-02
8.928704200231638022e-02
1.001427132164174061e-01
1.096094737640990746e-01
1.174571367753939610e-01
1.234863634792174591e-01
1.275069408602899357e-01
1.293759632278390914e-01
1.289761761850957700e-01
1.262226072333329230e-01
1.210919098239622016e-01
1.135764795806225025e-01
1.037394792652838460e-01
9.167882974571381349e-02
7.753185327771144886e-02
6.150400197146481396e-02
4.381649920448633939e-02
2.475483638360297806e-02
4.633027149401950512e-03
-1.620744012627900466e-02
-3.738200795605182980e-02
-5.849876366216733709e-02
-7.914297595615465974e-02
-9.889104905500822884e-02
-1.173248862452018204e-01
-1.340342671013415032e-01
-1.486175775849686576e-01
-1.607188020991570654e-01
-1.699993984069972097e-01
-1.761727410111910974e-01
-1.790193599953795733e-01
-1.783463900588035944e-01
-1.740736706888306451e-01
-1.661595841221814029e-01
-1.546493825840199177e-01
-1.396903151470357818e-01
-1.214642302711767263e-01
-1.002839467099295445e-01
-7.650247367123697018e-02
-5.054904880631639480e-02
-2.293417714454141360e-02
5.811237032266481500e-03
3.508930474699126917e-02
6.428478916849267311e-02
9.277605223523130440e-02
1.199352594971398178e-01
1.451495436895500479e-01
1.678615315781419870e-01
1.875312347551701120e-01
2.037060398906803127e-01
2.160101436823373966e-01
2.241179735910091564e-01
2.278594554656784565e-01
2.271049825112288201e-01
2.218636022723861345e-01
2.122550255966590693e-01
1.984569099400076420e-01
1.808076214931857439e-01
1.596823912480256347e-01
1.355601846432304691e-01
1.089950908448433786e-01
8.056754838925400675e-02
5.092292278293658603e-02
2.071698892718286389e-02
-9.396177183913455994e-03
-3.876371196440620698e-02
-6.676037945995896838e-02
-9.282631529451071395e-02
-1.164213341670780610e-01
-1.371117084572578415e-01
-1.545273382103994619e-01
-1.683649116980141802e-01
-1.784618854868491589e-01
-1.846890548316254821e-01
-1.870570418394516543e-01
-1.856521542861420127e-01
-1.806249780236937885e-01
-1.722485707272934374e-01
-1.608207959183339253e-01
-1.467276630403424043e-01
-1.303982448643374870e-01
-1.122848728640557792e-01
-9.287990733828896395e-02
-7.267875975124760135e-02
-5.216989253267356741e-02
-3.183825699957341937e-02
-1.213931172248479580e-02
6.517979595503702039e-03
2.374201040884692249e-02
3.922609001919434568e-02
5.269827552796928910e-02
6.394860893058812445e-02
7.285560804503632415e-02
7.932272379979360410e-02
8.335694455126516078e-02
8.500337671665134098e-02
8.436244522000746482e-02
8.160622748401677451e-02
7.692298772562725095e-02
7.055920221638292689e-02
6.278031706884276697e-02
5.386619831461784275e-02
4.411366646681492282e-02
3.381742111294652742e-02
2.325805760792281490e-02
1.271103139454302262e-02
2.422687647941195246e-03
-7.391718276964919995e-03
-1.653230190596710961e-02
-2.485572216160474024e-02
-3.223497091269222209e-02
-3.858461323377083280e-02
-4.385953072747680176e-02
-4.802872209092187011e-02
-5.110670312428912399e-02
-5.311950836933782699e-02
-5.411401032020624058e-02
-5.415542969700667258e-02
-5.331206855409116596e-02
-5.166026019911518219e-02
-4.927764570103906894e-02
-4.623660099345210106e-02
-4.260529036012425386e-02
-3.844727263351743751e-02
-3.381293570236210827e-02
-2.874955669841240680e-02
-2.329473130389990432e-02
-1.747903314106496672e-02
-1.133140486158500278e-02
-4.876903714358187328e-03
1.859643291231198245e-03
8.848609443348563058e-03
1.605719532462325516e-02
2.344736909656736784e-02
3.096881688470104130e-02
3.856819187206024513e-02
4.617907660668568032e-02
5.372724696314142012e-02
6.113364318292843769e-02
6.830908595190032795e-02
7.516286782400327660e-02
8.160221784272694845e-02
8.753328530831175347e-02
9.286591068545660410e-02
9.751708106417367183e-02
1.014064632969230995e-01
1.044688804593876530e-01
1.066466557093031509e-01
1.078930597349740117e-01
1.081803853577482932e-01
1.074858582085435332e-01
1.058084787069583366e-01
1.031569968365024237e-01
9.955271339445101453e-02
9.503669521489449545e-02
8.965518454110979474e-02
8.347643400379264889e-02
7.657766720317002451e-02
6.904968162976704571e-02
6.100267932057269055e-02
5.255217274043093995e-02
4.383550405288075269e-02
3.499804078852753603e-02
2.619582999415441885e-02
1.759877488944476889e-02
9.378698192455774824e-03
1.712502484300703134e-03
-5.221596249446396054e-03
-1.125500547664371777e-02
-1.623047443638018367e-02
-2.000013997392819168e-02
-2.245606592128676290e-02
-2.350347477430121679e-02
-2.309341203813130780e-02
-2.122594781784507834e-02
-1.792433522058789128e-02
-1.329682533270864705e-02
-7.476372464722639069e-03
-6.609601892891060239e-04
6.888253646892310983e-03
1.488757285813771016e-02
2.298033694571746319e-02
3.079172072591707110e-02
3.791958289948851868e-02
4.393768958874923886e-02
4.842435712705997486e-02
5.097552960908174197e-02
5.119465758239440806e-02
4.874713002996407946e-02
4.334796084714752362e-02
3.475775252528504750e-02
2.286707339324082350e-02
7.600318702135884161e-03
-1.098001597133262640e-02
-3.271101127824476568e-02
-5.736375660241402330e-02
-8.454098604174270504e-02
-1.138075760494978439e-01
-1.446043204338164911e-01
-1.762901957495241756e-01
-2.081884064027474668e-01
-2.395405480295727529e-01
-2.695760799146787456e-01
-2.975215868347177439e-01
-3.226021522419377230e-01
-3.440805859877498762e-01
-3.613005709943321597e-01
-3.736325601231302307e-01
-3.805974708054575828e-01
-3.817982529075932829e-01
-3.769426766195628220e-01
-3.659397189275713225e-01
-3.487481865789533453e-01
-3.255454401750040860e-01
-2.966165849100849128e-01
-2.623539929541219839e-01
-2.233363519489001969e-01
-1.801802494656217779e-01
-1.336404231600618608e-01
-8.453284160062282671e-02
-3.370649212491334118e-02
1.793778776116193574e-02
6.949910059394023842e-02
1.201056657246631354e-01
1.688985032334518188e-01
2.150814158345118188e-01
2.579482178167643025e-01
2.968270557595852899e-01
3.312030534483788591e-01
3.606201064278471979e-01
3.847363575295795757e-01
4.033584832456928448e-01
4.163377086296342622e-01
4.237024545468210390e-01
4.255408521731990912e-01
4.220404087124303705e-01
4.135059202782541687e-01
4.002723910437377963e-01
3.827822207308241298e-01
3.615100566895165790e-01
3.369703387981075049e-01
3.097201526840395736e-01
2.803204961482131941e-01
2.493398182334769786e-01
2.173472680678763536e-01
1.848855167557878487e-01
1.524714672692734918e-01
1.206018568764532228e-01
8.970336764548322850e-02
6.018287693763168383e-02
3.237761497641902103e-02
6.563265337667449108e-03
-1.701642992238626070e-02
-3.821570836275901134e-02
-5.691348850986056862e-02
-7.306180370785350653e-02
-8.667134695466774397e-02
-9.777913059272697049e-02
-1.064948482551140718e-01
-1.129443982142054603e-01
-1.172933935484365142e-01
-1.197363574888931359e-01
-1.204757758383362964e-01
-1.197334807836503978e-01
-1.177340268644478105e-01
-1.146966766631307699e-01
-1.108371654275880636e-01
-1.063604789625906821e-01
-1.014461513965826400e-01
-9.626671847522708103e-02
-9.096018232082381250e-02
-8.564381005380861112e-02
-8.041571029501085044e-02
-7.533346400122625797e-02
-7.044555914516570372e-02
-6.576493441208203228e-02
-6.128520512301235262e-02
-5.698623103452585964e-02
-5.282158222811558085e-02
-4.874028660146971503e-02
-4.467887972558438198e-02
-4.056782380448246267e-02
-3.633967673626538331e-02
-3.193073984797906162e-02
-2.728050895949089838e-02
-2.234887613546317903e-02
-1.710501646933072079e-02
-1.153743718154876842e-02
-5.665238811232976152e-03
4.833949611309945084e-04
6.839241983872115967e-03
1.331632190580980292e-02
1.980463159453081309e-02
2.615970792520205465e-02
3.222922744435179065e-02
3.783103854831186552e-02
4.277217717355782239e-02
4.685259956726381403e-02
4.986305287976362799e-02
5.159643428351921857e-02
5.185984755681310315e-02
5.046584912719904309e-02
4.725584303573748812e-02
4.210534689656648955e-02
3.490766590527211860e-02
2.562868676962811593e-02
1.425761086289792021e-02
8.494188673615348135e-04
-1.447028632700718062e-02
-3.154725375072423704e-02
-5.012387647801708201e-02
-6.991295639458330879e-02
-9.055991280269046206e-02
-1.116444745938111882e-01
-1.327271958724638157e-01
-1.533081802155506490e-01
-1.728732342802822286e-01
-1.909004723811804360e-01
-2.068612035195437071e-01
-2.202418584295252890e-01
-2.305794198742633916e-01
-2.374267794634945250e-01
-2.404250255717749751e-01
-2.392861493443913523e-01
-2.337769133897479035e-01
-2.238198609166950070e-01
-2.093769975568358921e-01
-1.905601459516680085e-01
-1.675904476115559205e-01
-1.407557167946597576e-01
-1.105139973241870410e-01
-7.736099846574373551e-02
-4.190974732889976573e-02
-4.850892383972288738e-03
3.309416272050942631e-02
7.113391979979735713e-02
1.084673130437989186e-01
1.443002604049965498e-01
1.778430841338275170e-01
2.083466994442196851e-01
2.351491922441802940e-01
2.576162436518525944e-01
2.752643441861167273e-01
2.876924678904577704e-01
2.946017133372774710e-01
2.958898687541330896e-01
2.915030374762603294e-01
2.815978479309335647e-01
2.664350781240102384e-01
2.463783450177801648e-01
2.219705138170993686e-01
1.937910530943483534e-01
1.625533268574402279e-01
1.290302798967088715e-01
9.402799874408507286e-02
5.840480653300323538e-02
2.301957805567053997e-02
-1.129524207090136165e-02
-4.371896665024829765e-02
-7.349323895784212746e-02
-9.994938736116149025e-02
-1.224539933126434499e-01
-1.405365101170706899e-01
-1.537876871540901080e-01
-1.619213277181176802e-01
-1.648117859281473807e-01
-1.623828043167966917e-01
-1.547564998765238176e-01
-1.421221637722453746e-01
-1.247835683657829986e-01
-1.031800787722017276e-01
-7.778614588460922019e-02
-4.920142898909961315e-02
-1.806319476917427405e-02
1.494808128725272356e-02
4.910545434323253244e-02
8.368091479720149439e-02
1.179515165676973953e-01
1.511977880137273800e-01
1.827481532208409254e-01
2.119778115405232533e-01
2.382938739567135866e-01
2.612137986729915484e-01
2.802858712997834401e-01
2.951599264400159850e-01
3.055758515317057444e-01
3.113172952407673999e-01
3.123019565531409691e-01
3.084810777360621481e-01
2.999011020241726388e-01
2.866851210267812311e-01
2.689905685541096325e-01
2.470700308129653300e-01
2.211979084532573192e-01
1.917081710232376723e-01
1.589783191663486916e-01
1.234058169707563934e-01
8.543853639818180246e-02
4.553518925965502340e-02
4.185330106236187508e-03
-3.810103941049732684e-02
-8.080457430824883325e-02
-1.233844655101687948e-01
-1.652962860823594671e-01
-2.059905686395905322e-01
-2.449148681834759644e-01
-2.815247578276903750e-01
-3.152931736279498409e-01
-3.457003707481082766e-01
-3.722735764574839346e-01
-3.945658500927731738e-01
-4.121737663138191343e-01
-4.247780395443305212e-01
-4.320838861481055559e-01
-4.339180401977322799e-01
-4.301677175211738868e-01
-4.208018770796109198e-01
-4.059324778297580538e-01
-3.857080031554461774e-01
-3.604370062988910828e-01
-3.305000619958949337e-01
-2.963601346973769313e-01
-2.586108086852388355e-01
-2.178727242059995683e-01
-1.748662481020409332e-01
-1.303518326367103242e-01
-8.510949282010596417e-02
-3.994730714063482457e-02
4.332294592128839439e-03
4.697207082498085218e-02
8.723280880771450141e-02
1.244486824520293355e-01
1.580498141036416337e-01
1.875050977473997349e-01
2.124498271921924364e-01
2.325765507150701350e-01
2.476998553384416601e-01
2.577791339384501446e-01
2.628192494792144784e-01
2.629958052255022549e-01
2.585369584323780612e-01
2.497609442236920219e-01
2.370830453372207158e-01
2.209412402530122610e-01
2.018472564814104975e-01
1.803323018384629939e-01
1.569381259212497826e-01
1.322167912532565270e-01
1.067110471316454756e-01
8.092768576269876446e-02
5.536238026816164143e-02
3.045779619122525664e-02
6.609508980081058027e-03
-1.581370958963300433e-02
-3.652626224321126741e-02
-5.526367180516731509e-02
-7.182506995646165127e-02
-8.606089160290070206e-02
-9.784481748691734038e-02
-1.071150949853733603e-01
-1.138246912817905965e-01
-1.179656147335561567e-01
-1.195584534091648221e-01
-1.186364655007071667e-01
-1.152648983790096060e-01
-1.095161270039387291e-01
-1.014850156542729254e-01
-9.128138025802443045e-02
-7.902662588612147099e-02
-6.486927365544453705e-02
-4.896474006736619561e-02
-3.149930377082452854e-02
-1.267787561297238630e-02
7.276873974853799790e-03
2.810448590376851338e-02
4.953595958035533070e-02
7.126863185899173780e-02
9.298146460123568602e-02
1.143429669396071047e-01
1.350016365933619789e-01
1.546043276436761815e-01
1.728033560944499669e-01
1.892539595842437083e-01
2.036323204053047675e-01
2.156514796533078593e-01
2.250380986577016629e-01
2.315907813239297675e-01
2.351408323580799764e-01
2.355743373553245423e-01
2.328644926671887549e-01
2.270080898949670134e-01
2.181044436055893931e-01
2.062948089081082792e-01
1.917732685602807075e-01
1.748100680885070757e-01
1.556910645733748932e-01
1.347580104304910431e-01
1.123729406763188943e-01
8.890751479684025349e-02
6.474596775763047374e-02
4.026914070929394490e-02
1.583595693736274818e-02
-8.202666882703822313e-03
-3.152643798459949659e-02
-5.385146808370169791e-02
-7.490793171554466223e-02
-9.448113706157632019e-02
-1.123736321357033663e-01
-1.284234513039012038e-01
-1.425069284830824679e-01
-1.545124863714296970e-01
-1.643706267380116159e-01
-1.720238575495611211e-01
-1.774400088507462891e-01
-1.806117271453962780e-01
-1.815418612013396660e-01
-1.802671371203789785e-01
-1.768336685071008052e-01
-1.713168906118236745e-01
-1.638183326116526561e-01
-1.544537340241672330e-01
-1.433828781111852468e-01
-1.307768678924903227e-01
-1.168424732778205744e-01
-1.018152814757756486e-01
-8.594369473149263139e-02
-6.951172539894551194e-02
-5.281093495393986148e-02
-3.614636818197449614e-02
-1.983294263279723746e-02
-4.181472182262647129e-03
1.050877974637370524e-02
2.394350775153208932e-02
3.586535269209028404e-02
4.604159446336303363e-02
5.426841923120490768e-02
6.041031597914324480e-02
6.434920172470233457e-02
6.604531829229182138e-02
6.550625236009491315e-02
6.278005802235003818e-02
5.800090563390170040e-02
5.132172961568757380e-02
4.296559065566726149e-02
3.319391106609873021e-02
2.229159888014083449e-02
1.058866025424311935e-02
-1.578323963648940557e-03
-1.386156138367139468e-02
-2.590789874904380827e-02
-3.737755015125927144e-02
-4.795438533360903144e-02
-5.733245461981549551e-02
-6.526255286664656152e-02
-7.152134563049758476e-02
-7.593091348470645818e-02
-7.838569192626265725e-02
-7.880044048110262933e-02
-7.717986812863752988e-02
-7.356564797968309644e-02
-6.805094578734713351e-02
-6.080331113758544875e-02
-5.200783957131890900e-02
-4.191756296239545349e-02
-3.081052330836099584e-02
-1.898886877023934355e-02
-6.786343668088822348e-03
5.460828872850531472e-03
1.741469562450179837e-02
2.873748336182675028e-02
3.911520100762227309e-02
4.826218202459688772e-02
5.590930854128638161e-02
6.185636484411098646e-02
6.592540928523829558e-02
6.800131759703734180e-02
6.803688266588012179e-02
6.601183561617368634e-02
6.200340787983318197e-02
5.611688544216666963e-02
4.852051615509778842e-02
3.944436076334960350e-02
2.913734068611218211e-02
1.790862617221137404e-02
6.082266677158628884e-03
-6.000167959585531521e-03
-1.798149146479611007e-02
-2.950916556444619504e-02
-4.024788938989216913e-02
-4.986852231470724484e-02
-5.808373920721753708e-02
-6.464006795535046090e-02
-6.931044604916244967e-02
-7.194350293188556122e-02
-7.240694989597959430e-02
-7.063916323636246219e-02
-6.663044502874548858e-02
-6.040164131014081478e-02
-5.205202474718882699e-02
-4.169835005529068384e-02
-2.951222014612992633e-02
-1.570179656819924163e-02
-4.928358628738991297e-04
1.584819197236246591e-02
3.304720818290957096e-02
5.081298470907485987e-02
6.884395954097802250e-02
8.683912534168189423e-02
1.044989850963236044e-01
1.215261479888819773e-01
1.376410535280315761e-01
1.525739968302573801e-01
1.660717035358323379e-01
1.779128399041190745e-01
1.878850268823898106e-01
1.958192566673960244e-01
2.015682106747904156e-01
2.050128119502369062e-01
2.060836445489156454e-01
2.047241175406213642e-01
2.009343626860414234e-01
1.947402137578537473e-01
1.861996262213221620e-01
1.754217689905623323e-01
1.625280286792820383e-01
1.476894055728097122e-01
1.310971933666346123e-01
1.129645040343665030e-01
9.353600502285333573e-02
7.306198634722974039e-02
5.181101183489810608e-02
3.005819685185205301e-02
8.077633068845645192e-03
-1.385794520313862049e-02
-3.547964122704743567e-02
-5.653797456252403902e-02
-7.679039023434439115e-02
-9.601544652847243677e-02
-1.140168879306440175e-01
-1.306082666023080097e-01
-1.456417586370408468e-01
-1.589817587700411150e-01
-1.705202647106007496e-01
-1.801791702011518448e-01
-1.878909989812908021e-01
-1.936261683237043008e-01
-1.973660296520622359e-01
-1.991167253462992892e-01
-1.989087790910917808e-01
-1.967818756376200628e-01
-1.928058916442829951e-01
-1.870587751431664891e-01
-1.796386467317601376e-01
-1.706616416321452279e-01
-1.602514838805086939e-01
-1.485550246062221635e-01
-1.357248649791697459e-01
-1.219289830024684607e-01
-1.073478238361867398e-01
-9.216679053689713630e-02
-7.658499695512357985e-02
-6.080442882737006199e-02
-4.503165928771037801e-02
-2.947663123304793825e-02
-1.434716559532170019e-02
1.548075148488860416e-04
1.382977794817656647e-02
2.649580110694878254e-02
3.798269113247330214e-02
4.813508713804912076e-02
5.683282540480783657e-02
6.396518130697631532e-02
6.946662670572112397e-02
7.329906749281353551e-02
7.545106576960505795e-02
7.596822536331704345e-02
7.490944037077426620e-02
7.238802888474513142e-02
6.854722423439577050e-02
6.355305056004259545e-02
5.761559425482309926e-02
5.095286516404914923e-02
4.380609474560547695e-02
3.642795593146115618e-02
2.906927685912208750e-02
2.197747507983562401e-02
1.539543562625662540e-02
9.535354180833535004e-03
4.595307974953564793e-03
7.436138319274589528e-04
-1.899015431421672249e-03
-3.225943942034078561e-03
-3.194433458827885403e-03
-1.788120687098548010e-03
9.715118912800631973e-04
5.008115269712341486e-03
1.023225799796062888e-02
1.650349973526339664e-02
2.366253314807151287e-02
3.153112395387042133e-02
3.990614175812619291e-02
4.858165119640149576e-02
5.734596962913768303e-02
6.598589409739324951e-02
7.429926518902049692e-02
8.209712375249195171e-02
8.919840707422338477e-02
9.545512903574276953e-02
1.007299536451694288e-01
1.049137377794492065e-01
1.079279270683937975e-01
1.097051988783089571e-01
1.102185387869338840e-01
1.094524920099751719e-01
1.074159885992972685e-01
1.041419825799307364e-01
9.967097696379090266e-02
9.406777464282511936e-02
8.740344522559020946e-02
7.976077160858288662e-02
7.123301507024279444e-02
6.191649613442491012e-02
5.191649635474573227e-02
4.134041231260719013e-02
3.029972000796646303e-02
1.890920851900366323e-02
7.284654373034069562e-03
-4.455502280729243744e-03
-1.619231695964894538e-02
-2.780671712904982107e-02
-3.917953794931124806e-02
-5.019280734377199599e-02
-6.073175897560676578e-02
-7.068269037676105926e-02
-7.993838331499633632e-02
-8.839596632168070234e-02
-9.595757774406155072e-02
-1.025372555875701808e-01
-1.080522127987605940e-01
-1.124347654579307965e-01
-1.156264160880530190e-01
-1.175781023482849186e-01
-1.182610044456655352e-01
-1.176513524805794797e-01
-1.157478103896592281e-01
-1.125614207736330141e-01
-1.081158270951230183e-01
-1.024591609804837711e-01
-9.564536491017602837e-02
-8.775293168710562863e-02
-7.887263306766034709e-02
-6.910755792225714567e-02
-5.858249582477630807e-02
-4.742696710231236040e-02
-3.578888781136941449e-02
-2.382447945115097332e-02
-1.169645993786855298e-02
4.220815096343285937e-04
1.235686938443058581e-02
2.393198946579335254e-02
3.497098811293642556e-02
4.530347209434142097e-02
5.476786851594102334e-02
6.320718601821506688e-02
7.048708704466416508e-02
7.648194838884636582e-02
8.108744492358951894e-02
8.422733818576511045e-02
8.583542851690095787e-02
8.588777172552911066e-02
8.437504920816676912e-02
8.131792405481785835e-02
7.677294778109217122e-02
7.080797911338324035e-02
6.353366349054638540e-02
5.507394818598386477e-02
4.557595397304344681e-02
3.521198805584720148e-02
2.416031577128629343e-02
1.261874143764508960e-02
7.902658846088411043e-04
-1.111962365207875593e-02
-2.290298608075662032e-02
-3.435486167961805670e-02
-4.528179200343278310e-02
-5.549391499558720131e-02
-6.481881792522559138e-02
-7.309972610808360138e-02
-8.018946937634768846e-02
-8.597109184597523379e-02
-9.033558701675864500e-02
-9.320085161404170759e-02
-9.450667419800759528e-02
-9.420509540102259272e-02
-9.228292651085023834e-02
-8.873551440334753737e-02
-8.358712988309446867e-02
-7.688341106722412777e-02
-6.868309541502454207e-02
-5.907879056321482802e-02
-4.817108737279711395e-02
-3.608930698963653400e-02
-2.298203373908820277e-02
-9.010580895572327040e-03
5.633812839966201823e-03
2.075340457249862103e-02
3.612830887792574386e-02
5.152518772523970170e-02
6.670434708810707436e-02
8.141265340268274975e-02
9.539541185269753698e-02
1.083998865367137299e-01
1.201745010802666158e-01
1.304784945207466407e-01
1.390923530848933998e-01
1.458041485146011063e-01
1.504443934029467134e-01
1.528650032100049849e-01
1.529515746730807646e-01
1.506493057272242642e-01
1.459198350597659122e-01
1.388007338474078478e-01
1.293641926638655071e-01
1.177274921345887737e-01
1.040801964615190034e-01
8.862903046557096820e-02
7.165033283065283531e-02
5.344902249860173510e-02
3.435825893225002287e-02
1.475225219519348333e-02
-4.988876699957577737e-03
-2.446942630340899830e-02
-4.328836505377228749e-02
-6.105721644519882668e-02
-7.740410919131784917e-02
-9.196863091977935944e-02
-1.044442001173037371e-01
-1.145433483992288892e-01
-1.220315462146683849e-01
-1.267377480779516563e-01
-1.285154437195572819e-01
-1.273150584430525756e-01
-1.231178372489004913e-01
-1.159746046932235153e-01
-1.060119426827268729e-01
-9.338247040659355958e-02
-7.833151831229445694e-02
-6.113095175445310697e-02
-4.210568867001603099e-02
-2.163309811416215533e-02
-1.049125581010306417e-04
2.204183224872358071e-02
4.435907973500747420e-02
6.639026192422661787e-02
8.767117172874486219e-02
1.077450006152316786e-01
1.261805938425539786e-01
1.425551537071174379e-01
1.564948543013945648e-01
1.676657958799742387e-01
1.757658543878770352e-01
1.805847146302475281e-01
1.819358580813084658e-01
1.797265848527281329e-01
1.739336303253410376e-01
1.645795254895847104e-01
1.518057552265582866e-01
1.357815369006707684e-01
1.167729990422977926e-01
9.511134324691009057e-02
7.116465211256173262e-02
4.538745504424732818e-02
1.825138360825142442e-02
-9.726186737483946687e-03
-3.800009604493886223e-02
-6.602295162118598792e-02
-9.324333983245181035e-02
-1.191138484052145785e-01
-1.431297913634935193e-01
-1.648103036002148691e-01
-1.837191602588996719e-01
-1.995076078399955766e-01
-2.118516525788338156e-01
-2.205483468555154425e-01
-2.254556580498725260e-01
-2.265065578326352358e-01
-2.237668106845396299e-01
-2.173341257237819679e-01
-2.074409228728675003e-01
-1.943808722644562170e-01
-1.785092559288537217e-01
-1.602801951359230093e-01
-1.401661796890557032e-01
-1.187014810084334460e-01
-9.644531591403740500e-02
-7.395809777094927706e-02
-5.180188622033916196e-02
-3.052842863130887652e-02
-1.062834844448974636e-02
7.431677365275763877e-03
2.325700915200976451e-02
3.654835185764301192e-02
4.704149946397253451e-02
5.462137917294666162e-02
5.922458328479385248e-02
6.088954125596716949e-02
5.977701046054051393e-02
5.608307191764225902e-02
5.013501421303313138e-02
4.230049051763922624e-02
3.300303970820899629e-02
2.272715311898913099e-02
1.196400772651898259e-02
1.219843271669267346e-03
-8.996865844130053774e-03
-1.821611709596609660e-02
-2.600601072058040739e-02
-3.196543173792047721e-02
-3.580238460251787547e-02
-3.725597528564372762e-02
-3.617207923908807854e-02
-3.249259240779751867e-02
-2.620546381481707668e-02
-1.744152466895881187e-02
-6.367186343452591393e-03
6.758137010283498010e-03
2.159909757996449076e-02
3.779467158182203690e-02
5.491335177891054631e-02
7.250956047041356989e-02
9.012520414652452905e-02
1.072929426859288438e-01
1.235593203520120031e-01
1.385089358282936001e-01
1.517384089463769958e-01
1.629139573742585390e-01
1.717486672831605166e-01
1.779990910211559918e-01
1.815251826565555116e-01
1.822116436109619819e-01
1.800437766863851319e-01
1.750683105354272906e-01
1.673778073996343707e-01
1.571631773604517945e-01
1.446359682162840776e-01
1.300798505861827381e-01
1.138183548511359222e-01
9.619659115613096723e-02
7.760144988234016217e-02
5.842531894728086872e-02
3.906561389976041104e-02
1.992206054710268445e-02
1.377168065201803604e-03
-1.621730154102801746e-02
-3.252141380491048450e-02
-4.725922900120842207e-02
-6.018424185610963401e-02
-7.109838944233690117e-02
-7.988160170147448613e-02
-8.643491315069606884e-02
-9.075159865474294318e-02
-9.286317442431404889e-02
-9.285073372371022149e-02
-9.086773776158107996e-02
-8.708359750824373746e-02
-8.172756819881918378e-02
-7.505106696931093668e-02
-6.732229608997025716e-02
-5.883168167681727262e-02
-4.986947524038089913e-02
-4.071698772538329125e-02
-3.165181742032897177e-02
-2.292534974290109939e-02
-1.475742116932983114e-02
-7.353070460975037401e-03
-8.568189538595864449e-04
4.606235242887835035e-03
8.957756024278402951e-03
1.217050028629917957e-02
1.423492785187314806e-02
1.520481195654078792e-02
1.515207912916580364e-02
1.418433465297778973e-02
1.244458202381723382e-02
1.008529625010357381e-02
7.288781164600396066e-03
4.244625628400640685e-03
1.148064472345891856e-03
-1.800582138399601899e-03
-4.405327382966881845e-03
-6.485347068755439523e-03
-7.864724117568253764e-03
-8.395904412210799389e-03
-7.954538685622510735e-03
-6.434153467761829018e-03
-3.780046867446836163e-03
4.916180362123274972e-05
5.043620427116151002e-03
1.115542736461302455e-02
1.831260515626403212e-02
2.638051435041356002e-02
3.521014788350659841e-02
4.460469933852188873e-02
5.433516029741267822e-02
6.415679721781075706e-02
7.378809000331074119e-02
8.294109897275372956e-02
9.131781731279814407e-02
9.861414983433403059e-02
1.045349792120528754e-01
1.088050512655847346e-01
1.111569491542259147e-01
1.113725534254342009e-01
1.092612277045154068e-01
1.046715439053785002e-01
9.752904562098990704e-02
8.777955813768134607e-02
7.546296172560931770e-02
6.066657392687299644e-02
4.353044228617714700e-02
2.428824458763707839e-02
3.194643420354504292e-03
-1.941204903260158529e-02
-4.315547119067633663e-02
-6.762910223309959168e-02
-9.237793060135740530e-02
-1.169410007076463476e-01
-1.408472868258160149e-01
-1.636221174381664034e-01
-1.848132044806029828e-01
-2.040010776247713209e-01
-2.207827314521098871e-01
-2.348365785783340098e-01
-2.458724015450768907e-01
-2.536704309879995178e-01
-2.581044533045957490e-01
-2.590786946527899870e-01
-2.566231922885590655e-01
-2.508114397302738663e-01
-2.417938398288237700e-01
-2.298135018487398318e-01
-2.151379967620988543e-01
-1.981237597224389524e-01
-1.791544165688018220e-01
-1.586448568290746985e-01
-1.370441872795037930e-01
-1.148022157509651364e-01
-9.236438277160285981e-02
-7.017334958567536529e-02
-4.863462328950355490e-02
-2.811678407074413161e-02
-8.963398426970616006e-03
8.569992506293380718e-03
2.425278038587622143e-02
3.793637805892449699e-02
4.954622134491663832e-02
5.904312645630138690e-02
6.649802683471081610e-02
7.200950926315410894e-02
7.575051277556479890e-02
7.795489761552668040e-02
7.887881946437896863e-02
7.884028126822426041e-02
7.817008885416976138e-02
7.721589519054802842e-02
7.633786076401824494e-02
7.588737805791795354e-02
7.619128267439292945e-02
7.756767303855097162e-02
8.027762803765028932e-02
8.454368148050778187e-02
9.054880186625371974e-02
9.838130577810788591e-02
1.081061451993962641e-01
1.196887093425774984e-01
1.330333671108997751e-01
1.479965396548253709e-01
1.643312955413495924e-01
1.817687293346428312e-01
1.999616423078681982e-01
2.185194111956322016e-01
2.370281062689159890e-01
2.550285256302135539e-01
2.720558609884664025e-01
2.876429705119798452e-01
3.013217984032660612e-01
3.126472926247870210e-01
3.212156057810621190e-01
3.266385281899207849e-01
3.286122558473489885e-01
3.268719702084838530e-01
3.212187590129552128e-01
3.115602067527464825e-01
2.978337857788692089e-01
2.801102180157173382e-01
2.585157778766740688e-01
2.332543590738894723e-01
2.046435751410473070e-01
1.730280826969040342e-01
1.388583607329228753e-01
1.026244261879434017e-01
6.485440495682578965e-02
2.612707738402226046e-02
-1.297464172773751118e-02
-5.186455984289076171e-02
-8.995650903447025004e-02
-1.267007788444068916e-01
-1.615916961950237263e-01
-1.941480332456326507e-01
-2.239911294730314584e-01
-2.507756249006804494e-01
-2.742430834480942825e-01
-2.942303778753737609e-01
-3.106086465537026275e-01
-3.233727171052120930e-01
-3.325530040227617778e-01
-3.382498743110103345e-01
-3.406333413263485932e-01
-3.398912932648612828e-01
-3.362676089485296393e-01
-3.300198081709643794e-01
-3.214143992209023137e-01
-3.107260149025832252e-01
-2.982223103459432645e-01
-2.841464286262087025e-01
-2.687341545356622952e-01
-2.521849970526011120e-01
-2.346686860782684347e-01
-2.163380606841603104e-01
-1.972975642445542188e-01
-1.776405540989679788e-01
-1.574322324378071847e-01
-1.367168333210025399e-01
-1.155354247219167740e-01
-9.392183792852501489e-02
-7.191028988211381479e-02
-4.955481667468650264e-02
-2.692289180396430573e-02
-4.101119088534788300e-03
1.877781026249376872e-02
4.156964088048575867e-02
6.407965085517129677e-02
8.608215079252098945e-02
1.073305856109533774e-01
1.275334828368543949e-01
1.463916339552403800e-01
1.635891080363007233e-01
1.788008033956330622e-01
1.917124715833570525e-01
2.020316003218362577e-01
2.094758150843384625e-01
2.138263837633411213e-01
2.148969782871774092e-01
2.125546906413298964e-01
2.067620150503179932e-01
1.975072936461003403e-01
1.848973942149756133e-01
1.690936292814322617e-01
1.503230082877017593e-01
1.289187653052610294e-01
1.052376254646128217e-01
7.972749454359570609e-02
5.287390351702266761e-02
2.519171906136615999e-02
-2.761207319449608157e-03
-3.042378745659089084e-02
-5.723612874980989196e-02
-8.263954495798939148e-02
-1.061070926634911371e-01
-1.271541577598582218e-01
-1.453165550422571839e-01
-1.602222528657296918e-01
-1.715318098614918574e-01
-1.789838738940627560e-01
-1.824115608633221641e-01
-1.816813298767304963e-01
-1.767900675971720292e-01
-1.677761791580298645e-01
-1.547642015495775958e-01
-1.379732767193493637e-01
-1.176528800942704955e-01
-9.415994175993427917e-02
-6.788220524321175731e-02
-3.926472465619867958e-02
-8.809714022688246854e-03
2.296607041552601106e-02
5.550033956916950589e-02
8.821975406618881577e-02
1.205448926240333396e-01
1.518908275728451107e-01
1.816813936269780771e-01
2.093706999438864069e-01
2.344224523711431474e-01
2.563534886543640812e-01
2.747243454607457558e-01
2.891297606295107903e-01
2.992641308906016095e-01
3.048479754368476069e-01
3.057064132244735055e-01
3.017426655617780340e-01
2.929138797025282459e-01
2.793187713485144053e-01
2.610900119038604417e-01
2.384857910339336362e-01
2.118493465492479189e-01
1.815776750344025026e-01
1.481953426089410997e-01
1.122538255774319926e-01
7.438886961641133500e-02
3.528793787879987154e-02
-4.343500661306549590e-03
-4.376194281943130565e-02
-8.222151554679060781e-02
-1.190021280247284541e-01
-1.533983327537841446e-01
-1.847509027088935774e-01
-2.124922179069843042e-01
-2.360828131177621914e-01
-2.551291297373755040e-01
-2.693117485962647217e-01
-2.784079488683293135e-01
-2.823678045796650382e-01
-2.811838636093553778e-01
-2.750310911091426447e-01
-2.641681773524360288e-01
-2.489401370582300932e-01
-2.298317122510800670e-01
-2.073547071129403785e-01
-1.821154457724302733e-01
-1.547589843192036518e-01
-1.259428191809305875e-01
-9.634260904616195886e-02
-6.662656720422568957e-02
-3.741025663394165895e-02
-9.288304188766539557e-03
1.721307268951596456e-02
4.165900603314604683e-02
6.364739280944775590e-02
8.291553580408808632e-02
9.924926460845878706e-02
1.125240598131777847e-01
1.227240395297420350e-01
1.298627175063764849e-01
1.340615701230647439e-01
1.354754773251113098e-01
1.343026069732246308e-01
1.307887547368351555e-01
1.251862236948367846e-01
1.177644752379214677e-01
1.087969337677365533e-01
9.854401212812380351e-02
8.725312292667997127e-02
7.516144241267472270e-02
6.246958276566783735e-02
4.936802256322860710e-02
3.601821235093542739e-02
2.255526754123351671e-02
9.105036064838896784e-03
-4.234775161857096820e-03
-1.737296118665248440e-02
-3.022749947406321719e-02
-4.272392838106980201e-02
-5.478630883037867438e-02
-6.633353451782575405e-02
-7.728254552315491632e-02
-8.753629645875313225e-02
-9.698728071224385627e-02
-1.055206385936539037e-01
-1.130021597986474724e-01
-1.192935967988628387e-01
-1.242470992260424067e-01
-1.277083189705202348e-01
-1.295257005758377045e-01
-1.295548342816439380e-01
-1.276550016849089531e-01
-1.237139396112508782e-01
-1.176369730905696132e-01
-1.093544111549541453e-01
-9.885116085152906296e-02
-8.612664173121992173e-02
-7.124922874887401614e-02
-5.432588692864075836e-02
-3.550249735395737127e-02
-1.500165224828519522e-02
6.936870445545939914e-03
3.000495103197556995e-02
5.385989977489091113e-02
7.813400008950227571e-02
1.024149421336721655e-01
1.262840720381508131e-01
1.493101774661730052e-01
1.710565783768248360e-01
1.911017737814518502e-01
2.090490380829586048e-01
2.245137327672565297e-01
2.371764500535458731e-01
2.467454684449774394e-01
2.529854683034513108e-01
2.557442583181368523e-01
2.548950869815049258e-01
2.504223581818584288e-01
2.423529160977177521e-01
2.307821062065456286e-01
2.158968640831655239e-01
1.979078833218819167e-01
1.771177121339915506e-01
1.538603326018917750e-01
1.285088727966478828e-01
1.014839729674937574e-01
7.321357539364098388e-02
4.414662399401975829e-02
1.473784457613470586e-02
-1.456968734090944087e-02
-4.334573943695967796e-02
-7.117186225112132059e-02
-9.767667829850570915e-02
-1.225032929540389171e-01
-1.453416043847162442e-01
-1.659283446401754736e-01
-1.840209965265610093e-01
-1.994479215840181952e-01
-2.120568610081295935e-01
-2.217461886022307760e-01
-2.284602947155912889e-01
-2.321625000692329466e-01
-2.328746597661774387e-01
-2.306333904269725621e-01
-2.255146353856709307e-01
-2.176267902163634971e-01
-2.070935494524687726e-01
-1.940821770366905896e-01
-1.787705338361858798e-01
-1.613701495497761040e-01
-1.421177779658950036e-01
-1.212647465928375357e-01
-9.910050881401938350e-02
-7.592325208735631326e-02
-5.205968488364907248e-02
-2.785589915917097842e-02
-3.666781507087126663e-03
2.013209345938467981e-02
4.316199390907432543e-02
6.504375406188353526e-02
8.539800155755944422e-02
1.038576458947897962e-01
1.200827711865156966e-01
1.337430058160817004e-01
1.445645399260561403e-01
1.523053679569946195e-01
1.567680342412527683e-01
1.578433230502120643e-01
1.554454558996651026e-01
1.495982793424787127e-01
1.403814344935372105e-01
1.279374581491981300e-01
1.125215774632261911e-01
9.441471299179463039e-02
7.400181840675459921e-02
5.171563761630121325e-02
2.802925175937669502e-02
3.481193428043302673e-03
-2.138049740374386304e-02
-4.598463004591066966e-02
-6.975090963945598799e-02
-9.211815288336935859e-02
-1.125534757974556710e-01
-1.305407430569903160e-01
-1.456497399089624889e-01
-1.574837551048013373e-01
-1.657258454091541655e-01
-1.701659428433951182e-01
-1.706301127030137588e-01
-1.670963141716395317e-01
-1.595955934850430136e-01
-1.482579353646684417e-01
-1.333336387165441339e-01
-1.151070743123045192e-01
-9.398966487681703619e-02
-7.043246339477113316e-02
-4.494253270656441840e-02
-1.808877786588200531e-02
9.551030502585128312e-03
3.737506757449368666e-02
6.477626105966623193e-02
9.117361168096460577e-02
1.160122620398050530e-01
1.387619946743932908e-01
1.589817823753572057e-01
1.762566287308137136e-01
1.902667291070243294e-01
2.007789454588748967e-01
2.076053106122006109e-01
2.107006320285222667e-01
2.100565202151088717e-01
2.057730599472651078e-01
1.980400041933432498e-01
1.870864236231365163e-01
1.732529804143383145e-01
1.569056060088477311e-01
1.384691343134733521e-01
1.184125812362223085e-01
9.721401653489164518e-02
7.537334719381186265e-02
5.339225122600541051e-02
3.174829830982801165e-02
1.090258385048523300e-02
-8.712206808324842941e-03
-2.673250415357654799e-02
-4.281318588052832746e-02
-5.669664980351502709e-02
-6.817943467345036201e-02
-7.710545112990280225e-02
-8.342183613926473784e-02
-8.709889884103957924e-02
-8.819638080185190909e-02
-8.682413736376226598e-02
-8.312731686225680039e-02
-7.732055892233979932e-02
-6.963151070605078097e-02
-6.032798440922442634e-02
-4.969809004237333433e-02
-3.803592652340053587e-02
-2.564613560845443313e-02
-1.283262600317519944e-02
1.145259970068012063e-04
1.291178283027924999e-02
2.529301649218183845e-02
3.702051337712021495e-02
4.786512870402946651e-02
5.763740962758718417e-02
6.616462702786035655e-02
7.329883489268573804e-02
7.892872335927095251e-02
8.295272982977883180e-02
8.530968045551015622e-02
8.595384654402241087e-02
8.486319384828999723e-02
8.204747906286999348e-02
7.752556641513747016e-02
7.135284704820354929e-02
6.359747267991273934e-02
5.435048112022562716e-02
4.373078937532898225e-02
3.186580010003894903e-02
1.891519890733771303e-02
5.048890898343811121e-03
-9.545309244786536612e-03
-2.465977719273811444e-02
-4.008214376805148416e-02
-5.558423638283997714e-02
-7.093364637388749339e-02
-8.589706473825683974e-02
-1.002402782272956705e-01
-1.137332017790985972e-01
-1.261616018566268649e-01
-1.373162695029556402e-01
-1.470126169790371140e-01
-1.550885124389051462e-01
-1.613961755917324992e-01
-1.658339005458023263e-01
-1.683123032279044140e-01
-1.687842215758296738e-01
-1.672374588812503560e-01
-1.636785041901263060e-01
-1.581676742886552745e-01
-1.507782751406017141e-01
-1.416233419927813708e-01
-1.308457751558704807e-01
-1.186027087454031292e-01
-1.050882964923084972e-01
-9.050456578155033349e-02
-7.507344465240894937e-02
-5.903042519777772223e-02
-4.261404622169041173e-02
-2.606971371166458273e-02
-9.643096141092065421e-03
6.428644377388775463e-03
2.191364742867721663e-02
3.659093705684091785e-02
5.026353147566185037e-02
6.274124178723436418e-02
7.386818709926096238e-02
8.350780570090460264e-02
9.154525714997699404e-02
9.790879694485249418e-02
1.025372024842265972e-01
1.054149794753771463e-01
1.065499595378650299e-01
1.059733650809899785e-01
1.037584416450679503e-01
9.998766998646971271e-02
9.477973569756917294e-02
8.827002319084534254e-02
8.060847178170471583e-02
7.196872533265527561e-02
6.252883932819285062e-02
5.248170013424586361e-02
4.202634255732132229e-02
3.136511301026993770e-02
2.070524431018384848e-02
1.025410507573958074e-02
2.175129738230400026e-04
-9.199405094381397571e-03
-1.779650234641504472e-02
-2.538033108258541323e-02
-3.176097566502408820e-02
-3.676481387677806023e-02
-4.022416540860721673e-02
-4.198971646240164113e-02
-4.193456955816235454e-02
-3.994240638116083181e-02
-3.594077840931468593e-02
-2.987176902504086462e-02
-2.171912518013831978e-02
-1.151276013984982999e-02
6.973307032377418224e-04
1.478585029158448368e-02
3.060495687425123998e-02
4.794855321385663172e-02
6.655192788078467814e-02
8.612836774182650035e-02
1.063171311049669887e-01
1.267378977349433444e-01
1.469721012102506441e-01
1.665662335059568400e-01
1.850617277028293317e-01
2.019871344004522951e-01
2.168698926805682214e-01
2.292648642041084095e-01
2.387496690269035882e-01
2.449299644035265733e-01
2.474950631119949840e-01
2.461573321946490811e-01
2.407320493362467839e-01
2.311120148574574984e-01
2.172455132522128352e-01
1.992279924341802955e-01
1.771901121318352756e-01
1.513903259550549996e-01
1.221744344454633868e-01
8.993923422747154839e-02
5.520329436699999981e-02
1.851000325577407957e-02
-1.952750349635644367e-02
-5.825292876458627866e-02
-9.700091493224968775e-02
-1.350873712268753912e-01
-1.718297031659776486e-01
-2.065841195056754842e-01
-2.387288724714263233e-01
-2.676879119679970165e-01
-2.929764266322185673e-01
-3.141354774283887652e-01
-3.308335731178615458e-01
-3.428044888540702217e-01
-3.498606167915303544e-01
-3.519560252295030334e-01
-3.490789435398539697e-01
-3.413624982286704856e-01
-3.290069336845309889e-01
-3.122824809084736586e-01
-2.915736644178335557e-01
-2.672887716467456376e-01
-2.399242935069367533e-01
-2.100134621521252132e-01
-1.781149651707928383e-01
-1.448251638438167177e-01
-1.107425764894136855e-01
-7.646032695960375269e-02
-4.256879713350986139e-02
-9.626786694011200962e-03
2.184946682334809598e-02
5.136331942350873953e-02
7.850662718761070025e-02
1.029028069467789186e-01
1.242491248913551172e-01
1.423331328132118045e-01
1.569736864049748326e-01
1.681127037768659904e-01
1.757315809296025044e-01
1.798909498351395631e-01
1.807393937783403348e-01
1.784521679124301541e-01
1.732987792703471197e-01
1.655757470929015707e-01
1.556234217155721689e-01
1.438263317476178027e-01
1.305768214958385742e-01
1.162896413719036737e-01
1.013842735206327283e-01
8.626806376062817749e-02
7.133724909505156919e-02
5.697337503650277274e-02
4.350915476087355294e-02
3.126351999770323603e-02
2.049896116459016052e-02
1.143106162073642858e-02
4.247088917570517388e-03
-9.481102543768687996e-04
-4.070092438962048115e-03
-5.102094506220839279e-03
-4.078413209628518887e-03
-1.060447302326995855e-03
3.819281360804696775e-03
1.041245652697773971e-02
1.852456511681283002e-02
2.792947815511808568e-02
3.838812019691967281e-02
4.963089961779749981e-02
6.138303851345257994e-02
7.336371875814592936e-02
8.528841331536840542e-02
9.687933139320800691e-02
1.078738188213651805e-01
1.180144100108700689e-01
1.270740317390972873e-01
1.348427953219337727e-01
1.411314530777438847e-01
1.457918835222770104e-01
1.486860039351130258e-01
1.497193596324326026e-01
1.488198258904685767e-01
1.459372570717438200e-01
1.410611291664526368e-01
1.341897042534081208e-01
1.253559781349029290e-01
1.146090521496495040e-01
1.020139509163729419e-01
8.766174190572872948e-02
7.164956793295967907e-02
5.409911459954403617e-02
3.514245535568504691e-02
1.492662074805811874e-02
-6.379131845704127945e-03
-2.859874573046573831e-02
-5.152628380827071336e-02
-7.494422923620089327e-02
-9.861354624776491606e-02
-1.222661687900159500e-01
-1.456255089601340702e-01
-1.683804069764059108e-01
-1.902077417714530816e-01
-2.107687843130748306e-01
-2.297056946356491602e-01
-2.466595415150436565e-01
-2.612717575511551704e-01
-2.731848144792911603e-01
-2.820673066440950727e-01
-2.876168775179211434e-01
-2.895525305609274458e-01
-2.876781029374833043e-01
-2.818240737751184222e-01
-2.719139397316858164e-01
-2.579651167502773346e-01
-2.400412218413529308e-01
-2.183667576504047525e-01
-1.932109516996929066e-01
-1.649665761414673693e-01
-1.341396733119802620e-01
-1.012792430040924119e-01
-6.706710443557231671e-02
-3.221655702647336500e-02
2.507459594803287430e-03
3.629703174326388837e-02
6.835201149782402230e-02
9.790011893203892646e-02
1.241817741332493508e-01
1.465445392692454329e-01
1.644170025800281709e-01
1.773082940295024612e-01
1.849440793299550467e-01
1.871053784110507656e-01
1.838049948786171228e-01
1.752147636974074607e-01
1.616159737973950627e-01
1.435535716368071257e-01
1.216293945982694358e-01
9.662993503929115380e-02
6.945645363096880631e-02
4.105290468615541144e-02
1.245474039902936571e-02
-1.529478793131740580e-02
-4.119693211442583547e-02
-6.427857980711645935e-02
-8.365626572346845924e-02
-9.862655942849887780e-02
-1.085401760865180587e-01
-1.130260831680981182e-01
-1.118562377693163024e-01
-1.049737906395433462e-01
-9.263149301922896095e-02
-7.515252096317487362e-02
-5.314489852308213608e-02
-2.734854345062261508e-02
1.396007092309370107e-03
3.208361805289244861e-02
6.369007664460193952e-02
9.516609790903529653e-02
1.254535242273039919e-01
1.535742553025647994e-01
1.786696720403785354e-01
1.999348039668734922e-01
2.168281011294973526e-01
2.289105421881572344e-01
2.359444293023521544e-01
2.379641540143332401e-01
2.350806660114385382e-01
2.277115875639941778e-01
2.163808098031019811e-01
2.017499616178314581e-01
1.846496182312690193e-01
1.659341742107816320e-01
1.465225294072767803e-01
1.273504660698474567e-01
1.092860829896560582e-01
9.312207663865521012e-02
7.959162692609922374e-02
6.918986843873903281e-02
6.233857806700339454e-02
5.923357880167891276e-02
5.984214887983844294e-02
6.403952740023266532e-02
7.138695044196555206e-02
8.136162003541536070e-02
9.326646363723872790e-02
1.062443501153807202e-01
1.194054420329558053e-01
1.317680165846042695e-01
1.423340197612462110e-01
1.501624350669138741e-01
1.543598388773405605e-01
1.541059415522318676e-01
1.488010092500183235e-01
1.379055915516310127e-01
1.211426724472929595e-01
9.843395419757791642e-02
6.982966548490207592e-02
3.572147258394985092e-02
-3.420612121047255511e-03
-4.687482016308428673e-02
-9.374646293659386065e-02
-1.430654758456622877e-01
-1.936829816385050584e-01
-2.444197662047619402e-01
-2.940629052540416066e-01
-3.413787350471835236e-01
-3.851794031445954225e-01
-4.243802435332317824e-01
-4.579317482395737771e-01
-4.849899026000273339e-01
-5.048272940119495900e-01
-5.168566880844284173e-01
-5.207711595303552432e-01
-5.163321149209103567e-01
-5.035975959081424591e-01
-4.827779612303534917e-01
-4.542284270995051720e-01
-4.185661988668927802e-01
-3.764630958506868241e-01
-3.287941917097181865e-01
-2.765286974366005235e-01
-2.206972125712207133e-01
-1.624308167810983305e-01
-1.028703302371658801e-01
-4.315889790413369315e-02
1.556045434229782684e-02
7.220357831421023165e-02
1.257743237591961161e-01
1.753142496068861578e-01
2.200483782767807817e-01
2.592733892089939540e-01
2.924317710918018509e-01
3.191634280586237993e-01
3.391688946659044412e-01
3.523987604120510930e-01
3.588914091926088679e-01
3.588317381073161672e-01
3.525846916612198623e-01
3.405616476632470357e-01
3.233437193950492450e-01
3.015651289642846122e-01
2.759240168176425589e-01
2.471898422168766762e-01
2.161388315266632998e-01
1.835601687577979035e-01
1.502447116602735333e-01
1.169408613060099189e-01
8.435399965755027707e-02
5.315811954673120565e-02
2.391397867070509803e-02
-2.850251728324098774e-03
-2.671372763154089558e-02
-4.735435345515472128e-02
-6.449711494689144842e-02
-7.801629736901821710e-02
-8.782454047467100344e-02
-9.394103073831425177e-02
-9.647396225951304638e-02
-9.556919177604752957e-02
-9.148027242643239076e-02
-8.448553719844403842e-02
-7.492312114644508747e-02
-6.317650044808753584e-02
-4.964278449486751038e-02
-3.475369737665837122e-02
-1.894676557189597585e-02
-2.657791349868108069e-03
1.367864603968470087e-02
2.964198819577907110e-02
4.484650791248170898e-02
5.891688535056240072e-02
7.153411552534530427e-02
8.241442900221818135e-02
9.131067691784550133e-02
9.805659794310636612e-02
1.025057846577889509e-01
1.045980229517452231e-01
1.043219868342395995e-01
1.017102868013581574e-01
9.688326988803985795e-02
8.998046046405738796e-02
8.121524269043611799e-02
7.083890190544023246e-02
5.912979208521516872e-02
4.641517335700062058e-02
3.302998572080224904e-02
1.932795944864050888e-02
5.671341241593869792e-03
-7.586462276097660773e-03
-2.010673187046761387e-02
-3.155924738764173676e-02
-4.166196446458821784e-02
-5.015358894264743128e-02
-5.681604268572456456e-02
-6.149585418971224154e-02
-6.405951913338048254e-02
-6.446192040810014290e-02
-6.269219697402725333e-02
-5.879583899102064359e-02
-5.289475174576013794e-02
-4.513136794819908038e-02
-3.572921274735064989e-02
-2.494005798904033039e-02
-1.305374313943242701e-02
-4.069656989728761241e-04
1.265517437813793757e-02
2.576105416217161145e-02
3.853135610154833496e-02
5.059432731647907355e-02
6.158667324103191815e-02
7.115682792190997086e-02
7.900175733880193674e-02
8.483388108976708253e-02
8.842250119744926584e-02
8.959465657199428001e-02
8.820584484020049798e-02
8.421119329405929443e-02
7.759373451370515928e-02
6.841497611246577515e-02
5.680875441181413438e-02
4.293888545104429522e-02
2.706320036262260115e-02
9.462929796350346909e-03
-9.526920611011849976e-03
-2.952634713373571834e-02
-5.014371707078267570e-02
-7.095575486553915012e-02
-9.153367477059362600e-02
-1.114572055091349878e-01
-1.303125645349613726e-01
-1.477041284830163392e-01
-1.632861801012286673e-01
-1.767269999100666289e-01
-1.877637889698722806e-01
-1.961813026179167196e-01
-2.018027691806373314e-01
-2.045450006637104523e-01
-2.043465682504782277e-01
-2.012284549499240294e-01
-1.952632060890579502e-01
-1.865568124868000610e-01
-1.752886118916777425e-01
-1.616526789466729563e-01
-1.458893420423885978e-01
-1.282651254361596160e-01
-1.090580559928378268e-01
-8.856886466649821488e-02
-6.710121486695408421e-02
-4.496039064373693467e-02
-2.245243271680107816e-02
1.235586029305038754e-04
2.248119806905853404e-02
4.433836203897039557e-02
6.543507624106381648e-02
8.552178510566693648e-02
1.043645003414521155e-01
1.217549216660515354e-01
1.374919873155545647e-01
1.514073408633198614e-01
1.633466185637996448e-01
1.731783323882138126e-01
1.808052389239031832e-01
1.861405810807442163e-01
1.891439195749828883e-01
1.897928695383244158e-01
1.880977045403384729e-01
1.841130669740553005e-01
1.779070170609679258e-01
1.696028315093600913e-01
1.593432450087839680e-01
1.473035429781709427e-01
1.336991526252125084e-01
1.187556755062268432e-01
1.027357868607997049e-01
8.591372481885894974e-02
6.857546369524419871e-02
5.102011837977142583e-02
3.354615593734935203e-02
1.644625685266146511e-02
1.068990925695480904e-05
-1.549049690579899774e-02
-2.980781623164759780e-02
-4.270496810179607444e-02
-5.399296862650952017e-02
-6.349649873788590360e-02
-7.108540265321075524e-02
-7.667122403368475947e-02
-8.018623786372960915e-02
-8.162891694132498599e-02
-8.101497794585046930e-02
-7.841071888747389029e-02
-7.392484210026589730e-02
-6.768528496366671421e-02
-5.987546593028503922e-02
-5.069177962188071984e-02
-4.036404410325866027e-02
-2.914750900186902777e-02
-1.730561084236412542e-02
-5.122763562450978816e-03
7.113103618465815847e-03
1.911531637992237159e-02
3.059809199569540547e-02
4.128546819090180703e-02
5.092597070276491666e-02
5.927558406890195974e-02
6.613148025792750517e-02
7.131669510608065754e-02
7.468167641205716856e-02
7.613765690248067153e-02
7.561085442706066972e-02
7.309284980788383068e-02
6.861242829545680100e-02
6.223166789226931839e-02
5.407936273111121211e-02
4.429885302579904954e-02
3.308927031669713081e-02
2.067847573363404412e-02
7.314525919027030365e-03
-6.717912676423819229e-03
-2.112849704392856520e-02
-3.561344710709912070e-02
-4.986288060800256328e-02
-6.357411833440104743e-02
-7.645648553686137938e-02
-8.822593863946703863e-02
-9.863579840215377925e-02
-1.074555253438908287e-01
-1.144876971716072556e-01
-1.195845756618839073e-01
-1.226137412490953538e-01
-1.235106860249781391e-01
-1.222373261673983524e-01
-1.187994697631542529e-01
-1.132626552875563575e-01
-1.057089050237774996e-01
-9.628613625450216373e-02
-8.516538720728103473e-02
-7.255168351440438590e-02
-5.869203541646401262e-02
-4.384275113464550233e-02
-2.829247340518942222e-02
-1.233977399458755300e-02
3.711507146214476898e-03
1.955162221904548081e-02
3.487469449630579282e-02
4.939291869183590894e-02
6.282462369137703506e-02
7.491802184161441835e-02
8.545176447409091880e-02
9.422165062775975097e-02
1.010844714148975143e-01
1.059144534561221873e-01
1.086400284755811296e-01
1.092397636920565962e-01
1.077156082535818682e-01
1.041438978942935134e-01
9.862005604977067130e-02
9.129099610239096996e-02
8.234687189567857502e-02
7.199441173265638816e-02
6.048758788636083433e-02
4.809075725190551515e-02
3.508674022130650605e-02
2.177242317820288903e-02
8.443457730634939401e-03
-4.608926057018832532e-03
-1.709620962337634470e-02
-2.875478039973411448e-02
-3.933828516468135250e-02
-4.861961478771136685e-02
-5.641896517522827087e-02
-6.256855003663058801e-02
-6.695347560604822390e-02
-6.949208677287802005e-02
-7.013043769761967416e-02
-6.887589280278499926e-02
-6.574982022032088702e-02
-6.082859970161188373e-02
-5.421995303792627452e-02
-4.605591399134449648e-02
-3.651722574164863871e-02
-2.579469755852707713e-02
-1.411505795016229636e-02
-1.723544519413672260e-03
1.112365798303976624e-02
2.415052906908315630e-02
3.707872484503831750e-02
4.962840557539260206e-02
6.151919028944091011e-02
7.248167431983823517e-02
8.226470090940865565e-02
9.062487806823635306e-02
9.735994372149930909e-02
1.022854076363584053e-01
1.052518989766167146e-01
1.061628251259958966e-01
1.049378763390682312e-01
1.015690308837025879e-01
9.607643626713879836e-02
8.852671514612717174e-02
7.904984705823639435e-02
6.779279141990296464e-02
5.496975144683638459e-02
4.081846037602019500e-02
2.560766358992642641e-02
9.644480764523451904e-03
-6.757396246703260834e-03
-2.326401105919936527e-02
-3.953554962744353779e-02
-5.523969520214661033e-02
-7.005255806710622424e-02
-8.366006085154181759e-02
-9.578865054363183695e-02
-1.061776295850558882e-01
-1.146115271244435019e-01
-1.209210205792393966e-01
-1.249588549883002830e-01
-1.266551863435893821e-01
-1.259619155026904802e-01
-1.228914537177779875e-01
-1.175122776502456057e-01
-1.099164691098125368e-01
-1.002706216566782993e-01
-8.876015390010591477e-02
-7.561658628180586983e-02
-6.111022192081529830e-02
-4.552408814121657044e-02
-2.917700096139601296e-02
-1.239517015009084649e-02
4.488366132558756216e-03
2.113536699901113688e-02
3.721471048907682572e-02
5.241549715265554632e-02
6.643343718997218872e-02
7.900411867044507264e-02
8.989080218997688720e-02
9.888357353731710986e-02
1.058383990711454226e-01
1.106275945441837216e-01
1.131927395588495644e-01
1.135190068681493358e-01
1.116255376802075816e-01
1.076066684596547474e-01
1.015731094670170864e-01
9.369510456130031306e-02
8.417683435400843961e-02
7.324273278820125910e-02
6.115770052284025260e-02
4.819318082769045303e-02
3.463465113134557571e-02
2.077473002174838254e-02
6.899910621846800166e-03
-6.714695398795622952e-03
-1.979945777382027816e-02
-3.211743577154424489e-02
-4.344718181424182118e-02
-5.359290411913803648e-02
-6.240138829121068959e-02
-6.973087702877153737e-02
-7.549028525597342720e-02
-7.961019435003399702e-02
-8.204966268470367807e-02
-8.281058396568452551e-02
-8.190533135216213068e-02
-7.938839251070983760e-02
-7.533055647987035863e-02
-6.982366126254616057e-02
-6.298828162752986848e-02
-5.495189316153250431e-02
-4.586816218081541524e-02
-3.589992602609399369e-02
-2.522175947056557246e-02
-1.402278638192568094e-02
-2.494918838746720997e-03
9.160807428197057650e-03
2.074064028615013947e-02
3.204209755186135378e-02
4.286412741647983859e-02
5.300918877249972266e-02
6.229463326287978941e-02
7.054270460068745585e-02
7.759613971466911009e-02
8.331862305830234350e-02
8.758549285110903138e-02
9.031363741653283816e-02
9.143188441330499239e-02
9.090663364632575738e-02
8.873915836840118310e-02
8.494723060068920528e-02
7.960135687571073815e-02
7.278564579914470478e-02
6.462132784596136270e-02
5.526091772441589500e-02
4.486915004293292458e-02
3.364576470200223574e-02
2.179829793959204426e-02
9.549138053940812304e-03
-2.867970250239200956e-03
-1.521907549592960499e-02
-2.727045246688418814e-02
-3.878956885580130132e-02
-4.955871545563064057e-02
-5.937049416748392539e-02
-6.803014525222808584e-02
-7.537414215542845297e-02
-8.124717014616916755e-02
-8.553188624934165984e-02
-8.813490291178305291e-02
-8.898475785964610196e-02
-8.805875790112011048e-02
-8.534589874740602933e-02
-8.088426905724832583e-02
-7.474004673137277233e-02
-6.700399531310025081e-02
-5.781639609314071643e-02
-4.732842210823400703e-02
-3.573341688565882801e-02
-2.324656380932024757e-02
-1.009903919618282755e-02
3.448822315393284231e-03
1.713203336621994810e-02
3.067398717598740152e-02
4.379276944166419355e-02
5.621275550973706125e-02
6.766886100351621192e-02
7.790228407137300692e-02
8.669033696495501151e-02
9.382604973266345239e-02
9.913670466931326364e-02
1.025012503796159657e-01
1.038150342292114281e-01
1.030471298916873224e-01
1.001954530085557571e-01
9.530593661992250998e-02
8.849020486805544983e-02
7.987738192112731062e-02
6.966589369195996806e-02
5.807847248345648222e-02
4.536879561574075348e-02
3.182896541303676524e-02
1.775705055907869992e-02
3.468445413493228928e-03
-1.071659322118042983e-02
-2.448907169476115600e-02
-3.755269996714242359e-02
-4.962267273840056253e-02
-6.046113457969824051e-02
-6.984497812310674902e-02
-7.759910232293545929e-02
-8.359756277604848962e-02
-8.773601226294752697e-02
-8.998541704202603353e-02
-9.033763404445191436e-02
-8.883688691246394153e-02
-8.557608950826567362e-02
-8.066582958418716531e-02
-7.427178320442995307e-02
-6.657313779445717117e-02
-5.777550607280898531e-02
-4.810680752931877080e-02
-3.779897008262907143e-02
-2.709424466539954793e-02
-1.623624240009466715e-02
-5.458960004407481872e-03
5.010983580877479901e-03
1.495772564452178474e-02
2.419499680063998820e-02
3.254446165772993671e-02
3.986377028241312737e-02
4.603561951623415249e-02
5.096205415437469327e-02
5.459255135461343889e-02
5.688771893469429103e-02
5.785072433476359105e-02
5.751160516534810363e-02
5.591884293370071035e-02
5.316178116747077159e-02
4.933828680681231343e-02
4.457479428687623202e-02
3.901406860795705173e-02
3.280677107510775181e-02
2.611932160779095388e-02
1.912007121178965416e-02
1.197741567255810637e-02
4.859695137275114700e-03
-2.072747366362781909e-03
-8.674340971642387210e-03
-1.480469262226536548e-02
-2.035103249843271678e-02
-2.521369888806242535e-02
-2.931257204906237424e-02
-3.260006718625341193e-02
-3.503687943889004230e-02
-3.661923625176720376e-02
-3.735855547418589356e-02
-3.728308197628545789e-02
-3.644644923409375709e-02
-3.490702086271476462e-02
-3.273912553053612284e-02
-3.002312396240576498e-02
-2.683989085838452485e-02
-2.327099087945821293e-02
-1.939580587146186655e-02
-1.528155881114543618e-02
-1.099100871501110764e-02
-6.574693981351485694e-03
-2.067946685960236723e-03
2.498481214239044786e-03
7.111495299135977936e-03
1.176357682330543032e-02
1.645333661448395920e-02
2.118630903984279612e-02
2.596753533906860992e-02
3.079829271087239362e-02
3.567834973382966179e-02
4.059580469358252397e-02
4.552678491692153245e-02
5.044059553583678940e-02
5.528208136126697148e-02
5.998923525381250066e-02
6.448187318230183540e-02
6.866288078303828257e-02
7.243014515419465837e-02
7.566636832364753706e-02
7.825100546558658166e-02
8.006458837611898915e-02
8.098856221748088058e-02
8.091112032755379269e-02
7.974146162028564189e-02
7.739499293390600387e-02
7.381861022003535777e-02
6.898339402431052925e-02
6.287839374620812771e-02
5.554133927215346850e-02
4.702171793636560071e-02
3.741142836268907673e-02
2.683192427345028330e-02
1.542102356675615488e-02
3.356305932840119351e-03
-9.176642060389530661e-03
-2.197153944809622159e-02
-3.480904966185133925e-02
-4.746846433239804153e-02
-5.972642381108152904e-02
-7.136077964392045780e-02
-8.216499191780554656e-02
-9.194153354435671832e-02
-1.005081667891319641e-01
-1.077137605602440928e-01
-1.134155867224393710e-01
-1.175110041740986266e-01
-1.199182915011990092e-01
-1.205795608047968981e-01
-1.194807098460105577e-01
-1.166182173122584098e-01
-1.120336969915811665e-01
-1.057901010821249987e-01
-9.797361221666861519e-02
-8.870910390910313748e-02
-7.813017401883076696e-02
-6.640500142061284139e-02
-5.371653778012672881e-02
-4.026200784624166945e-02
-2.626019971767611788e-02
-1.193353640195546350e-02
2.484337353833892398e-03
1.675559761346055027e-02
3.064510850010703294e-02
4.392143939844644213e-02
5.635740547883160562e-02
6.774752128897165715e-02
7.789437348590211307e-02
8.662567443979191095e-02
9.380045707181505765e-02
9.929068767873186485e-02
1.030218172422383005e-01
1.049370115172263973e-01
1.050211316745888468e-01
1.033062231131444964e-01
9.984081466848435116e-02
9.473427287522523388e-02
8.811401785523778618e-02
8.014292570326148057e-02
7.102030549705862228e-02
6.095499585459768221e-02
5.018655021362576629e-02
3.896225653090371055e-02
2.753428029891982765e-02
1.615933752336563139e-02
5.089223109187763355e-03
-5.442077179811051491e-03
-1.520617121290914961e-02
-2.400425826678672520e-02
-3.166261050908721758e-02
-3.802442988464894980e-02
-4.298346612539507422e-02
-4.644635366594812576e-02
-4.836473452676063461e-02
-4.872487099551702644e-02
-4.753239520993422090e-02
-4.484489409139576221e-02
-4.073194081170972147e-02
-3.530096884362371457e-02
-2.868583920594806880e-02
-2.103392162720315803e-02
-1.252536252914543402e-02
-3.346964555321298510e-03
6.296858303736916490e-03
1.619055724088057369e-02
2.611642562642209342e-02
3.585224544666646557e-02
4.517626512663631966e-02
5.387755157593109717e-02
6.175144648890765892e-02
6.860644196387255533e-02
7.427786940135325255e-02
7.860890461231223592e-02
8.148252332992561575e-02
8.280253288433955805e-02
8.249899756270095974e-02
8.055034021428009172e-02
7.694705520964034706e-02
7.173248833157783166e-02
6.497501344884235031e-02
5.677001351691252085e-02
4.725793348002124694e-02
3.658876266053238957e-02
2.494853959589975537e-02
1.253865135679243202e-02
-4.291296928704926329e-04
-1.372733807597920769e-02
-2.712767245411707578e-02
-4.040475477386451519e-02
-5.333461054445565869e-02
-6.570646751714764866e-02
-7.732772772366888758e-02
-8.801346097556481118e-02
-9.761342632736019764e-02
-1.059899154703202173e-01
-1.130314634606723878e-01
-1.186593725255507548e-01
-1.228052113935517442e-01
-1.254406385897647302e-01
-1.265503353084542759e-01
-1.261421828022145641e-01
-1.242503616978508640e-01
-1.209164169645213505e-01
-1.162078838744423359e-01
-1.101999078107071817e-01
-1.029799988988109316e-01
-9.464839499417360136e-02
-8.530863914959252448e-02
-7.507492560273182347e-02
-6.406428670985575557e-02
-5.239853015778771911e-02
-4.020392711801840796e-02
-2.760817197465113143e-02
-1.474334374167754827e-02
-1.742627412214418046e-03
1.125823989142053956e-02
2.412135521353125922e-02
3.670826614650085640e-02
4.887901136605662944e-02
6.049346036129908677e-02
7.141336983026050356e-02
8.150195358163461745e-02
9.062566952179712532e-02
9.866000715465764181e-02
1.054832633560454092e-01
1.109896841811106039e-01
1.150846832986942847e-01
1.176854579708629389e-01
1.187384616565855810e-01
1.181977773893200523e-01
1.160522616310717403e-01
1.123128602002228527e-01
1.070098538708307567e-01
1.002168073379918478e-01
9.201728692537103349e-02
8.253462168424238743e-02
7.191503282230693461e-02
6.032163381912771655e-02
4.795171707713648951e-02
3.500922284000331647e-02
2.171950933332496281e-02
8.319059129670448166e-03
-4.952446514802429089e-03
-1.784955931905726767e-02
-3.012767787470636838e-02
-4.155364337996882151e-02
-5.189985957286848139e-02
-6.095469188221828288e-02
-6.853327150486465680e-02
-7.445969967449675431e-02
-7.860225253094763054e-02
-8.084839936769364077e-02
-8.111835823081750552e-02
-7.938207572268357604e-02
-7.562387485931346132e-02
-6.989074217518570498e-02
-6.225428747467159213e-02
-5.282431554480838259e-02
-4.176324984404166524e-02
-2.924713077880289336e-02
-1.550555611855564120e-02
-7.870207837694948722e-04
1.463677431341879435e-02
3.046511077155781080e-02
4.639314481484437674e-02
6.210480126690145347e-02
7.728097766489919196e-02
9.161442527402852143e-02
1.048113589830537984e-01
1.165891100205355968e-01
1.267105119351550624e-01
1.349528150866398379e-01
1.411409746972727419e-01
1.451491378867249271e-01
1.468738549677207073e-01
1.462906442633091497e-01
1.433971920843605807e-01
1.382489705932031798e-01
1.309555592528102719e-01
1.216468789302089515e-01
1.105169244217314717e-01
9.777556813733898067e-02
8.366462293456272681e-02
6.845305456071390515e-02
5.241509086569614423e-02
3.583879020211831745e-02
1.901429946756146017e-02
2.222411500911414435e-03
-1.426330958411380426e-02
-3.018026902481811546e-02
-4.529630122585177193e-02
-5.938731125337948225e-02
-7.226487382459079178e-02
-8.376556396086001777e-02
-9.374435677078157836e-02
-1.021016007386244540e-01
-1.087482515855368037e-01
-1.136352418706791934e-01
-1.167389264049122910e-01
-1.180538149060627595e-01
-1.176149625680547317e-01
-1.154664944214860989e-01
-1.116867690850116279e-01
-1.063738971505981956e-01
-9.964174425712790661e-02
-9.163614959417767936e-02
-8.251008886391944519e-02
-7.244460585067313829e-02
-6.163543177276340629e-02
-5.029108021320587152e-02
-3.864361915308675566e-02
-2.692987336312492944e-02
-1.540369634055047121e-02
-4.326956813372909681e-03
6.035637866744917972e-03
1.541467947086118222e-02
2.354216488306717578e-02
3.016291682623074150e-02
3.502753737270621059e-02
3.790745478008313712e-02
3.860581243305377663e-02
3.693831325351128875e-02
3.278153104644766780e-02
2.603631883429300894e-02
1.665494442855610518e-02
4.660654960344289520e-03
-9.899911834701336649e-03
-2.688022318675464817e-02
-4.609778202700442334e-02
-6.730327164529745221e-02
-9.016365546419896626e-02
-1.143216304546158246e-01
-1.393268268182899783e-01
-1.646988552638719849e-01
-1.899126455267558522e-01
-2.143923008339340686e-01
-2.375534255568064745e-01
-2.587864270345077156e-01
-2.774755683982141341e-01
-2.930238270921519117e-01
-3.048535124395363449e-01
-3.124089537584036069e-01
-3.152174778109448350e-01
-3.128317293598972815e-01
-3.049059166739990778e-01
-2.911895144543268366e-01
-2.714866419009712151e-01
-2.457806284560533627e-01
-2.141031487511895759e-01
-1.766429801473008154e-01
-1.337227064445845603e-01
-8.573204226126027172e-02
-3.325876372001532882e-02
2.306139829771736843e-02
8.245661798987158342e-02
1.440498504193033491e-01
2.069228688361958723e-01
2.700487209074107220e-01
3.323793234571102428e-01
3.928398601398107592e-01
4.503368311632920951e-01
5.037989581061713684e-01
5.522124207712548749e-01
5.945839230523817243e-01
6.300514225551610004e-01
6.578366502283983230e-01
6.772586878670991961e-01
6.878563397750317998e-01
6.892243581914837547e-01
6.812106813798706195e-01
6.638097191640175421e-01
6.371522146954041732e-01
6.016466835620327691e-01
5.577639067085273794e-01
5.062207383505634706e-01
4.478628835000114661e-01
3.836330995113243492e-01
3.146530251781133880e-01
2.420750802300579985e-01
1.671392808774260774e-01
9.112659642721265829e-02
1.530567834539189875e-02
-5.907599199413355456e-02
-1.307915371932678594e-01
-1.987426414005790676e-01
-2.618875183185264133e-01
-3.193074318319194527e-01
-3.702712449374641057e-01
-4.141052889997760000e-01
-4.503927415543745871e-01
-4.788181208518663134e-01
-4.992255014787064793e-01
-5.116795482453455612e-01
-5.163022147049602939e-01
-5.134415648943737587e-01
-5.035259180990090400e-01
-4.870884994280190727e-01
-4.647941780691922098e-01
-4.373337566710399638e-01
-4.054844643162632267e-01
-3.700502701042205911e-01
-3.318417020744586221e-01
-2.916767556942973516e-01
-2.503613835920336372e-01
-2.086467854724323723e-01
-1.672662379313873682e-01
-1.268826347980417379e-01
-8.808603803528933240e-02
-5.143195877597313281e-02
-1.735316233527754021e-02
1.375233452177408548e-02
4.158037507030719337e-02
6.591499674225581584e-02
8.657662151579983978e-02
1.035018259939719520e-01
1.166570646366129060e-01
1.260844233493108035e-01
1.318905148342804090e-01
1.342076072933697239e-01
1.332424389699192468e-01
1.292191992173588044e-01
1.224041872293329669e-01
1.130963145741586129e-01
1.016059798656043511e-01
8.827371901740282967e-02
7.344607885638307354e-02
5.747890251699284969e-02
4.073455451793531190e-02
2.357293634274747890e-02
6.347333133240078834e-03
-1.059178508899314905e-02
-2.691422874999987308e-02
-4.230278012015028372e-02
-5.645649481321200064e-02
-6.911126267723630145e-02
-8.001278229930758323e-02
-8.895348644657521953e-02
-9.575291771447347333e-02
-1.002597324623958341e-01
-1.023821148070586662e-01
-1.020430888374325995e-01
-9.923159596599892551e-02
-9.397125662631697351e-02
-8.632235990492795330e-02
-7.641312491045118560e-02
-6.438756555781430246e-02
-5.045498083840283671e-02
-3.485574954299309330e-02
-1.785933335985046347e-02
2.159796978322267233e-04
1.904284777950545487e-02
3.826377712857305380e-02
5.750847915813706718e-02
7.640590522524476347e-02
9.458391464331294962e-02
1.116751919767403345e-01
1.273428055063222097e-01
1.412622220044941201e-01
1.531454092089628849e-01
1.627549169342457913e-01
1.698718792160928692e-01
1.743593659139928420e-01
1.761101780717562182e-01
1.750767819003726800e-01
1.712866654430337254e-01
1.647904754723722720e-01
1.557294325114470523e-01
1.442742998989787195e-01
1.306460440106674836e-01
1.151229412392213158e-01
9.799725277137236179e-02
7.960908560937290934e-02
6.031216139465381959e-02
4.047096941114401714e-02
2.046116048291501607e-02
6.545193916131604103e-04
-1.859445655793022512e-02
-3.693712376841380013e-02
-5.405776323271720835e-02
-6.967164773984704795e-02
-8.351298127168990670e-02
-9.537854988490346297e-02
-1.050820547832242990e-01
-1.124919610755045485e-01
-1.175235409851191071e-01
-1.201153739423082567e-01
-1.202750082057909009e-01
-1.180268866103210967e-01
-1.134452216162146754e-01
-1.066428436598012841e-01
-9.775100497164776470e-02
-8.695038415881423122e-02
-7.443276389970085449e-02
-6.042131228118350489e-02
-4.516129574635990157e-02
-2.890752531233330147e-02
-1.193799055981392340e-02
5.464981031216094645e-03
2.301111379682545602e-02
4.040507767840156861e-02
5.735446961719577186e-02
7.357379765190902310e-02
8.878077832564784666e-02
1.027156257063484845e-01
1.151316642489020048e-01
1.258019475611929228e-01
1.345400731014457230e-01
1.411708480485225348e-01
1.455737307517940837e-01
1.476570220829004354e-01
1.473636575668360038e-01
1.447009126964887427e-01
1.396918882127415884e-01
1.324283042780508013e-01
1.230346542115357822e-01
1.116696741415669492e-01
9.854972878602771824e-02
8.390314768264356404e-02
6.800272509264423948e-02
5.114033916483472914e-02
3.361944778506512077e-02
1.576114896078144312e-02
-2.113183524838886142e-03
-1.968971924302268320e-02
-3.665794587106698671e-02
-5.272709634436210241e-02
-6.763382398068001899e-02
-8.112593443990265274e-02
-9.300166809571305815e-02
-1.030776379362227102e-01
-1.112087040330187460e-01
-1.172979030412569790e-01
-1.212635284011389369e-01
-1.230840150851180981e-01
-1.227575396291854248e-01
-1.203183465236232208e-01
-1.158419269253468942e-01
-1.094157670002145200e-01
-1.011703518037367078e-01
-9.124891952530561623e-02
-7.981658569553434779e-02
-6.706118377162334498e-02
-5.317658271413568810e-02
-3.837632934969505832e-02
-2.287917889867404839e-02
-6.911105896529060044e-03
9.295107900903654130e-03
2.550612424039453568e-02
4.148757580801678418e-02
5.700518327920001127e-02
7.183023596488730123e-02
8.573879211337773198e-02
9.851197431235611535e-02
1.099464699686394653e-01
1.198433728782568319e-01
1.280239505816267997e-01
1.343251573829609136e-01
1.385965770158685828e-01
1.407225427371044668e-01
1.405964526325515218e-01
1.381501969353172155e-01
1.333428388638139006e-01
1.261549982948697857e-01
1.166209488744139322e-01
1.047880392422483042e-01
9.075664063933761017e-02
7.466109056778594266e-02
5.666194384752672175e-02
3.697882732253347793e-02
1.584464481079082832e-02
-6.457436265875539025e-03
-2.961506102073067914e-02
-5.329581381491278053e-02
-7.712637876753733468e-02
-1.007258793043186440e-01
-1.236915105707712681e-01
-1.456090187007930414e-01
-1.660656407086342767e-01
-1.846515957374829375e-01
-2.009618106581604335e-01
-2.146255818367432955e-01
-2.252889233242967304e-01
-2.326361683631200383e-01
-2.364164532132725094e-01
-2.363999296845437637e-01
-2.324594441473298578e-01
-2.245128172408685230e-01
-2.125524412947229769e-01
-1.966849462362377510e-01
-1.770490366769493229e-01
-1.539222448494001749e-01
-1.276369932190373202e-01
-9.860427156629367196e-02
-6.734425255289211432e-02
-3.440229879586190892e-02
-4.185132368619975951e-04
3.393372414568492090e-02
6.795631608020130665e-02
1.009200010776423462e-01
1.321001237716206422e-01
1.608046788021905704e-01
1.863541458237154003e-01
2.081407035888740154e-01
2.256386774432748987e-01
2.383650837246920617e-01
2.460058861700652744e-01
2.482996200334346704e-01
2.451296277342021324e-01
2.365298877940033573e-01
2.225937448061319490e-01
2.036218087296645662e-01
1.799721178823858181e-01
1.521302638738392665e-01
1.207023232985018901e-01
8.632929767751640338e-02
4.975926870864170320e-02
1.176506633768936716e-02
-2.686219224689560467e-02
-6.531571457639159806e-02
-1.028077099428859054e-01
-1.386123519724540565e-01
-1.720232227291243199e-01
-2.024424450970032097e-01
-2.293566856525902919e-01
-2.523169461759839360e-01
-2.710512198438733700e-01
-2.853309290932922737e-01
-2.950870766652403110e-01
-3.003634619411547635e-01
-3.012692829824580310e-01
-2.980751744298749117e-01
-2.910857578780761679e-01
-2.807034319344431372e-01
-2.673932207825094887e-01
-2.516385856125541998e-01
-2.339631483056233141e-01
-2.148933654204629451e-01
-1.949273976135125208e-01
-1.745467474954819076e-01
-1.541906055243233431e-01
-1.342106015164916677e-01
-1.149338708276472776e-01
-9.656687795604715352e-02
-7.925225873263677667e-02
-6.306473941629553437e-02
-4.795255976931911412e-02
-3.383646444734219466e-02
-2.053064155463698789e-02
-7.798466718523465110e-03
4.629590544831179572e-03
1.707844084948097890e-02
2.987788632651969603e-02
4.335432966122712561e-02
5.783206610405128983e-02
7.359671879542606376e-02
9.087444195754815213e-02
1.098677255182535784e-01
1.306633971172578013e-01
1.533020593643789897e-01
1.777398699337642551e-01
2.038153921401990032e-01
2.313351041690552001e-01
2.599758747774527090e-01
2.893682954378397620e-01
3.190846522624528614e-01
3.486235518508402076e-01
3.774725111568205116e-01
4.050875098803861096e-01
4.309155928360975940e-01
4.544282763032758687e-01
4.751251676212983055e-01
4.925297589840691992e-01
5.062645863594801288e-01
5.159837081548738213e-01
5.214424177779151126e-01
5.225015037367467530e-01
5.190675363461308978e-01
5.112091619059396796e-01
4.990405592716845584e-01
4.827873055276750147e-01
4.627803879603526460e-01
4.393866039616150521e-01
4.130852379408433417e-01
3.843829397211758203e-01
3.538290083456264723e-01
3.220093805552172173e-01
2.895078333694744988e-01
2.568974792289060449e-01
2.247454648302032731e-01
1.935602247682821631e-01
1.638043735750075169e-01
1.358979981896864808e-01
1.101432154167798494e-01
8.681213629500120210e-02
6.605681583934924772e-02
4.794428666114693149e-02
3.248661396691401859e-02
1.955940725546653769e-02
9.008205576880168666e-03
5.807510591046114064e-04
-6.038006665768353917e-03
-1.119210825030225731e-02
-1.529019402361474905e-02
-1.875120081230359850e-02
-2.200622200326122005e-02
-2.549329373124976580e-02
-2.963292761545993637e-02
-3.480894885776092407e-02
-4.139217322587024350e-02
-4.967836887585588140e-02
-5.992344201302517853e-02
-7.233072063738307800e-02
-8.700526816164119714e-02
-1.040278742495408804e-01
-1.233735961795880964e-01
-1.449667414098947671e-01
-1.686802552075689354e-01
-1.943001992464250260e-01
-2.215949841988258673e-01
-2.502686825225399758e-01
-2.799976131676106816e-01
-3.104420473429085336e-01
-3.412376896199197929e-01
-3.720196987698984881e-01
-4.024328928838499797e-01
-4.321263305227063256e-01
-4.607733080078130206e-01
-4.880809600063951703e-01
-5.137693851107870691e-01
-5.376167596811806115e-01
-5.594224214989677035e-01
-5.790261046515885468e-01
-5.963186941464668767e-01
-6.112059241602824100e-01
-6.236509392061067025e-01
-6.336356842989118165e-01
-6.411723900854001679e-01
-6.463081033216007132e-01
-6.490987926899465243e-01
-6.496315249454959195e-01
-6.480025210241534550e-01
-6.443209648189327510e-01
-6.387095721885174271e-01
-6.312938056797664510e-01
-6.222075240423883269e-01
-6.115867005876264306e-01
-5.995678982981752503e-01
-5.862882390245716113e-01
-5.718833999307764149e-01
-5.564838381678106627e-01
-5.402183896296820498e-01
-5.232076914282649538e-01
-5.055653231409444892e-01
-4.873996546634802307e-01
-4.688031781136388632e-01
-4.498641106177475590e-01
-4.306535829310380592e-01
-4.112293714082090323e-01
-3.916402095662515070e-01
-3.719099746657116290e-01
-3.520564667332634068e-01
-3.320754907346983864e-01
-3.119472499071320737e-01
-2.916429492912437360e-01
-2.711115079524147320e-01
-2.502971824810416579e-01
-2.291311754426210989e-01
-2.075363003135420048e-01
-1.854333706746910393e-01
-1.627388905519163154e-01
-1.393692753596218470e-01
-1.152462010279716453e-01
-9.029443903525069537e-02
-6.444476153620590231e-02
-3.764038529764103524e-02
-9.827724579974305916e-03
1.903217278979442081e-02
4.897050407565851915e-02
8.001162627770833091e-02
1.121671325861605673e-01
1.454461214206628772e-01
1.798491518290921964e-01
2.153726990631149030e-01
2.520108404265558044e-01
2.897536073690564207e-01
3.285901378458919164e-01
3.685060720914773436e-01
4.094854729723886866e-01
4.515076276853355330e-01
4.945444608453978819e-01
5.385643015945088541e-01
5.835169622173230763e-01
6.293447009303462236e-01
6.759703082444782352e-01
7.232893597493810223e-01
7.711873704242890870e-01
8.195051156106643031e-01
8.680669800034472861e-01
9.166639371434960326e-01
9.650445786071228937e-01
1.012944566929782075e+00
1.060048822873269181e+00
1.106025676871629448e+00
1.150518332731851112e+00
1.193141058546359767e+00
1.233503697469874316e+00
1.271203526243515736e+00
1.305834913656937379e+00
1.337006898504595087e+00
1.364343860964373878e+00
1.387485115537343994e+00
1.406126597121947208e+00
1.419981394969723976e+00
1.428826752725250504e+00
1.432500833825703923e+00
1.430873639753156068e+00
1.423920121926039783e+00
1.411643224919725492e+00
1.394128174643611384e+00
1.371531141798978615e+00
1.344038904934866219e+00
1.311928612547160089e+00
1.275498631237309777e+00
1.235096528733645949e+00
1.191108377450349476e+00
1.143929264143134894e+00
1.093977171838172779e+00
1.041673195202377222e+00
9.874256123117002293e-01
9.316335652365475006e-01
8.746779358422080985e-01
8.168930664744340486e-01
7.586006757241777754e-01
7.000619071387071957e-01
6.414988097529439326e-01
5.830995624596699844e-01
5.249752973861546712e-01
4.672191676020103213e-01
4.098523733649950818e-01
3.528540072622921020e-01
2.961700502648555999e-01
2.396783389213827942e-01
1.832421048811405107e-01
1.266704180167134430e-01
6.974363936220204230e-02
1.222170282250306141e-02
-4.617354816232203951e-02
-1.057270061231953273e-01
-1.667434141230936528e-01
-2.295369405727094581e-01
-2.944205997716585754e-01
-3.617053369062962487e-01
-4.316979039500645765e-01
-5.046770039645918082e-01
-5.809087531724375086e-01
-6.606258640747846300e-01
-7.440094683665821051e-01
-8.312219673865010039e-01
-9.223362435657544989e-01
-1.017389057978885569e+00
-1.116344227737166017e+00
-1.219063440531915843e+00
-1.325374986423268009e+00
-1.434963341947648185e+00
-1.547460429283436856e+00
-1.662398886871625070e+00
-1.779185195019443499e+00
-1.897187523293317080e+00
-2.015623673351823353e+00
-2.133661901179697118e+00
-2.250387005334496759e+00
-2.364787504421788977e+00
-2.475829254824260417e+00
-2.582400870067760756e+00
-2.683369153968054199e+00
-2.777593902562848438e+00
-2.863927571569381936e+00
-2.941240168730988369e+00
-3.008473151622464759e+00
-3.064591326569577667e+00
-3.108675772555614447e+00
-3.139918173285254799e+00
-3.157580964981368421e+00
-3.161163727791510780e+00
-3.150231806714821836e+00
-3.124580060985242547e+00
-3.084201597324702337e+00
-3.029197303535846597e+00
-2.959992258188598235e+00
-2.877092686742863670e+00
-2.781257107935446449e+00
-2.673441880915133240e+00
-2.554696564446834905e+00
-2.426323189599220331e+00
-2.289678711067883565e+00
-2.146251577714274994e+00
-1.997623750964587552e+00
-1.845390018319685410e+00
-1.691173115289958284e+00
-1.536591891340741478e+00
-1.383168467402639878e+00
-1.232362242404382302e+00
-1.085531188692106408e+00
-9.438000426299539836e-01
-8.082300773564681240e-01
-6.795729901426099673e-01
-5.583987319181038522e-01
-4.450931475402567505e-01
-3.396611417343182726e-01
-2.420177443437375453e-01
-1.517016595356369124e-01
-6.805146020751520752e-02
9.769310710258863675e-03
8.292484486323445370e-02
1.526456904489373878e-01
2.203995541367888278e-01
2.877678536067843629e-01
3.563892330824597887e-01
4.279990554174540884e-01
5.043345893226350851e-01
5.870797452971063812e-01
6.778934828073137631e-01
7.783132043002631839e-01
8.896881486982504139e-01
1.013296113515529173e+00
1.150068374089698420e+00
1.300796406295827712e+00
1.466001257798793089e+00
1.645824695749665167e+00
1.840291592269247767e+00
2.048931944875772349e+00
2.271095364719819099e+00
2.505818032583864152e+00
2.751737175997726492e+00
3.007377050977978694e+00
3.270826656306105473e+00
3.540032024078795914e+00
3.812718527468804908e+00
4.086356535914888788e+00
4.358362360417634918e+00
4.625974153782228981e+00
4.886380310826075934e+00
5.136769224108328480e+00
5.374329286188670451e+00
