BVP Signal
-3.029542173545571315e-02
-2.560335165781547906e-02
-9.290016529417341462e-03
9.955655942075064546e-03
2.615764060912667555e-02
4.143075887364533472e-02
6.050967733750989286e-02
8.547053786369790407e-02
1.142191865674863083e-01
1.441609468798917826e-01
1.750803265474188963e-01
2.087759143909256876e-01
2.448508853805358987e-01
2.817823375326711233e-01
3.178798778383008505e-01
3.516745724473464563e-01
3.838577853330367717e-01
4.126601907955844140e-01
4.369451734131302167e-01
4.556277773461203662e-01
4.670595629808569349e-01
4.717832943720943750e-01
4.681908316039432028e-01
4.560077449835365226e-01
4.350865006903749665e-01
4.047780174900442729e-01
3.660495566224710173e-01
3.186517463835013553e-01
2.634171263888203662e-01
2.013136511686687280e-01
1.331373763535621535e-01
6.032954837462878306e-02
-1.570098146189868871e-02
-9.366074848080208071e-02
-1.716933019519180093e-01
-2.481769161033027249e-01
-3.217895600624367525e-01
-3.903184541225557247e-01
-4.530026672254150455e-01
-5.078816454809267356e-01
-5.537982920667269271e-01
-5.902469914173483767e-01
-6.155067190661697163e-01
-6.301645107622930730e-01
-6.330109279137712264e-01
-6.243135231907201987e-01
-6.046892748540777518e-01
-5.737991325256106556e-01
-5.335312684628263913e-01
-4.838661578781842665e-01
-4.264088022911592391e-01
-3.625884547869429042e-01
-2.933955498641919735e-01
-2.210456396895643660e-01
-1.465334037593052363e-01
-7.172463278951751731e-02
1.862039942476689802e-03
7.275833909681328482e-02
1.396887714232941669e-01
2.012178956934452811e-01
2.564865093098835924e-01
3.045276610146034901e-01
3.443646443178689509e-01
3.763517210762016285e-01
3.991794121639049564e-01
4.135551743739018793e-01
4.192561306088546935e-01
4.162756354363360556e-01
4.062193262776758740e-01
3.882965021426678653e-01
3.643018425900967916e-01
3.345307117439109690e-01
2.997610250429872947e-01
2.617873397969270877e-01
2.204899831531891841e-01
1.776772190186260425e-01
1.338255003377680774e-01
8.990809054921247712e-02
4.703941256220187106e-02
5.632834453231261307e-03
-3.336921740967639660e-02
-6.949653517715803641e-02
-1.020946415416212200e-01
-1.310154590596304680e-01
-1.555434826175246532e-01
-1.758563651783288107e-01
-1.915199791593209522e-01
-2.023939631571129716e-01
-2.090425189473409939e-01
-2.107173087655718202e-01
-2.083854530899202639e-01
-2.016779040231999054e-01
-1.908875363470938225e-01
-1.768370429631788698e-01
-1.590292948739287782e-01
-1.386454754148206403e-01
-1.155072001940170012e-01
-9.014432655855300625e-02
-6.327698949036512921e-02
-3.487402719696988673e-02
-5.821793836193439597e-03
2.372447585884772392e-02
5.320925821300730163e-02
8.220063537212853044e-02
1.102322837830403274e-01
1.370000706295132487e-01
1.619870733755190140e-01
1.847881217316283964e-01
2.052926176289551763e-01
2.227133557228648253e-01
2.373474651815354886e-01
2.484578357647049263e-01
2.559003527534946532e-01
2.598287190609334107e-01
2.594663027039696979e-01
2.555211207708683596e-01
2.473397139368107012e-01
2.350869996276724327e-01
2.191221739277659508e-01
1.990577756814223553e-01
1.757275421398580839e-01
1.489367589816037452e-01
1.191252757411859209e-01
8.683046537259397901e-02
5.229987609975153551e-02
1.619925623528742364e-02
-2.095547824559230998e-02
-5.861617904751503100e-02
-9.612210888445602008e-02
-1.326587812485701401e-01
-1.679864957073624598e-01
-2.009587244675012652e-01
-2.312249821867559674e-01
-2.581699607522044970e-01
-2.808600530197644662e-01
-2.995693506197656397e-01
-3.130620665915619383e-01
-3.214729791767269584e-01
-3.244920161290371641e-01
-3.216317155230047353e-01
-3.136226301324299692e-01
-2.997751713379718796e-01
-2.807758366803992378e-01
-2.568031994718737443e-01
-2.281173354401223041e-01
-1.956536340475286961e-01
-1.595993004575846086e-01
-1.208993506619437386e-01
-8.018167277524816672e-02
-3.828189803177904638e-02
4.048041928299023207e-03
4.588317864542922064e-02
8.654214984929703425e-02
1.251826466683408356e-01
1.609095261503509788e-01
1.934590424360761451e-01
2.216497967122552648e-01
2.454730914553953647e-01
2.641629991787071696e-01
2.772857485871345062e-01
2.851116805490206962e-01
2.867660426790545336e-01
2.829535730741419286e-01
2.732467159195330342e-01
2.579230630966536375e-01
2.376130457245364536e-01
2.121608601486445478e-01
1.826616533769559181e-01
1.492216659246839994e-01
1.127065322533306602e-01
7.385695767154853986e-02
3.331514450460746485e-02
-7.944383355158009946e-03
-4.925087651083935592e-02
-8.959418235809836484e-02
-1.283685773368849481e-01
-1.644631302536623263e-01
-1.975034311419720245e-01
-2.264934763692260100e-01
-2.508426592508348207e-01
-2.703022504392263436e-01
-2.838938695847713078e-01
-2.920849863764117815e-01
-2.940139259963894247e-01
-2.898876795775576776e-01
-2.799468896593286793e-01
-2.638731850638473819e-01
-2.428129992564202200e-01
-2.164607317693342803e-01
-1.857327497848098030e-01
-1.512752329503936344e-01
-1.135405865894321964e-01
-7.377584228428149538e-02
-3.236093878785482880e-02
9.636717043828423035e-03
5.146456189592381325e-02
9.223517580402046390e-02
1.313010186912347277e-01
1.677681237690206717e-01
2.010820709309967536e-01
2.306978548742933954e-01
2.558049074103876941e-01
2.766590298929846869e-01
2.922342852396691004e-01
3.027871692754380284e-01
3.081179403414177065e-01
3.078259837105791763e-01
3.028680623232522517e-01
2.924387416708324472e-01
2.774083166364805786e-01
2.578921204405777434e-01
2.339426849956367516e-01
2.067274843497139691e-01
1.759024490202198698e-01
1.424659306172459949e-01
1.067889724403666696e-01
6.923529496881855594e-02
3.072262785378200578e-02
-8.511072042260633963e-03
-4.781188260770877219e-02
-8.657735051648993152e-02
-1.243311506795286570e-01
-1.606461808441738692e-01
-1.947406059015057145e-01
-2.265638965919511971e-01
-2.553252425752340349e-01
-2.806147583961888792e-01
-3.025185679660131743e-01
-3.199335601714959898e-01
-3.334261168874198544e-01
-3.421731566349072162e-01
-3.459808901932608372e-01
-3.453726985179997877e-01
-3.393050727169416581e-01
-3.288018097049046906e-01
-3.132903462389103888e-01
-2.928874336140560031e-01
-2.684333554656005982e-01
-2.393301587052890089e-01
-2.067421903017986895e-01
-1.706098434375380168e-01
-1.313007078481641388e-01
-8.976245971346109853e-02
-4.604169052291080810e-02
-9.995707527845065776e-04
4.479848697087829290e-02
9.095037835208086285e-02
1.366475438302399703e-01
1.812270449434889019e-01
2.245146964804299872e-01
2.653568586750483238e-01
3.035501960109177055e-01
3.385773054906046076e-01
3.693595571644805453e-01
3.965268677474251824e-01
4.185294084198243336e-01
4.354979793044914116e-01
4.472466065093405607e-01
4.526351641187581487e-01
4.529131246398917510e-01
4.465598259173576556e-01
4.340710979835646910e-01
4.156375694157582457e-01
3.905632348462835246e-01
3.602456638419597734e-01
3.239236774325749968e-01
2.823454413653759820e-01
2.361670369360900912e-01
1.854765045393771961e-01
1.314945941641566529e-01
7.462548829961396235e-02
1.565249052213674164e-02
-4.430934859721100127e-02
-1.044542620414785628e-01
-1.639909474405107370e-01
-2.214949726084288195e-01
-2.765146876003022336e-01
-3.277216614457125754e-01
-3.740986262859543610e-01
-4.155039176239513354e-01
-4.501561384949492872e-01
-4.783226084935192635e-01
-4.989196862964697665e-01
-5.113882726915951471e-01
-5.163571811619676044e-01
-5.125154441636271541e-01
-5.009839434339378172e-01
-4.813603888600903047e-01
-4.539251097811948243e-01
-4.199402104777113509e-01
-3.790716857369669235e-01
-3.329361928561040962e-01
-2.819446027591094861e-01
-2.270073539234871984e-01
-1.695559471311425537e-01
-1.101630179653719233e-01
-5.016467336685703771e-02
9.443597607158543683e-03
6.777565735889520826e-02
1.238036043388134888e-01
1.765126193762746043e-01
2.255766627830273485e-01
2.697687250041000406e-01
3.088156694374010192e-01
3.423981979747123261e-01
3.695151459695780183e-01
3.910333611121249997e-01
4.057462497686367686e-01
4.141184103410366357e-01
4.164347677967771277e-01
4.119593352281162857e-01
4.023080403526037574e-01
3.864900930613268670e-01
3.654058434298758096e-01
3.396485375321118827e-01
3.088786726918775760e-01
2.747304045617932067e-01
2.367081893593230291e-01
1.957162262521765783e-01
1.524474576314775454e-01
1.070611686761827608e-01
6.060240325635637970e-02
1.338544774199962317e-02
-3.400200111580792273e-02
-8.081768816635634400e-02
-1.263958232518755664e-01
-1.705337697213657466e-01
-2.120251198151965610e-01
-2.507528024032843472e-01
-2.859642979228919635e-01
-3.167419900790609533e-01
-3.435780665084318675e-01
-3.648384315085171359e-01
-3.809062085759794547e-01
-3.912077741489323746e-01
-3.950344038962773086e-01
-3.933515418045231415e-01
-3.848406890157913818e-01
-3.703541077635827405e-01
-3.497877275848123024e-01
-3.230557681089989974e-01
-2.913714160011164900e-01
-2.543291176503854611e-01
-2.130473039957273551e-01
-1.680446749773073234e-01
-1.199080864020400650e-01
-6.978145056177709193e-02
-1.827049251094604171e-02
3.368839802465372485e-02
8.510672988834742936e-02
1.351201529422484116e-01
1.830280886675003937e-01
2.276205998730222446e-01
2.686369017568603357e-01
3.049772931057505576e-01
3.360573285423092971e-01
3.618366503841241033e-01
3.811092650048419905e-01
3.944877697654503579e-01
4.011175763974024755e-01
4.010459487549810631e-01
3.948212155132899137e-01
3.817469878085866242e-01
3.630610110070679464e-01
3.384098516239485988e-01
3.084447570239435832e-01
2.740239683337810650e-01
2.351965302944502567e-01
1.932630130208268238e-01
1.485050429748236422e-01
1.018280717152324488e-01
5.409654894242167666e-02
6.027786305428065039e-03
-4.158769401636844276e-02
-8.785367280629627351e-02
-1.320749460357073246e-01
-1.735878537363993446e-01
-2.113531361739187653e-01
-2.454131343523491271e-01
-2.745042435484190690e-01
-2.985152910968584816e-01
-3.171132942816626277e-01
-3.294402135477891291e-01
-3.363528281276439436e-01
-3.366937508627945164e-01
-3.310657439371221811e-01
-3.195530854230474449e-01
-3.019167539612742646e-01
-2.794841781349693965e-01
-2.517098893175017116e-01
-2.196942477398090565e-01
-1.839236107054849634e-01
-1.449083777151385366e-01
-1.038315109619141752e-01
-6.105277438695395908e-02
-1.763189191540905087e-02
2.571995960739256737e-02
6.807232131475351999e-02
1.088468003196403217e-01
1.470325662809177092e-01
1.821424779824120099e-01
2.135040005786339179e-01
2.403009992578454268e-01
2.627199999054393720e-01
2.796207809396049626e-01
2.913188995611232790e-01
2.973877488004835201e-01
2.975286504262052989e-01
2.925046779268195563e-01
2.815497104367382097e-01
2.656023881938705533e-01
2.446009382934259124e-01
2.188694709333827426e-01
1.893727027386185036e-01
1.560324120439090523e-01
1.199571026818418429e-01
8.150162334351929161e-02
4.141833474982677121e-02
5.210621277758915176e-04
-4.056919158227764721e-02
-8.107402785033905601e-02
-1.202764617948440945e-01
-1.573909953570325204e-01
-1.919773957845100354e-01
-2.230276841111406838e-01
-2.504359443916906458e-01
-2.733406872599868920e-01
-2.913438100406942066e-01
-3.044674838033144537e-01
-3.118263427016231271e-01
-3.140475932398222314e-01
-3.104753591041963245e-01
-3.013392319032081601e-01
-2.870936026093444116e-01
-2.674221625771972533e-01
-2.434223236135875934e-01
-2.149582047569466858e-01
-1.827849824317468452e-01
-1.476240035457887234e-01
-1.098519229048301044e-01
-7.052190813524333857e-02
-3.010963366195824192e-02
1.053141202589507469e-02
5.067918505439543420e-02
8.951783798734022635e-02
1.265661263233048839e-01
1.609073479356810665e-01
1.920926090154647381e-01
2.196387941254057952e-01
2.427348063733151262e-01
2.617124796992461588e-01
2.755448631375945756e-01
2.844550837643765040e-01
2.883045902917557024e-01
2.866770691686950645e-01
2.805125721061198507e-01
2.690749371179415594e-01
2.531473124140218856e-01
2.329246888077332045e-01
2.085676491968920798e-01
1.811242551700132930e-01
1.505021630817778566e-01
1.176499323135255237e-01
8.303256911558018483e-02
4.726735636851066291e-02
1.111643075931063873e-02
-2.485744802263922804e-02
-5.997652677591790160e-02
-9.362477091920715089e-02
-1.250721367675605156e-01
-1.540679885465078558e-01
-1.796896189666254973e-01
-2.018468044788949700e-01
-2.199630235539115630e-01
-2.335942345781116258e-01
-2.430296571602067468e-01
-2.474456691800068220e-01
-2.473985895719288397e-01
-2.425662820129979580e-01
-2.330311617723339057e-01
-2.194679745681986649e-01
-2.015325147375346404e-01
-1.801776867444719321e-01
-1.554647969372457972e-01
-1.279370867651511423e-01
-9.835853744822198319e-02
-6.696819841708986920e-02
-3.464376495861035132e-02
-1.801554351995943160e-03
3.088392972748141632e-02
6.287195039947428288e-02
9.351335661692453116e-02
1.224455734423523651e-01
1.490335410314904407e-01
1.728374799321690802e-01
1.936986860659924981e-01
2.108600128810845520e-01
2.246269378307800824e-01
2.343216533960843506e-01
2.399323513693413235e-01
2.416399964858920169e-01
2.388807029454680375e-01
2.324387431127922787e-01
2.218077413802810316e-01
2.073735169902845565e-01
1.895216486042922144e-01
1.681145319294062301e-01
1.440368497015715732e-01
1.172023394722835343e-01
8.821257984396553564e-02
5.755603852023727374e-02
2.561804699226149368e-02
-6.983077194195553596e-03
-3.974692566415804346e-02
-7.211637753614254243e-02
-1.035752971525134153e-01
-1.333523242357500249e-01
-1.613454230311203164e-01
-1.865643387542619269e-01
-2.087799449970948185e-01
-2.275784192665319949e-01
-2.421935839505130472e-01
-2.530585343570208035e-01
-2.591500159066310593e-01
-2.607370277624213584e-01
-2.576852513652232446e-01
-2.496615417533729064e-01
-2.374697299668767636e-01
-2.205772541754363048e-01
-1.996906450797076571e-01
-1.750608076594032669e-01
-1.469627655974241054e-01
-1.162766346873502915e-01
-8.319543433867131188e-02
-4.853667353387350336e-02
-1.286562883390510691e-02
2.312955567126996625e-02
5.884377687501379794e-02
9.350177906387399651e-02
1.266128725342539896e-01
1.574953898715412970e-01
1.854608367668304503e-01
2.103924163702039496e-01
2.313186265156205734e-01
2.483459247750963161e-01
2.608888444652333050e-01
2.686305845379015067e-01
2.719133076946874117e-01
2.700092182729490475e-01
2.635761091924018196e-01
2.523147301802517450e-01
2.364397695265519905e-01
2.165571498881789236e-01
1.925148930752742238e-01
1.652131602784386588e-01
1.347926553422519602e-01
1.018961957995060674e-01
6.717694711871115276e-02
3.114419301004783813e-02
-5.460573879598437305e-03
-4.201510081985453116e-02
-7.776937167968034359e-02
-1.121902130559419286e-01
-1.443520687907725586e-01
-1.740003572338537641e-01
-2.002188222621625879e-01
-2.225702512735090455e-01
-2.407818894564642265e-01
-2.540244823220265680e-01
-2.626674736949724531e-01
-2.659169261273640616e-01
-2.639609884132244066e-01
-2.568908315358726657e-01
-2.444827128740140743e-01
-2.275833847083960082e-01
-2.059543791540460467e-01
-1.803863724183313588e-01
-1.513147026249518079e-01
-1.192922043749192751e-01
-8.521637363677067589e-02
-4.957558243620048544e-02
-1.334762572807070280e-02
2.287417674583587524e-02
5.806007982536130763e-02
9.176117570933786660e-02
1.229723585287226251e-01
1.511008110104726798e-01
1.756537703346285895e-01
1.957255912724610303e-01
2.115083908258533762e-01
2.220236112269237116e-01
2.274013189977064364e-01
2.274466329916438045e-01
2.218984096408450069e-01
2.114350661346064419e-01
1.956392940630105048e-01
1.752923842715406189e-01
1.505788567354046370e-01
1.220429830051700804e-01
9.048173343394423640e-02
5.629216918172993966e-02
2.047909889878776410e-02
-1.644067189285973798e-02
-5.339385104800971338e-02
-8.984953162948010330e-02
-1.247595195408909285e-01
-1.574491288809360956e-01
-1.872508160076065964e-01
-2.131282969962291496e-01
-2.350523656572849895e-01
-2.518413423440574173e-01
-2.635348788812667542e-01
-2.696034288681567470e-01
-2.696026326032336384e-01
-2.640182265689769436e-01
-2.521593346733806973e-01
-2.347832798888867534e-01
-2.117972244135092330e-01
-1.835827242067236131e-01
-1.509385387002640244e-01
-1.140566416395875637e-01
-7.399948358398875103e-02
-3.125971076966230222e-02
1.319588201320209819e-02
5.858955211173408339e-02
1.039126767808692953e-01
1.484154325533197372e-01
1.911166781184663876e-01
2.310349647811887619e-01
2.677119783958910593e-01
2.998013127192427629e-01
3.273207869385246771e-01
3.491267182852609841e-01
3.647837857069831657e-01
3.742940840947646119e-01
3.766276711548064426e-01
3.726075126666660853e-01
3.614062115529756980e-01
3.433905356204897674e-01
3.190163231371527797e-01
2.881015745278521778e-01
2.518945143271236198e-01
2.103561097027109028e-01
1.644797223173862233e-01
1.150710809982456173e-01
6.293289616125508079e-02
9.132182625459561720e-03
-4.537474813662525225e-02
-9.951394540303418190e-02
-1.523386860634196038e-01
-2.024632469198451024e-01
-2.495248463400429328e-01
-2.918939086225723067e-01
-3.290683942608692014e-01
-3.602821465140107482e-01
-3.843529285309437160e-01
-4.017807859873310794e-01
-4.110757684415219937e-01
-4.126849283459496642e-01
-4.063516553370818407e-01
-3.917812913864859858e-01
-3.701465048486365927e-01
-3.408497890731937430e-01
-3.051476273731170696e-01
-2.634400795157633701e-01
-2.164678741319924771e-01
-1.655704670207788776e-01
-1.112986291437274011e-01
-5.506213939049402206e-02
2.227384975786159127e-03
5.927293406923742070e-02
1.151663154900686992e-01
1.685452828292228200e-01
2.186453784711307469e-01
2.643814261056451898e-01
3.046620453976081611e-01
3.393634661753378579e-01
3.669835276655600831e-01
3.878427968518522451e-01
4.010434497482700533e-01
4.062757107213795238e-01
4.041551465571657231e-01
3.937087966294281483e-01
3.761914334001441595e-01
3.512018655232400643e-01
3.193322027443287192e-01
2.816190833718118514e-01
2.380227800056324838e-01
1.901206831337400316e-01
1.382145058069030596e-01
8.345153651876052736e-02
2.691034241633794011e-02
-3.053636056590371128e-02
-8.773182656607628194e-02
-1.436752662746705322e-01
-1.972864734891668359e-01
-2.477606274987307899e-01
-2.937570303745343780e-01
-3.350879911636778785e-01
-3.703627774909988846e-01
-3.991721921704510789e-01
-4.212200298541772248e-01
-4.353681805964614848e-01
-4.425457650816008170e-01
-4.415227699687044316e-01
-4.328429876908263529e-01
-4.168337335158793233e-01
-3.930961212391722026e-01
-3.633279855521078239e-01
-3.269733749294465586e-01
-2.852781751572293634e-01
-2.390806994702213140e-01
-1.888073743003382821e-01
-1.361412633206024458e-01
-8.140823677977178374e-02
-2.584402144866767420e-02
2.953904793648740729e-02
8.387307506043599481e-02
1.362900966820884963e-01
1.857617659638748087e-01
2.317835324875102132e-01
2.735118558175959058e-01
3.101796657983458272e-01
3.419830410540924959e-01
3.676491777056655197e-01
3.876303177712481229e-01
4.013994221879592095e-01
4.086074784121328518e-01
4.102196107796598490e-01
4.051467291671980719e-01
3.944948495140064848e-01
3.780694686070295019e-01
3.559887207116623209e-01
3.294427429615802150e-01
2.978909658143623629e-01
2.625484022609250179e-01
2.236066761618141219e-01
1.815498006994532010e-01
1.373699457897923082e-01
9.131099367265260724e-02
4.423034764868075813e-02
-3.202011989342154474e-03
-5.032248259175020610e-02
-9.650275852757797534e-02
-1.407636839090735670e-01
-1.828625088883645833e-01
-2.217091679265854598e-01
-2.567480977538074693e-01
-2.877505515597734709e-01
-3.134348731039696134e-01
-3.342589068720927536e-01
-3.490700536999713499e-01
-3.577686569628970026e-01
-3.605722018588212729e-01
-3.565497022293627194e-01
-3.467779028594518143e-01
-3.305594585331519397e-01
-3.084400935890508899e-01
-2.810764729150187491e-01
-2.483581453798648919e-01
-2.116344767173692631e-01
-1.709942966401648556e-01
-1.274221023697458821e-01
-8.180795669598218967e-02
-3.483753545980142197e-02
1.245845782792387446e-02
5.926587922796944241e-02
1.047143859272684496e-01
1.480353587823015071e-01
1.881935746393325615e-01
2.250154213123994884e-01
2.573035553402449049e-01
2.848288193165776638e-01
3.072107804938126741e-01
3.235872191393227570e-01
3.347605680682443907e-01
3.395542331292872307e-01
3.385236591458123945e-01
3.317198586132406590e-01
3.188048098514201789e-01
3.011042804571322784e-01
2.779047372132190108e-01
2.502343657083941908e-01
2.184845949865633352e-01
1.829032867763112913e-01
1.447394132961132285e-01
1.040126574145898569e-01
6.172574916615203300e-02
1.851301090088902646e-02
-2.498825317162348125e-02
-6.798853449774414082e-02
-1.097793353784076720e-01
-1.497988509982660088e-01
-1.872768876015380446e-01
-2.215353083989236027e-01
-2.523790846134597032e-01
-2.787564753496539205e-01
-3.007743796761105370e-01
-3.177341255178178225e-01
-3.292969954588411130e-01
-3.358455197844655848e-01
-3.365040890184570199e-01
-3.320464656157990357e-01
-3.221252008420250057e-01
-3.069529182712665838e-01
-2.873574021245306476e-01
-2.630250019036585729e-01
-2.351107425570423404e-01
-2.037692874937357124e-01
-1.696220600270918755e-01
-1.336509026070341333e-01
-9.610956047013229087e-02
-5.800924772304034971e-02
-1.989865357085663505e-02
1.763034872952932292e-02
5.381827117127845755e-02
8.814711257182662740e-02
1.202520792125879034e-01
1.494374509395349493e-01
1.755482953502268684e-01
1.982845093343876819e-01
2.171706941741216590e-01
2.326435524493418727e-01
2.440351291524822663e-01
2.517026798587213010e-01
2.557618807173696052e-01
2.558917839203602163e-01
2.530559001818582510e-01
2.466834203307132767e-01
2.373949760724947122e-01
2.255119349286627273e-01
2.108506898114779204e-01
1.944250590150035651e-01
1.758499956304444001e-01
1.556799207422552289e-01
1.342794504162285185e-01
1.116014262026405190e-01
8.832784590989711804e-02
6.441964915518702539e-02
4.016784927527738969e-02
1.595332174422722793e-02
-8.086655104116463599e-03
-3.174473236927741887e-02
-5.458745883518754255e-02
-7.661414021461530888e-02
-9.740400959745904030e-02
-1.166482071507213003e-01
-1.345236670997810302e-01
-1.502434082164232632e-01
-1.640405202097854065e-01
-1.755140657425587614e-01
-1.843187268553986291e-01
-1.908897132508799444e-01
-1.944061659165685629e-01
-1.952912242615225114e-01
-1.933135226968227260e-01
-1.882766646788668341e-01
-1.807890358054273228e-01
-1.703139381313414635e-01
-1.574060364141047774e-01
-1.421229665617873283e-01
-1.245136739930389758e-01
-1.052427343168126500e-01
-8.420556929336722729e-02
-6.193502212177497135e-02
-3.875975784539414243e-02
-1.490018718718463808e-02
9.114618173061694861e-03
3.301556866460456097e-02
5.651994507404889401e-02
7.915531903026262750e-02
1.007001055894775621e-01
1.209322640486262812e-01
1.393594429590448991e-01
1.561005889893158916e-01
1.706546080747218253e-01
1.829160946647734320e-01
1.929968083573116444e-01
2.003181819058024726e-01
2.053625113170562955e-01
2.076652030674153715e-01
2.072480789486386421e-01
2.044473424377068194e-01
1.987275531916410376e-01
1.907437957073433998e-01
1.801526766886799025e-01
1.670644003431055458e-01
1.519133133815916692e-01
1.343680580139628988e-01
1.150435724196866016e-01
9.387152738366941196e-02
7.102454616698308798e-02
4.698146891801557867e-02
2.176508099016150055e-02
-4.199373040504661425e-03
-3.056668036528875643e-02
-5.714093245884349637e-02
-8.342375304477156472e-02
-1.090296979378458930e-01
-1.338266410533763828e-01
-1.570875719288631900e-01
-1.787039971262312510e-01
-1.982451998057785381e-01
-2.151575176288186841e-01
-2.296811463808240972e-01
-2.409521260214288474e-01
-2.491022118242771088e-01
-2.539220703232785148e-01
-2.550030920906372067e-01
-2.529298167524088869e-01
-2.470787402871140737e-01
-2.378787947696753280e-01
-2.254575924927957609e-01
-2.097611573597500390e-01
-1.915518645606664461e-01
-1.706855424985123104e-01
-1.477355977026466594e-01
-1.231197848631807312e-01
-9.708306595478255474e-02
-7.028684069510404697e-02
-4.302287579455060795e-02
-1.570184646577030274e-02
1.114217020937829927e-02
3.719246630824438182e-02
6.214545824363959525e-02
8.545465513491873333e-02
1.071144097553318741e-01
1.266176805712049824e-01
1.437701351337123401e-01
1.586715955312118509e-01
1.707047107596812441e-01
1.802690403077210624e-01
1.869373660780271895e-01
1.907029962035343973e-01
1.919018204843824238e-01
1.900204720300242289e-01
1.856552868579277871e-01
1.785115480830354318e-01
1.687607099432709701e-01
1.567707061198813923e-01
1.423362735490589781e-01
1.260063158495978719e-01
1.077551437828159209e-01
8.791592994375872772e-02
6.679587951993479211e-02
4.466608810454403278e-02
2.186234850261348228e-02
-1.237554461216754109e-03
-2.419998656461394559e-02
-4.679072887776823675e-02
-6.829354293179440427e-02
-8.868711212801100308e-02
-1.072402368415353857e-01
-1.235941883167964439e-01
-1.376353686565323642e-01
-1.485109489403018401e-01
-1.565811089444231474e-01
-1.610616306075763893e-01
-1.619118293099696126e-01
-1.592422081024913449e-01
-1.525084924336425340e-01
-1.424147929586759564e-01
-1.285174189379646170e-01
-1.112083348758413914e-01
-9.085597808737551351e-02
-6.751584043698638515e-02
-4.197794207805445599e-02
-1.437811862992504491e-02
1.463563073387998126e-02
4.456518702575308633e-02
7.479231080033973966e-02
1.048587001549305120e-01
1.340592058009416609e-01
1.618666949612883599e-01
1.878537698174970461e-01
2.111496832664997991e-01
2.318815307385568292e-01
2.490422828872843330e-01
2.625250507367535846e-01
2.721147574045517659e-01
2.770757901113063970e-01
2.780589608581933159e-01
2.741602003177063818e-01
2.657446714477591510e-01
2.528727278192067773e-01
2.352375797722048301e-01
2.137357977583629332e-01
1.879574330032517671e-01
1.585589396700048115e-01
1.259178273627408196e-01
9.026684375535248828e-02
5.243834778426914589e-02
1.275821746740532503e-02
-2.812855057061476594e-02
-6.951108425625648901e-02
-1.107432616183679497e-01
-1.512787426220263687e-01
-1.901257066656420192e-01
-2.269684116735642965e-01
-2.608780173971340099e-01
-2.911514260422842781e-01
-3.176601652355275363e-01
-3.391763794394725418e-01
-3.559434092455280862e-01
-3.671207059933674355e-01
-3.723867518671863386e-01
-3.720841058246219801e-01
-3.653575382130568872e-01
-3.530236486012226504e-01
-3.347160337499233140e-01
-3.107487323817618163e-01
-2.818559552256066358e-01
-2.479936731611998568e-01
-2.102427124865453578e-01
-1.689388953202304311e-01
-1.248807953511803515e-01
-7.893609456399747204e-02
-3.187188125864327815e-02
1.551923239984241698e-02
6.226617123548282284e-02
1.075742005301453114e-01
1.507611318907937925e-01
1.906479702538199372e-01
2.271981474330038164e-01
2.591076619080727728e-01
2.860840828498096289e-01
3.078250002655084083e-01
3.232958444528409303e-01
3.332919011806957377e-01
3.366109995928073806e-01
3.336775280753546125e-01
3.245960130642772667e-01
3.089530560503672696e-01
2.880221048642428450e-01
2.611834747980862348e-01
2.294212169868617424e-01
1.931930526746174492e-01
1.529377711041686738e-01
1.098085855288558343e-01
6.416059449375161039e-02
1.709051063256576686e-02
-3.068159118283056430e-02
-7.805068436173925872e-02
-1.244164134852548120e-01
-1.685423334905000736e-01
-2.097349478456320970e-01
-2.472064073640562742e-01
-2.797578876506698897e-01
-3.075158681256002779e-01
-3.289807589043079461e-01
-3.442449953793949025e-01
-3.527717339913116756e-01
-3.539362009330190295e-01
-3.485418336765243041e-01
-3.356099899440612710e-01
-3.160611417061696127e-01
-2.899043015497529963e-01
-2.574448048742756789e-01
-2.198633349442157825e-01
-1.771914284558994135e-01
-1.307566949206829809e-01
-8.117369500768928381e-02
-2.946536733762183946e-02
2.329732941140108538e-02
7.615320326254551575e-02
1.280820047827608554e-01
1.780848853442005830e-01
2.250583362522985686e-01
2.684704194587989035e-01
3.069617653607710217e-01
3.403886938398412165e-01
3.677218814500753385e-01
3.884091801703770663e-01
4.025925899704762001e-01
4.091728976166461029e-01
4.089634139161102411e-01
4.012668476928240580e-01
3.863658029959659568e-01
3.649253180260979557e-01
3.366098877417085800e-01
3.027770785162463008e-01
2.633705811096076488e-01
2.193408471781853886e-01
1.716041646896063477e-01
1.207391163221621377e-01
6.799077718908411172e-02
1.408589734824473860e-02
-3.986855769438219649e-02
-9.297321731479626927e-02
-1.440230620507608472e-01
-1.924730945233828483e-01
-2.369908920651604134e-01
-2.769328832343050939e-01
-3.116666756243167691e-01
-3.399940226774622598e-01
-3.623549969836123430e-01
-3.773420142561883517e-01
-3.852071211723405719e-01
-3.858009586005061720e-01
-3.785953402319064409e-01
-3.648587854573408507e-01
-3.437578429954685211e-01
-3.164056167899735872e-01
-2.832025780212805710e-01
-2.446021531121109205e-01
-2.020352542135153695e-01
-1.557120025238294403e-01
-1.070200295137684610e-01
-5.673982448348269259e-02
-5.984174348376808394e-03
4.427443671686449866e-02
9.299344475514345620e-02
1.392502305989117284e-01
1.822032602793934308e-01
2.207605952852209619e-01
2.547689391677681048e-01
2.829429984709044277e-01
3.053005551530578177e-01
3.212299043224141060e-01
3.302605769876016950e-01
3.329901127377060677e-01
3.285244048189044919e-01
3.177751487273917097e-01
3.005486002581079230e-01
2.772192179501486997e-01
2.487634627993420555e-01
2.150951430480995963e-01
1.775334138471473810e-01
1.363912756995750153e-01
9.267064107593811495e-02
4.729995834536609989e-02
1.028275157512720250e-03
-4.506923851959587779e-02
-9.023061689520270323e-02
-1.333625464815326178e-01
-1.739001088171356346e-01
-2.106522629098465660e-01
-2.433005560895605823e-01
-2.708985812076694089e-01
-2.928559417199332326e-01
-3.091269098942863724e-01
-3.187209210926479352e-01
-3.222320066728818766e-01
-3.189556621450274077e-01
-3.091524667804688709e-01
-2.932839044747994617e-01
-2.711093411640760342e-01
-2.438422002419280421e-01
-2.113936925555066348e-01
-1.747450615544379748e-01
-1.346596313104096998e-01
-9.176492053952714500e-02
-4.724466242638054175e-02
-1.715068778401149241e-03
4.369415450809810419e-02
8.824693778803976985e-02
1.308108899261413716e-01
1.708868283518134579e-01
2.073788628727793459e-01
2.396623816521791239e-01
2.672968151941942927e-01
2.892336121919110714e-01
3.059221099446884917e-01
3.162110775696347353e-01
3.203215581738735329e-01
3.182147449339990941e-01
3.094467615050154885e-01
2.951175974431832216e-01
2.745596863137838017e-01
2.486994799662218814e-01
2.178902904853205758e-01
1.825093094741807032e-01
1.437316902761283099e-01
1.017640788997956069e-01
5.775197289345371243e-02
1.236436418670758958e-02
-3.341385693053518235e-02
-7.878768882430572940e-02
-1.227604358247332272e-01
-1.645380881796327799e-01
-2.033221609845391187e-01
-2.380646287893657398e-01
-2.686241821533358332e-01
-2.937259985740557910e-01
-3.133623078119738836e-01
-3.269131824157224253e-01
-3.338631763699174138e-01
-3.347663784973141654e-01
-3.287313863862909025e-01
-3.166012171850280943e-01
-2.982242280874766172e-01
-2.738962878227390041e-01
-2.446374853493590296e-01
-2.103521506325586599e-01
-1.723280523016542387e-01
-1.309640177697989905e-01
-8.713629251886038929e-02
-4.188345952373884185e-02
4.148417593894261624e-03
4.992925698112524180e-02
9.467710681726017319e-02
1.375112326866011758e-01
1.778178895426206774e-01
2.146035839866477779e-01
2.476735318493661908e-01
2.761300104270145717e-01
2.995962015804091161e-01
3.180603890874662554e-01
3.306199314056397220e-01
3.380090146958374953e-01
3.394498282382157894e-01
3.352137279185820051e-01
3.257602722629230896e-01
3.105816349011940036e-01
2.909430381496321827e-01
2.664014270987341004e-01
2.376643562929600384e-01
2.054098332284035044e-01
1.696673361685692438e-01
1.316290078223100735e-01
9.140123831536327292e-02
4.975359510281515685e-02
7.394639757211218800e-03
-3.512667400774271975e-02
-7.718135215641541702e-02
-1.179991884392885826e-01
-1.570982855647464205e-01
-1.938438014155909883e-01
-2.273726693013495836e-01
-2.578423376508615639e-01
-2.839742497833337986e-01
-3.058112698612492353e-01
-3.229163913619703119e-01
-3.345243037294247657e-01
-3.414326912035515194e-01
-3.424187781371156869e-01
-3.380789652372544474e-01
-3.283394338786165823e-01
-3.129138888416275743e-01
-2.929529088268191250e-01
-2.678335488887846338e-01
-2.385087044822675750e-01
-2.053483244217796377e-01
-1.686494639346538815e-01
-1.295298815704948314e-01
-8.817894442376869590e-02
-4.549052566567959865e-02
-2.175242555732814775e-03
4.112212134115256212e-02
8.370278069969350199e-02
1.247314713821002785e-01
1.638150554212610688e-01
2.001169016450924376e-01
2.330297070141547633e-01
2.624692361222111803e-01
2.873298825923820132e-01
3.079246554923184553e-01
3.235005911773390364e-01
3.337869612641121142e-01
3.392452366771182004e-01
3.389171252723364169e-01
3.336988182332813468e-01
3.231141937272453690e-01
3.073372467721703361e-01
2.871479315172437152e-01
2.620848386471704150e-01
2.332666673962821569e-01
2.006756769440746491e-01
1.648361647192332913e-01
1.265987798716694812e-01
8.616445054609750409e-02
4.443739455041949282e-02
1.955188291808196595e-03
-4.066396288388128555e-02
-8.269923372261228645e-02
-1.233922184637016028e-01
-1.624101881161496008e-01
-1.987530201650138384e-01
-2.320342223929226511e-01
-2.618176318793670188e-01
-2.871399098280447149e-01
-3.084053152065004966e-01
-3.244617017642030254e-01
-3.354091026839579048e-01
-3.412072353204597674e-01
-3.411265793571736649e-01
-3.362139931339345744e-01
-3.255826033417153487e-01
-3.098536588656892743e-01
-2.894056476879595663e-01
-2.640421862463139258e-01
-2.350846118454758549e-01
-2.022419149804441929e-01
-1.663960671414474457e-01
-1.282245506027419046e-01
-8.807572673560096210e-02
-4.698453952210326912e-02
-5.370778620928801095e-03
3.608559745427673826e-02
7.663421479359898425e-02
1.156476212142174137e-01
1.527796080796721134e-01
1.870880503114800975e-01
2.184542700027903572e-01
2.462510714291546443e-01
2.699045319988861436e-01
2.897855996456454308e-01
3.047903453439864685e-01
3.154058222733105987e-01
3.212277901060051066e-01
3.219598713590310912e-01
3.184262058314858979e-01
3.097409175543399118e-01
2.967650909808683402e-01
2.793847772995697865e-01
2.576716475149683494e-01
2.325492686723465430e-01
2.036802635025079522e-01
1.719528006866198888e-01
1.376305087701197583e-01
1.011214073172969352e-01
6.318576449664731198e-02
2.419882083234201758e-02
-1.523988879117959411e-02
-5.444842139563151051e-02
-9.284889572956306347e-02
-1.299829026204369908e-01
-1.648936372396088423e-01
-1.974929695161243282e-01
-2.268165189712665897e-01
-2.524085872097453498e-01
-2.741889454314950791e-01
-2.910477440875607336e-01
-3.034979639849988975e-01
-3.106281662200854887e-01
-3.124011410831346591e-01
-3.091413464301002723e-01
-3.001135705449519131e-01
-2.863113473229044192e-01
-2.672626950937391777e-01
-2.434489567081112027e-01
-2.155141540999704342e-01
-1.834365483094972937e-01
-1.483110429340357972e-01
-1.103339882967109137e-01
-7.028564269117953955e-02
-2.890550174467331618e-02
1.313698060723346439e-02
5.516601441592498822e-02
9.633971957029716093e-02
1.360076190399379936e-01
1.735860391180666651e-01
2.080317003364622330e-01
2.394568291405358429e-01
2.666037507359530490e-01
2.893179443398817274e-01
3.073160732003473727e-01
3.196188201709503907e-01
3.271204139013521583e-01
3.285421217737729549e-01
3.243375593645152488e-01
3.145650408116092978e-01
2.987511451539383578e-01
2.781112515124942730e-01
2.519468287799087047e-01
2.211142509331415484e-01
1.860228777581615645e-01
1.469223889725125576e-01
1.048985824639095399e-01
6.019763283004984228e-02
1.372799620700415613e-02
-3.377053271465202400e-02
-8.143295817788287483e-02
-1.286187468272005641e-01
-1.741910300326627026e-01
-2.175931107294415412e-01
-2.579065634934690210e-01
-2.940899838927084620e-01
-3.261317508317459479e-01
-3.525137170354578631e-01
-3.733702990771120001e-01
-3.879327897556880123e-01
-3.955598869377641713e-01
-3.969038339385639325e-01
-3.907865283950898161e-01
-3.781060429816742730e-01
-3.585967408467442552e-01
-3.323736713537697729e-01
-3.005582485751688293e-01
-2.628347587809845010e-01
-2.205151426029834938e-01
-1.739923911164288350e-01
-1.240221895772318644e-01
-7.177339057158017843e-02
-1.785477524325656748e-02
3.667242721928800492e-02
9.086570028517740316e-02
1.438264638792984829e-01
1.947822124104463259e-01
2.425322632961934566e-01
2.868565529381463253e-01
3.265173258200808060e-01
3.609953566614243492e-01
3.901227364238037953e-01
4.125971400146463686e-01
4.291945195086515064e-01
4.386931144125139626e-01
4.412127503110789273e-01
4.371277846042565529e-01
4.255164361573509635e-01
4.078246259159068465e-01
3.832319406906533055e-01
3.524341853011238035e-01
3.161736330688171281e-01
2.742671110029438752e-01
2.282327720336268240e-01
1.780502235038278480e-01
1.246765962934966443e-01
6.905945490391685038e-02
1.184665264363844034e-02
-4.597086869384053864e-02
-1.034128081907344510e-01
-1.597079876952294530e-01
-2.138696334020742940e-01
-2.647018432123509069e-01
-3.121201735603909566e-01
-3.543890338417273744e-01
-3.913520930739113890e-01
-4.222319067254305947e-01
-4.459029917689620315e-01
-4.631712331372601077e-01
-4.723146233975543118e-01
-4.739878230573039142e-01
-4.679207943071551634e-01
-4.536407525762844450e-01
-4.326022899998775428e-01
-4.038400609627644799e-01
-3.686557087072586114e-01
-3.274447588140644294e-01
-2.805655778158742120e-01
-2.296383377679039606e-01
-1.747644682673544225e-01
-1.173176620048005658e-01
-5.822516986779091575e-02
1.661945325408052676e-03
6.116387739989035538e-02
1.193214596181472326e-01
1.754066379160023059e-01
2.282839698641980775e-01
2.771778690463935213e-01
3.217545287037092971e-01
3.606657888133604772e-01
3.942285511901572059e-01
4.213838938271229351e-01
4.418255215167515848e-01
4.560400658814410257e-01
4.627563739727734715e-01
4.631808073038266027e-01
4.565245981417920818e-01
4.430154009868538245e-01
4.236101402614436684e-01
3.975019450196934923e-01
3.662276799377263137e-01
3.294759825236934225e-01
2.878418849129600332e-01
2.423763688591149545e-01
1.930241613866122974e-01
1.410360529344688862e-01
8.682093798757375969e-02
3.109281241227897924e-02
-2.520914504873835241e-02
-8.130880363924300469e-02
-1.366557165974167098e-01
-1.900279918862566864e-01
-2.408733503233818629e-01
-2.884599249440021329e-01
-3.314632557861706963e-01
-3.702014748101037922e-01
-4.029381156640554074e-01
-4.295937858042324087e-01
-4.497909445218257196e-01
-4.622831816985722986e-01
-4.682118609475595106e-01
-4.660033274693022864e-01
-4.562691391682904829e-01
-4.391798163726933213e-01
-4.142190408780633826e-01
-3.830460923396138417e-01
-3.449580640521854313e-01
-3.011432701992330374e-01
-2.523612321658948443e-01
-1.990880445400158294e-01
-1.428412705421545081e-01
-8.414973532577058046e-02
-2.421249723314194968e-02
3.587118671052419439e-02
9.500898656781350815e-02
1.523991789220225379e-01
2.066406948312747571e-01
2.571802197576623650e-01
3.029726145599864195e-01
3.429867135427477898e-01
3.774015625473890467e-01
4.046223194315340388e-01
4.250795899291475166e-01
4.380851660585253216e-01
4.432025261264421756e-01
4.414097426692509263e-01
4.315585796239105321e-01
4.148823776508648864e-01
3.912017433836089131e-01
3.608339602874875984e-01
3.250785652328874731e-01
2.836450602187681191e-01
2.380004888317264200e-01
1.885316855738534692e-01
1.360990964567058703e-01
8.184251055787300499e-02
2.640692730897720164e-02
-2.915017976161177193e-02
-8.391103848580264146e-02
-1.369152809481384292e-01
-1.874803458786138133e-01
-2.343272477537912402e-01
-2.772508867864983406e-01
-3.150212492881658277e-01
-3.470742126706566899e-01
-3.732981061886032625e-01
-3.923816505907287144e-01
-4.050736537631046130e-01
-4.102625385246343459e-01
-4.081182952759009330e-01
-3.990827988620994082e-01
-3.824472926948632168e-01
-3.596340554524752875e-01
-3.301305353351549066e-01
-2.948206605544897441e-01
-2.545484132386151011e-01
-2.095326848440994816e-01
-1.612662152878010513e-01
-1.100982750746208327e-01
-5.718955823358429225e-02
-3.492388465689888477e-03
5.001652545013388074e-02
1.024768827863768023e-01
1.527809149518290222e-01
2.001317862263305991e-01
2.437929606268066096e-01
2.825553434278369469e-01
3.166201732123209434e-01
3.445118562017757680e-01
3.662488589823423846e-01
3.815040558713644891e-01
3.894162492927570329e-01
3.911159170302240251e-01
3.853293215667603633e-01
3.728937365632692402e-01
3.539357563742215329e-01
3.283418343614309398e-01
2.975560049692160813e-01
2.611153148250487943e-01
2.202562382374755323e-01
1.755214566720396385e-01
1.275526266956550914e-01
7.755187854950099102e-02
2.605680715333305586e-02
-2.585473356728640315e-02
-7.733153284588351051e-02
-1.273305586818923030e-01
-1.752541643078417977e-01
-2.198292968834744676e-01
-2.606264473868803999e-01
-2.967109153287111334e-01
-3.272017392763685306e-01
-3.522302308573235785e-01
-3.704174323977439953e-01
-3.822191507058994575e-01
-3.869581567182848736e-01
-3.844139244380301856e-01
-3.753566454080901615e-01
-3.589795933539942641e-01
-3.364762891057274663e-01
-3.077325974554986354e-01
-2.733186468982367057e-01
-2.343465443271819104e-01
-1.909267720602402518e-01
-1.444517241460193668e-01
-9.544747770985337332e-02
-4.492546969374366927e-02
6.094598302437331805e-03
5.673914096191645662e-02
1.061200816923565660e-01
1.532646735473679467e-01
1.973343173209361479e-01
2.377787064043161425e-01
2.734523223643370859e-01
3.044418363931755689e-01
3.296580662615188340e-01
3.489107088592589001e-01
3.622385794305418849e-01
3.687382051237282909e-01
3.694234791838887921e-01
3.634214798935747615e-01
3.512630531379998811e-01
3.334392479634329942e-01
3.096221498203665101e-01
2.812489862570624055e-01
2.479627974830744264e-01
2.107169196758765239e-01
1.702312642377016294e-01
1.268430298677480361e-01
8.175826313878882534e-02
3.534465813993052652e-02
-1.149402094323688506e-02
-5.799270771290146453e-02
-1.033124097747324943e-01
-1.469750035480241190e-01
-1.879035178408273166e-01
-2.256749961130075088e-01
-2.596301680490814556e-01
-2.888290667193618710e-01
-3.136302157127999757e-01
-3.326623798668554288e-01
-3.462004012758922444e-01
-3.538698096499832690e-01
-3.551122596171281676e-01
-3.509060983835544101e-01
-3.402317142668296324e-01
-3.239836546478923052e-01
-3.022331551043003772e-01
-2.750791308965217508e-01
-2.437488173677164471e-01
-2.080124090271331938e-01
-1.690099156817105319e-01
-1.272673830686338881e-01
-8.343213399433684063e-02
-3.852849277140975304e-02
6.864057083977720408e-03
5.190493908062862594e-02
9.578817362652097822e-02
1.377300032636240013e-01
1.772655859399008271e-01
2.133427298387697291e-01
2.458429442795069808e-01
2.739295523520817177e-01
2.971166859193292153e-01
3.155817659369896666e-01
3.282657680980611836e-01
3.358235321344177349e-01
3.376089782546286555e-01
3.336535121950070515e-01
3.245863787861501537e-01
3.097548601693784764e-01
2.902693791722565919e-01
2.658727291164923456e-01
2.370733970767293641e-01
2.046709845987879084e-01
1.686783281287277392e-01
1.301789672511653173e-01
8.946946172857647706e-02
4.729565327248243245e-02
4.402784783111741984e-03
-3.853010513556164029e-02
-8.088379633668973945e-02
-1.217964256807802514e-01
-1.606395793423107121e-01
-1.968763018071132964e-01
-2.294686847932246865e-01
-2.585153735553737953e-01
-2.828426800228158178e-01
-3.022850977844617204e-01
-3.166407249015883441e-01
-3.250254153881604324e-01
-3.282539886717661393e-01
-3.253163485897503371e-01
-3.166802789764836534e-01
-3.025634566417284566e-01
-2.826906715450656638e-01
-2.582968573221897657e-01
-2.289963066429219207e-01
-1.957277562941828752e-01
-1.590767242799925318e-01
-1.194985456768827281e-01
-7.809880754973669292e-02
-3.531513301393490734e-02
7.922997663462300055e-03
5.087102927359872517e-02
9.263553081060345307e-02
1.327316744468148013e-01
1.701018624100297250e-01
2.043325413102286270e-01
2.347708250377104622e-01
2.605918033837138492e-01
2.820579033525200674e-01
2.979959037274733658e-01
3.087213640665614767e-01
3.138536461628532725e-01
3.130456918661927990e-01
3.070998841930780987e-01
2.952364065711827190e-01
2.783428138000810792e-01
2.564146272550260064e-01
2.297299561193649198e-01
1.992543856356540077e-01
1.649415479736553447e-01
1.278370494144985270e-01
8.835943481972602376e-02
4.726297503473991801e-02
5.328097663609726586e-03
-3.672864665581915961e-02
-7.817939042094158852e-02
-1.182467362022180113e-01
-1.560845422523110537e-01
-1.913224371681613023e-01
-2.228105742121152255e-01
-2.504874546706938321e-01
-2.734529684439528374e-01
-2.912226060673284711e-01
-3.039217347043579598e-01
-3.105274047613773014e-01
-3.117185655388958199e-01
-3.068373099801812165e-01
-2.960522705523163101e-01
-2.799239235028993522e-01
-2.580655175983143645e-01
-2.316182238171166086e-01
-2.004849536221898210e-01
-1.654188154833561852e-01
-1.271937081365103750e-01
-8.623546708782814374e-02
-4.358612560529647600e-02
1.895631224098359713e-04
4.417207994694738460e-02
8.767276045421407149e-02
1.296699361529068950e-01
1.697746263862022764e-01
2.068998162689950071e-01
2.404651946953287323e-01
2.700804062444976394e-01
2.945857606843237941e-01
3.144686828212067686e-01
3.284581955982479595e-01
3.366235900513493973e-01
3.389439904692479466e-01
3.346282338102541387e-01
3.248286030069083563e-01
3.085804760539909153e-01
2.865884338876413251e-01
2.591970369315772516e-01
2.263763834257960239e-01
1.893805112637329535e-01
1.481106448689826216e-01
1.035753613917094751e-01
5.645397005893095649e-02
7.517127310971136178e-03
-4.234793512894598211e-02
-9.221971279913063202e-02
-1.412502161324348249e-01
-1.885478296827087785e-01
-2.329251310706703659e-01
-2.741373753449341533e-01
-3.106425364344722606e-01
-3.422057248155187525e-01
-3.680134213741445559e-01
-3.871076360801067873e-01
-3.999854180256032787e-01
-4.052357164242864074e-01
-4.034719464126054200e-01
-3.943253650680190736e-01
-3.776057375012531470e-01
-3.544082049600416617e-01
-3.241308207904324834e-01
-2.880334495217363733e-01
-2.464038720233182322e-01
-1.998864064067580049e-01
-1.497543535234418244e-01
-9.643723390249478444e-02
-4.120627398649834294e-02
1.507168933738096961e-02
7.136200731379076234e-02
1.267355323666285727e-01
1.800049293519073446e-01
2.305989144558831805e-01
2.773380154951318177e-01
3.194157748783054140e-01
3.565620616723877423e-01
3.873610568960120792e-01
4.122796052944682765e-01
4.301415221238036879e-01
4.407834211258881418e-01
4.445745745206485244e-01
4.404237986336713151e-01
4.296352052489608164e-01
4.113871465363816982e-01
3.862144858706725303e-01
3.549075717495348004e-01
3.171260703908833634e-01
2.744339056416191802e-01
2.267328696817916822e-01
1.749912836939052085e-01
1.201893305376315058e-01
6.289546695116091102e-02
4.276763279413287044e-03
-5.481671000679742833e-02
-1.134454433087580816e-01
-1.706390584057289606e-01
-2.251501342207891943e-01
-2.767070869732177751e-01
-3.236621615548266329e-01
-3.656112363943629373e-01
-4.018291849463709875e-01
-4.309787059370032702e-01
-4.538589926386945028e-01
-4.686230992215902891e-01
-4.757288466395689919e-01
-4.749565128983980200e-01
-4.655777608035457926e-01
-4.491178674948498872e-01
-4.244171470148538905e-01
-3.926750404835159247e-01
-3.543131243024597588e-01
-3.095224239990543302e-01
-2.600198013416497034e-01
-2.057691155694760243e-01
-1.481812641109815643e-01
-8.819415176937822620e-02
-2.667969550430102088e-02
3.509571403724900257e-02
9.616505710450942712e-02
1.556308415077422569e-01
2.123533027290256670e-01
2.653524688184076830e-01
3.142473990021682484e-01
3.575531966510058224e-01
3.953617724817092283e-01
4.266364824633763209e-01
4.508013310691891817e-01
4.683691677863800473e-01
4.779150735221895929e-01
4.804863251525973711e-01
4.753830590955345214e-01
4.626593283758614894e-01
4.433953266516609260e-01
4.167315285591995933e-01
3.842048207375614033e-01
3.456606665307034865e-01
3.017022688119915252e-01
2.535652329042152320e-01
2.012563333815208799e-01
1.461681902498490893e-01
8.884583564256587351e-02
3.013068749831819548e-02
-2.890393520178385217e-02
-8.741307591599853377e-02
-1.446845147481408689e-01
-1.995080516052988862e-01
-2.512266970944609934e-01
-2.991312151896237115e-01
-3.419290279977840741e-01
-3.798691419262469893e-01
-4.114088232603180795e-01
-4.364602233581264534e-01
-4.548211796862867140e-01
-4.653567040078204209e-01
-4.692419797165967577e-01
-4.651597681924822258e-01
-4.537557764374404168e-01
-4.354117847380972739e-01
-4.096653673015219765e-01
-3.782451966713813452e-01
-3.405754532431586323e-01
-2.978194542496939712e-01
-2.508471605789978631e-01
-1.999918898191218042e-01
-1.468620833582852114e-01
-9.181299064865826309e-02
-3.594007025084940826e-02
1.971069062268685640e-02
7.432781797831826409e-02
1.271367001647743522e-01
1.770312859638071279e-01
2.236067633942827593e-01
2.659846135561933500e-01
3.033808048068271090e-01
3.360765884954605154e-01
3.626860093823700559e-01
3.836985823733385925e-01
3.985730768455361672e-01
4.068883142052629465e-01
4.096931392061494703e-01
4.057837994444235541e-01
3.962725278353841918e-01
3.809789594161231419e-01
3.599302715496455196e-01
3.344077730510416901e-01
3.037629777655915797e-01
2.692211728505174984e-01
2.309882333265568521e-01
1.894661598814066095e-01
1.457274011557540827e-01
9.991383098776518423e-02
5.291145412383245483e-02
5.373223669070170683e-03
-4.208816953365890345e-02
-8.880018388198568369e-02
-1.338642443117493697e-01
-1.769929424766780168e-01
-2.171440616258058509e-01
-2.537632054097272993e-01
-2.866147678213567529e-01
-3.144429613623025976e-01
-3.376448724733169260e-01
-3.551046071750190714e-01
-3.666595778105145031e-01
-3.725225366822088602e-01
-3.717077232584460322e-01
-3.652111799613830811e-01
-3.523186651996269014e-01
-3.334673641207938632e-01
-3.092840490871272552e-01
-2.795539204820697843e-01
-2.455526153053920468e-01
-2.073124092136344743e-01
-1.657325501067987983e-01
-1.216685843473197526e-01
-7.573139985000353069e-02
-2.894111217538736236e-02
1.793118567964718801e-02
6.400637372144468706e-02
1.085087087627155666e-01
1.503958588355175929e-01
1.893973207987511564e-01
2.243183149989419478e-01
2.548184233713171598e-01
2.804465292141409272e-01
3.002894620700335970e-01
3.149559998969034824e-01
3.232792332383022105e-01
3.256797693254350201e-01
3.221098235106217289e-01
3.122335495399495287e-01
2.972165393730881733e-01
2.763915699253200464e-01
2.507588759350029561e-01
2.206417365429286792e-01
1.864638185682811200e-01
1.493423131860676933e-01
1.094897967758497181e-01
6.800412527742460966e-02
2.549373514080217548e-02
-1.708136705934186483e-02
-5.904578945119828837e-02
-9.942729244316936277e-02
-1.375291596047953646e-01
-1.726296396682628354e-01
-2.037490038436620687e-01
-2.308380983823732358e-01
-2.526861508383294597e-01
-2.693437930403738689e-01
-2.802536429910110205e-01
-2.849791015517905701e-01
-2.840596440412146984e-01
-2.767115089353922031e-01
-2.637410622540820038e-01
-2.450253300098967912e-01
-2.209442860512927376e-01
-1.923699134832088098e-01
-1.593680396508210251e-01
-1.231047195591442045e-01
-8.398131262628971694e-02
-4.298473987555107012e-02
-9.236551572014140010e-04
4.134576317099479537e-02
8.292314235407512168e-02
1.230327889661765040e-01
1.606464161586164119e-01
1.953596725500379439e-01
2.259896287552934369e-01
2.523874648947432853e-01
2.737017327425426694e-01
2.894230475512888368e-01
2.996620472276719238e-01
3.035012578460226096e-01
3.016074401691338780e-01
2.933979844245730995e-01
2.791368882744919011e-01
2.593459978656144638e-01
2.338313878502621401e-01
2.037230501859674248e-01
1.690190727965577566e-01
1.306086943762403418e-01
8.922770783661776450e-02
4.552720141439159374e-02
5.313084931601042005e-04
-4.505188687448728746e-02
-9.018896731305481307e-02
-1.341603067049513542e-01
-1.757812818010114075e-01
-2.146639894416131344e-01
-2.495964866545438976e-01
-2.799939790643153903e-01
-3.053971582278258712e-01
-3.247107566002913615e-01
-3.384300377525625292e-01
-3.453607801965177804e-01
-3.457526886227929586e-01
-3.395991044726052732e-01
-3.265108315203115175e-01
-3.076154298712864832e-01
-2.823762723340147440e-01
-2.517719202543304280e-01
-2.162741416602856903e-01
-1.763992310268784336e-01
-1.333411267668242195e-01
-8.751964537966019919e-02
-4.009663856094877743e-02
8.145008174904058706e-03
5.612492668933106998e-02
1.030984017096818472e-01
1.479275415146706352e-01
1.899018696078778878e-01
2.281892157580685254e-01
2.617735013606119487e-01
2.906044312940476160e-01
3.134041384247754913e-01
3.302932549865449374e-01
3.406667042056087946e-01
3.441433221317789504e-01
3.412919902910622749e-01
3.313450144427794175e-01
3.152092019479284524e-01
2.927565126187567923e-01
2.644709243723630254e-01
2.312633215836689404e-01
1.932845639783224434e-01
1.517950917685398637e-01
1.072676540688543845e-01
6.080313939266575318e-02
1.330089362479591926e-02
-3.425112449571465073e-02
-8.087199841001951883e-02
-1.256253136751021016e-01
-1.674234013437770341e-01
-2.057164141147296288e-01
-2.392421994312844413e-01
-2.678349408705908985e-01
-2.904973373575535645e-01
-3.068186724088493578e-01
-3.168088806389543488e-01
-3.196528860258441296e-01
-3.161304494321505176e-01
-3.056567127168401954e-01
-2.887742859929220973e-01
-2.660200573317788031e-01
-2.374648404698919135e-01
-2.044264071214263734e-01
-1.670104425647054580e-01
-1.263972185516486491e-01
-8.336655181057198161e-02
-3.878601228536798090e-02
6.237872300324277808e-03
5.095165449362662469e-02
9.424515150293991117e-02
1.354581130139068945e-01
1.734241552355681726e-01
2.078757715100630343e-01
2.377041326807132759e-01
2.624995611764547876e-01
2.819479928482135911e-01
2.951673207924896958e-01
3.028486292145408654e-01
3.039564471528378164e-01
2.989737142156753680e-01
2.879790089062775338e-01
2.708074704653303799e-01
2.486135952957094220e-01
2.209888599680291665e-01
1.889869438440045790e-01
1.530322017441672344e-01
1.137278763807655219e-01
7.213532004759004579e-02
2.870142867222663652e-02
-1.549978091215448162e-02
-5.979397492251192769e-02
-1.031279268761275680e-01
-1.449409288420492881e-01
-1.841097987618111609e-01
-2.200721563601887310e-01
-2.520852913942314699e-01
-2.791918179825619850e-01
-3.014975577487633007e-01
-3.177484319691578629e-01
-3.281943555616931296e-01
-3.323134375836773735e-01
-3.297602957922879385e-01
-3.212441001346181269e-01
-3.060217355055218080e-01
-2.850756589505892280e-01
-2.583770255168856833e-01
-2.263702531292298703e-01
-1.900808942610349161e-01
-1.496333685756126297e-01
-1.062533711293243838e-01
-6.047448217270792736e-02
-1.323481813008647867e-02
3.454959334803225923e-02
8.199689515379010585e-02
1.283043615297425610e-01
1.725393255264102699e-01
2.138377829212627090e-01
2.517412649148577097e-01
2.850553960962139421e-01
3.138511151931484555e-01
3.370883009328984325e-01
3.544534212474598212e-01
3.660466545985034403e-01
3.708841799001710293e-01
3.698927935451961080e-01
3.622599725942797777e-01
3.483650042848070449e-01
3.287475287110526168e-01
3.030335879793356058e-01
2.725682086310107222e-01
2.370976881035276040e-01
1.974825692683528922e-01
1.545058152141081942e-01
1.085486878254278281e-01
6.076860811230880288e-02
1.168586763110410209e-02
-3.779706817621664161e-02
-8.684288272076812198e-02
-1.344940506699309202e-01
-1.802857303017281199e-01
-2.229889989494349134e-01
-2.621362839357423424e-01
-2.970311307251622956e-01
-3.266150514635016711e-01
-3.512925232392276609e-01
-3.695977783885888712e-01
-3.817976529715064737e-01
-3.875579373410915629e-01
-3.862879167217956877e-01
-3.790564936920061689e-01
-3.648680026447043145e-01
-3.446710253102988064e-01
-3.186479589621374342e-01
-2.869650918155715602e-01
-2.509468204105624878e-01
-2.104835037545456644e-01
-1.667823368195998357e-01
-1.204921531444993615e-01
-7.236593920141098923e-02
-2.346058283633321168e-02
2.549522784226854188e-02
7.365281257548025873e-02
1.201258440476653255e-01
1.640557230142128398e-01
2.050350800282003116e-01
2.418875409556990319e-01
2.745639194687626850e-01
3.021990329142562048e-01
3.242921237590692396e-01
3.411289934067336382e-01
3.515857843260118965e-01
3.564265872373587052e-01
3.550229322463886450e-01
3.474517512591321355e-01
3.344458639779379072e-01
3.153754873261463976e-01
2.914450768032314509e-01
2.624642042205689307e-01
2.290300557882575250e-01
1.920044036354324191e-01
1.515189711484483670e-01
1.086927498963026206e-01
6.393910217675850827e-02
1.810528147106451463e-02
-2.805497669553082274e-02
-7.367768653096218312e-02
-1.181888112895256027e-01
-1.605869712081919309e-01
-2.001734914652325559e-01
-2.364677364146057781e-01
-2.682521972063053872e-01
-2.957617347007045483e-01
-3.177217293128549169e-01
-3.339708900866530938e-01
-3.444408404859684025e-01
-3.481468862135033704e-01
-3.461131818802107296e-01
-3.373187563602730310e-01
-3.223105989170011454e-01
-3.014944725330599984e-01
-2.745953862559142866e-01
-2.430529585796206704e-01
-2.065596035220890192e-01
-1.661430497700053799e-01
-1.225567415600588850e-01
-7.632046122460875437e-02
-2.862500514989109457e-02
1.996267267743993823e-02
6.849515358154859013e-02
1.161523834674177136e-01
1.619333578677315533e-01
2.054803734058784359e-01
2.455385232272883633e-01
2.817728658902526884e-01
3.135499962600010182e-01
3.398771386100795100e-01
3.613152090840618946e-01
3.764113958482319111e-01
3.856018441950203046e-01
3.885700067601522978e-01
3.847247895947151219e-01
3.752279630905122065e-01
3.589681954264478669e-01
3.369304939788465569e-01
3.091844181356584453e-01
2.757377252386566391e-01
2.378706867799070257e-01
1.952701275317573204e-01
1.490337846344913508e-01
9.969287199460724613e-02
4.782695347852175538e-02
-5.555981370485602033e-03
-5.977358808355336117e-02
-1.140641141469311420e-01
-1.674231830503071783e-01
-2.189646857660209611e-01
-2.681677920835914275e-01
-3.135796069017141030e-01
-3.551110777229996018e-01
-3.914886312678672042e-01
-4.219726222756878808e-01
-4.466281943762636653e-01
-4.638590560216179215e-01
-4.743949723316319700e-01
-4.771477611249403950e-01
-4.719762913692792106e-01
-4.595523578775151385e-01
-4.388805866476710449e-01
-4.113625814744574782e-01
-3.765998126085520203e-01
-3.352013821418406425e-01
-2.883034005995351312e-01
-2.359428799428466283e-01
-1.796684027531922356e-01
-1.200110556096954384e-01
-5.799162236165003592e-02
5.152220370470014799e-03
6.847033358920036339e-02
1.310139758425094558e-01
1.914632616576703306e-01
2.490321785828380763e-01
3.027995160272394237e-01
3.514178704124216179e-01
3.950831594221447807e-01
4.320769170361501987e-01
4.623673391601389460e-01
4.855858274400919883e-01
5.005705126345837419e-01
5.086524538676382434e-01
5.082082206471449926e-01
5.000411593424405332e-01
4.843389956978125799e-01
4.605707914475629106e-01
4.305790342800409620e-01
3.934355052658020657e-01
3.504028311455844591e-01
3.021286569212452422e-01
2.488874031699582212e-01
1.922637967730376762e-01
1.324698984084475006e-01
7.066159427971423213e-02
7.843457854197294354e-03
-5.508638258106862695e-02
-1.172399424174342397e-01
-1.773377958200892390e-01
-2.348089008324378280e-01
-2.884621676177323013e-01
-3.372409089180491981e-01
-3.811019227332787529e-01
-4.182467628030564488e-01
-4.489738431407751529e-01
-4.722284277556483278e-01
-4.873711433170151430e-01
-4.951401835402398643e-01
-4.940321872453352081e-01
-4.852062576296426455e-01
-4.681497410921119373e-01
-4.430263006163137063e-01
-4.111184863218743102e-01
-3.718747469473475120e-01
-3.269250662802423713e-01
-2.765447892842640698e-01
-2.216132266573143661e-01
-1.635301910986783069e-01
-1.028279627064493801e-01
-4.089595917954298721e-02
2.129122282416712197e-02
8.268382647630423410e-02
1.422589216592829164e-01
1.987908882373331521e-01
2.518174039519117668e-01
3.000002777985503188e-01
3.427527410644621297e-01
3.797295939205371784e-01
4.096166118059592631e-01
4.331246551434876357e-01
4.489496034966755644e-01
4.572929241139926382e-01
4.584628254669658176e-01
4.515761832465760572e-01
4.381814905353587641e-01
4.173838655501549977e-01
3.900553416635189063e-01
3.569221553953069725e-01
3.178279059958766806e-01
2.744607004075433898e-01
2.266677479342443791e-01
1.755685978870976660e-01
1.220675768060329180e-01
6.676300120528988469e-02
1.079516070021371843e-02
-4.506782250826221747e-02
-9.996517851759073592e-02
-1.529888263331873333e-01
-2.030569931584116361e-01
-2.499861884400129408e-01
-2.922540758824325180e-01
-3.296663702232337512e-01
-3.614899427096552875e-01
-3.867173099942062264e-01
-4.060395754261970080e-01
-4.178690132363985787e-01
-4.228070972623587664e-01
-4.205227369914681379e-01
-4.106419563016336927e-01
-3.944009053110301144e-01
-3.709173644913340562e-01
-3.414026218667915447e-01
-3.061004212441132410e-01
-2.654881926207736109e-01
-2.209021544825038874e-01
-1.725408537008333854e-01
-1.217215856293185627e-01
-6.921221968008328673e-02
-1.604360935771859120e-02
3.681879797325483816e-02
8.830727352904266247e-02
1.376272442572318289e-01
1.837660469565473020e-01
2.257677858729091880e-01
2.633331428586632716e-01
2.951427132781806462e-01
3.213177780095331504e-01
3.409604182382532378e-01
3.537531742125153977e-01
3.600497029897428147e-01
3.589544427553267303e-01
3.514378516043880629e-01
3.370358669434420640e-01
3.162680869363520553e-01
2.898946534868047098e-01
2.578758490382236368e-01
2.215653949565693226e-01
1.811375668627778768e-01
1.377047377695778119e-01
9.212570512654510990e-02
4.521697813595238619e-02
-1.905201847017671743e-03
-4.844564602005514697e-02
-9.327202850447235960e-02
-1.357037519510440882e-01
-1.745328969381059470e-01
-2.093935515628240207e-01
-2.392028045751112830e-01
-2.634474933340734126e-01
-2.818513145902628025e-01
-2.935313436660068054e-01
-2.990517387827512641e-01
-2.975864834964739858e-01
-2.895857082825954443e-01
-2.752792441566773163e-01
-2.546501117076606646e-01
-2.289055802433845321e-01
-1.979211805712694505e-01
-1.628989849680866353e-01
-1.244570191381016155e-01
-8.345347104697442564e-02
-4.107678360852728972e-02
2.029900647780774614e-03
4.460434120496691024e-02
8.595192971564008522e-02
1.248669560946939205e-01
1.608420593124914588e-01
1.928119841294182457e-01
2.201901487493107545e-01
2.425234624802071748e-01
2.589779643147868127e-01
2.699020048077190870e-01
2.744111403378368119e-01
2.728761551940761532e-01
2.652444287572073289e-01
2.514987235882293892e-01
2.325484773731974486e-01
2.081600320867914578e-01
1.793892565857220234e-01
1.465807628825842035e-01
1.105012436712516366e-01
7.211683132456780942e-02
3.196909561000738087e-02
-8.813541054501633498e-03
-4.960525129106946318e-02
-8.930196943205746807e-02
-1.273180487119623117e-01
-1.626100134728328817e-01
-1.945913162474537383e-01
-2.225734318482834873e-01
-2.457285066426782016e-01
-2.640673274132896431e-01
-2.765915618181820079e-01
-2.835708604755616813e-01
-2.845439865041423100e-01
-2.794120729596978325e-01
-2.687372837749186227e-01
-2.520982388993536771e-01
-2.304709972599181533e-01
-2.038588626880216692e-01
-1.729183116968455169e-01
-1.384813859284758641e-01
-1.009116182645443116e-01
-6.133078181325063438e-02
-2.024998368414560046e-02
2.133933273600246983e-02
6.272448079782672048e-02
1.029656975791802542e-01
1.414504689611734978e-01
1.773191727055306588e-01
2.098291987006760118e-01
2.386647872615196564e-01
2.627666522280853179e-01
2.823776669073335688e-01
2.965667703137034872e-01
3.052271287653786636e-01
3.084813749856560872e-01
3.056175841893495337e-01
2.975857824373546179e-01
2.837205687804471022e-01
2.645658032208160204e-01
2.405621293728696930e-01
2.116583825602178504e-01
1.790105934649252051e-01
1.425654819184341282e-01
1.032225095881185994e-01
6.160971930813305408e-02
1.839905082422230165e-02
-2.559705540753194619e-02
-6.961635006710910345e-02
-1.128470043677098356e-01
-1.545881975142557874e-01
-1.937291768686448812e-01
-2.301190625233646148e-01
-2.624041284536029472e-01
-2.902794428706421681e-01
-3.131623469216127664e-01
-3.300872014737472049e-01
-3.415708562125790992e-01
-3.463452809231801766e-01
-3.448290383654936120e-01
-3.368215353337506435e-01
-3.220598853119627791e-01
-3.015338014899329178e-01
-2.747396955746690961e-01
-2.426945421450513174e-01
-2.057489230894041232e-01
-1.645048683579529991e-01
-1.200444122252498358e-01
-7.288629741063995526e-02
-2.414749436973237517e-02
2.535289945235058573e-02
7.451606045855987959e-02
1.226091302276370310e-01
1.683873730787802947e-01
2.112522154319784184e-01
2.502096594282549047e-01
2.843154415665403723e-01
3.134525247461590891e-01
3.362871794524690539e-01
3.530927407745353408e-01
3.630606786180252121e-01
3.659384685140781301e-01
3.622009791603322815e-01
3.510790645942311050e-01
3.336085441046772182e-01
3.094957004147296242e-01
2.793294811429158919e-01
2.439440407056504001e-01
2.035169016978273793e-01
1.593463166325488900e-01
1.118517078408540893e-01
6.215764655562709684e-02
1.115310949370071358e-02
-4.011690811528731415e-02
-9.073385745670436986e-02
-1.396312276953873277e-01
-1.857657613678576070e-01
-2.284842298752000067e-01
-2.664117547334390323e-01
-2.994956303040636758e-01
-3.264212304816562771e-01
-3.468461365491721238e-01
-3.605785475886729152e-01
-3.666564237586997788e-01
-3.659751431772970132e-01
-3.575705323918575429e-01
-3.420605153743347393e-01
-3.197900194776068794e-01
-2.907378725313701229e-01
-2.563254988813504776e-01
-2.164291866746993198e-01
-1.723215814345880059e-01
-1.247443593107749882e-01
-7.462021471121055294e-02
-2.314020173913222678e-02
2.885142111154139627e-02
8.014960546315465229e-02
1.299068592987892012e-01
1.767922955120444228e-01
2.204069293132824570e-01
2.593367431730178030e-01
2.931101235236100444e-01
3.210692843029774868e-01
3.422147556029506155e-01
3.570116018093296706e-01
3.641935467620335820e-01
3.642550769966626523e-01
3.569453875106609608e-01
3.421285458773384858e-01
3.208228331803153477e-01
2.925598472738998312e-01
2.585397557816238034e-01
2.190505529826271558e-01
1.748992409164679684e-01
1.271997942075466237e-01
7.655473724271394387e-02
2.427278231919269974e-02
-2.883527652443339251e-02
-8.144929673222758848e-02
-1.327714697964974544e-01
-1.814245792494036391e-01
-2.266572582965513116e-01
-2.673992887299864174e-01
-3.025681908451799962e-01
-3.319543123189929723e-01
-3.541645782548930033e-01
-3.694296283323585950e-01
-3.768978801853630212e-01
-3.763898247302118194e-01
-3.683546928432803180e-01
-3.521874377941009437e-01
-3.290378809917329228e-01
-2.987328053579515474e-01
-2.621492912490231975e-01
-2.202051224159342901e-01
-1.734286352763839967e-01
-1.232913113158329577e-01
-7.043896630170948248e-02
-1.629033574229607137e-02
3.818383785128409702e-02
9.165527159945624502e-02
1.431667034390438353e-01
1.915235428462815359e-01
2.356327999258041039e-01
2.748873928168722447e-01
3.079250324440753750e-01
3.348505975895122444e-01
3.544393825347986748e-01
3.665769131952136828e-01
3.712140874869332419e-01
3.676888290824901206e-01
3.570878120156693036e-01
3.387018097132223904e-01
3.134533932985774651e-01
2.817996018574819850e-01
2.441176375118797592e-01
2.018543552508178518e-01
1.551966886883656971e-01
1.055812841450489981e-01
5.378392706719775651e-02
1.029118510868905212e-03
-5.164979859960282943e-02
-1.031420098040893157e-01
-1.522914736109605982e-01
-1.982609023729869635e-01
-2.396621565496590278e-01
-2.762794242440780867e-01
-3.066567933857868300e-01
-3.305386676148415193e-01
-3.473460010502821826e-01
-3.563332884762173136e-01
-3.581210957816374219e-01
-3.517350293014380735e-01
-3.379769550838073178e-01
-3.168080307894360903e-01
-2.885782005844544362e-01
-2.544112216259648562e-01
-2.143781247489409680e-01
-1.699081565480048406e-01
-1.215671886179896799e-01
-7.059405208694433109e-02
-1.806923023422242480e-02
3.494119695618679022e-02
8.718855223363114471e-02
1.377235484857533554e-01
1.851608299966686078e-01
2.289471325155029990e-01
2.676269179312644741e-01
3.008324974824081455e-01
3.276224401009021348e-01
3.472649386716441522e-01
3.599070631594974423e-01
3.644909127686877803e-01
3.617086928188366635e-01
3.510310878801181089e-01
3.327799118959793301e-01
3.076550249574816487e-01
2.755678518285966661e-01
2.378752018400129564e-01
1.947589226296221332e-01
1.474109946228837065e-01
9.677116091214091331e-02
4.379558330075707800e-02
-1.022585571288794903e-02
-6.436426715005993948e-02
-1.172307376120081124e-01
-1.680064584354014623e-01
-2.151878598294776901e-01
-2.582647071525897009e-01
-2.959047380229871127e-01
-3.273396762705300667e-01
-3.521964231098429488e-01
-3.692498737560175881e-01
-3.791015400142693781e-01
-3.806340387664323699e-01
-3.741894951146350068e-01
-3.600102601874986541e-01
-3.378268380034797347e-01
-3.090828433519529073e-01
-2.734438118768530712e-01
-2.321865162198125665e-01
-1.860647054070753148e-01
-1.358791192179834018e-01
-8.310733528721139796e-02
-2.840741673431915193e-02
2.679070653170725902e-02
8.156332267861940433e-02
1.345477736770651633e-01
1.850341370156904364e-01
2.316708165267244435e-01
2.737238226549811304e-01
3.104561591256605468e-01
3.407086529263318453e-01
3.648034248874904573e-01
3.813446480342672640e-01
3.906702987249400794e-01
3.924474624088468699e-01
3.862780581475017683e-01
3.732528734037012241e-01
3.525543280294257120e-01
3.253693752980542642e-01
2.918597710353287300e-01
2.525121607496491616e-01
2.086434735315696454e-01
1.603765264468757223e-01
1.091151605519148082e-01
5.551707978834133361e-02
6.443176081115248310e-04
-5.447680883405828234e-02
-1.088335725151943489e-01
-1.615101236239968596e-01
-2.114856111950859652e-01
-2.577009596620347676e-01
-2.997472751370515165e-01
-3.361933161066081865e-01
-3.670821901527814290e-01
-3.913478352777199354e-01
-4.085068915299845949e-01
-4.188592757652059295e-01
-4.212346832036334421e-01
-4.166582929183572093e-01
-4.044329564487649797e-01
-3.849096711890141465e-01
-3.589390275555834342e-01
-3.261416483743718731e-01
-2.880494151263513491e-01
-2.446463754799024781e-01
-1.968993579792081561e-01
-1.458584525868786008e-01
-9.205393853034153639e-02
-3.676397677627904481e-02
1.926914713017732761e-02
7.502116569071018426e-02
1.296040466791530121e-01
1.818637003445300881e-01
2.313980758925399672e-01
2.768675085347174214e-01
3.177394452551220994e-01
3.534859058352227690e-01
3.828402280107282563e-01
4.064392959596725419e-01
4.227413653371088764e-01
4.319870417324994660e-01
4.340759606630253398e-01
4.281976652224995239e-01
4.157414985116756334e-01
3.955764087358115688e-01
3.686663822426017312e-01
3.353905320259276679e-01
2.958341023891716270e-01
2.515187048266328551e-01
2.023780391035857051e-01
1.496909020447776129e-01
9.429615724732873239e-02
3.712702058604028243e-02
-2.068910291198791662e-02
-7.810332382945497920e-02
-1.341190892836816861e-01
-1.876589728581219418e-01
-2.375030284332532160e-01
-2.832773584913594878e-01
-3.233961829892991746e-01
-3.576931173446967760e-01
-3.852491338587820668e-01
-4.052956525327361947e-01
-4.183344926974877365e-01
-4.230611525356772207e-01
-4.203322018284159078e-01
-4.097617072589969101e-01
-3.914782581799207684e-01
-3.666530810775391891e-01
-3.348381505596751961e-01
-2.975606105978799709e-01
-2.550995667588653593e-01
-2.083429829277710088e-01
-1.586298910542890406e-01
-1.064166805106208785e-01
-5.312941536577954482e-02
4.506336682083139644e-04
5.328265033047319132e-02
1.044183403117407427e-01
1.528826926906528549e-01
1.980969390905199523e-01
2.390771340639649134e-01
2.752605197963193251e-01
3.063872934769883427e-01
3.314567768533814296e-01
3.510007244266333815e-01
3.640968646355938199e-01
3.709216871206651445e-01
3.718279601437354809e-01
3.661506318623798939e-01
3.552064329530171261e-01
3.383520956234986055e-01
3.163329402830480364e-01
2.898315239923197617e-01
2.586956923986835633e-01
2.243710614819111049e-01
1.867033265291368482e-01
1.465925997945280168e-01
1.047877058727631761e-01
6.165443150509010428e-02
1.815198150789539347e-02
-2.523697133297837791e-02
-6.787042883458713205e-02
-1.090745195887551644e-01
-1.481188248830635490e-01
-1.848471617214241247e-01
-2.181880277735864793e-01
-2.480152915387587309e-01
-2.738109581993735664e-01
-2.947907228413880754e-01
-3.115716400269898934e-01
-3.228613137326734051e-01
-3.291191869926619606e-01
-3.301078820044199835e-01
-3.253986609511864136e-01
-3.160399302602972527e-01
-3.011556580009833173e-01
-2.816309941728573629e-01
-2.576315879766681305e-01
-2.293041123642403090e-01
-1.977658950488732081e-01
-1.629242139148842083e-01
-1.257473957991978586e-01
-8.678332622497061943e-02
-4.663800447577594321e-02
-6.118180126129232899e-03
3.412763489182027432e-02
7.348957707261913330e-02
1.112212608091806554e-01
1.466262136217573731e-01
1.794622175511580431e-01
2.086927124315886561e-01
2.343624975148939082e-01
2.557516018607877695e-01
2.724425423031422433e-01
2.847486743365104100e-01
2.916929088977123774e-01
2.939468199013218763e-01
2.910062288460910640e-01
2.829225412408843399e-01
2.703439446741449648e-01
2.527477049918330221e-01
2.311276971564186766e-01
2.053719819511596323e-01
1.759792617763024647e-01
1.436779647624055745e-01
1.086335010790071554e-01
7.175269990183452684e-02
3.344630675584053803e-02
-5.552235073761853379e-03
-4.462190274985017302e-02
-8.295920071910380111e-02
-1.201089499873360666e-01
-1.551846826681325398e-01
-1.875689643833250153e-01
-2.168887842745295669e-01
-2.420744651188677654e-01
-2.633420687676106819e-01
-2.796392009966660597e-01
-2.908237992930009508e-01
-2.968953895048379032e-01
-2.970591307987779928e-01
-2.921867446148701530e-01
-2.815245198765583545e-01
-2.655607386500381528e-01
-2.447080573948385851e-01
-2.188446633703458877e-01
-1.891680809979650046e-01
-1.555794719248013158e-01
-1.189793479324338099e-01
-8.005617898480907324e-02
-3.937640375913352420e-02
2.107260276973950408e-03
4.377254055071667233e-02
8.481529810378857226e-02
1.245351081518383252e-01
1.620182150628710349e-01
1.970378925595801800e-01
2.284865419862930902e-01
2.561237203950138541e-01
2.794631681377266474e-01
2.977158629389435873e-01
3.114170642102652709e-01
3.194380373567403120e-01
3.222162149390780383e-01
3.195782124727402085e-01
3.111938126466726739e-01
2.980437965300020142e-01
2.794262065018723873e-01
2.562214245201893670e-01
2.286009287167731774e-01
1.968005237620344405e-01
1.618245884734275664e-01
1.237081818241633074e-01
8.337001366909166378e-02
4.135168904613595320e-02
-1.667477268090383768e-03
-4.497151821870443156e-02
-8.775702356162873308e-02
-1.294625180334429415e-01
-1.692341053759204850e-01
-2.062810765797243318e-01
-2.403365004110492031e-01
-2.701664341167859806e-01
-2.958388972757123869e-01
-3.164328539519007388e-01
-3.314806238072522948e-01
-3.412162229807324532e-01
-3.445700864255948348e-01
-3.422898996035655395e-01
-3.337717474463280931e-01
-3.191783045755265946e-01
-2.991769258551436605e-01
-2.733928418452287734e-01
-2.429877132427275543e-01
-2.079810748609446924e-01
-1.691131901346127897e-01
-1.272551994396436958e-01
-8.288287646825086286e-02
-3.703373488504696498e-02
9.600501695591845408e-03
5.612054330419702364e-02
1.017694382549925169e-01
1.454909985717637300e-01
1.869145158166159448e-01
2.248871483703243079e-01
2.588748548277940431e-01
2.884755711570241576e-01
3.125616261829875508e-01
3.316551680759139975e-01
3.445216237635133627e-01
3.513092501625331154e-01
3.520447925984157012e-01
3.460318012416171429e-01
3.344658994346297876e-01
3.164874790038644803e-01
2.928828456454813933e-01
2.640639340503668220e-01
2.300774842422986799e-01
1.922532231129364666e-01
1.505287199922463182e-01
1.059641540825023709e-01
5.926610641368793009e-02
1.120763115135840066e-02
-3.731257742995650051e-02
-8.541670878730431293e-02
-1.322864639636508743e-01
-1.770793613180556281e-01
-2.187111362007162496e-01
-2.569790179977826106e-01
-2.904780790440322225e-01
-3.190502615683494247e-01
-3.419830134656556830e-01
-3.584745464455957320e-01
-3.690615389995597906e-01
-3.724986874875939602e-01
-3.694490318126271711e-01
-3.596313130841272687e-01
-3.429703029937263281e-01
-3.205481668915302618e-01
-2.918644580133561983e-01
-2.581542584484383118e-01
-2.197176851830975886e-01
-1.772057937761103430e-01
-1.318151372694672530e-01
-8.394375806911588689e-02
-3.477646373885745490e-02
1.491978728503748700e-02
6.421457484351683620e-02
1.122957701910986678e-01
1.581512528568498055e-01
2.012936927183021363e-01
2.407514419150115215e-01
2.758672066141449331e-01
3.064785423441249712e-01
3.314249799017285336e-01
3.511696379057454021e-01
3.647896099254160363e-01
3.722116555432532503e-01
3.738379827409202272e-01
3.687977339482598760e-01
3.582461072239394584e-01
3.415562768284231554e-01
3.192203124491900246e-01
2.919406582591791977e-01
2.594670047157420778e-01
2.230961721196882963e-01
1.827820117579438131e-01
1.393392491492189689e-01
9.355474702125241016e-02
4.594264584382960065e-02
-2.594322217094795734e-03
-5.131996121122323062e-02
-9.945027451309015887e-02
-1.462428411761547975e-01
-1.905956836844896474e-01
-2.323466376408527267e-01
-2.701026213455466896e-01
-3.034982434596851242e-01
-3.319884081650196217e-01
-3.544035452163363242e-01
-3.714176902523734780e-01
-3.815167171924088718e-01
-3.850371087064021203e-01
-3.818397859598321453e-01
-3.713412474809151820e-01
-3.547759985119304793e-01
-3.312912253015541930e-01
-3.018737716196370768e-01
-2.669214550943932451e-01
-2.267746586049347590e-01
-1.827455694300909872e-01
-1.350802284750059479e-01
-8.497720954559012663e-02
-3.326821975339525755e-02
1.901893371484228434e-02
7.099315655760793375e-02
1.215072927769325350e-01
1.697741697833824170e-01
2.148301751262782222e-01
2.555845746698379162e-01
2.918887129716455364e-01
3.223011157474621746e-01
3.468889881711566536e-01
3.648904074798599018e-01
3.757667016289391593e-01
3.800888213891915335e-01
3.768089430618696278e-01
3.668463836922489785e-01
3.499011289789371038e-01
3.262700537098683906e-01
2.969375428312620580e-01
2.617253618924494929e-01
2.219681818829582487e-01
1.779708391940161005e-01
1.307004391806813881e-01
8.115779031000489030e-02
3.010337493981158491e-02
-2.135275141631876733e-02
-7.233505985852632658e-02
-1.217254352458455591e-01
-1.688378357507120120e-01
-2.123573367980338966e-01
-2.519460842331925909e-01
-2.864380571221881167e-01
-3.151879622422915084e-01
-3.380309803718011263e-01
-3.537737338561697809e-01
-3.630595978570784754e-01
-3.649086571683001212e-01
-3.595455169135427509e-01
-3.473678390872233512e-01
-3.279158203867506005e-01
-3.025486037019141095e-01
-2.709249379468589569e-01
-2.340508959775332021e-01
-1.927219573438023748e-01
-1.474149794369150612e-01
-9.953654792760530112e-02
-4.957142248174316312e-02
1.255736584557888558e-03
5.207752216140916490e-02
1.017766319560832744e-01
1.496478117731695201e-01
1.945381344347789088e-01
2.357118475692575044e-01
2.725513232632266747e-01
3.038757471098933460e-01
3.300689033549503160e-01
3.497201623502463330e-01
3.629931869424835589e-01
3.696828509238185845e-01
3.691126241246085460e-01
3.624444877070727711e-01
3.486488054401441494e-01
3.286534868934238851e-01
3.026806314265196307e-01
2.708176431674144125e-01
2.344376032249896324e-01
1.933348823031367514e-01
1.487239569708264375e-01
1.012071950579259000e-01
5.153546876069581284e-02
7.673492377174018220e-04
-5.037738905188754446e-02
-1.009668372297871652e-01
-1.501212397424805667e-01
-1.968257099615958738e-01
-2.406369774401773132e-01
-2.802282369194112333e-01
-3.153815872032386114e-01
-3.451684467530435896e-01
-3.688466813038114855e-01
-3.866661379216882466e-01
-3.973271697215716713e-01
-4.014769244657913072e-01
-3.984936552804541066e-01
-3.883277895516601408e-01
-3.718184526933634437e-01
-3.483204632698510550e-01
-3.191195361508005202e-01
-2.842038137783200469e-01
-2.442454372805806795e-01
-2.003738586735562821e-01
-1.528494962238326760e-01
-1.030075611266500213e-01
-5.148857275945879775e-02
7.375097052424173238e-04
5.268063026114155889e-02
1.034067325827434658e-01
1.522186870234897293e-01
1.980465548086336458e-01
2.402239762503919351e-01
2.782439948146460118e-01
3.109934111712056026e-01
3.387912460319019159e-01
3.604690047059012636e-01
3.760451701724958351e-01
3.855715079647900057e-01
3.882177833950575252e-01
3.851612819954892686e-01
3.754687945589941789e-01
3.598140985421228732e-01
3.386611587137212664e-01
3.117477992813508236e-01
2.805478016493875848e-01
2.446891249181235017e-01
2.051552250835468882e-01
1.626364103172762698e-01
1.175141358886945264e-01
7.092276286267121255e-02
2.329338229428148943e-02
-2.453448257032969648e-02
-7.177924025171134037e-02
-1.175816928361401725e-01
-1.615584513291049573e-01
-2.025192630544431216e-01
-2.401469546023941026e-01
-2.737115655670057102e-01
-3.022981895260646867e-01
-3.262898839172732046e-01
-3.442550070763898962e-01
-3.565673565706732884e-01
-3.627691835142423660e-01
-3.623727167785583125e-01
-3.563413465838398686e-01
-3.436686857465780509e-01
-3.253338129758053254e-01
-3.013617966937249260e-01
-2.719493883356194353e-01
-2.383073412282413206e-01
-2.002779396457555205e-01
-1.590570256844007213e-01
-1.151813219241002023e-01
-6.937869099975417508e-02
-2.267501673871748225e-02
2.426897266194721903e-02
7.060721326197580416e-02
1.154809793193236067e-01
1.580896596243862584e-01
1.979556491509383842e-01
2.339853527413501277e-01
2.661201134116180644e-01
2.934605010369874534e-01
3.155836234639322613e-01
3.326643002074026745e-01
3.436575107569831422e-01
3.493321867983908424e-01
3.489949559342127028e-01
3.427858067635736194e-01
3.313527004504956408e-01
3.140810686534460383e-01
2.922004483421681287e-01
2.654237050853533453e-01
2.343396512040441804e-01
1.997755582506987038e-01
1.617541316825269748e-01
1.214191206569521370e-01
7.904928770352508127e-02
3.538402279132833034e-02
-8.808267154783812336e-03
-5.288462117357689563e-02
-9.625360335465374395e-02
-1.380415276477450215e-01
-1.777067520650600085e-01
-2.146857158586440439e-01
-2.479821763531639967e-01
-2.777851396116294280e-01
-3.028430135971562076e-01
-3.230931347586883384e-01
-3.382834534500647194e-01
-3.475132725540960310e-01
-3.516976004754352458e-01
-3.496670473078052899e-01
-3.419437777977406556e-01
-3.286751350048776055e-01
-3.094905488958804574e-01
-2.857041221595738589e-01
-2.567395181613580935e-01
-2.235323808102295251e-01
-1.866245774308628036e-01
-1.463607874771160056e-01
-1.038770462585345278e-01
-5.952282392756298723e-02
-1.419319852135147997e-02
3.132861580850940242e-02
7.622552588511263827e-02
1.199302043756267089e-01
1.613802170679363712e-01
2.001661000694385795e-01
2.354984920996586739e-01
2.665506230661870424e-01
2.934673261634560548e-01
3.149645586433597599e-01
3.313384684970374083e-01
3.420120306563246282e-01
3.465712631532084642e-01
3.457187951089356615e-01
3.385009554708735546e-01
3.258011653322626655e-01
3.074292837946361323e-01
2.835854971069722841e-01
2.552092680754516341e-01
2.220941163271893948e-01
1.853351382378459478e-01
1.452530164171750293e-01
1.025726384534120100e-01
5.815714421456465166e-02
1.265162462241618824e-02
-3.310229832844927694e-02
-7.828336463916911458e-02
-1.220034206885585726e-01
-1.637048961228142752e-01
-2.021955426763049624e-01
-2.372717990352459227e-01
-2.678539725421696938e-01
-2.933837259288104016e-01
-3.137509486889170085e-01
-3.278243193931417165e-01
-3.361863656682873014e-01
-3.379407905251682886e-01
-3.332314374435454973e-01
-3.224304593345580505e-01
-3.050692147295659962e-01
-2.823123306789085407e-01
-2.538786031240601870e-01
-2.206071816094433147e-01
-1.832175488449833134e-01
-1.421427704262925584e-01
-9.858157104712905738e-02
-5.303739346882521688e-02
-6.597713184204420656e-03
3.996063293094695434e-02
8.555409536994088016e-02
1.295851828261126437e-01
1.709320758985391486e-01
2.088800621175511685e-01
2.428804528404271412e-01
2.717546464599057132e-01
2.958428831338320575e-01
3.138175492347315410e-01
3.257467471215195753e-01
3.314610902501270440e-01
3.302708180906723801e-01
3.232356693229108124e-01
3.094136381933273450e-01
2.896187644277822271e-01
2.640883586616171175e-01
2.329642320070754447e-01
1.974681787475338346e-01
1.575513765503443742e-01
1.143613791627491605e-01
6.850395251575916444e-02
2.087855803507792166e-02
-2.760648476773925469e-02
-7.604093128290892456e-02
-1.234881195996231362e-01
-1.691028617576367243e-01
-2.116866933554694685e-01
-2.509451584327601070e-01
-2.854286869087878098e-01
-3.148950152567764893e-01
-3.385461274156108535e-01
-3.555356293369360543e-01
-3.662824261211555243e-01
-3.695313848738002727e-01
-3.659373686432770834e-01
-3.551195167237122252e-01
-3.370628088376146358e-01
-3.127604625876377886e-01
-2.817818631146457031e-01
-2.454218900841034778e-01
-2.039435348137781934e-01
-1.581416494919994919e-01
-1.091897679705675639e-01
-5.763701405366178365e-02
-4.746725733787926504e-03
4.864366679371612268e-02
1.014508649844365895e-01
1.528148712410052623e-01
2.015481665143423751e-01
2.471364283754964863e-01
2.884522076113959499e-01
3.247749411383504259e-01
3.558687735712814382e-01
3.804658513895121663e-01
3.991159201810210999e-01
4.107396887831701315e-01
4.153524976496157928e-01
4.133336322617697789e-01
4.038323337206104480e-01
3.882098077066954422e-01
3.657673212557317477e-01
3.371982372564638064e-01
3.032771102123990037e-01
2.638612152420582446e-01
2.204860450899985835e-01
1.731328089970056716e-01
1.227853242012344748e-01
7.036854167938670634e-02
1.647261189665286119e-02
-3.786531041611426729e-02
-9.182267935606269749e-02
-1.446217999193368242e-01
-1.953754147918118078e-01
-2.430138839582102750e-01
-2.874314556691319189e-01
-3.271072179409388880e-01
-3.618830567668100961e-01
-3.910987908244865086e-01
-4.137215906512633490e-01
-4.305435429764025157e-01
-4.399736615037235232e-01
-4.426144052750640157e-01
-4.382500155792717900e-01
-4.263818643778591877e-01
-4.084111867156601239e-01
-3.833539184965472635e-01
-3.523884198237734466e-01
-3.158705479852463860e-01
-2.740172388624315669e-01
-2.283667038060638588e-01
-1.788817053647047683e-01
-1.268038648894926346e-01
-7.296251561428016008e-02
-1.804476921946784884e-02
3.682810095298005848e-02
9.086293657882016372e-02
1.433834542670360257e-01
1.933567816347410151e-01
2.400896809091350725e-01
2.832510182461530635e-01
3.215979574030820576e-01
3.553787238332584142e-01
3.836023415299777417e-01
4.059114796845135764e-01
4.227456387285550843e-01
4.328248167553034875e-01
4.371993936834448480e-01
4.350873890716768777e-01
4.265546052208951666e-01
4.124958224599167833e-01
3.919794958853310973e-01
3.663939763249723924e-01
3.353669760172219849e-01
2.993083315262484723e-01
2.592372014945912850e-01
2.149074352204382032e-01
1.675305174791622553e-01
1.173990479757340832e-01
6.511391582174480552e-02
1.163390868883396045e-02
-4.245387714755727293e-02
-9.649232300084131797e-02
-1.494065882766401065e-01
-2.006407271008324167e-01
-2.494081922444391086e-01
-2.945098846772775669e-01
-3.360627844811509002e-01
-3.724597868615547314e-01
-4.035166179199349279e-01
-4.287945084627656778e-01
-4.470523402434809501e-01
-4.592420600025787225e-01
-4.638184019049034768e-01
-4.612379741412281353e-01
-4.516173513230526959e-01
-4.342824396261028008e-01
-4.108293791641516868e-01
-3.803970333898480383e-01
-3.440387680777852730e-01
-3.024711294364778591e-01
-2.558535424896277721e-01
-2.058566133955737065e-01
-1.526300236754402628e-01
-9.732987345720633954e-02
-4.102488400317699790e-02
1.555769956492747408e-02
7.135019388784896721e-02
1.253795598211518980e-01
1.770461792081300945e-01
2.253192982989257742e-01
2.694416521564350075e-01
3.093237894350239214e-01
3.436539098258923897e-01
3.727452392108333012e-01
3.958663331711654854e-01
4.126082647157134353e-01
4.237695328480343138e-01
4.281244701713622369e-01
4.267484652557942404e-01
4.192748843359505595e-01
4.057122239869078717e-01
3.872968398547653734e-01
3.631971842597574995e-01
3.347414794964561624e-01
3.019383515714820776e-01
2.650869342989126132e-01
2.253773685140592620e-01
1.825965803005861199e-01
1.377910506188171347e-01
9.140976244264698014e-02
4.387863294208083076e-02
-3.933514022872008908e-03
-5.152811545089885925e-02
-9.846716745433381490e-02
-1.438221804563996065e-01
-1.872001015653979028e-01
-2.281278411907199377e-01
-2.655505923261427537e-01
-2.997354158814311553e-01
-3.294317369254420313e-01
-3.544639718188835609e-01
-3.747727474639379608e-01
-3.891688275460019053e-01
-3.985611235965005328e-01
-4.017728005448784057e-01
-3.990208173144891290e-01
-3.906904155352035612e-01
-3.759713559033921459e-01
-3.562035214494194690e-01
-3.307422075792565419e-01
-3.002159065934708604e-01
-2.654068673186911198e-01
-2.261958273271731379e-01
-1.839367334879635774e-01
-1.387693170705823764e-01
-9.146769601800719407e-02
-4.298683373703715560e-02
6.157741107676972803e-03
5.514787457721359587e-02
1.031072218393602746e-01
1.495515243149254658e-01
1.936498772192836171e-01
2.345580532744335756e-01
2.723842609370989987e-01
3.057528468299598456e-01
3.347783167464809528e-01
3.589370732386241158e-01
3.774367200858473881e-01
3.911754891763846720e-01
3.987375677467760449e-01
4.007949567233675681e-01
3.971736122218912923e-01
3.874217574630738348e-01
3.727895888048499140e-01
3.523062671632758991e-01
3.269232245084912059e-01
2.968345316172626980e-01
2.620919325162383018e-01
2.238587388054029403e-01
1.819948146041364123e-01
1.373942794570127690e-01
9.066717643810656702e-02
4.235934502034263693e-02
-6.721168833698415446e-03
-5.578249981952322634e-02
-1.042852992046954114e-01
-1.512385077914246145e-01
-1.958536853931807098e-01
-2.377851757770774455e-01
-2.756401441465990421e-01
-3.094552292298897722e-01
-3.381124577295382405e-01
-3.610328099351351461e-01
-3.783711282053973113e-01
-3.888150451487253356e-01
-3.930707841601414065e-01
-3.903438899965079312e-01
-3.806949922070456127e-01
-3.647627160762667575e-01
-3.419942242366033058e-01
-3.136058234374721199e-01
-2.795206538281702624e-01
-2.405161933493054072e-01
-1.975371463975363895e-01
-1.510376000498276916e-01
-1.022518385767026139e-01
-5.188258747050777941e-02
-1.008946251400244520e-03
4.947121143842925228e-02
9.841472429902697883e-02
1.451979076028848681e-01
1.886290487431083740e-01
2.279812190327255017e-01
2.627483537641834843e-01
2.917296602422068119e-01
3.152927969387762097e-01
3.322141085383680803e-01
3.425777820411677332e-01
3.464183238323013114e-01
3.430429430961408066e-01
3.336912300149665889e-01
3.175378147292211573e-01
2.954631099035518460e-01
2.679649227417102431e-01
2.351011990967943888e-01
1.984235280543749091e-01
1.577892996092971067e-01
1.144172492097772498e-01
6.906210085341779603e-02
2.240557628110195765e-02
-2.440420379130792128e-02
-7.075631046960761950e-02
-1.157356499793222859e-01
-1.585753637803146709e-01
-1.983899333575744883e-01
-2.348785432995730282e-01
-2.669614229422037077e-01
-2.944916274311326632e-01
-3.169201337633271720e-01
-3.336262491787280737e-01
-3.451862483091083789e-01
-3.505392502558424273e-01
-3.503676060348936971e-01
-3.444924200645738122e-01
-3.328004950737639689e-01
-3.164442841666113004e-01
-2.947690334476580354e-01
-2.689332698298654289e-01
-2.391478364216950148e-01
-2.057224416892053931e-01
-1.698907849865819442e-01
-1.315503334634459121e-01
-9.175032460090759567e-02
-5.099711288039543433e-02
-9.730098511130491623e-03
3.119340391939273704e-02
7.137723879567786645e-02
1.103751026958142423e-01
1.474919420600311337e-01
1.824191185544803417e-01
2.148727024311529732e-01
2.440929374651003569e-01
2.703784504095690933e-01
2.929123691782439254e-01
3.116031895582996869e-01
3.266396792933434767e-01
3.370910440438938949e-01
3.437858681879615297e-01
3.459020568017605601e-01
3.435379397887570185e-01
3.371364154469489449e-01
3.259037159087263547e-01
3.108344778363125727e-01
2.913796391846390499e-01
2.678120130746672878e-01
2.406976731385461754e-01
2.097654040960796884e-01
1.758629904148749645e-01
1.390827808271124510e-01
9.986465013641598887e-02
5.887457351298852615e-02
1.659877347257499025e-02
-2.648753707204676289e-02
-6.946688794491340246e-02
-1.118633005958145077e-01
-1.529736158898735709e-01
-1.917116473437836532e-01
-2.281568859056353205e-01
-2.607955121316880565e-01
-2.894156165902259659e-01
-3.134773679464037954e-01
-3.318347498561795561e-01
-3.452233171147529589e-01
-3.521294484816674952e-01
-3.529107268163453881e-01
-3.474542902814219403e-01
-3.352077430281878989e-01
-3.173562052866705230e-01
-2.931381936159214163e-01
-2.634779221327256948e-01
-2.288164009617768002e-01
-1.894708048178053161e-01
-1.467099706284891170e-01
-1.008071001216723772e-01
-5.286768484858672679e-02
-3.738905804338443772e-03
4.566628885920831493e-02
9.447030632048836196e-02
1.416276247008871891e-01
1.864484835856954348e-01
2.280100880291664467e-01
2.654000728561314304e-01
2.984679177205258327e-01
3.259557515785695969e-01
3.480035262276492958e-01
3.639233691699232942e-01
3.733188988794244878e-01
3.767551026847577589e-01
3.733126230689367553e-01
3.639177615316677716e-01
3.483052088294482651e-01
3.267595063408523792e-01
3.002469324441139342e-01
2.685291606315205470e-01
2.328617845869263014e-01
1.934823242067559290e-01
1.511514848313241233e-01
1.068380949538446090e-01
6.103564634594747795e-02
1.472742215202116345e-02
-3.136867248482544390e-02
-7.644355091966237303e-02
-1.198266985034561749e-01
-1.605453454658030132e-01
-1.983411556002998566e-01
-2.321905768764196409e-01
-2.616750842999242543e-01
-2.865586347599058392e-01
-3.058522511962817880e-01
-3.201248612604867816e-01
-3.283815972215160528e-01
-3.308360304906923233e-01
-3.276677580477569407e-01
-3.183539990331114566e-01
-3.040021898223566055e-01
-2.840560794708775205e-01
-2.592933166630535524e-01
-2.301853725533717920e-01
-1.969694559956405300e-01
-1.607385905179725683e-01
-1.216978047961685405e-01
-8.083166389500284765e-02
-3.872461033568264099e-02
3.664848302108225653e-03
4.583127841444323280e-02
8.673953611381790552e-02
1.256794981378437370e-01
1.621278888476211932e-01
1.947755148912317935e-01
2.239804144776282868e-01
2.481748380943837873e-01
2.672777154621392981e-01
2.809659211538129142e-01
2.881643936705522435e-01
2.898737106210855785e-01
2.846996909458994196e-01
2.732414990749241213e-01
2.555137181006958969e-01
2.311828592500635438e-01
2.015132395283902866e-01
1.659555245925385947e-01
1.255821358439508373e-01
8.086775754873265498e-02
3.240361401921454387e-02
-1.866604836426333236e-02
-7.173938255700740285e-02
-1.256984242402481300e-01
-1.796276277498520813e-01
-2.323154645592300227e-01
-2.830579039715388490e-01
-3.304002591903145714e-01
-3.737129729257375743e-01
-4.119308493824522799e-01
-4.439243614497989654e-01
-4.696616954892327556e-01
-4.876370544524437634e-01
-4.981099471303984672e-01
-5.003617218774678577e-01
-4.940450428315736886e-01
-4.798549036278982882e-01
-4.570746041611926103e-01
-4.268329824960170882e-01
-3.891798075398380519e-01
-3.447693124980490964e-01
-2.948056271865162614e-01
-2.397147213352921469e-01
-1.809591975918243278e-01
-1.194268905703592676e-01
-5.632043063807284922e-02
7.090100691057643623e-03
6.958121944319106689e-02
1.300049001015337602e-01
1.872195575506183651e-01
2.404800754480787006e-01
2.884619881945518216e-01
3.299179474170976789e-01
3.647165519856248039e-01
3.922457731936166425e-01
4.128260802978118704e-01
4.251690239550143247e-01
4.282486331574713034e-01
4.234344126073033010e-01
4.115917434155402788e-01
3.941279346985115950e-01
3.692744126916114311e-01
3.358224419513824444e-01
2.968327516393820531e-01
2.560185607624738680e-01
2.156105026476531350e-01
1.715331768827432768e-01
1.198132707481569525e-01
6.507733096151113728e-02
1.978027210516231094e-02
-4.088747811195503346e-03
-6.678253814586199155e-03
