BVP Signal
-2.750878680898066059e-02
-2.672451096250115510e-02
-1.776313315691055439e-02
-7.602617542316503219e-03
-1.002206947843392593e-03
2.884748723980257168e-03
7.784291369942603067e-03
1.483762458671458728e-02
2.230392047701573732e-02
2.831824325189724600e-02
3.280608624893080472e-02
3.737355495931690696e-02
4.214679266078383280e-02
4.632320306326467851e-02
4.910812472861875166e-02
5.026298642657389681e-02
5.056609758943292343e-02
4.974421805607281977e-02
4.747791850544350045e-02
4.351167038610317950e-02
3.767975191927894207e-02
3.039689524880058447e-02
2.148005805198771601e-02
1.095445672971641360e-02
-1.083588862703901284e-03
-1.453869910599287288e-02
-2.913361894157404791e-02
-4.470393493543818597e-02
-6.098260835293249638e-02
-7.765856434157003552e-02
-9.437674003581786319e-02
-1.108911779243935136e-01
-1.266774107779633507e-01
-1.415444951796714368e-01
-1.550308129946303681e-01
-1.667267998699362708e-01
-1.765347350978931640e-01
-1.838484837103326053e-01
-1.887475968585283215e-01
-1.908341931119680590e-01
-1.899300063694899232e-01
-1.862034685649934518e-01
-1.792801321983148455e-01
-1.695935908988803753e-01
-1.570109111133944357e-01
-1.417084852300499742e-01
-1.241282787666707355e-01
-1.042661744302584570e-01
-8.276153188461862764e-02
-5.980556215407088760e-02
-3.577551734982174769e-02
-1.124064235754711899e-02
1.354281083004789735e-02
3.806553524677516731e-02
6.190423203619703496e-02
8.480655944416498615e-02
1.062843257709213396e-01
1.260585164474768427e-01
1.440296042493457163e-01
1.596946575247316369e-01
1.731591548387792223e-01
1.841337944651194880e-01
1.924844541011084820e-01
1.985277119311054106e-01
2.018116690937965529e-01
2.027675301060956614e-01
2.012890434269538897e-01
1.973890571758335211e-01
1.915947486824727819e-01
1.835687145955429700e-01
1.738395537002634939e-01
1.624236325592953167e-01
1.493902486517498240e-01
1.352344968348247467e-01
1.197891328399884325e-01
1.034399198006296650e-01
8.632733135978476469e-02
6.851363524507492198e-02
5.034594308518919314e-02
3.190020076528654602e-02
1.331138018417304947e-02
-5.091579042203198124e-03
-2.325680925684370237e-02
-4.096585521755941040e-02
-5.788092402960773319e-02
-7.410611448435719395e-02
-8.911419717808370666e-02
-1.028772469944222445e-01
-1.152690956482815693e-01
-1.258071580230797348e-01
-1.347943554775821173e-01
-1.416358655998718741e-01
-1.463967112780685254e-01
-1.490701762367081518e-01
-1.492511561399281761e-01
-1.474083511250904310e-01
-1.431015489591432321e-01
-1.365595647515644440e-01
-1.279491655246876025e-01
-1.171317304334195120e-01
-1.046626609536576713e-01
-9.042404350727706319e-02
-7.477141184493651949e-02
-5.802615017515505569e-02
-4.033767708772645344e-02
-2.216940019981117338e-02
-3.737759832701748053e-03
1.464995920683664909e-02
3.263167046602488686e-02
4.991352144263622170e-02
6.632313494548885968e-02
8.142882968868606075e-02
9.516579771314895297e-02
1.072539937510076091e-01
1.174463748532434126e-01
1.259098495215861813e-01
1.321813945231079257e-01
1.364931603010051675e-01
1.386975671866341187e-01
1.386952846719982646e-01
1.368843181652360796e-01
1.329009598057759034e-01
1.271618233457910974e-01
1.196393304804458380e-01
1.103725428075277848e-01
9.980643872165523289e-02
8.775830551003277469e-02
7.463988657791409409e-02
6.054109788544581594e-02
4.558336110817606812e-02
3.012431537776708024e-02
1.421369801196095684e-02
-1.891933688375618816e-03
-1.795741910054191037e-02
-3.383922095494401594e-02
-4.930844954102332756e-02
-6.409486951622990480e-02
-7.816535874448787835e-02
-9.114292624608791304e-02
-1.029284324865632344e-01
-1.134171636764520208e-01
-1.222271230830365152e-01
-1.295510085766796715e-01
-1.349633212536777704e-01
-1.384829129967648509e-01
-1.401362328778897326e-01
-1.396089698928572043e-01
-1.372766651860078679e-01
-1.328305596825695434e-01
-1.264496068805293916e-01
-1.183046258051506094e-01
-1.082999691337470649e-01
-9.688620376228002096e-02
-8.400843569569188540e-02
-6.994953775799067630e-02
-5.498958910701445824e-02
-3.927531811997814204e-02
-2.315314216260516700e-02
-6.852981420574145999e-03
9.391687362330446154e-03
2.527749888749887541e-02
4.051959994856111497e-02
5.503406119487685988e-02
6.838425554997279443e-02
8.053588419342530558e-02
9.124318145312558526e-02
1.002413338455248881e-01
1.077177850184217189e-01
1.131958457848386140e-01
1.168769182561884556e-01
1.186129860312970657e-01
1.182729312740002925e-01
1.162120667308044197e-01
1.120725962796690761e-01
1.062128114683859870e-01
9.860287417680679845e-02
8.928518622919510983e-02
7.864725649334106117e-02
6.656917544953665222e-02
5.343035198392441509e-02
3.934758197295135096e-02
2.450548640978890413e-02
9.227429878819651266e-03
-6.332971843473853002e-03
-2.191049083432272671e-02
-3.723435068416162258e-02
-5.207625857091179034e-02
-6.622882124776434398e-02
-7.934782275881974156e-02
-9.138429448454578330e-02
-1.019742095681558519e-01
-1.109795918829876576e-01
-1.183460855573027493e-01
-1.237097681948557265e-01
-1.272874108578243846e-01
-1.287498983086593218e-01
-1.281540223387725996e-01
-1.256325237038932452e-01
-1.209620455216605106e-01
-1.145982075842119918e-01
-1.063664708376429457e-01
-9.651276536377011162e-02
-8.534442431607769386e-02
-7.281306105422982733e-02
-5.947965494657926622e-02
-4.533993292298432731e-02
-3.068231102616986172e-02
-1.589016219406435421e-02
-9.827287857674393834e-04
1.358260573102874902e-02
2.772097663525665417e-02
4.130000922849991207e-02
5.399692104321594799e-02
6.585162682996023586e-02
7.669067922521838332e-02
8.640545236401263318e-02
9.512478790888299895e-02
1.026635015796559525e-01
1.091350069172317139e-01
1.146736772688410344e-01
1.191300588354710782e-01
1.228194074613810360e-01
1.256587951493201016e-01
1.277057338421918042e-01
1.292839486169657381e-01
1.301110864930322408e-01
1.305083197637549874e-01
1.304041287443146180e-01
1.296531972875053507e-01
1.286204241605055643e-01
1.268464914677454591e-01
1.245263292210773698e-01
1.215638881035608077e-01
1.176049447386206537e-01
1.129780676731722278e-01
1.071591446569330475e-01
1.002197607149815373e-01
9.211728761363785489e-02
8.246145925105979879e-02
7.156413295119189166e-02
5.908281593814325439e-02
4.506598516017587541e-02
2.967672829600688511e-02
1.271969436444010670e-02
-5.452883096407470931e-03
-2.477842443136758083e-02
-4.516346460625803722e-02
-6.613636803223850447e-02
-8.760155465372271300e-02
-1.091708823378082782e-01
-1.303545178931437842e-01
-1.510838957215188683e-01
-1.706391654556511928e-01
-1.887733797133427371e-01
-2.051807942697146669e-01
-2.191753928769116511e-01
-2.309048307952060730e-01
-2.396342916762631559e-01
-2.452552300399600260e-01
-2.477256424926857492e-01
-2.465114277334491399e-01
-2.421326176088365867e-01
-2.341125392546608008e-01
-2.226798660108343930e-01
-2.081499470399738039e-01
-1.903597770957724256e-01
-1.701074858774019871e-01
-1.473229067700965733e-01
-1.224717586407225167e-01
-9.612717386279981402e-02
-6.844198907516738095e-02
-4.015203949825627699e-02
-1.155444657230983788e-02
1.698233870400846224e-02
4.484005344293471446e-02
7.179236100823925548e-02
9.746851856512893375e-02
1.213824349620293563e-01
1.435474942475500060e-01
1.634554706798829471e-01
1.809929350232915568e-01
1.962575564884593282e-01
2.086978615746076793e-01
2.187516015752212217e-01
2.260409852501676364e-01
2.305796087703126940e-01
2.327977791642414362e-01
2.321378784157209219e-01
2.292653457862653954e-01
2.239011801010318270e-01
2.160973822792365273e-01
2.063895130833250935e-01
1.942988355559242264e-01
1.804518529533501725e-01
1.647103626916003871e-01
1.471059474968628711e-01
1.281322759150681778e-01
1.075420587244543397e-01
8.574733984689664190e-02
6.288747227293653430e-02
3.899534368849093963e-02
1.451017271838332678e-02
-1.043698301240630899e-02
-3.569533938837397835e-02
-6.072991150915130198e-02
-8.547627549236504196e-02
-1.095213821132295096e-01
-1.323609730238488325e-01
-1.541141404546907678e-01
-1.739140951544250469e-01
-1.917380796488030725e-01
-2.072619446648379382e-01
-2.198355189802457255e-01
-2.298914119745085194e-01
-2.365087991466694461e-01
-2.398664427991216708e-01
-2.398796753778375535e-01
-2.360805149230557065e-01
-2.292149665349120791e-01
-2.186538492729505068e-01
-2.048540230371504456e-01
-1.880680991633884580e-01
-1.682172891382408553e-01
-1.461582170863355568e-01
-1.217857494014716324e-01
-9.566828301878768648e-02
-6.832167027635960288e-02
-3.996176385590294311e-02
-1.129682656134085861e-02
1.735921511387894522e-02
4.563068084500235266e-02
7.293069459632239848e-02
9.899985941231209674e-02
1.235272127084839355e-01
1.459874304767966591e-01
1.664427303833354022e-01
1.843848330092667798e-01
1.996960081971439482e-01
2.125251856239653292e-01
2.222898611398662072e-01
2.294965902562354776e-01
2.337506030771878685e-01
2.350883792998471611e-01
2.339694041920111212e-01
2.298377521555652891e-01
2.234206429676672268e-01
2.144292308602245289e-01
2.029570878505058129e-01
1.895497744776520055e-01
1.737726385842480181e-01
1.562865692006229490e-01
1.369777831290932835e-01
1.159265162132355476e-01
9.363582072742263063e-02
6.994419260365250524e-02
4.526519992063242348e-02
1.981602784290238672e-02
-6.331459498412739251e-03
-3.271359690008021626e-02
-5.910213802570160602e-02
-8.538009554491879372e-02
-1.109050108819500946e-01
-1.356147140582891208e-01
-1.590651546756209900e-01
-1.807038740776494290e-01
-2.007123718330157680e-01
-2.181481733736567175e-01
-2.330513171935513217e-01
-2.450820643354948980e-01
-2.536417733519709117e-01
-2.592313122839207673e-01
-2.609513662095263031e-01
-2.590934410943778188e-01
-2.536000994839379130e-01
-2.441818577056363293e-01
-2.315701879191353618e-01
-2.153430821116730232e-01
-1.960535204601679959e-01
-1.740315698927940025e-01
-1.493972571288584572e-01
-1.229995681680911557e-01
-9.495112984234944931e-02
-6.586561540717249252e-02
-3.634863206171280725e-02
-6.705747366554069833e-03
2.236103053625092263e-02
5.045021214700590173e-02
7.724548578642100038e-02
1.021248803571910280e-01
1.249454656793836937e-01
1.454156364726901796e-01
1.631414555875346784e-01
1.783474095244559354e-01
1.905821865320592723e-01
2.000260020385149495e-01
2.068517067788081532e-01
2.107714398295796876e-01
2.124732995061927587e-01
2.116641323866097490e-01
2.086980277766878888e-01
2.040223399340317934e-01
1.973516883842059144e-01
1.895018256005199797e-01
1.802238275873531692e-01
1.697574471987117195e-01
1.585669079978383189e-01
1.462718858607390537e-01
1.334763529896843548e-01
1.199564096480504605e-01
1.056800796723604691e-01
9.100565156610801454e-02
7.554546338700018904e-02
5.955894353823320414e-02
4.300477684997434935e-02
2.566870907551666720e-02
7.866625436535976124e-03
-1.055497087639104686e-02
-2.960035917439589326e-02
-4.891359425215109635e-02
-6.868271084713736818e-02
-8.851587099017418914e-02
-1.081581368201665339e-01
-1.277526980846268312e-01
-1.464983802263765122e-01
-1.644646186650252917e-01
-1.811917061267967199e-01
-1.961311585920798017e-01
-2.094941648854098393e-01
-2.203351412251234320e-01
-2.287131953595758771e-01
-2.342892704177045038e-01
-2.365657628413000146e-01
-2.359137952316902598e-01
-2.316651670984781475e-01
-2.240804382876826206e-01
-2.131715907881184813e-01
-1.988050011113489945e-01
-1.815935249396451179e-01
-1.613997866840146123e-01
-1.387335169453917660e-01
-1.140098966855254276e-01
-8.746887964261090831e-02
-5.984290241844571201e-02
-3.144274830298758594e-02
-2.784223571457737634e-03
2.550080997864427601e-02
5.309768906244545505e-02
7.943605637088421711e-02
1.040643272761870297e-01
1.268168931218972006e-01
1.471043906517665589e-01
1.648722817026858356e-01
1.799306958740640727e-01
1.919474781173459155e-01
2.012810148971843072e-01
2.075167486040915832e-01
2.109514461295657894e-01
2.117682460360766628e-01
2.097946024777412322e-01
2.057658828124004080e-01
1.994069413142496860e-01
1.911682401377879925e-01
1.814169901638945370e-01
1.700182370038011426e-01
1.577415639127116853e-01
1.443776086493041011e-01
1.302413208295276070e-01
1.156956755784405710e-01
1.005473832847444682e-01
8.530643755964882613e-02
6.985291128620049750e-02
5.421411430695052824e-02
3.869225082617722133e-02
2.308426522012576448e-02
7.548635150341057032e-03
-7.815968150256345087e-03
-2.320978046210527695e-02
-3.832680563509951316e-02
-5.323726068747818008e-02
-6.802505196230430873e-02
-8.227906068997872802e-02
-9.625753172360723697e-02
-1.095872478463652266e-01
-1.221290734360660213e-01
-1.340436503270529267e-01
-1.446975706566961117e-01
-1.543024463026307080e-01
-1.624707799798364716e-01
-1.689375500511502148e-01
-1.739048909272056243e-01
-1.767495948864243605e-01
-1.776832605154289035e-01
-1.764657398695140267e-01
-1.729043677249209043e-01
-1.673126454228311133e-01
-1.593294012877509713e-01
-1.492608454993171185e-01
-1.371571816000529409e-01
-1.230389124050822180e-01
-1.073591271878805153e-01
-9.011832504822078760e-02
-7.168926746052595167e-02
-5.240253632087585323e-02
-3.243282136247623015e-02
-1.225894992458181898e-02
7.867829355105923628e-03
2.769446441120858304e-02
4.675761085621325808e-02
6.493078511973135458e-02
8.188681451032463199e-02
9.731819033327961110e-02
1.112829327182423556e-01
1.233301482123022041e-01
1.335388446958902520e-01
1.418257768702438359e-01
1.479472363512473188e-01
1.523050013117135948e-01
1.545145961436651394e-01
1.548502874481053060e-01
1.534270841041504019e-01
1.500683415283299849e-01
1.453650505514523239e-01
1.389962290982632576e-01
1.312846492424749600e-01
1.224328038964384302e-01
1.122940409859966293e-01
1.014180631251814513e-01
8.958214075007714383e-02
7.700526051978431874e-02
6.391148348694014603e-02
5.020092947260118565e-02
3.620320248938577179e-02
2.190976377968716776e-02
7.370941988795304961e-03
-7.155906110977411361e-03
-2.167322238478867902e-02
-3.607658864966216405e-02
-5.010148529732239009e-02
-6.382678541630440461e-02
-7.693058104870881264e-02
-8.929464062783912248e-02
-1.009575587918713213e-01
-1.114445614373089921e-01
-1.209114454787390547e-01
-1.290079246610128516e-01
-1.355591797512291086e-01
-1.407070366025253982e-01
-1.439459404116544550e-01
-1.455150107646364654e-01
-1.451589467413099688e-01
-1.427771379281054243e-01
-1.386361203302221567e-01
-1.324045797720150297e-01
-1.244271154485160347e-01
-1.146667658081516050e-01
-1.031814135967285273e-01
-9.036292472588292046e-02
-7.615019720752422283e-02
-6.093457406881912231e-02
-4.491464811534232049e-02
-2.825060463447198050e-02
-1.136630791968270410e-02
5.596217127782084078e-03
2.236451407692400042e-02
3.860272397856523430e-02
5.421055597637695206e-02
6.887973868481969686e-02
8.240736863520178868e-02
9.480630615525166560e-02
1.057122717381872856e-01
1.152061265996495165e-01
1.231771375290788006e-01
1.294416058375929546e-01
1.343283516195560578e-01
1.374773047884818300e-01
1.391285786821730430e-01
1.393335321895247114e-01
1.379127555381088055e-01
1.353844391514313350e-01
1.313847332027180681e-01
1.261867429800598572e-01
1.199189316199169020e-01
1.123854585629769642e-01
1.040856861762664842e-01
9.472002289759456906e-02
8.447169727829026420e-02
7.350872150539475292e-02
6.166061615570284093e-02
4.927238319130694544e-02
3.624069924126310793e-02
2.262536790709396284e-02
8.665691563729871483e-03
-5.704895011133678806e-03
-2.028954641889785943e-02
-3.491786265785899734e-02
-4.961383988632934311e-02
-6.403444746181577441e-02
-7.810104750462640300e-02
-9.172677745968577101e-02
-1.044985838287335322e-01
-1.165057286197420106e-01
-1.273449106931995867e-01
-1.368524057431679819e-01
-1.450568909600394862e-01
-1.514581122534524038e-01
-1.562510485928934600e-01
-1.590986499765197903e-01
-1.598873743420888838e-01
-1.588107755863167880e-01
-1.554803384369835562e-01
-1.502428973891762332e-01
-1.429583465359554051e-01
-1.336615827493211894e-01
-1.227243576545467840e-01
-1.099837938108624846e-01
-9.588954337279712026e-02
-8.053581869707036878e-02
-6.406823403205766376e-02
-4.694846390383616147e-02
-2.921012184932929995e-02
-1.123397567246801898e-02
6.715193606469278820e-03
2.453009151122318571e-02
4.181005093618731655e-02
5.842733803300040329e-02
7.426901373830094299e-02
8.897707913895666620e-02
1.026141850069152983e-01
1.149455077211052056e-01
1.258076739284566536e-01
1.354446824171204600e-01
1.434192180422853846e-01
1.499700265717680281e-01
1.550222066132651566e-01
1.583615189878370133e-01
1.604945158472528000e-01
1.609063862868285733e-01
1.599009328303454547e-01
1.574957102643376183e-01
1.534224327631879825e-01
1.482227213221646300e-01
1.414174436599997253e-01
1.332432790177848214e-01
1.237804930463052011e-01
1.127664052752345436e-01
1.006407861818053029e-01
8.711956630617595509e-02
7.233540909071262126e-02
5.648533292441444698e-02
3.944230623486445764e-02
2.152261148705152116e-02
2.805972864769162856e-03
-1.664416563274854696e-02
-3.643330061379443374e-02
-5.645985107032196193e-02
-7.649858352503942360e-02
-9.607077708038849750e-02
-1.151768841230628310e-01
-1.332434284261129753e-01
-1.500084585595221343e-01
-1.653595484047540864e-01
-1.786037307717225076e-01
-1.898913273916423561e-01
-1.986429089316711361e-01
-2.046551151670224500e-01
-2.080213834720138211e-01
-2.081555199750061425e-01
-2.054612075304692032e-01
-1.995913580931209519e-01
-1.906042337444112666e-01
-1.788628290970691315e-01
-1.641382880223227203e-01
-1.470527133194201586e-01
-1.276297009578679087e-01
-1.061828769835253261e-01
-8.326246810184755043e-02
-5.901210644531657001e-02
-3.402426433066541717e-02
-8.652578002230463389e-03
1.677113982289206440e-02
4.171088766835584494e-02
6.582772350026117048e-02
8.888013454507477651e-02
1.103117047865337375e-01
1.300448346952524092e-01
1.477217069497577528e-01
1.630005399749575867e-01
1.761489020032110941e-01
1.865200665656960299e-01
1.943923340855394088e-01
1.996201797177978299e-01
2.019767284609083058e-01
2.020700755355553935e-01
1.993224322675784532e-01
1.942297907124924117e-01
1.868059011416985382e-01
1.769464786942843704e-01
1.653316684185604513e-01
1.515724973607538995e-01
1.361587502842397102e-01
1.192300345754851998e-01
1.007840065405679608e-01
8.136655221968185081e-02
6.089402824916166634e-02
3.968380856192327277e-02
1.803511268876588358e-02
-3.960329304367141146e-03
-2.595380407855824717e-02
-4.766776256542528539e-02
-6.902071963016154221e-02
-8.952626286521092602e-02
-1.090330039738033052e-01
-1.273742059916088687e-01
-1.439979438416425228e-01
-1.590716393263262307e-01
-1.720015202148671984e-01
-1.826781404001276421e-01
-1.911229742526725506e-01
-1.967385140930713594e-01
-1.999470316606668518e-01
-2.002407644292845124e-01
-1.976790225662916067e-01
-1.925093086698143607e-01
-1.843368463417990877e-01
-1.737944649709266542e-01
-1.606480815370183168e-01
-1.451556629244422081e-01
-1.277698572932599030e-01
-1.084052077450847473e-01
-8.773196403396266163e-02
-6.584633885003304821e-02
-4.306515889238055755e-02
-1.991392308089407620e-02
3.456557331680640277e-03
2.661268199645053928e-02
4.919092678187561574e-02
7.103937142833574581e-02
9.172625153864319425e-02
1.110013722091885147e-01
1.288912115367304712e-01
1.448403249118567215e-01
1.590006859915286119e-01
1.711163637298274143e-01
1.809360625632922548e-01
1.889017348277404751e-01
1.943761328598216931e-01
1.977509991256631294e-01
1.989190318848339523e-01
1.976448760241191760e-01
1.945717161378478499e-01
1.890878735381696929e-01
1.816464265630810537e-01
1.722430929473333094e-01
1.606727754697464816e-01
1.475479180418573788e-01
1.324414876562785004e-01
1.157094504724609507e-01
9.748188930018301945e-02
7.765464508549270450e-02
5.669518626749169010e-02
3.455205513454863431e-02
1.142663735972231087e-02
-1.231409697390763169e-02
-3.658813423842659229e-02
-6.105875507364419419e-02
-8.530704426622198744e-02
-1.092856371658339487e-01
-1.323511534358099151e-01
-1.542626057996440148e-01
-1.747970387723778996e-01
-1.932086733160013337e-01
-2.096503422362181457e-01
-2.233586860926833895e-01
-2.341324368002278833e-01
-2.419438982422992823e-01
-2.460776942776126686e-01
-2.469812419469553100e-01
-2.440790786541964796e-01
-2.374488878858562191e-01
-2.273757926275433161e-01
-2.135185633963668783e-01
-1.966201005496798215e-01
-1.765405409962799710e-01
-1.536822933578008976e-01
-1.286306252375089554e-01
-1.014966462794900381e-01
-7.308737101823431503e-02
-4.370570918986588227e-02
-1.382468258771287622e-02
1.587842762779980918e-02
4.505724090039700536e-02
7.323361473086681395e-02
9.984239776382126952e-02
1.247129256244112472e-01
1.473257041718412097e-01
1.673902957036239036e-01
1.849967852751140118e-01
1.995243228522510515e-01
2.112785675304770239e-01
2.199990186718632779e-01
2.255796241754660092e-01
2.285871367207549798e-01
2.284647873646232785e-01
2.258487569445766230e-01
2.206753304366802504e-01
2.129482059323403176e-01
2.034108432259341126e-01
1.916058098569790036e-01
1.781796089598435273e-01
1.631746594726473931e-01
1.465768954760316711e-01
1.290170607057977703e-01
1.102033998608214216e-01
9.053343396257246267e-02
7.016872610811449029e-02
4.905053976273769656e-02
2.759278420427222628e-02
5.797081545081637748e-03
-1.624840767897760968e-02
-3.815869328747663325e-02
-5.996114209470891632e-02
-8.139515869923159841e-02
-1.020865066419498757e-01
-1.221788890608118683e-01
-1.410211060918580284e-01
-1.585658039394856611e-01
-1.746398897980330767e-01
-1.886056052650978421e-01
-2.007806799635873940e-01
-2.104014083527043777e-01
-2.174430288307979131e-01
-2.218770317973395301e-01
-2.231013516690636966e-01
-2.216277634409001274e-01
-2.168827766134359125e-01
-2.090270319753915751e-01
-1.982903268589546186e-01
-1.843988429108323890e-01
-1.680336857357629943e-01
-1.490487255627907515e-01
-1.278142674824969127e-01
-1.048170516996922985e-01
-8.017939270497996540e-02
-5.455247426909173858e-02
-2.823612227837188349e-02
-1.605707364642980362e-03
2.476088936450564215e-02
5.052382437736216425e-02
7.536039562039742457e-02
9.868665881703178600e-02
1.204095059189365102e-01
1.400592186691542729e-01
1.573380361896773438e-01
1.723822763479472830e-01
1.845557687595046903e-01
1.941622423216295412e-01
2.009232366355234722e-01
2.047142357715950878e-01
2.060250312055113553e-01
2.043151796129702713e-01
2.001561279508677071e-01
1.934354042428461651e-01
1.841820898546514818e-01
1.729956545318634131e-01
1.595275998765389724e-01
1.443631773917121719e-01
1.275416604449726432e-01
1.091739725435522390e-01
8.977081099925636465e-02
6.926492742574649752e-02
4.804579020289624636e-02
2.635543483615515603e-02
4.333980839414997011e-03
-1.765722841194172776e-02
-3.935942867489203301e-02
-6.066449206006785388e-02
-8.108425558557996737e-02
-1.004950483801574923e-01
-1.186658581422756209e-01
-1.350956912181680292e-01
-1.499621269217275565e-01
-1.626172110266486948e-01
-1.730413295145402930e-01
-1.811503485677594116e-01
-1.864297390075258520e-01
-1.893252561368280462e-01
-1.892571202944459130e-01
-1.864087871231467075e-01
-1.809050851269503046e-01
-1.724641409274221548e-01
-1.617295804240804213e-01
-1.484197081445711164e-01
-1.329173815440639617e-01
-1.155666643317749959e-01
-9.641108750780294501e-02
-7.610478791001730470e-02
-5.474477948248783477e-02
-3.273837820741985760e-02
-1.054010055863167233e-02
1.159437592264003780e-02
3.327302685349351613e-02
5.410167710824317910e-02
7.390326249089178290e-02
9.227155849104548557e-02
1.089499545058091046e-01
1.239477055194055932e-01
1.367564864164227123e-01
1.475539245195769955e-01
1.560697006711285195e-01
1.621746380463857107e-01
1.662233748015430890e-01
1.677358812905321850e-01
1.671677860572572949e-01
1.643848199863116588e-01
1.593862209782144768e-01
1.526839093477090348e-01
1.439161184456959619e-01
1.336084072721187566e-01
1.217443647842118559e-01
1.083874920578520862e-01
9.401097820177647946e-02
7.844664862651937187e-02
6.208128486307201710e-02
4.504089183132428675e-02
2.740334702748004059e-02
9.505065858883322144e-03
-8.560562099873575415e-03
-2.665199385814077948e-02
-4.444382948761749219e-02
-6.185597379061724688e-02
-7.868310709898765354e-02
-9.456246682675467641e-02
-1.096023862764052281e-01
-1.232772963963585933e-01
-1.355281188781017332e-01
-1.462579831736985914e-01
-1.549526655449035561e-01
-1.619395708766396824e-01
-1.666256954177609551e-01
-1.690471260986609603e-01
-1.692446988971860744e-01
-1.667812475932521354e-01
-1.621609612013547586e-01
-1.549554238586708932e-01
-1.453663711443678452e-01
-1.336157209756335118e-01
-1.195496175180600085e-01
-1.037348338050804730e-01
-8.609801786036484772e-02
-6.695998841226344367e-02
-4.669396958029310707e-02
-2.547686679502177143e-02
-3.724586465679025071e-03
1.822645747102016878e-02
4.011078278391852492e-02
6.150159507078056809e-02
8.202358002774345902e-02
1.015596739377814806e-01
1.194969676595952213e-01
1.357945104055297558e-01
1.500755910078848121e-01
1.619785521198425227e-01
1.717010419811681454e-01
1.785943077993448758e-01
1.829089034940568625e-01
1.844039177560228282e-01
1.829128260693171359e-01
1.788564590123410125e-01
1.717934023991025405e-01
1.621959103524913404e-01
1.500296877617790792e-01
1.353956673204558814e-01
1.187972730288884143e-01
1.001623828533746152e-01
8.000982339716389280e-02
5.856094416343748943e-02
3.611803887287863557e-02
1.314160974408610377e-02
-1.006409767344960265e-02
-3.314215953181062768e-02
-5.563484356345745063e-02
-7.722193965591053755e-02
-9.758190574465307188e-02
-1.162037369232182815e-01
-1.330602744596228737e-01
-1.475843433658796944e-01
-1.596540838938599050e-01
-1.691608056877618171e-01
-1.756525191186012191e-01
-1.794907730327119089e-01
-1.802005203615947571e-01
-1.779838867944424086e-01
-1.729828160391590486e-01
-1.650155366110199751e-01
-1.547346646814214965e-01
-1.419270931916890299e-01
-1.270527434539552025e-01
-1.104587348933631086e-01
-9.225618202366195342e-02
-7.313104864056596544e-02
-5.316577046955668628e-02
-3.282272850759962446e-02
-1.251369981965075318e-02
7.517533492471990125e-03
2.686419657911695222e-02
4.523104233246400679e-02
6.243602586885796391e-02
7.814784197937844901e-02
9.218882433952965694e-02
1.045716723114044761e-01
1.149241328255796030e-01
1.234452335343208806e-01
1.299390078226086431e-01
1.343762112928992558e-01
1.370969136977771285e-01
1.377476632676783164e-01
1.367801651147999287e-01
1.340996151289691185e-01
1.297655146117998870e-01
1.242306986535488544e-01
1.172009467844361275e-01
1.091443826024997843e-01
1.000298633623427635e-01
8.991021065457197037e-02
7.917016341128491064e-02
6.762698715098100499e-02
5.558639705912118978e-02
4.310974284137177037e-02
3.021094867954661478e-02
1.714885594323562606e-02
3.924656643920356597e-03
-9.369228466696025853e-03
-2.251539412816206537e-02
-3.551105034435387414e-02
-4.819250090749553628e-02
-6.034207393563977007e-02
-7.204631038252450048e-02
-8.291895480480952763e-02
-9.294894519259086496e-02
-1.020399754942616644e-01
-1.098256801011208150e-01
-1.165353144536227237e-01
-1.217090285470044664e-01
-1.253689767470989314e-01
-1.275157428161229622e-01
-1.277937391640948384e-01
-1.265609957283815590e-01
-1.234502090234607941e-01
-1.185802733623538829e-01
-1.120926762690067080e-01
-1.037967011783663129e-01
-9.412698833833482714e-02
-8.294439428432097416e-02
-7.045903936193434469e-02
-5.693966767199692275e-02
-4.241558449898057137e-02
-2.726079896307796388e-02
-1.161194145572754313e-02
4.334824274593425397e-03
2.025910635605399079e-02
3.597090212045599145e-02
5.130469881594412751e-02
6.589658249797511469e-02
7.969386750479179327e-02
9.240439844969046412e-02
1.037950612415116936e-01
1.139514343897152227e-01
1.224070223732033336e-01
1.293081299909153437e-01
1.344373350485235097e-01
1.376202062325388720e-01
1.391389503098449942e-01
1.385637892367162505e-01
1.362027230638551412e-01
1.319454561860351760e-01
1.257382383536169990e-01
1.179529135516760863e-01
1.083330104059679888e-01
9.724261817494091187e-02
8.472134522629422293e-02
7.084786257957385869e-02
5.598406024644221601e-02
4.014126147952705448e-02
2.361303605836369626e-02
6.630930753159753471e-03
-1.063612809873918513e-02
-2.789792244254792053e-02
-4.487102038890217887e-02
-6.144114312980174242e-02
-7.719260681420000991e-02
-9.196231033632693008e-02
-1.055748208353140538e-01
-1.175903782005706111e-01
-1.281478813232673208e-01
-1.367487642792990510e-01
-1.433581478652550534e-01
-1.479583451718367304e-01
-1.501481014547367265e-01
-1.503222420762049538e-01
-1.480654054522108076e-01
-1.435413831920017702e-01
-1.369061724439597505e-01
-1.279671979913302171e-01
-1.172625273424526271e-01
-1.046132928576993387e-01
-9.033061573510715869e-02
-7.470266980044840133e-02
-5.780460614961646648e-02
-4.010075046492347223e-02
-2.172874493840211418e-02
-2.982361059588649332e-03
1.580172409278140372e-02
3.434690576668583684e-02
5.246681270503993078e-02
6.972602280523386431e-02
8.601872911942126665e-02
1.010296995993527902e-01
1.144255174135086484e-01
1.263238488743373689e-01
1.361437720790885930e-01
1.440277041339813324e-01
1.497266020156737820e-01
1.529966374960445574e-01
1.541709320802844840e-01
1.527331509872276172e-01
1.490312607831533742e-01
1.429430582204616884e-01
1.344259206890818237e-01
1.239021211210869361e-01
1.111321486647992712e-01
9.655071059245615150e-02
8.024272883229913167e-02
6.239453748996624111e-02
4.340972165091064316e-02
2.344244302156045165e-02
2.854445995389455482e-03
-1.801597184751006775e-02
-3.884267066873289820e-02
-5.932152416638211689e-02
-7.896233637762728463e-02
-9.763945976981266983e-02
-1.148201322878477648e-01
-1.302274321091768661e-01
-1.437314392013931408e-01
-1.547324784748884685e-01
-1.634546732830120253e-01
-1.693456431749995605e-01
-1.723708606433220214e-01
-1.726307289815880719e-01
-1.696931200267847162e-01
-1.641154016029436891e-01
-1.555361895858924925e-01
-1.442259272974367179e-01
-1.305024903437643491e-01
-1.142735853815627228e-01
-9.623052391300719599e-02
-7.634384073070542287e-02
-5.504876460055132398e-02
-3.277340414525502232e-02
-9.752680385803885049e-03
1.351619222874732643e-02
3.670266170016464602e-02
5.947656477024847177e-02
8.144081038680295315e-02
1.021846072429316299e-01
1.216485500329757968e-01
1.392218032764073743e-01
1.548839529161302186e-01
1.683483610869170588e-01
1.792114063871907137e-01
1.878261763145036567e-01
1.934911871426003016e-01
1.965048640023560056e-01
1.967067758406959577e-01
1.938348785309386146e-01
1.884643498614701485e-01
1.800298825058085361e-01
1.690131496953955481e-01
1.554088322746871309e-01
1.391776897799424650e-01
1.209094174151044143e-01
1.003997851237215522e-01
7.813151627985087666e-02
5.433341836657103185e-02
2.920544199333329621e-02
3.232145980288270333e-03
-2.330538311963475592e-02
-5.008397777518006772e-02
-7.658383686065185769e-02
-1.024564466162144472e-01
-1.273740970025266372e-01
-1.506620231528829346e-01
-1.722924572993724812e-01
-1.915438009348178205e-01
-2.081310910412425552e-01
-2.219479159898092302e-01
-2.322379303718486443e-01
-2.393673454979927118e-01
-2.426682416752771188e-01
-2.421527501291696471e-01
-2.380160231614821265e-01
-2.297831741661904292e-01
-2.181922422946301343e-01
-2.029096133557527493e-01
-1.843146366728596330e-01
-1.629016293202252275e-01
-1.386529228850898188e-01
-1.124424484774433908e-01
-8.439072897177028743e-02
-5.503696264305749097e-02
-2.501682970359271618e-02
5.341984281149927266e-03
3.542815610874755494e-02
6.474433696604943445e-02
9.295802230168455360e-02
1.195137395153473836e-01
1.440035767744522188e-01
1.663717930673548617e-01
1.859231278104572782e-01
2.027764576425308274e-01
2.165847578851886057e-01
2.270725382182993690e-01
2.347048140901550339e-01
2.387950989654751277e-01
2.398683734705965853e-01
2.377871744124875342e-01
2.324580244478164359e-01
2.246154654008166163e-01
2.137275477883721075e-01
2.004728915575851311e-01
1.848845243661417226e-01
1.669938486978285730e-01
1.475175795265598055e-01
1.261940488570157948e-01
1.035734690427123489e-01
7.986913751780819193e-02
5.517113111767064232e-02
3.001302519221814291e-02
4.487864561445537026e-03
-2.115057172497381011e-02
-4.645969134086433416e-02
-7.133103798490553205e-02
-9.543642180172745570e-02
-1.183356126639857064e-01
-1.401062637494299712e-01
-1.600863253678164733e-01
-1.781986885214636440e-01
-1.942966813126690284e-01
-2.077470257379802621e-01
-2.189315032414831386e-01
-2.271215554666275449e-01
-2.323648445312583299e-01
-2.347220808516375379e-01
-2.336355348267976639e-01
-2.297472138529353392e-01
-2.225195748165498255e-01
-2.122058276162337442e-01
-1.991196917084565865e-01
-1.830078106225964396e-01
-1.646507025313723172e-01
-1.438995564232693480e-01
-1.211542382913520233e-01
-9.693177518639098378e-02
-7.131835167658449881e-02
-4.497609151057071347e-02
-1.816958007925603691e-02
8.776573923682792766e-03
3.530158319107978837e-02
6.112477612406427840e-02
8.598380468551711231e-02
1.093079451562693760e-01
1.310783165601678291e-01
1.508408539516160607e-01
1.683118705473237164e-01
1.836925666570389248e-01
1.962935153053754211e-01
2.064479188396914355e-01
2.138577142039125856e-01
2.183367361450687105e-01
2.204034894594109617e-01
2.194128748646025917e-01
2.159107722543520680e-01
2.097478473959997758e-01
2.008556455885457115e-01
1.898435665408401973e-01
1.762719007147389438e-01
1.606936245099395422e-01
1.431421143005851271e-01
1.236684443961028335e-01
1.028149009881076104e-01
8.049740405090216600e-02
5.711573119364943968e-02
3.296469671651655609e-02
8.201336556022426061e-03
-1.674879262503212174e-02
-4.156394535339441587e-02
-6.608646008894011881e-02
-8.973746173876484544e-02
-1.123283774256076950e-01
-1.335638752158027076e-01
-1.528495404044442063e-01
-1.703254568754519194e-01
-1.852621560921609012e-01
-1.975924959584013929e-01
-2.072113183337839226e-01
-2.135392409198254571e-01
-2.170469277561334898e-01
-2.171160652556894111e-01
-2.139447173455098494e-01
-2.076958972789368640e-01
-1.980754118989679902e-01
-1.858174321378762706e-01
-1.706420174393249722e-01
-1.529958591380520816e-01
-1.332944488549380191e-01
-1.115989025286097808e-01
-8.866943708025065707e-02
-6.461845724241475908e-02
-3.991184506031812684e-02
-1.506666660402669611e-02
9.649748895839874163e-03
3.378626725446190471e-02
5.693367324966144838e-02
7.890730964272804626e-02
9.926811237737093174e-02
1.177662838334122553e-01
1.344235761065026846e-01
1.487053839267472588e-01
1.608330211796738796e-01
1.705193650234318736e-01
1.776435223340658842e-01
1.826095625528799671e-01
1.848851501841461964e-01
1.849797774693640318e-01
1.827322819654582375e-01
1.781282200479192279e-01
1.717212124292078479e-01
1.630762382503091468e-01
1.527520779735760670e-01
1.406977430657852246e-01
1.269491736551420502e-01
1.120061161847292486e-01
9.564446285760391797e-02
7.827220172519538943e-02
6.000584427779369345e-02
4.091386591330371802e-02
2.136729737286066633e-02
1.454612176588834793e-03
-1.865070965425300042e-02
-3.858812802725297697e-02
-5.825639105749161328e-02
-7.739423881092738489e-02
-9.560456027557880099e-02
-1.129510490905277914e-01
-1.288497976933180300e-01
-1.432150719457508659e-01
-1.558885984887554144e-01
-1.663292442253541947e-01
-1.748307119516379904e-01
-1.807606717098246829e-01
-1.841609298867945554e-01
-1.850384970511981253e-01
-1.829717050109997412e-01
-1.784772732531923478e-01
-1.711296114405833624e-01
-1.611875392672723062e-01
-1.488935726578486385e-01
-1.341390677634086703e-01
-1.175737944712934580e-01
-9.914144951784817361e-02
-7.924717355785765305e-02
-5.832416081759736470e-02
-3.655438101111595228e-02
-1.448150871342179791e-02
7.606797072991493269e-03
2.940138947887011717e-02
5.044090817858704751e-02
7.045492472287473440e-02
8.923845874047341142e-02
1.063291647132592888e-01
1.217347675310007371e-01
1.351116572395807958e-01
1.462926051381781278e-01
1.554657021318007204e-01
1.621639585560720742e-01
1.667388655266283104e-01
1.690015448356904648e-01
1.689336661829469732e-01
1.669842413062906927e-01
1.627636322545502612e-01
1.567975006338842014e-01
1.490141311032013582e-01
1.394713942515684868e-01
1.286647753611128986e-01
1.163288055260804643e-01
1.029294245486395420e-01
8.850151612115483846e-02
7.310103944112417151e-02
5.712580268820408730e-02
4.050027799830092229e-02
2.348183223786939194e-02
6.267351544698776533e-03
-1.110718016637372851e-02
-2.835986630766824945e-02
-4.532290125817491078e-02
-6.197132146358369509e-02
-7.789812317507224804e-02
-9.307879471676597238e-02
-1.073116687609455000e-01
-1.202251577412397354e-01
-1.319938179823301472e-01
-1.420644239212363602e-01
-1.504590827451046664e-01
-1.570730318591639640e-01
-1.614957186810190015e-01
-1.640869961377696695e-01
-1.643386497637024934e-01
-1.623983869264139512e-01
-1.583354966632455618e-01
-1.518981855666081959e-01
-1.436071053629121574e-01
-1.331933024238347030e-01
-1.209484407620020491e-01
-1.071474699784971396e-01
-9.177788506485988484e-02
-7.539524778836549646e-02
-5.803624351253158786e-02
-4.001238993813557854e-02
-2.171889308293376009e-02
-3.294117080749073279e-03
1.488309948036991431e-02
3.254569419097350091e-02
4.956252659282128770e-02
6.555948025455500539e-02
8.041324958709951398e-02
9.404406158452663367e-02
1.061031878277095691e-01
1.167408464191933143e-01
1.256817704992020668e-01
1.328969091754605703e-01
1.385820906446995349e-01
1.423841281824199390e-01
1.446706497230729749e-01
1.452561489153857133e-01
1.441734245527036551e-01
1.417597736906512917e-01
1.376938732260800102e-01
1.324005264070283738e-01
1.257705419468076458e-01
1.178375079351353799e-01
1.089504068590222974e-01
9.887687151587666590e-02
8.795454469433493239e-02
7.618893734427771569e-02
6.359123489663923157e-02
5.046517535210220951e-02
3.674550042267758082e-02
2.261351269770604452e-02
8.254981210049000540e-03
-6.326521894261680212e-03
-2.087106449578798179e-02
-3.523446318556018586e-02
-4.940329090032134773e-02
-6.299509388511023711e-02
-7.601342131970866001e-02
-8.824685426947626032e-02
-9.939326421989314042e-02
-1.096091930754185678e-01
-1.183965241859386008e-01
-1.258092604706055051e-01
-1.317268074464255645e-01
-1.358216986219021039e-01
-1.384193280176933549e-01
-1.390559367452627870e-01
-1.378897713451910645e-01
-1.349465157196293452e-01
-1.300148604129301166e-01
-1.235516762406828895e-01
-1.152749312265059500e-01
-1.054468857560340866e-01
-9.425719057883022445e-02
-8.168646932246825809e-02
-6.817998860733170963e-02
-5.373998454965277227e-02
-3.862482467246507178e-02
-2.313584352649753623e-02
-7.387023715765432541e-03
8.312119087137805409e-03
2.373550785137934840e-02
3.876387212660958870e-02
5.307129032559321918e-02
6.652232875597344219e-02
7.903412088668536339e-02
9.026119422560396899e-02
1.003108504155560132e-01
1.088987155751713343e-01
1.159495465743395071e-01
1.216089841224717860e-01
1.255055403388098678e-01
1.279527267515515876e-01
1.287345323231694205e-01
1.278490962043614121e-01
1.255863680585499742e-01
1.216194060639361196e-01
1.163520842144432077e-01
1.096527113579654211e-01
1.015617121272945345e-01
9.240643130836440067e-02
8.197441852215286984e-02
7.062215990708356483e-02
5.834758134723941336e-02
4.520624472799848748e-02
3.149899432589180204e-02
1.719993976939987457e-02
2.521491764243821709e-03
-1.234522585154691765e-02
-2.734271236474855593e-02
-4.221312848487965286e-02
-5.676408667093385541e-02
-7.097523685523587922e-02
-8.444166247046025475e-02
-9.713046206523892612e-02
-1.088416977389905921e-01
-1.192203659724534182e-01
-1.284644872946847094e-01
-1.360323587064463657e-01
-1.419763714717455771e-01
-1.462065553350756220e-01
-1.483450240799619457e-01
-1.488179741447694937e-01
-1.471054991620076025e-01
-1.434017786630939761e-01
-1.377864815652624642e-01
-1.300178201989931615e-01
-1.206432049231406789e-01
-1.093664376608295963e-01
-9.648001942103870410e-02
-8.223426936371520946e-02
-6.657427731841486507e-02
-5.002538492520311464e-02
-3.257684526110272982e-02
-1.449127580339067134e-02
3.879408646764434532e-03
2.245625387378267362e-02
4.090054443203640366e-02
5.896998906475282853e-02
7.658358947333492039e-02
9.336645842662780193e-02
1.091859557659078106e-01
1.239888089232234203e-01
1.373358273134326069e-01
1.494018388831187538e-01
1.598220713891504718e-01
1.684570047858969799e-01
1.755136462831470290e-01
1.804280136190806738e-01
1.835857012881128569e-01
1.846470832073864310e-01
1.834901777610574158e-01
1.804723523573417698e-01
1.750360454282021694e-01
1.676527672322520868e-01
1.580779489410328864e-01
1.462460124964401753e-01
1.325625819826034557e-01
1.166772938549187622e-01
9.901641011309708640e-02
7.958516519776043241e-02
5.843145160519065684e-02
3.598063381159742613e-02
1.228523117576878210e-02
-1.236768695421906761e-02
-3.756377934772846261e-02
-6.313121852504219311e-02
-8.862155821821750268e-02
-1.135414054046316040e-01
-1.378340328529215619e-01
-1.606799238466875002e-01
-1.819072770770056580e-01
-2.011187899572212390e-01
-2.175983264960866248e-01
-2.316372242419763583e-01
-2.422614458437965523e-01
-2.495260781075744894e-01
-2.532538327213875728e-01
-2.528993272709453288e-01
-2.490974954831412236e-01
-2.411602890472598903e-01
-2.294889626275818661e-01
-2.142609507201710117e-01
-1.953688030234835560e-01
-1.736496630079594483e-01
-1.489657770425802386e-01
-1.219326080261121242e-01
-9.304581694195458719e-02
-6.258454015484360422e-02
-3.130878372147512245e-02
4.202258360752747501e-04
3.211387157090849626e-02
6.313428082984112732e-02
9.309378052426725558e-02
1.215914623610602208e-01
1.479906391541581101e-01
1.722442093827848131e-01
1.937396090388531500e-01
2.122498624163930980e-01
2.278321481880305477e-01
2.398073047711060668e-01
2.486444108055530788e-01
2.538470116659443665e-01
2.554538738574601009e-01
2.538693432931019012e-01
2.485487748719342749e-01
2.402847233687616380e-01
2.287584574356108513e-01
2.142117250646012883e-01
1.971952586968479526e-01
1.774264283006363185e-01
1.556978545779522660e-01
1.319650658188159520e-01
1.065335804675048292e-01
7.995247647465841823e-02
5.228077960621774212e-02
2.403204548226037240e-02
-4.454980637525168818e-03
-3.294651360221359515e-02
-6.095131343313355682e-02
-8.808290532529265693e-02
-1.142536720267388617e-01
-1.387301853871398261e-01
-1.614615603963820423e-01
-1.820467901481243878e-01
-1.999237540282237380e-01
-2.154555298506042882e-01
-2.276896557540909194e-01
-2.368462227153186883e-01
-2.426980069040496901e-01
-2.447841044375110853e-01
-2.437967373202684640e-01
-2.389474193587171613e-01
-2.307294039893660886e-01
-2.191961116308768776e-01
-2.042158891580383995e-01
-1.866107035380961676e-01
-1.660738615843493915e-01
-1.432267299427579799e-01
-1.184188601319744738e-01
-9.184831686782016225e-02
-6.423932078140126567e-02
-3.579654438363302771e-02
-7.001405527643320137e-03
2.161002038798414196e-02
4.970624340708804795e-02
7.688261292516804235e-02
1.025911892783807899e-01
1.267435626897033818e-01
1.487606476817946444e-01
1.684044847576006976e-01
1.856729608678929777e-01
1.998992928364972110e-01
2.114548399904103149e-01
2.198174841374084254e-01
2.249598818544429335e-01
2.271880402214923045e-01
2.259196362990393281e-01
2.218311931406331539e-01
2.145431497299919998e-01
2.042314541372612369e-01
1.913419715713187419e-01
1.755563259029309098e-01
1.575901040691074506e-01
1.373359057682907725e-01
1.150961918807225093e-01
9.133928497729372487e-02
6.613653404086045073e-02
3.999813643517728667e-02
1.322173147398951303e-02
-1.387792312043530617e-02
-4.085285624371692154e-02
-6.725185861612092975e-02
-9.292203148988614769e-02
-1.171514509975124935e-01
-1.397588097324615752e-01
-1.603557887767359247e-01
-1.783122989102143285e-01
-1.938906083968476302e-01
-2.061772722463448004e-01
-2.152808715626865210e-01
-2.209788716457913860e-01
-2.228080787318333367e-01
-2.213737011398285159e-01
-2.159740433555409900e-01
-2.070654066982138275e-01
-1.947151156691913076e-01
-1.788983374193001963e-01
-1.603636043412704493e-01
-1.389616386951041394e-01
-1.153459699355993962e-01
-8.988719819438016623e-02
-6.296906260270608569e-02
-3.524614842497048733e-02
-7.105208362548517259e-03
2.091874876039654524e-02
4.828830565044797685e-02
7.450082231727231385e-02
9.923135452428462344e-02
1.218223216145657706e-01
1.421647916398168232e-01
1.597410627228343372e-01
1.742570233090971477e-01
1.858015572009513172e-01
1.937639530100374596e-01
1.985431409014717929e-01
1.997737373741232392e-01
1.975253462851069841e-01
1.921881734184429646e-01
1.834239375844162190e-01
1.719443409599980821e-01
1.576114195471764734e-01
1.407910276837352204e-01
1.219708420764463730e-01
1.011766492325464617e-01
7.909327211322397799e-02
5.586445966401065721e-02
3.194532765159166510e-02
7.761838650818211893e-03
-1.633400116525155626e-02
-3.997884481731057288e-02
-6.273026105632023564e-02
-8.426973211863562907e-02
-1.043012887296700386e-01
-1.223015798514457964e-01
-1.383613144935680050e-01
-1.518312543410881565e-01
-1.626910323414096915e-01
-1.708055742524038911e-01
-1.757203890348456587e-01
-1.779400341420653842e-01
-1.768408041944261044e-01
-1.727468571650253026e-01
-1.657197836290699722e-01
-1.556044193946326537e-01
-1.431066854003379407e-01
-1.279208496076078561e-01
-1.105895392889965634e-01
-9.137154662597796184e-02
-7.048263758837941539e-02
-4.852243668949572653e-02
-2.566581139459038485e-02
-2.406801302573403911e-03
2.086795383468952741e-02
4.372720656383367183e-02
6.587427790927161131e-02
8.677582027104346896e-02
1.062301825503096653e-01
1.238300736685997161e-01
1.391795366138018075e-01
1.523416272296723162e-01
1.626794981618396863e-01
1.703838996647017989e-01
1.751290722918767417e-01
1.767552422282346325e-01
1.755956651296688986e-01
1.711829665935415967e-01
1.640136222213638417e-01
1.539437567967720799e-01
1.411228831500767056e-01
1.260066119163374687e-01
1.084997797003887932e-01
8.919355968058403916e-02
6.822117607019484442e-02
4.596620491636288497e-02
2.287639592824824292e-02
-7.303084917298814649e-04
-2.441986206200322945e-02
-4.776359732347937315e-02
-7.035178937627331597e-02
-9.184952887713312975e-02
-1.116912389429508823e-01
-1.298047403545242451e-01
-1.455855551007460558e-01
-1.588455826017456385e-01
-1.694455181781986952e-01
-1.768667114820013375e-01
-1.814654297495934543e-01
-1.826920039992934730e-01
-1.807279758389444546e-01
-1.756734209265302660e-01
-1.673194986170715159e-01
-1.563271450407981156e-01
-1.424347234769467174e-01
-1.261332602883630805e-01
-1.077317769978701767e-01
-8.741081054542536311e-02
-6.583796651102856445e-02
-4.315779321367339827e-02
-1.990474758793158924e-02
3.511673552660361797e-03
2.666667096194436093e-02
4.919327904315527744e-02
7.060560823251554874e-02
9.063242084322212233e-02
1.088900395759942741e-01
1.249789181878896704e-01
1.389311306398243462e-01
1.501629970859725272e-01
1.588104426854815010e-01
1.646080821707721076e-01
1.673945360039456598e-01
1.675193186058362427e-01
1.645500445323082594e-01
1.589603109028607242e-01
1.506598508254476387e-01
1.397871079999968846e-01
1.268253634333929569e-01
1.116584343614376862e-01
9.487037328710473671e-02
7.658150289471102323e-02
5.713618544688042755e-02
3.697447007568580024e-02
1.632243457118208799e-02
-4.389348966082794873e-03
-2.483301124375535129e-02
-4.465148764059760633e-02
-6.356115171020905452e-02
-8.111946135780337408e-02
-9.723786828017069728e-02
-1.114584169099083477e-01
-1.236110986978459225e-01
-1.336140597176551092e-01
-1.410283651109545400e-01
-1.461470736598843023e-01
-1.485324877859345305e-01
-1.483085643858275127e-01
-1.455885594648312908e-01
-1.401451308425576969e-01
-1.325310504997159189e-01
-1.225004529182638913e-01
-1.104263471106356476e-01
-9.656886241124326697e-02
-8.100290034414167617e-02
-6.429929873524006800e-02
-4.651229669994594307e-02
-2.807382835258798170e-02
-9.304695691578046546e-03
9.486656296669788990e-03
2.797341280143519904e-02
4.580466183655701462e-02
6.272386749517881721e-02
7.843959769885325284e-02
9.259010033050099620e-02
1.052040106437042155e-01
1.157779430862454773e-01
1.243633110611158110e-01
1.307631032047626984e-01
1.347500804228439764e-01
1.366372658221642333e-01
1.359908432793390798e-01
1.331417002065977961e-01
1.280285480074588034e-01
1.206572862217448194e-01
1.114641794718007617e-01
1.002609190511649928e-01
8.750017710963417517e-02
7.327902843515346487e-02
5.781257218635682538e-02
4.149439327708617786e-02
2.445133212590255845e-02
7.053823381131502090e-03
-1.043980922145432144e-02
-2.772464593074660741e-02
-4.455672140377570090e-02
-6.055521552399534269e-02
-7.559600905230556833e-02
-8.930492360145773911e-02
-1.014503261071895979e-01
-1.119800652733608098e-01
-1.204340951780087376e-01
-1.270001548435813199e-01
-1.312979414906011721e-01
-1.333003677722915392e-01
-1.331358373706887921e-01
-1.304747987130539522e-01
-1.257503218924412303e-01
-1.187200578337994639e-01
-1.095890896783067170e-01
-9.861367584509556083e-02
-8.574228549892240481e-02
-7.146923162764359794e-02
-5.581096007021082994e-02
-3.910401703337723633e-02
-2.165255462787015264e-02
-3.701153625087143934e-03
1.442760859760840869e-02
3.241596362525701880e-02
4.997895061103517500e-02
6.684478804057772394e-02
8.258254482560492549e-02
9.720993058129420716e-02
1.101675600748464323e-01
1.213863262814138255e-01
1.306820081202725581e-01
1.376390972401073665e-01
1.425781867119629842e-01
1.449202138414797947e-01
1.448563257968325524e-01
1.423294667164022864e-01
1.371334257837039383e-01
1.297395343199296835e-01
1.198079850329974438e-01
1.077157313493262991e-01
9.357193773604315090e-02
7.747590995684094928e-02
5.988554178550728468e-02
4.086854398773222957e-02
2.083212044847633851e-02
7.695820228803551544e-05
-2.104108963325723725e-02
-4.220132781062048422e-02
-6.293567836187721753e-02
-8.299389410337001949e-02
-1.019241189322378782e-01
-1.193064829710056007e-01
-1.350390128954696289e-01
-1.484633188736688425e-01
-1.596450195906235492e-01
-1.681233718674008948e-01
-1.736651742342579519e-01
-1.764270212682264027e-01
-1.758757930714225093e-01
-1.724325134736299781e-01
-1.658187096947432715e-01
-1.561398626021237857e-01
-1.437761001137000394e-01
-1.285631664072048597e-01
-1.111271318581293077e-01
-9.150841530470715801e-02
-7.008958490713068645e-02
-4.734818232438259278e-02
-2.353158869139390652e-02
8.338775603714820850e-04
2.537165150901346533e-02
4.966914685586233669e-02
7.331611899068592175e-02
9.580278424024980810e-02
1.169988295705343129e-01
1.362777799513525401e-01
1.534633952737741724e-01
1.683215992755292545e-01
1.803081680695161060e-01
1.897932519407534158e-01
1.960551247913721873e-01
1.992762291159124732e-01
1.994227309338413856e-01
1.961436944545380534e-01
1.901114373227952292e-01
1.807874234069947184e-01
1.686240601378721227e-01
1.537775119621196951e-01
1.362185756272718540e-01
1.166394186172200476e-01
9.491831051036148104e-02
7.157147112797163091e-02
4.693889952672630761e-02
2.129427812109785378e-02
-4.853337281238170875e-03
-3.114871836749678879e-02
-5.723320725060401792e-02
-8.260912070068718305e-02
-1.068570366366763669e-01
-1.297561906127559228e-01
-1.506209525429682006e-01
-1.694266959297497099e-01
-1.856230709010928681e-01
-1.988863097272721980e-01
-2.093195391510339065e-01
-2.162125406790204041e-01
-2.199478749160187485e-01
-2.201041026580240478e-01
-2.166530915679074076e-01
-2.099945455349321866e-01
-1.996978967995201582e-01
-1.864584976397714033e-01
-1.701498078130746494e-01
-1.510613913218477322e-01
-1.297746133174645100e-01
-1.062741577392865011e-01
-8.129386283219174059e-02
-5.505557960174436993e-02
-2.797491546737377460e-02
-6.243197088897922686e-04
2.667527861989384824e-02
5.349956396177996121e-02
7.934146857712556788e-02
1.039390313202699923e-01
1.268987989955593088e-01
1.477502007612752633e-01
1.666011553245345667e-01
1.827670181569371333e-01
1.963141906897531430e-01
2.070861111169496338e-01
2.146323018508612956e-01
2.195644442285469289e-01
2.211509530279044955e-01
2.197707701427440985e-01
2.154717659218273740e-01
2.079607209343298235e-01
1.980586831397463943e-01
1.852234018878118338e-01
1.699659779093821155e-01
1.524962833669419315e-01
1.327547533247321887e-01
1.114551116580862755e-01
8.846283243220516568e-02
6.421111636446272253e-02
3.906531306737331954e-02
1.319367908636133457e-02
-1.294960900735847575e-02
-3.902960118403114853e-02
-6.483104910980308500e-02
-8.983649081263261893e-02
-1.137386276702408716e-01
-1.363727262824688813e-01
-1.570539857868588629e-01
-1.758625460936381613e-01
-1.922097782632148366e-01
-2.058216741844424158e-01
-2.168089633692830698e-01
-2.244230169240693518e-01
-2.290640724875517842e-01
-2.302552309389490626e-01
-2.279432027553309204e-01
-2.224963351439708248e-01
-2.134259450009764469e-01
-2.013893967457278111e-01
-1.862197943413156365e-01
-1.681553662524811477e-01
-1.477542918048417031e-01
-1.249629823404919682e-01
-1.004852569468225876e-01
-7.454065221511578521e-02
-4.751823948566560873e-02
-2.000311883507970012e-02
7.688072601098175363e-03
3.511918037202112208e-02
6.175978931352066326e-02
8.733838330575449671e-02
1.114217475072968033e-01
1.335294048162219416e-01
1.537226546948197159e-01
1.712994425895871253e-01
1.863037874558824969e-01
1.985355711405772938e-01
2.075521272542646400e-01
2.139077318973287012e-01
2.168812932449675213e-01
2.168435261800311653e-01
2.138068989168341316e-01
2.075137506182194724e-01
1.987476945919970373e-01
1.869876249090344777e-01
1.727650035984133192e-01
1.562625742061590495e-01
1.374794283213423840e-01
1.171088606450344793e-01
9.504355830670954686e-02
7.175673062677512259e-02
4.759302556119022337e-02
2.277559885768012937e-02
-2.241244390082844373e-03
-2.711783465392117454e-02
-5.159755559378453871e-02
-7.518981222948123433e-02
-9.757446198119745784e-02
-1.185768381539988314e-01
-1.375636416637038839e-01
-1.545958142251416811e-01
-1.691382813204937996e-01
-1.809691566867491219e-01
-1.901971593471036281e-01
-1.961876703017839119e-01
-1.993502640823148209e-01
-1.992872473815383016e-01
-1.960379661009183649e-01
-1.899733211892232765e-01
-1.807298086997931597e-01
-1.689728684260549119e-01
-1.545921390638141657e-01
-1.378878621389966475e-01
-1.193888047930803387e-01
-9.909148876327478206e-02
-7.766297184866685632e-02
-5.529335295306811449e-02
-3.234771697694092951e-02
-9.321958710834216122e-03
1.353202749514734182e-02
3.585965092386039776e-02
5.725526336982819653e-02
7.753341500091862071e-02
9.638664206820177216e-02
1.134631933287073291e-01
1.288950386237940338e-01
1.421405720369650072e-01
1.533056897928249118e-01
1.622922523717456045e-01
1.687491777867246301e-01
1.732238885307708087e-01
1.751058924292554220e-01
1.747254115177876987e-01
1.721197563455949264e-01
1.670085898549538705e-01
1.600857510898858194e-01
1.508290660198493283e-01
1.396333256367252862e-01
1.266276424058525862e-01
1.116984875015215040e-01
9.540688295976060274e-02
7.757303174534430079e-02
5.852084386420453727e-02
3.851147621790122766e-02
1.766157781478136513e-02
-3.675260759357590334e-03
-2.522674840478644764e-02
-4.680101793590332737e-02
-6.796984081497128849e-02
-8.842560969317897479e-02
-1.080217184135064401e-01
-1.261306996665742530e-01
-1.427586805138595927e-01
-1.573928654372625247e-01
-1.697141563396287189e-01
-1.798007320668443265e-01
-1.869625796094497305e-01
-1.914812919033742067e-01
-1.929581620055274560e-01
-1.912881331555429942e-01
-1.868003196959710788e-01
-1.790630796120513124e-01
-1.686252334809919540e-01
-1.553810494838970824e-01
-1.395270952769264439e-01
-1.215785888319014379e-01
-1.015067972182618350e-01
-7.993598202379194329e-02
-5.708690249666346223e-02
-3.331636196434173414e-02
-9.147580870737456737e-03
1.512462403028863589e-02
3.910703738552473441e-02
6.233878947498711076e-02
8.455999316719195469e-02
1.054149635975432930e-01
1.244683631239142940e-01
1.417804421222876865e-01
1.567589572829868882e-01
1.694212370032913695e-01
1.796405144902345485e-01
1.870021843785381610e-01
1.920157238042906611e-01
1.940616500478899997e-01
1.934386667503290580e-01
1.902072797862251474e-01
1.840857368170565334e-01
1.758107531584625627e-01
1.648937935418990919e-01
1.517764791871723806e-01
1.366558163586295838e-01
1.194712921313609150e-01
1.008638443470824264e-01
8.071018937521921843e-02
5.940063603923837615e-02
3.725993557103721154e-02
1.444942089598852397e-02
-8.626503609487884416e-03
-3.166634412890234618e-02
-5.445964916836909531e-02
-7.655764127102232530e-02
-9.766236288211010974e-02
-1.176340901808862194e-01
-1.358586841388025324e-01
-1.523832753251693761e-01
-1.667090765788759033e-01
-1.785699370481363957e-01
-1.880809144124685472e-01
-1.945825783086918004e-01
-1.984148248014864224e-01
-1.991934822093598956e-01
-1.968636238580570574e-01
-1.917785577154793031e-01
-1.835214062093711018e-01
-1.726718848585821753e-01
-1.591210080492788115e-01
-1.430799730835919104e-01
-1.250665249179993554e-01
-1.050403486193310920e-01
-8.362750193852000469e-02
-6.103644813871925145e-02
-3.760604228836048057e-02
-1.386289291412609592e-02
9.932788198350805953e-03
3.338729184659816607e-02
5.605776869600181955e-02
7.771905467901868425e-02
9.799951105504761673e-02
1.165236483417596003e-01
1.333343130870414672e-01
1.478774820437354642e-01
1.602099027178788271e-01
1.701872992954295838e-01
1.774742034152353987e-01
1.825493220411414930e-01
1.848523136145842627e-01
1.847130476979769176e-01
1.821826146241563860e-01
1.770397451319838111e-01
1.700029252828909043e-01
1.606121667547030507e-01
1.493185007657975294e-01
1.363041456934142859e-01
1.215021495084319947e-01
1.055452327534082690e-01
8.825904395406321268e-02
7.000748983314490637e-02
5.107033203846546299e-02
3.151374189690894778e-02
1.173943825604549518e-02
-8.092862564270386638e-03
-2.781966630708407329e-02
-4.706796734523033265e-02
-6.568397451343524485e-02
-8.351705731890841922e-02
-1.001286617673893264e-01
-1.155891415042974851e-01
-1.294673175749387339e-01
-1.416043574309558961e-01
-1.520674524602653732e-01
-1.603078455218389098e-01
-1.666186949107059667e-01
-1.706152481835951085e-01
-1.722376167977301142e-01
-1.717372851170274606e-01
-1.686718549425855473e-01
-1.635052443416974977e-01
-1.560324467285982841e-01
-1.463531269402399693e-01
-1.348559668923213495e-01
-1.213590645470366686e-01
-1.063745901760149853e-01
-8.995563866146093213e-02
-7.231338166695547298e-02
-5.387738069183151124e-02
-3.474181957595386117e-02
-1.527624238707522841e-02
4.224271759621936462e-03
2.357725391101823942e-02
4.242993176101922392e-02
6.050307778918696811e-02
7.773507697539763783e-02
9.365489992155252852e-02
1.082363421598239728e-01
1.212691800287394317e-01
1.324060536522380094e-01
1.419332133287609099e-01
1.492902207820074323e-01
1.546489707467831876e-01
1.579458889225446305e-01
1.588766955485078070e-01
1.579769559263246581e-01
1.547239042832331823e-01
1.494389548784674782e-01
1.421898451781302142e-01
1.328279834116647684e-01
1.219060232867487659e-01
1.091545603572145473e-01
9.492089242752757561e-02
7.940283223753041852e-02
6.265345880727582473e-02
4.509721516481504655e-02
2.682353877421062016e-02
8.093223011389261146e-03
-1.076623779981367851e-02
-2.953882338489235287e-02
-4.799466106617926442e-02
-6.572375744113122253e-02
-8.264736710432141198e-02
-9.835452923716939133e-02
-1.125900196894995264e-01
-1.253417787055207677e-01
-1.360538392660310680e-01
-1.448936963990889726e-01
-1.514770231660230726e-01
-1.556660795894896920e-01
-1.576634451827391148e-01
-1.570034859224642143e-01
-1.540943025292562107e-01
-1.487134502330816621e-01
-1.409376512733622189e-01
-1.311357983778226322e-01
-1.191104024191858568e-01
-1.053872979265892684e-01
-8.998842176667616599e-02
-7.316106528473129145e-02
-5.532391305462430742e-02
-3.658119429608632650e-02
-1.735122199993754596e-02
2.102654760888701679e-03
2.152267192347188246e-02
4.057399555947305281e-02
5.893406336955503422e-02
7.649713431668336838e-02
9.280806241696035186e-02
1.077570422004094641e-01
1.211622711262537733e-01
1.326104581227623147e-01
1.423718718240179482e-01
1.498806058921207107e-01
1.552437871963308624e-01
1.584284969137195465e-01
1.590678281302077557e-01
1.577051642986491420e-01
1.538051313943708254e-01
1.476577813049944343e-01
1.393572930134312771e-01
1.287296439776220991e-01
1.163478488492223351e-01
1.019534482816086274e-01
8.590320062609024809e-02
6.842467785320965890e-02
4.961416765079519620e-02
2.990486491203014907e-02
9.460292445004410411e-03
-1.142287430232634404e-02
-3.237794336356893121e-02
-5.308593968090832838e-02
-7.333040124913059454e-02
-9.257743735606324686e-02
-1.107159798481050228e-01
-1.272992879847863745e-01
-1.419584112745359283e-01
-1.547305660581066722e-01
-1.649419997299477747e-01
-1.727692675156393687e-01
-1.778284439812380935e-01
-1.799200525683752050e-01
-1.793412709360862611e-01
-1.755781904624073853e-01
-1.691028158311147223e-01
-1.597526772929086791e-01
-1.476203213760151345e-01
-1.331934107410241430e-01
-1.163158381807051223e-01
-9.759295568391904152e-02
-7.715438926025285082e-02
-5.530800237311661594e-02
-3.256721769648830700e-02
-9.140642712875950149e-03
1.452321411453243172e-02
3.803418419949541884e-02
6.108423680345163864e-02
8.330598282077036898e-02
1.042513785479544930e-01
1.238765142847492173e-01
1.416051818437222276e-01
1.573255690609579316e-01
1.708935917497084733e-01
1.817853087958522240e-01
1.904181698523168820e-01
1.961296852613167163e-01
1.990733365202430605e-01
1.993038422397654386e-01
1.963803630876428119e-01
1.910247319208923100e-01
1.826507265187229390e-01
1.716125631272446550e-01
1.581148124629860874e-01
1.419584447388308746e-01
1.238614927350377426e-01
1.035856194343456882e-01
8.153383285236984190e-02
5.805129944873005376e-02
3.326293096379162595e-02
7.667949530278231340e-03
-1.845947708307775492e-02
-4.481733965270819076e-02
-7.091796896005869710e-02
-9.637624194575260261e-02
-1.209781143018498484e-01
-1.440202812667331911e-01
-1.654280231477366914e-01
-1.846430663817808515e-01
-2.012308474955385451e-01
-2.152814217660557472e-01
-2.259637237305720248e-01
-2.335348347495140586e-01
-2.375488709939579668e-01
-2.377907897406223714e-01
-2.346587463097155046e-01
-2.275677692285691944e-01
-2.171127863737332131e-01
-2.031595128414496743e-01
-1.858534519417154862e-01
-1.658286310887912007e-01
-1.429644049696129904e-01
-1.180048729719735401e-01
-9.119625305306761076e-02
-6.292798123569276481e-02
-3.387686242454696073e-02
-4.337305581107786523e-03
2.514491244823607863e-02
5.403541470743161712e-02
8.199883249432385335e-02
1.085456781574436202e-01
1.331867661613188591e-01
1.558817576742895228e-01
1.759605047187481064e-01
1.933956058387850119e-01
2.080055165341256895e-01
2.193154826980777405e-01
2.278518423199070164e-01
2.329306614720786928e-01
2.348714660711903601e-01
2.337620164057288563e-01
2.292532716258568470e-01
2.222198428902084077e-01
2.120788697901629383e-01
1.993349321658218209e-01
1.842397797602832177e-01
1.666310572101992182e-01
1.473484241409959150e-01
1.261078551018563476e-01
1.033604663883532226e-01
7.946292179213598761e-02
5.446830462380619631e-02
2.890887902575345336e-02
2.961169265591812039e-03
-2.314045136304410111e-02
-4.892939962913700480e-02
-7.416649626996087152e-02
-9.865814468264326453e-02
-1.217996779880977376e-01
-1.436200405129288149e-01
-1.635622787975225811e-01
-1.813112102754502186e-01
-1.969584356956770588e-01
-2.096953856380607273e-01
-2.198253498844942588e-01
-2.268356513043517375e-01
-2.305252304785962436e-01
-2.312350190328139043e-01
-2.282949295222836961e-01
-2.222645040168461095e-01
-2.128799425032845138e-01
-2.002074028066317957e-01
-1.847946031268843381e-01
-1.663759217667836743e-01
-1.456418187471301418e-01
-1.227039500355072699e-01
-9.786797367967289829e-02
-7.176125485223448786e-02
-4.455888106069967602e-02
-1.681771611912045994e-02
1.101210187145748587e-02
3.860319433003324419e-02
6.544350366363305138e-02
9.108532403938332522e-02
1.153878557784721037e-01
1.377006318040638333e-01
1.579186950080403995e-01
1.757818436500558912e-01
1.907847979580456488e-01
2.033091027801942063e-01
2.126430324372716174e-01
2.189989618764752177e-01
2.223715804841742139e-01
2.223552931909114627e-01
2.197122047043342241e-01
2.138099311561111326e-01
2.050923394353623419e-01
1.937386311803314942e-01
1.795491300316303107e-01
1.633459953293001643e-01
1.447792613141339613e-01
1.243291584796420574e-01
1.023086366291148519e-01
7.877893180903598747e-02
5.432482104027448744e-02
2.906723696813867663e-02
3.335748161181345539e-03
-2.242822772438049506e-02
-4.794743864491887719e-02
-7.294783723678835430e-02
-9.687078527396281169e-02
-1.196356763065183348e-01
-1.407044138500732344e-01
-1.597291019268327616e-01
-1.767280441951286918e-01
-1.909361214301243115e-01
-2.025746670959802653e-01
-2.111430130094782698e-01
-2.164370321799460040e-01
-2.187386005000500067e-01
-2.174215649516130222e-01
-2.130033144364911757e-01
-2.052190440521039494e-01
-1.941663381528353494e-01
-1.803426957843986822e-01
-1.635273416565875548e-01
-1.444020119936305080e-01
-1.230626726383659136e-01
-9.986780504806128111e-02
-7.539941207181691252e-02
-4.986732879304306421e-02
-2.384025269804022906e-02
2.265423874406757854e-03
2.807196650482235434e-02
5.310531643735397211e-02
7.691392070601761610e-02
9.932866197859663293e-02
1.197582983486573105e-01
1.380692936290781048e-01
1.540275758056084410e-01
1.671770250748211284e-01
1.778531821328500073e-01
1.854425143740177917e-01
1.901601488248609861e-01
1.920173535695373634e-01
1.907155974080764205e-01
1.869519287993590684e-01
1.802265683632326976e-01
1.710038406225621865e-01
1.594652529761394488e-01
1.455349668769396754e-01
1.299632139974856437e-01
1.125113727827316001e-01
9.367345345680339053e-02
7.373654342123406313e-02
5.284325591165375813e-02
3.150176223764472594e-02
9.866402388671272061e-03
-1.174940660874920079e-02
-3.297737263646460110e-02
-5.354959804888806407e-02
-7.327036998856073513e-02
-9.166567021077598465e-02
-1.087027451449386478e-01
-1.239735582558327137e-01
-1.372276208912965312e-01
-1.485548371682159641e-01
-1.573685974449902381e-01
-1.639356010561108801e-01
-1.679125699084507428e-01
-1.692097960088124187e-01
-1.681479037064006476e-01
-1.642775432537968427e-01
-1.581040434651093674e-01
-1.494778003512062803e-01
-1.385296173239365936e-01
-1.257310945225866283e-01
-1.109242155919903383e-01
-9.469132562824744692e-02
-7.713272559753298063e-02
-5.851074679943685242e-02
-3.931030725058234920e-02
-1.964580061087514706e-02
6.473226229777861995e-05
1.952280967509861798e-02
3.852245984118529698e-02
5.672081372664232457e-02
7.385405814627750420e-02
8.986824685506990262e-02
1.043525943441165615e-01
1.172998320426993923e-01
1.285848043238010940e-01
1.378997932543764571e-01
1.455883653164680158e-01
1.511826843884760685e-01
1.548762963266371029e-01
1.567224850206253295e-01
1.564172190511654570e-01
1.545515391406238614e-01
1.506512809035932543e-01
1.450000155860895479e-01
1.377434758115218538e-01
1.286249948472183435e-01
1.182528690763571255e-01
1.062688160843849872e-01
9.292952056058079169e-02
7.844280580341905784e-02
6.270134357707163320e-02
4.611914028582353442e-02
2.867433579994020654e-02
1.052603127195328447e-02
-8.020363186145421097e-03
-2.685913907239392481e-02
-4.578491383589736174e-02
-6.442874749874284712e-02
-8.273743855809163883e-02
-1.002945863307874996e-01
-1.168197071508145224e-01
-1.322893576530451698e-01
-1.460686741583767934e-01
-1.582465974557489552e-01
-1.683872370903908566e-01
-1.762024714492033683e-01
-1.818606046636077611e-01
-1.847369865176589632e-01
-1.851273418447040298e-01
-1.827536778229515990e-01
-1.775201385390581255e-01
-1.698062358037842334e-01
-1.592666676710537410e-01
-1.463953111396713858e-01
-1.312072968342534729e-01
-1.138639515396628332e-01
-9.488923510046931575e-02
-7.431050273621442326e-02
-5.265057176784186665e-02
-3.021272658654430149e-02
-7.277477161764987768e-03
1.565553121143138660e-02
3.828990991308899028e-02
6.034065883122116669e-02
8.132616800857545014e-02
1.010777720824472814e-01
1.192858519569113263e-01
1.355630145228148287e-01
1.500480225481538032e-01
1.621929657475619790e-01
1.720843559915513077e-01
1.796535832680900002e-01
1.845499452087865366e-01
1.873085534078477998e-01
1.873923244110217712e-01
1.851126496843878977e-01
1.805824594543286588e-01
1.735485058684344550e-01
1.647277602866278334e-01
1.536909551499111293e-01
1.408266573213977635e-01
1.263561920194001265e-01
1.101797412660161235e-01
9.288952089281718449e-02
7.435606394783850215e-02
5.487351958929007067e-02
3.475314552119358746e-02
1.406643665393961240e-02
-6.840818402759046846e-03
-2.772183053915538986e-02
-4.845549213450328629e-02
-6.862789392706319935e-02
-8.802826776960792632e-02
-1.065485013113752211e-01
-1.236363855765042485e-01
-1.393689030810464358e-01
-1.532750083161627530e-01
-1.651206906777133998e-01
-1.750045287847883935e-01
-1.822931913541421811e-01
-1.872794874871178128e-01
-1.895786054276815680e-01
-1.890960629079951882e-01
-1.861308637060057058e-01
-1.802409655381320697e-01
-1.719179359856315148e-01
-1.610269746633470611e-01
-1.477030981807225529e-01
-1.324144949723854991e-01
-1.150649420480136242e-01
-9.622121605539213363e-02
-7.605733842183556859e-02
-5.485352098276649602e-02
-3.312608241690485900e-02
-1.107154273941166056e-02
1.090405405381847381e-02
3.240185370886458638e-02
5.321358787955504654e-02
7.294535312677524752e-02
9.128495150714546758e-02
1.082034600148812087e-01
1.232070682835656183e-01
1.363351178169724121e-01
1.474154786916896387e-01
1.561626858368996285e-01
1.629692358482286996e-01
1.673319542274405713e-01
1.695462856002695751e-01
1.696420147701470371e-01
1.674063762057279303e-01
1.634984511019443032e-01
1.574614980124310060e-01
1.497043512891888806e-01
1.403759616052272785e-01
1.293438958217800194e-01
1.172326503166059714e-01
1.037606770859920424e-01
8.925258623714914241e-02
7.392161311446675265e-02
5.771910017811642674e-02
4.104899750769550049e-02
2.391156363320904102e-02
6.446445742937831347e-03
-1.105533700237263522e-02
-2.853451629770747955e-02
-4.582513332691513092e-02
-6.260654288696407277e-02
-7.891957892204562452e-02
-9.437292996736224016e-02
-1.088025793800981578e-01
-1.222239695441500046e-01
-1.340787456084652218e-01
-1.445592218472320223e-01
-1.532308497807560455e-01
-1.599110963286770049e-01
-1.647624444071415228e-01
-1.672030370856245063e-01
-1.675706370779617427e-01
-1.655383403256164287e-01
-1.610439343437297666e-01
-1.543981814804414043e-01
-1.452421065894218266e-01
-1.340308312097655274e-01
-1.206978865866797090e-01
-1.053743200330054114e-01
-8.848366872612846434e-02
-7.002026427290736210e-02
-5.042904966995598315e-02
-2.995371545597651231e-02
-8.840508846597677772e-03
1.248517954470203251e-02
3.372017529523801960e-02
5.463557713134804816e-02
7.473887425414070529e-02
9.384812909068837583e-02
1.116633920075617986e-01
1.277297216869813790e-01
1.421938117607311203e-01
1.544314277634493415e-01
1.644771154439718108e-01
1.722214043486282875e-01
1.772329048145258601e-01
1.800289910947479310e-01
1.799936439862565019e-01
1.774031132616262219e-01
1.723262132327894880e-01
1.645053202628851408e-01
1.546037124892242209e-01
1.422237315943469804e-01
1.277630921832867972e-01
1.114345351944510676e-01
9.323315866790843343e-02
7.371880665547642097e-02
5.288530554493500735e-02
3.108657728050753799e-02
8.668999173456093388e-03
-1.413745419133413672e-02
-3.699772783895405315e-02
-5.950296074233800414e-02
-8.147269779428369108e-02
-1.024416864965934093e-01
-1.220594237945750865e-01
-1.402432904884283182e-01
-1.563167766005450487e-01
-1.703638160003983493e-01
-1.818941718068823321e-01
-1.906336399421603156e-01
-1.967545466218431072e-01
-1.996063035568136079e-01
-1.995806565869739924e-01
-1.963452603672696806e-01
-1.898876099293403952e-01
-1.806223797951720111e-01
-1.682100688548783252e-01
-1.532763099116716543e-01
-1.358007641745833938e-01
-1.160534617838700627e-01
-9.459345974952218516e-02
-7.148746128424422752e-02
-4.735201369514353831e-02
-2.249082885214334637e-02
2.733928359610907077e-03
2.780649153663611317e-02
5.237110462486627843e-02
7.613268258342445471e-02
9.856510266003329357e-02
1.194757838949026957e-01
1.385564601943696794e-01
1.553560869873401307e-01
1.700846454173796096e-01
1.821100085853223915e-01
1.915505856311824073e-01
1.983441439215173907e-01
2.020886535745466117e-01
2.034330440957861363e-01
2.017442680295095936e-01
1.973994421769184882e-01
1.905188890574832095e-01
1.808434719919840561e-01
1.691624154851136264e-01
1.550241665894276366e-01
1.388777888677040773e-01
1.209648943416534173e-01
1.012306550434396157e-01
8.029843424476078295e-02
5.810045684838990865e-02
3.497356197743549389e-02
1.127916798655728692e-02
-1.282832334935552453e-02
-3.699608185933313947e-02
-6.085271760060334545e-02
-8.426275750782602492e-02
-1.067322171883875875e-01
-1.279641489772887775e-01
-1.478628666571629169e-01
-1.657390690721223803e-01
-1.817016743874238227e-01
-1.952036968901648684e-01
-2.059730615649930652e-01
-2.141558957485859838e-01
-2.190405910148987834e-01
-2.210157743242428252e-01
-2.196794895615779009e-01
-2.149822463332649869e-01
-2.073233884860732623e-01
-1.962816800526795691e-01
-1.824906967288412452e-01
-1.658790611514326108e-01
-1.466807592681084460e-01
-1.254917307599549281e-01
-1.023019204746186267e-01
-7.779156556948868539e-02
-5.224141441860593454e-02
-2.599974934421220296e-02
3.239918328204419856e-04
2.645367260858756328e-02
5.198011937509763175e-02
7.640206748163168304e-02
9.953793904202878906e-02
1.209725982818260770e-01
1.403560436081471019e-01
1.577843649074366916e-01
1.726727518466089906e-01
1.851700165123289499e-01
1.951351655332898005e-01
2.022648685678203884e-01
2.071440337390899056e-01
2.091691883466859081e-01
2.087575961520533596e-01
2.059756939701686829e-01
2.005851420523702688e-01
1.933889372465394940e-01
1.838498248202433960e-01
1.724376526628904338e-01
1.593260925675303863e-01
1.443519551751148988e-01
1.281869884877226973e-01
1.105418128677848610e-01
9.173345111050078271e-02
7.202220104462993266e-02
5.135286352328376214e-02
3.014022590211621472e-02
8.468274128382925411e-03
-1.354986976042638069e-02
-3.551129019928951636e-02
-5.731623510467883514e-02
-7.876932353153745514e-02
-9.939337194201405823e-02
-1.192477230422727963e-01
-1.377783559932374557e-01
-1.547721934566475832e-01
-1.701925980374907887e-01
-1.833455501980728042e-01
-1.944583743439294021e-01
-2.029666737284883671e-01
-2.087109852978641933e-01
-2.118356376960105480e-01
-2.117497648499058749e-01
-2.088900519647153287e-01
-2.029220954160038115e-01
-1.939211308210097018e-01
-1.822689804180776252e-01
-1.677398214033756219e-01
-1.509499041360935212e-01
-1.319474302326007487e-01
-1.110446919951474654e-01
-8.880227360315121055e-02
-6.536788488554401422e-02
-4.132465730499298995e-02
-1.704080389351417257e-02
7.164651742546455926e-03
3.075477416150728532e-02
5.342072079390104700e-02
7.491445193181020534e-02
9.472978432510266444e-02
1.128151536683609651e-01
1.288462829105029295e-01
1.425647443533419045e-01
1.542215801518647122e-01
1.632973465764414878e-01
1.700959901731963764e-01
1.745392573380909751e-01
1.764761579941348246e-01
1.765468424630240452e-01
1.742521203900213311e-01
1.700970992265067316e-01
1.641511365787321486e-01
1.563245442248206718e-01
1.473014193286061868e-01
1.366922199153124684e-01
1.249346702759937255e-01
1.121566550048392896e-01
9.827161640336781745e-02
8.377932833714471506e-02
6.848276466739114388e-02
5.260093962625882191e-02
3.633236228409611468e-02
1.962013187602038022e-02
2.733220602835456647e-03
-1.423182297056585152e-02
-3.126748036824592014e-02
-4.803341222670973187e-02
-6.449010240264896332e-02
-8.052048477036015395e-02
-9.571749973821377933e-02
-1.102093475760685670e-01
-1.235113003596783887e-01
-1.354955735384210658e-01
-1.461444290679685121e-01
-1.548911832987066584e-01
-1.619818381280617725e-01
-1.669321756861419925e-01
-1.696536694418221969e-01
-1.702743947435747529e-01
-1.683274969436769353e-01
-1.642147207334626602e-01
-1.576598155692521819e-01
-1.487470178825285316e-01
-1.378058149330944060e-01
-1.246564520639428797e-01
-1.098253355172076062e-01
-9.335030970537974704e-02
-7.547360760839388893e-02
-5.666683958682947053e-02
-3.702563958800102195e-02
-1.701921471146865955e-02
3.061719681335722289e-03
2.300197102206540112e-02
4.235968257893109323e-02
6.092095649193433882e-02
7.851991903802046924e-02
9.473953684617678062e-02
1.095900775789344916e-01
1.228014017031898164e-01
1.341682767401362331e-01
1.439502416607330582e-01
1.516627939735499253e-01
1.575836025886969138e-01
1.616233910966046738e-01
1.636181980945900505e-01
1.640975819543091796e-01
1.625806415217221357e-01
1.594642898266108166e-01
1.547651940062819698e-01
1.483247378269673122e-01
1.407099518114540149e-01
1.315099260314893936e-01
1.210587873398770442e-01
1.094354933963864185e-01
9.649125431618502113e-02
8.266186028975813782e-02
6.773628511959375875e-02
5.189313794981961769e-02
3.532506541275716450e-02
1.797235637872712788e-02
1.156411147735514344e-04
-1.811724877842974674e-02
-3.668667012604884953e-02
-5.520276844554265067e-02
-7.356755040786333577e-02
-9.160028426584947148e-02
-1.088222900316513919e-01
-1.253018104879367045e-01
-1.404720409484832289e-01
-1.541354406264789367e-01
-1.662049220412573358e-01
-1.760459681293002343e-01
-1.838744905240974337e-01
-1.891342369883243779e-01
-1.917182143420851914e-01
-1.917192436050413340e-01
-1.886632174692854935e-01
-1.829831803400142620e-01
-1.743864125611990779e-01
-1.630214435164439868e-01
-1.492324726750462183e-01
-1.329192842374504469e-01
-1.146798350360704044e-01
-9.460739899893244598e-02
-7.305684279053262231e-02
-5.054595771976133634e-02
-2.730242765990828491e-02
-3.847149890820564244e-03
1.942325871744982058e-02
4.220782510783999131e-02
6.401553655984754121e-02
8.451853207010900926e-02
1.035660017129625410e-01
1.206304163216286307e-01
1.357276246503843486e-01
1.485583219419007173e-01
1.589089618449496255e-01
1.670763329142534448e-01
1.725653759449247704e-01
1.757468590929784913e-01
1.765314225377227486e-01
1.748680045472852662e-01
1.713258989980273039e-01
1.655161733422490511e-01
1.579687612885350423e-01
1.487223692518412355e-01
1.378022838309919673e-01
1.257842129913044338e-01
1.124165407327532840e-01
9.813435190876067249e-02
8.305495431316065047e-02
6.719824573643153054e-02
5.097423200900788598e-02
3.432707769404422238e-02
1.745391604747820180e-02
5.870078226599961813e-04
-1.626486246131447766e-02
-3.286998608801611210e-02
-4.903389001549088300e-02
-6.479380732955952737e-02
-7.975375505380219443e-02
-9.388926770984556969e-02
-1.070859704540576829e-01
-1.189379366686175721e-01
-1.296580200439013952e-01
-1.387407872943322018e-01
-1.461738644715459556e-01
-1.519486527213427529e-01
-1.556158923233888769e-01
-1.575349296991013504e-01
-1.572633064432258920e-01
-1.548825612144963115e-01
-1.505365957592280368e-01
-1.439350285081416880e-01
-1.355538228721324956e-01
-1.251880203440857986e-01
-1.130476932357127318e-01
-9.944150151264874449e-02
-8.433373686245726475e-02
-6.820795703062607074e-02
-5.115621668211665918e-02
-3.342692576776087887e-02
-1.541125608039495276e-02
2.730668803435006356e-03
2.069657921989444607e-02
3.815646859917104505e-02
5.499274340406652695e-02
7.085729829012887837e-02
8.553190720947156933e-02
9.903106599993977133e-02
1.109001269936809864e-01
1.212609016725048894e-01
1.298831874034828138e-01
1.365992649811778592e-01
1.417091653640963900e-01
1.447552535677327779e-01
1.460641701060770292e-01
1.455274687603261563e-01
1.430588686751116390e-01
1.391020729392485056e-01
1.332883471138730236e-01
1.260129890423296040e-01
1.172713057339921372e-01
1.070438433172088422e-01
9.575519704724752557e-02
8.321056039010488181e-02
6.972500826793795459e-02
5.541280629610301212e-02
4.031028131401534487e-02
2.473439602927918202e-02
8.741475379869995121e-03
-7.515216607927616144e-03
-2.375507390223310575e-02
-3.988701368228407540e-02
-5.570520218390094536e-02
-7.089084883664956149e-02
-8.547301751347718968e-02
-9.900616056061616044e-02
-1.113853118462591330e-01
-1.225097248064715705e-01
-1.319126735132914174e-01
-1.398140767968683029e-01
-1.457172628624824051e-01
-1.496002623320466518e-01
-1.515010864047023620e-01
-1.510140072139145306e-01
-1.485457891250365203e-01
-1.437370491670812434e-01
-1.367339968645165660e-01
-1.277492424338390054e-01
-1.166186004039940494e-01
-1.038557069668770011e-01
-8.938374380247000872e-02
-7.348464554295688900e-02
-5.650520631615028877e-02
-3.855622597373718069e-02
-2.006567402291631330e-02
-1.263045788088279497e-03
1.759863746842804666e-02
3.615025708424418616e-02
5.411307622191074973e-02
7.134509711909281515e-02
8.738538504109447103e-02
1.021841332546460368e-01
1.154468456043409863e-01
1.268853882216648965e-01
1.366792224922400989e-01
1.442924195922327679e-01
1.499294577473324341e-01
1.534098861377599377e-01
1.545515615454630953e-01
1.537507043961111874e-01
1.505566504915903936e-01
1.453489226174077553e-01
1.380751365185957091e-01
1.287097105962374255e-01
1.177075468376089507e-01
1.048473827401333325e-01
9.053778321401631524e-02
7.488853891043545374e-02
5.802686636293333255e-02
4.034701589045730508e-02
2.194599429751553643e-02
3.117136942499432184e-03
-1.583367552386383270e-02
-3.469010232274188921e-02
-5.318134850627243004e-02
-7.092219169854174776e-02
-8.784663643496204433e-02
-1.034857759574381864e-01
-1.176554777841322119e-01
-1.302456702905303854e-01
-1.407451906121783003e-01
-1.493747342083638907e-01
-1.556320689838447402e-01
-1.594976512541658731e-01
-1.610508880707911816e-01
-1.598808221336494306e-01
-1.564680595550902442e-01
-1.504574182992882148e-01
-1.420519110933772255e-01
-1.315121345476525927e-01
-1.186942489106186105e-01
-1.041858333863101144e-01
-8.791391175002874481e-02
-7.021684146748435884e-02
-5.145886729666784842e-02
-3.178552594904660022e-02
-1.164203929490395528e-02
8.721092107345188027e-03
2.902273996525282784e-02
4.890053010719355719e-02
6.801850853820147480e-02
8.627629549336003623e-02
1.031479220740977309e-01
1.185783763047781048e-01
1.322783247171946674e-01
1.438844240976683286e-01
1.536376633460460606e-01
1.609133535921594416e-01
1.659212975503598919e-01
1.684818900064660729e-01
1.683541081066767253e-01
1.659893300729125831e-01
1.608851150970774802e-01
1.534405579344836346e-01
1.436284005942979058e-01
1.314255223479805501e-01
1.173366672137159950e-01
1.011788115357672851e-01
8.340011748255075907e-02
6.418307332351232131e-02
4.372697700969767343e-02
2.247254621879631042e-02
6.360817858634543187e-04
-2.144754367367757153e-02
-4.337058413420635805e-02
-6.482284262171322808e-02
-8.550648741198839387e-02
-1.049070809698015722e-01
-1.229523084745213352e-01
-1.390971506387438938e-01
-1.531145434213085355e-01
-1.649157580293997283e-01
-1.739364115987525050e-01
-1.804571707804322744e-01
-1.839822433168915861e-01
-1.845436846577661882e-01
-1.823076716748388004e-01
-1.769203787486444968e-01
-1.689775615650912222e-01
-1.582185185713051723e-01
-1.449579003273305244e-01
-1.295797671803144979e-01
-1.120506719077593583e-01
-9.306423577399872138e-02
-7.266686152230744655e-02
-5.127374730111719514e-02
-2.934681774632073858e-02
-7.092557602340177070e-03
1.501526280076175696e-02
3.666210140065426226e-02
5.759919820560929771e-02
7.743963449713747726e-02
9.589527538406622531e-02
1.129361598931573896e-01
1.280574960601004730e-01
1.413391386659309523e-01
1.525383163928864250e-01
1.614146215082914171e-01
1.683336259644095112e-01
1.727352659049207484e-01
1.749801048718793162e-01
1.749565159193192110e-01
1.725173860400132653e-01
1.682200119732947807e-01
1.615851140925204654e-01
1.530796299892696610e-01
1.427055641774975236e-01
1.304131458991993064e-01
1.167421737614003086e-01
1.014341455373152789e-01
8.488447910820898223e-02
6.724066650228799347e-02
4.855169847917838177e-02
2.922882030666090758e-02
9.339626161715061659e-03
-1.089682516769608679e-02
-3.113473881193778645e-02
-5.123872687879334892e-02
-7.093957689003052569e-02
-8.984609945233734685e-02
-1.079542527330962787e-01
-1.247352862411182511e-01
-1.400379097170988407e-01
-1.537358480043117537e-01
-1.652731844611078915e-01
-1.748864835162392550e-01
-1.820107501373273706e-01
-1.866122825765778592e-01
-1.887546265729229678e-01
-1.879730835907684194e-01
-1.847517323119015620e-01
-1.787053365670248639e-01
-1.700167424974033392e-01
-1.589774033543137621e-01
-1.454046824870959820e-01
-1.299372073978649067e-01
-1.125094947944931811e-01
-9.346371390108759725e-02
-7.325621940535514964e-02
-5.198803296098322702e-02
-3.022008235668405263e-02
-8.192867646460010034e-03
1.380700645666782175e-02
3.531593973288591620e-02
5.609797954312309431e-02
7.593393966376993376e-02
9.437733752531050901e-02
1.114112266649451843e-01
1.266963431343649249e-01
1.400209560061984049e-01
1.515753755280090653e-01
1.608388756062341940e-01
1.680994710024674432e-01
1.731678176733841001e-01
1.759170860831983929e-01
1.768103580750562120e-01
1.753580513276023489e-01
1.720146514609276200e-01
1.667066728917083740e-01
1.593767079019912380e-01
1.505461482149301478e-01
1.398573181925997777e-01
1.277378640864118287e-01
1.142280506125328554e-01
9.932384797692214717e-02
8.345574500997832157e-02
6.651378291412761434e-02
4.877197099229739485e-02
3.044586230454127129e-02
1.159826573087138768e-02
-7.458627529807471124e-03
-2.651423240885861232e-02
-4.548323310357280103e-02
-6.392942205585583348e-02
-8.173529633647677595e-02
-9.868665443075277932e-02
-1.143186197422621508e-01
-1.287434512406872567e-01
-1.413826885047076987e-01
-1.521573133628583430e-01
-1.609786171386310971e-01
-1.673433131671890894e-01
-1.715845573115127587e-01
-1.731864578157411572e-01
-1.722402036274273129e-01
-1.688556975486967260e-01
-1.627351719341428304e-01
-1.544179296187038197e-01
-1.436557708616656437e-01
-1.307494450082805071e-01
-1.160237312185367353e-01
-9.948609994162850578e-02
-8.173520934468073151e-02
-6.285305550438954891e-02
-4.320502444726936897e-02
-2.321937503035639838e-02
-3.109161550493289017e-03
1.673048479876587669e-02
3.596654022153839003e-02
5.441317569098089169e-02
7.169987663220084295e-02
8.759160993655643046e-02
1.020793952124164350e-01
1.147119357859493483e-01
1.256253748380489199e-01
1.345899277395948279e-01
1.414630247446389266e-01
1.465823991682333738e-01
1.494888968089857217e-01
1.505752127751706082e-01
1.497288275722272743e-01
1.468928749391870958e-01
1.425556626166636365e-01
1.363196693026134110e-01
1.286369602453495409e-01
1.194723631424903509e-01
1.088104564374415828e-01
9.709038324819735388e-02
8.407457183549077451e-02
7.009811795368847687e-02
5.524037779638556189e-02
3.952931862514548478e-02
2.327421166858920087e-02
6.517165304815428217e-03
-1.059430742424173622e-02
-2.777921801008256808e-02
-4.493783676060528198e-02
-6.186776822927536612e-02
-7.820651401590017482e-02
-9.399178110042535894e-02
-1.087233691201690555e-01
-1.222585528551095591e-01
-1.344810618549016068e-01
-1.448379040510944238e-01
-1.535541908128275623e-01
-1.600524856761910142e-01
-1.642716791927391617e-01
-1.662324021445711897e-01
-1.654622390028012702e-01
-1.623841462112764478e-01
-1.565927940103495064e-01
-1.482361434473689066e-01
-1.375336722177575022e-01
-1.243333727382192611e-01
-1.091783157340165955e-01
-9.202735395040323452e-02
-7.321585859684570652e-02
-5.312991824761041648e-02
-3.198306662302800168e-02
-1.022398344081887345e-02
1.179625393605343575e-02
3.375334518140736539e-02
5.522101978045046433e-02
7.578131322535316960e-02
9.529636657125528654e-02
1.131612684177244199e-01
1.292899568077389982e-01
1.433433342556676982e-01
1.549439985097151029e-01
1.643053489180843207e-01
1.708114540678390691e-01
1.746991491187154244e-01
1.757856892719015240e-01
1.739124504352357603e-01
1.695305495485407987e-01
1.622332445909915044e-01
1.524925000859065627e-01
1.403161780140324555e-01
1.258163463694721429e-01
1.095052213583964096e-01
9.132747413294696470e-02
7.179164214055694382e-02
5.112116138772747342e-02
2.962040784036781838e-02
7.717160101796328997e-03
-1.428380324893805536e-02
-3.605217719584812019e-02
-5.716298344842321577e-02
-7.729257129515951230e-02
-9.618527240914745424e-02
-1.133221401994531086e-01
-1.287069618592999454e-01
-1.418160552995393897e-01
-1.525047986157696267e-01
-1.607449776304719913e-01
-1.660511881366888987e-01
-1.688108873907354923e-01
-1.685841062580670791e-01
-1.655264880497474556e-01
-1.598541085334216072e-01
-1.513267195749762317e-01
-1.406045741466812604e-01
-1.274878702906352412e-01
-1.123708178359131282e-01
-9.563786559113804375e-02
-7.733847423760342732e-02
-5.812669599008370852e-02
-3.808598802129313510e-02
-1.761466175926675731e-02
2.888103127456994115e-03
2.318940461621137039e-02
4.295837481102977862e-02
6.186250238619859371e-02
7.974373066707936275e-02
9.630764381448415901e-02
1.112732783855639590e-01
1.247626041859045271e-01
1.362631666908655781e-01
1.459332333538173598e-01
1.535951027958812887e-01
1.590033416752947293e-01
1.625914243758271316e-01
1.637935539401942642e-01
1.629723233151615935e-01
1.600334658372138119e-01
1.548095985066059999e-01
1.478231465976134751e-01
1.386260985747493624e-01
1.276244640607835934e-01
1.148348157377407919e-01
1.002219844269569421e-01
8.424561902537555658e-02
6.676662297364646670e-02
4.811626645357566789e-02
2.850957605724743771e-02
8.080744688879110821e-03
-1.281851550363445613e-02
-3.392214099179291509e-02
-5.504478433633779033e-02
-7.572814968367212740e-02
-9.572022934033491692e-02
-1.147849263917438550e-01
-1.323524795913662289e-01
-1.484519290813328118e-01
-1.624844953206995291e-01
-1.742494978019451524e-01
-1.836800185481335945e-01
-1.901864659034392391e-01
-1.940852453097934860e-01
-1.948737293796282133e-01
-1.925960123896728604e-01
-1.874336502934758897e-01
-1.790694488633431392e-01
-1.680964396537932004e-01
-1.543240601865802919e-01
-1.380848181831383914e-01
-1.198046314730844830e-01
-9.953626759177471028e-02
-7.796488614817265184e-02
-5.525925155862095040e-02
-3.185037647658382071e-02
-8.264335930931461516e-03
1.522058387616753716e-02
3.814310149500972635e-02
6.009338510158754310e-02
8.085091215450589119e-02
9.999019938943434771e-02
1.172467353865291606e-01
1.326215659061838748e-01
1.456265032722350028e-01
1.564371087811300964e-01
1.648351074498610180e-01
1.707083911934594023e-01
1.744802491936708055e-01
1.757040626949234463e-01
1.748656361051586783e-01
1.719168533452733738e-01
1.668557281643509027e-01
1.602892648201663106e-01
1.518436841691555850e-01
1.420541178271687854e-01
1.309549903171074170e-01
1.185401956620436847e-01
1.053407833457591369e-01
9.109581828208133947e-02
7.615476095100420784e-02
6.062393920367303152e-02
4.445433296183394500e-02
2.798989542071483871e-02
1.118569238816144278e-02
-5.862498334632962674e-03
-2.289088789047240627e-02
-3.992763897616800201e-02
-5.677081058096315747e-02
-7.316096508634295503e-02
-8.919635541315446003e-02
-1.043981202804158681e-01
-1.187216491852907119e-01
-1.320447714779812987e-01
-1.438602606809732398e-01
-1.544088223964440731e-01
-1.630917011734039079e-01
-1.698541077160565793e-01
-1.746838905805127018e-01
-1.770483882794896546e-01
-1.773429643661296740e-01
-1.750761397806331054e-01
-1.703175201853848464e-01
-1.632487931398728664e-01
-1.535618094784336474e-01
-1.417959192295265292e-01
-1.277703829181295880e-01
-1.117286321250643977e-01
-9.405384997933938229e-02
-7.476142763473751784e-02
-5.439134791945618441e-02
-3.312534740435960773e-02
-1.125402831556081631e-02
1.075148049313168208e-02
3.264257532437045417e-02
5.411434492968345694e-02
7.470271593784805209e-02
9.428419582295344270e-02
1.124461395991723095e-01
1.288926383916397522e-01
1.436818091320193613e-01
1.562373499389951570e-01
1.667285732936827913e-01
1.748873989216029878e-01
1.805133405120384060e-01
1.839873168106215817e-01
1.847765811103449507e-01
1.833007411134373876e-01
1.794476554131438639e-01
1.731529176034383999e-01
1.649534914155560694e-01
1.544763724820501782e-01
1.422210716019263743e-01
1.282268080520342635e-01
1.125376050292726526e-01
9.566809973285363145e-02
7.749615085507007006e-02
5.841273348716710667e-02
3.863222836840281976e-02
1.825911980890499581e-02
-2.316642279981614982e-03
-2.292235222416207779e-02
-4.339911471994178926e-02
-6.333231180308906971e-02
-8.261008448399397019e-02
-1.009901913206772139e-01
-1.180505849793242468e-01
-1.339057711293487052e-01
-1.479827429113911852e-01
-1.602316521956416162e-01
-1.705635160997505395e-01
-1.784637567267823022e-01
-1.843112896791789801e-01
-1.875264916229046341e-01
-1.882042461122562793e-01
-1.864403469108767419e-01
-1.818424832742726871e-01
-1.749966696037720260e-01
-1.655208376030836981e-01
-1.536831281337075195e-01
-1.397778942685961590e-01
-1.236820432888646043e-01
-1.060377154301825886e-01
-8.679782964683716018e-02
-6.630438569859485598e-02
-4.498483642426730905e-02
-2.298037292842967927e-02
-7.464597148244545011e-04
2.141245111620300456e-02
4.327952861751714619e-02
6.441634498500926898e-02
8.455116792540683102e-02
1.035851326835964814e-01
1.209754314737312847e-01
1.367788442047356556e-01
1.506397369276671339e-01
1.623031179503668098e-01
1.720198243205371402e-01
1.791771608808327421e-01
1.841059129719320731e-01
1.865702176073813501e-01
1.864195174427963619e-01
1.841198688170092579e-01
1.791554813156656933e-01
1.720092520813066572e-01
1.625917709397066147e-01
1.508891171032188949e-01
1.374149810234023272e-01
1.219043482513817167e-01
1.048223931012790267e-01
8.627860132104105129e-02
6.638689756901604289e-02
4.559591325318262944e-02
2.399114373825118190e-02
1.878370343103716311e-03
-2.037981658990722922e-02
-4.259180972907623819e-02
-6.441673525846462744e-02
-8.543954803878542337e-02
-1.056061596942406838e-01
-1.243304572395128732e-01
-1.414551902937621897e-01
-1.567834923082926379e-01
-1.697500808132430261e-01
-1.806106803424504803e-01
-1.887208620599307995e-01
-1.941036048170225459e-01
-1.967693354857168453e-01
-1.962625038453260917e-01
-1.931423522695182582e-01
-1.869366309890163058e-01
-1.779220329279988244e-01
-1.663534010282339826e-01
-1.520670868172401824e-01
-1.357915899098433854e-01
-1.173862103176453592e-01
-9.728377362638102044e-02
-7.592102230733599466e-02
-5.342106355724502570e-02
-3.040679480762641107e-02
-7.085417178701348961e-03
1.620204933900280114e-02
3.898564678093704994e-02
6.101368228554909096e-02
8.203012563441355876e-02
1.015807872452833827e-01
1.196377613345019353e-01
1.358233004536526511e-01
1.499260254670665704e-01
1.621084685478574317e-01
1.718254194120645839e-01
1.793939513456449253e-01
1.845661302566807827e-01
1.872356155623861873e-01
1.878556210651891600e-01
1.859093680882107635e-01
1.819130976681424261e-01
1.757360525289460851e-01
1.673542409222845417e-01
1.573023174127634594e-01
1.452001361729964302e-01
1.315480390102863328e-01
1.163503281669000244e-01
9.963325571357753430e-02
8.186344055097595496e-02
6.291809322642419322e-02
4.312973174667304732e-02
2.271612574074911850e-02
1.753487179338195090e-03
-1.939356559684301401e-02
-4.051320778735568312e-02
-6.149783773792332625e-02
-8.186439547957483076e-02
-1.015062649644165038e-01
-1.201531770161866630e-01
-1.373219122331947872e-01
-1.531490305616631797e-01
-1.669698021860430703e-01
-1.787377130231603550e-01
-1.883172217992143405e-01
-1.951706691679447325e-01
-1.996976779542189162e-01
-2.012756530958546286e-01
-2.000420035747500214e-01
-1.960819466927837817e-01
-1.890572954546378137e-01
-1.796010805132473298e-01
-1.673687281767179957e-01
-1.527113384399766682e-01
-1.359628157858599473e-01
-1.170992204766500289e-01
-9.681944388028766724e-02
-7.515349225733651550e-02
-5.251011061643275080e-02
-2.936932712686788835e-02
-5.934563506081203324e-03
1.732011113790839912e-02
4.004046716960466684e-02
6.202231951910035235e-02
8.280227882805815676e-02
1.021531909263505983e-01
1.199846527196234414e-01
1.357981604281982835e-01
1.497400211062247521e-01
1.614626031999552569e-01
1.708449569251133671e-01
1.781594107342109601e-01
1.828954720466900163e-01
1.854967318731128301e-01
1.857381166103184988e-01
1.836090753659039843e-01
1.795750368917629625e-01
1.732041171822610304e-01
1.650424292549355632e-01
1.549827694648926169e-01
1.430729122683881971e-01
1.297902389774189258e-01
1.148801981513816739e-01
9.879151501657795764e-02
8.158618485171804935e-02
6.333584103468745119e-02
4.443857429354554356e-02
2.491324019002612300e-02
4.995350695335347424e-03
-1.500733102015516796e-02
-3.501143760064379107e-02
-5.470522256664282074e-02
-7.377512952510809074e-02
-9.223266389234481555e-02
-1.095209307444965224e-01
-1.255831852578749297e-01
-1.401988531832148166e-01
-1.528782246575921822e-01
-1.638852359420792937e-01
-1.725547482052167125e-01
-1.789464427288395554e-01
-1.829884509975846230e-01
-1.842419560542133683e-01
-1.832073704525219449e-01
-1.793476132648260946e-01
-1.729118366202032075e-01
-1.640412856949216569e-01
-1.525475570810874149e-01
-1.390700405478608459e-01
-1.233973154809202277e-01
-1.059197791015535350e-01
-8.697976977757343464e-02
-6.669090869652180564e-02
-4.559923895073501876e-02
-2.389879197404699840e-02
-1.922988609011633265e-03
1.989059237522403448e-02
4.126728785934904997e-02
6.193455680691673654e-02
8.142847466441498205e-02
9.966930983075703021e-02
1.162475005203566086e-01
1.309177405647997117e-01
1.437471280303288246e-01
1.541905293087963147e-01
1.624933205847333695e-01
1.683476777014960013e-01
1.716573690464324731e-01
1.727523674221694561e-01
1.711741065098024428e-01
1.674025215059753158e-01
1.612709062817280492e-01
1.528513343189013829e-01
1.425837007028727121e-01
1.302229793224385368e-01
1.162915966834447146e-01
1.008055714889334598e-01
8.394808761291849830e-02
6.613422130535090426e-02
4.740018749101458650e-02
2.811920476705064703e-02
8.534652522105522221e-03
-1.114985646258973874e-02
-3.060872071549135959e-02
-4.954169686790590998e-02
-6.784297296420334356e-02
-8.504630006259668307e-02
-1.010281051180028644e-01
-1.155773169885201679e-01
-1.282545947231598094e-01
-1.392617720419460081e-01
-1.480225486927060630e-01
-1.545894793162995162e-01
-1.589039143891093631e-01
-1.605852246625267543e-01
-1.601125580153555938e-01
-1.569975369069155080e-01
-1.515097654113435888e-01
-1.437814774678585206e-01
-1.336555629840888437e-01
-1.217634613147099143e-01
-1.078820651799637653e-01
-9.241645001824652650e-02
-7.566534132759814013e-02
-5.773003806627279022e-02
-3.914226642981395721e-02
-2.002636149328718834e-02
-7.111524580894271197e-04
1.844167878805710176e-02
3.719531640842978909e-02
5.531423168703759191e-02
7.241785133509193173e-02
8.843788395345440756e-02
1.030485350581217818e-01
1.160231273966692289e-01
1.274687836176693623e-01
1.368840772439173792e-01
1.444981757506960118e-01
1.500552582294304993e-01
1.534151709136967745e-01
1.549210369851925506e-01
1.540825844645208886e-01
1.513180051964391204e-01
1.464567108561197206e-01
1.394666918428157376e-01
1.307652583884891806e-01
1.200211267491058664e-01
1.076758850281970270e-01
9.370688830784737466e-02
7.819616334903087274e-02
6.152724470266987544e-02
4.367050649335818546e-02
2.495397866249232655e-02
5.600119599724062702e-03
-1.420992149174130255e-02
-3.415874665172223545e-02
-5.392564956765350664e-02
-7.338680666380716089e-02
-9.204647540715532594e-02
-1.097048166682734194e-01
-1.261326515332382159e-01
-1.407826060296758497e-01
-1.537992347752545341e-01
-1.645386669381271871e-01
-1.729285654271659478e-01
-1.788908081476654477e-01
-1.819131475999786751e-01
-1.824315072533771454e-01
-1.799012190408268985e-01
-1.745022050485786069e-01
-1.663801590927256879e-01
-1.553087559859702149e-01
-1.419318577043062746e-01
-1.260346330623447475e-01
-1.080231120892842234e-01
-8.825979445361339937e-02
-6.688303662979050435e-02
-4.449388581544430621e-02
-2.130404037599316347e-02
2.277381913662869517e-03
2.578792702485956101e-02
4.887469221404372455e-02
7.122374812361730034e-02
9.232048807025983184e-02
1.120103941862257146e-01
1.298745961790294112e-01
1.455824615400104771e-01
1.592087699767369413e-01
1.701561480307888230e-01
1.786423706557887514e-01
1.843801288599822286e-01
1.872238531655703309e-01
1.875602177081542310e-01
1.849042566321527081e-01
1.797586122901514427e-01
1.719990179851108580e-01
1.616929617344616821e-01
1.493502818481259875e-01
1.347340079261941659e-01
1.184071437841957009e-01
1.004366701031979836e-01
8.103243912250043812e-02
6.066058431911616755e-02
3.940097140984222257e-02
1.765395062313582231e-02
-4.280563664409306468e-03
-2.616107437743404873e-02
-4.764090843026229372e-02
-6.835324106519932719e-02
-8.819595936171188699e-02
-1.066472240801107918e-01
-1.235573564671523517e-01
-1.387228346546044710e-01
-1.516436803160099434e-01
-1.625564406774870352e-01
-1.708493175243170903e-01
-1.765778552623822328e-01
-1.797173600545193817e-01
-1.798672389577751218e-01
-1.775618615750966245e-01
-1.723251904512409505e-01
-1.644631247885396941e-01
-1.541665508684625929e-01
-1.413134844056907202e-01
-1.265885723947565711e-01
-1.098334637569742256e-01
-9.149809716378279334e-02
-7.194671741209886229e-02
-5.133942259166561495e-02
-3.024037515597834819e-02
-8.851347151972301791e-03
1.247702429171179857e-02
3.333222678642830394e-02
5.343546560437742454e-02
7.255832076322667190e-02
9.026114088778039446e-02
1.064969913285233605e-01
1.209206442957902194e-01
1.333156944327473781e-01
1.438257351318724397e-01
1.519489605464355853e-01
1.579735848961725808e-01
1.616679598877301116e-01
1.629594465386374202e-01
1.622419608892627652e-01
1.590888571052756217e-01
1.539869587945587315e-01
1.468256994792294934e-01
1.376610117183745818e-01
1.269550979246371059e-01
1.144630254005641612e-01
1.006662069939930348e-01
8.560329548755510332e-02
6.940379762879496373e-02
5.246689125427247968e-02
3.480175123482012051e-02
1.671918397626372468e-02
-1.545663143510060678e-03
-1.984951176620824986e-02
-3.790108270669118040e-02
-5.543455905625538360e-02
-7.238778981416102432e-02
-8.832207393405897000e-02
-1.031420285203032139e-01
-1.166668579776171111e-01
-1.284745493555716489e-01
-1.387637229294571006e-01
-1.469916582904447488e-01
-1.531886188280826566e-01
-1.573142846405661266e-01
-1.589812270338251121e-01
-1.586258292202664122e-01
-1.557950430462471947e-01
-1.507018120451388277e-01
-1.434899694782741097e-01
-1.339804515215744785e-01
-1.227490702863877070e-01
-1.096019964181606243e-01
-9.488146515600365261e-02
-7.889153673997267857e-02
-6.170331525677219542e-02
-4.381875447135927248e-02
-2.536372101991192507e-02
-6.631021308224425981e-03
1.201695290381793457e-02
3.035983480498630552e-02
4.817185492112564110e-02
6.507503750969456657e-02
8.100149548091092888e-02
9.562726574509511357e-02
1.087253424291352022e-01
1.203877617174412828e-01
1.301228931746952755e-01
1.381280056629602682e-01
1.441524345610598890e-01
1.480505181146841154e-01
1.501304603431215801e-01
1.499275213124628137e-01
1.478144759716321088e-01
1.436340834095694852e-01
1.373638759675466503e-01
1.293822279924901897e-01
1.194073361889941287e-01
1.078473988606008793e-01
9.470256502689808342e-02
8.008785919775394946e-02
6.435476915741815407e-02
4.753073673703536728e-02
2.993103154559275531e-02
1.178911083829435949e-02
-6.677540078494554644e-03
-2.518144377321995114e-02
-4.337669661847147473e-02
-6.113685197144470840e-02
-7.799682138506852658e-02
-9.374390579684606373e-02
-1.081826829197195111e-01
-1.208054016125124364e-01
-1.317413429545318260e-01
-1.404361400771358681e-01
-1.468391020998097429e-01
-1.509063169923542391e-01
-1.522333597771795555e-01
-1.512172725152503283e-01
-1.474477274999373144e-01
-1.411395363485839494e-01
-1.324485352983070519e-01
-1.212846125664416991e-01
-1.082030196825032736e-01
-9.311994307834736695e-02
-7.644870895420546875e-02
-5.850794737971651283e-02
-3.953916643065865516e-02
-2.001464123532534917e-02
-2.093329401021137848e-04
1.949749158719517317e-02
3.874258192430966863e-02
5.713053152139742352e-02
7.448892974356005614e-02
9.031859764161986881e-02
1.045067589060316160e-01
1.167616051868074767e-01
1.267705833233982449e-01
1.346980981543638434e-01
1.400454244542762849e-01
1.430374448937100640e-01
1.435164649376750590e-01
1.414019780209447852e-01
1.370835580909828266e-01
1.302534393124078482e-01
1.213679500396364352e-01
1.104316032028379857e-01
9.760874649979173201e-02
8.334142042454248389e-02
6.761669648711160496e-02
5.090925781792335347e-02
3.339792719962819678e-02
1.538357986604683980e-02
-2.782384741016288854e-03
-2.083380699922221524e-02
-3.848855016472112894e-02
-5.541161849967725372e-02
-7.133225880700920507e-02
-8.606388765006695030e-02
-9.919060257361833610e-02
-1.107461525195960750e-01
-1.203195862058987903e-01
-1.278223171614884524e-01
-1.332579632917779699e-01
-1.362552752767576814e-01
-1.371676397286981930e-01
-1.356490742522976634e-01
-1.318601623525552380e-01
-1.259846629046636468e-01
-1.178559945623168792e-01
-1.080183463471546257e-01
-9.632155391295835201e-02
-8.310158278759491313e-02
-6.865864136472148160e-02
-5.306716742899925121e-02
-3.682774761638551997e-02
-2.003957679125388525e-02
-3.024554683117852694e-03
1.390484727852315042e-02
3.051492628977425792e-02
4.658568134134937616e-02
6.178953860757043642e-02
7.600764928419315170e-02
8.899869032986720829e-02
1.004977009808379618e-01
1.106335475204255625e-01
1.189490100414523077e-01
1.255855649007824315e-01
1.303960097987238165e-01
1.331799675926166326e-01
1.343053655223279963e-01
1.333256566319114267e-01
1.305626704526193227e-01
1.259624402186331482e-01
1.194395723971428541e-01
1.114329261350834321e-01
1.016537728198522866e-01
9.046616610314929530e-02
7.793294936258862715e-02
6.410159243544169549e-02
4.934913414502720141e-02
3.366175106309142462e-02
1.731596984915428905e-02
5.344566971178799086e-04
-1.652198759603787370e-02
-3.359695920423436122e-02
-5.039971333678736065e-02
-6.682773716434972644e-02
-8.248865071342675881e-02
-9.717961105999700644e-02
-1.107798452199141304e-01
-1.227967635880095609e-01
-1.333535595030969634e-01
-1.419746949038125372e-01
-1.485396901165655370e-01
-1.530884844023321922e-01
-1.551411542831851453e-01
-1.550631834002920706e-01
-1.524693720045300904e-01
-1.474342343676761646e-01
-1.401834472093222983e-01
-1.304603866528558642e-01
-1.188032118892481392e-01
-1.050784625570663766e-01
-8.955214508664510742e-02
-7.259906464195342579e-02
-5.426415233944961725e-02
-3.506513653379969564e-02
-1.517588145307388614e-02
5.101963945682463919e-03
2.536018180126767274e-02
4.533300551721157479e-02
6.477320800064244322e-02
8.324761728983534614e-02
1.006291024864284928e-01
1.165965865217280933e-01
1.308229637425817882e-01
1.434433974450719518e-01
1.538944231989083644e-01
1.623234159042414859e-01
1.685469199763648396e-01
1.723092565209707050e-01
1.740364215754996446e-01
1.731987270957070224e-01
1.701567462131065300e-01
1.648628373974859451e-01
1.571980668234665979e-01
1.476936986075081115e-01
1.360067345630194546e-01
1.225590666244130711e-01
1.074475796708765363e-01
9.070491372530692376e-02
7.280777578340347223e-02
5.372105628027548652e-02
3.377878327475763998e-02
1.326220720161455646e-02
-7.670309646500506062e-03
-2.866407826891864685e-02
-4.941824312861853308e-02
-6.978383074968957933e-02
-8.928825050851361966e-02
-1.077347735037856441e-01
-1.249079355170555489e-01
-1.402993000607358764e-01
-1.540057096843040485e-01
-1.654725918151183639e-01
-1.746126333895957894e-01
-1.813871754720697282e-01
-1.853296503114650884e-01
-1.868098308205463631e-01
-1.853970567837766037e-01
-1.812382006759967468e-01
-1.745219531653234291e-01
-1.650444948053198246e-01
-1.533939276804835716e-01
-1.394365356391575050e-01
-1.235359477585529497e-01
-1.060900079412708807e-01
-8.719333530763634377e-02
-6.746302934094128290e-02
-4.707311330266039651e-02
-2.639805305733849972e-02
-5.904504035805779871e-03
1.418277558130870419e-02
3.349507903739828985e-02
5.168425546977528651e-02
6.863305728407342876e-02
8.398263594701838031e-02
9.758722969503208500e-02
1.094951010024165505e-01
1.193297110114869275e-01
1.273406138147374911e-01
1.333495581863319845e-01
1.373595371204685556e-01
1.397589207405089962e-01
1.402085184770542892e-01
1.391895876460878534e-01
1.366476836055953159e-01
1.326356533539279070e-01
1.276580332957613084e-01
1.213961767849066065e-01
1.143118123318438983e-01
1.063916484648048111e-01
9.761329932531270792e-02
8.839356850803908872e-02
7.845492395388492524e-02
6.806138821447504927e-02
5.724459555537375621e-02
4.589375371236897871e-02
3.427523184408617918e-02
2.225607970801588009e-02
9.886175106905786825e-03
-2.671313045220891080e-03
-1.551924439908190789e-02
-2.848501869797756547e-02
-4.144711766639851830e-02
-5.448489132004235430e-02
-6.723524229547143960e-02
-7.970141622056060859e-02
-9.174168410202759860e-02
-1.029802636955327588e-01
-1.135677058835362074e-01
-1.229951577593962897e-01
-1.311942400704599332e-01
-1.380842021531767938e-01
-1.431944508324121679e-01
-1.467829857369208901e-01
-1.483751852033761698e-01
-1.479657553367538236e-01
-1.456327296466882193e-01
-1.410311121290973024e-01
-1.345772157613841502e-01
-1.260132376153897948e-01
-1.154935680923736552e-01
-1.033008678563683835e-01
-8.933687258516409546e-02
-7.411542499250534100e-02
-5.766175101099080269e-02
-4.023051134740673884e-02
-2.223346930043357261e-02
-3.775259226504457111e-03
1.473429519237412499e-02
3.303661459714357651e-02
5.096554309194034627e-02
6.812432010829971851e-02
8.435361274051855762e-02
9.952135481481227952e-02
1.132564500931528828e-01
1.256297752762358666e-01
1.363556326019200737e-01
1.453274890049401913e-01
1.527201051252403685e-01
1.581379486946460355e-01
1.618852005939352967e-01
1.637923597647095164e-01
1.638141854288291954e-01
1.623199255492708826e-01
1.589407274664065284e-01
1.540808446210100158e-01
1.476613615504717147e-01
1.396578681739356620e-01
1.304763980231153919e-01
1.198414298631033104e-01
1.080970491435889747e-01
9.527312973309753907e-02
8.134863554263849217e-02
6.667138526293536760e-02
5.115802564676585895e-02
3.500183799666178874e-02
1.841476407982323149e-02
1.404170115398839513e-03
-1.574302573117036808e-02
-3.284618099664748936e-02
-4.987566885516325765e-02
-6.639242495500563557e-02
-8.235424893553733305e-02
-9.751981403019216454e-02
-1.114936358776587033e-01
-1.244108153988100485e-01
-1.356849963388957470e-01
-1.453089914328454801e-01
-1.531328767596690232e-01
-1.587301137807849427e-01
-1.624267462352372848e-01
-1.636890744161648703e-01
-1.626566421016492625e-01
-1.593662650033614292e-01
-1.535699066004350133e-01
-1.457876336794982075e-01
-1.357345004611429928e-01
-1.237305296020561329e-01
-1.100403076943936159e-01
-9.467389122076161345e-02
-7.821723578457355497e-02
-6.070131158894911949e-02
-4.248690641834348969e-02
-2.397619544003204428e-02
-5.321248078224094513e-03
1.304202329243420166e-02
3.087070166426486573e-02
4.799094167014861245e-02
6.402134787221491763e-02
7.885434446795636099e-02
9.236884711888726507e-02
1.042597093266963704e-01
1.146790566339368489e-01
1.233644485980174288e-01
1.303279584206502584e-01
1.357903206093573623e-01
1.394258288026701820e-01
1.416666274451807706e-01
1.423484578984390847e-01
1.415184137133185249e-01
1.396131220500012038e-01
1.362370422355398958e-01
1.319122301961690447e-01
1.264956490477258111e-01
1.199329896990601885e-01
1.126984970093807270e-01
1.043131326932420500e-01
9.519802104745789251e-02
8.521729034562897098e-02
7.417817373256330171e-02
6.248562483680109025e-02
4.969772971138786133e-02
3.605871354749679014e-02
2.154817833165889596e-02
5.948055902423199370e-03
-1.039288032986496191e-02
-2.765755297487260123e-02
-4.573806606410135700e-02
-6.437167731659432235e-02
-8.363957525807608206e-02
-1.031838287323636472e-01
-1.227723481867049049e-01
-1.423890212922243048e-01
-1.614233979190606849e-01
-1.797859466192890388e-01
-1.971230202179798940e-01
-2.128636629398172886e-01
-2.271423041905029638e-01
-2.391523245270115172e-01
-2.487960006278080449e-01
-2.558649864513542482e-01
-2.597505474433710049e-01
-2.608498543990820373e-01
-2.584838020228505950e-01
-2.527688599389728008e-01
-2.438148400998694232e-01
-2.312962056987233339e-01
-2.158796104757358947e-01
-1.973103407012168908e-01
-1.759706071791597992e-01
-1.523282668859918809e-01
-1.264068279362905445e-01
-9.901338048608521181e-02
-7.030861283935774253e-02
-4.074354992358841798e-02
-1.098910193778457334e-02
1.879159449810419158e-02
4.792445906455511384e-02
7.604831897594471757e-02
1.029636879934882621e-01
1.280218871306034178e-01
1.511954040249231523e-01
1.721691639919152861e-01
1.905953756043366476e-01
2.067153777626598021e-01
2.200355468820328619e-01
2.307712809138253718e-01
2.389958736388688720e-01
2.444423535650914747e-01
2.477124565938246814e-01
2.484617727370546092e-01
2.470252794143750208e-01
2.437114734683392125e-01
2.382778913273744248e-01
2.314096028278154193e-01
2.228599743511612274e-01
2.128676670554057182e-01
2.017902603348988855e-01
1.893719808381248981e-01
1.761098336620605664e-01
1.618830331971259362e-01
1.467154761233309124e-01
1.309318919951603100e-01
1.143422250220682557e-01
9.713710181234969099e-02
7.945113622862276515e-02
6.113977693198568986e-02
4.253246304199986838e-02
2.365679731446412859e-02
4.432351416122415344e-03
-1.462257826269741656e-02
-3.370008011410607907e-02
-5.240613931154847194e-02
-7.042211876234105716e-02
-8.801338069702957512e-02
-1.043087218750313738e-01
-1.194989721001435967e-01
-1.331621657291037764e-01
-1.448284695138291056e-01
-1.548553484261567803e-01
-1.623256278353562010e-01
-1.674866316754100026e-01
-1.700441148080962250e-01
-1.696356853686804556e-01
-1.667545203190998748e-01
-1.607634013319607647e-01
-1.520792388892955316e-01
-1.407024877431579668e-01
-1.265793664898575699e-01
-1.103556359537627429e-01
-9.184955610573553031e-02
-7.161887426292157244e-02
-4.997501137383597580e-02
-2.713388135373762111e-02
-3.749174947767386357e-03
1.998937557447444391e-02
4.362421655781911767e-02
6.669350902620507782e-02
8.895490676477191272e-02
1.099914376028654495e-01
1.294569294847822682e-01
1.472754016600852367e-01
1.630073048647446843e-01
1.765964354985718465e-01
1.880112034870897730e-01
1.968821544291476933e-01
2.036140641871244661e-01
2.078335762771524875e-01
2.096821610056956442e-01
2.094660211514626502e-01
2.067766201299099382e-01
2.023549483274011407e-01
1.958342542134116071e-01
1.873951825949794481e-01
1.775081775537554751e-01
1.656678192842111486e-01
1.526835193094491228e-01
1.381744127047488391e-01
1.222041121124077812e-01
1.052669777104648929e-01
8.681229154751068933e-02
6.750970215579332745e-02
4.708617979872276038e-02
2.547355221759595167e-02
3.176764895682637757e-03
-2.021459552635462842e-02
-4.423294791977649965e-02
-6.883685955274110313e-02
-9.412185767405212289e-02
-1.195105414157566770e-01
-1.450968745741105792e-01
-1.705787042357096439e-01
-1.955016789402224120e-01
-2.199074724308687223e-01
-2.431506385038044726e-01
-2.650357748149261283e-01
-2.853763864059128963e-01
-3.035035596886217490e-01
-3.194527304322747341e-01
-3.326723511098848007e-01
-3.429148571475231222e-01
-3.501889103232400657e-01
-3.539654263226932329e-01
-3.544291287204153207e-01
-3.513643635888428207e-01
-3.447392447652060099e-01
-3.348647855890423131e-01
-3.216251647065266894e-01
-3.054231628654715536e-01
-2.865050685277026332e-01
-2.651053768636693064e-01
-2.417977552954830855e-01
-2.168635903834488232e-01
-1.907531232830237400e-01
-1.640582565819173055e-01
-1.370361516716815942e-01
-1.102951752638237082e-01
-8.423776180532804858e-02
-5.903868122522304418e-02
-3.537829407799364390e-02
-1.321023057342607387e-02
7.060946779862575795e-03
2.518499810091157087e-02
4.146040973596853974e-02
5.529119812066163320e-02
6.713770368712168590e-02
7.685041430493910752e-02
8.438812684156005162e-02
9.041623857431524414e-02
9.442747525513617290e-02
9.710630823732113726e-02
9.841950446602343305e-02
9.841091132311152734e-02
9.777478938445760548e-02
9.604846079986106844e-02
9.382029285420490083e-02
9.100911160753399898e-02
8.764202022559253180e-02
8.410178167266080251e-02
8.005297716455928025e-02
7.583026801073351753e-02
7.125431415734539975e-02
6.622029617065083862e-02
6.090587259367064021e-02
5.532012089470228489e-02
4.956601442065000640e-02
4.339480722057142970e-02
3.661633179596535115e-02
2.954703830409233234e-02
2.279970071028269984e-02
1.638612008869344550e-02
9.838770934308627147e-03
2.867938660196855949e-03
-3.628831309189450849e-03
-8.152764703567072502e-03
-1.079661823420430267e-02
-1.290104838759909001e-02
-1.527192952942257875e-02
-1.591174590877564299e-02
-1.146761256714512456e-02
-1.968371947604907746e-03
7.872774956950934211e-03
1.179995369223973967e-02
8.139000097461490668e-03
1.410523296306642749e-03
