BVP Green Neck Signal
2.896812283442552760e-02
2.867190011498325225e-02
2.825839683536895269e-02
2.771873770472887966e-02
2.704404743220924917e-02
2.622545099593156376e-02
2.525730905148591138e-02
2.414527263927302575e-02
2.289798938399000700e-02
2.153321356035462625e-02
2.007631736214136181e-02
1.855667339760604800e-02
1.701513518786955392e-02
1.549520835123411808e-02
1.404708402100185265e-02
1.272591407237205242e-02
1.158784754677254225e-02
1.069138253344317779e-02
1.009503229544155695e-02
9.852867545166336949e-03
1.001601838458613183e-02
1.063001893049452320e-02
1.172740822551826198e-02
1.333697898603746282e-02
1.546840143952483981e-02
1.812014481998800927e-02
2.127822460490481210e-02
2.490325030765656172e-02
2.894957605559763530e-02
3.334450730839408350e-02
3.800132155758637054e-02
4.281988056487732314e-02
4.767583765870812840e-02
5.243990746163735422e-02
5.696508409854034866e-02
6.109629878487445737e-02
6.467549564579648524e-02
6.753987651604197173e-02
6.952801062487964923e-02
7.049008067047085602e-02
7.028126933218824257e-02
6.877516247444105668e-02
6.587154727863341053e-02
6.148080867816977518e-02
5.556157055635829040e-02
4.809034585615001856e-02
3.908269219245627535e-02
2.860346336280269325e-02
1.673403972550993601e-02
3.621123543936033331e-03
-1.056726276126351317e-02
-2.562316170263458787e-02
-4.129386046667411075e-02
-5.731472567058441131e-02
-7.338044825622215550e-02
-8.917450189967986163e-02
-1.043714480589844062e-01
-1.186369807728944042e-01
-1.316423693441273191e-01
-1.430810090682629043e-01
-1.526537598501359339e-01
-1.601047446864344859e-01
-1.652163065425036326e-01
-1.677979107065487030e-01
-1.677426966550235876e-01
-1.649658653641269124e-01
-1.594615536302714520e-01
-1.512857995747807494e-01
-1.405293029717535891e-01
-1.273763633480145818e-01
-1.120326784239082940e-01
-9.476733286178189164e-02
-7.589349771717528170e-02
-5.574177662314570153e-02
-3.468391235957788560e-02
-1.309824523962871932e-02
8.633496911171822941e-03
3.012757580288439457e-02
5.101444338935522821e-02
7.095564191519043717e-02
8.962276640377579706e-02
1.067427279718317357e-01
1.220728240522187397e-01
1.354069056672578819e-01
1.466086773566772916e-01
1.555588450598821282e-01
1.622104974535608646e-01
1.665518866400566289e-01
1.686064503767351064e-01
1.684571354479309502e-01
1.661994443311866076e-01
1.619755644013763096e-01
1.559476636256096338e-01
1.482933323819975446e-01
1.392132815016716985e-01
1.289111479675577043e-01
1.175966407625162052e-01
1.054815618151035833e-01
9.277124639691497476e-02
7.966239517674694737e-02
6.634705182163587456e-02
5.299614582342841718e-02
3.977322983218539720e-02
2.682502702677591611e-02
1.427834238638302743e-02
2.253474277102274822e-03
-9.153557905813397913e-03
-1.985416043043717466e-02
-2.977351710094898463e-02
-3.885128769281273597e-02
-4.703144565419273282e-02
-5.427230498618670212e-02
-6.053612585322325906e-02
-6.579335570540806311e-02
-7.002207939296604955e-02
-7.320393467409899713e-02
-7.533180814138704107e-02
-7.640171978368738570e-02
-7.642156650091797010e-02
-7.540908244430942486e-02
-7.338909047099004268e-02
-7.040688775533966715e-02
-6.651308619473531025e-02
-6.177883862686025379e-02
-5.629039794173329447e-02
-5.014340725417747169e-02
-4.345738149548189488e-02
-3.635700645764115835e-02
-2.898198344920700775e-02
-2.148178853865532340e-02
-1.400769510148127360e-02
-6.714757285896452363e-03
2.426292113654388884e-04
6.721995362998809537e-03
1.258782993140236672e-02
1.771841819348821817e-02
2.202003563513094814e-02
2.540683209855194857e-02
2.783116695749506680e-02
2.926505006467929743e-02
2.970261567043924744e-02
2.917756765822543397e-02
2.773247488536637051e-02
2.544476778861431282e-02
2.240767385383269500e-02
1.872684701904596405e-02
1.452761197029595226e-02
9.937911918064808864e-03
5.091207610387071120e-03
1.230088997632387132e-04
-4.836888914269107595e-03
-9.666756563562518140e-03
-1.424912862659183550e-02
-1.848682065781600409e-02
-2.229010487220682568e-02
-2.558582872459602003e-02
-2.832155747262672663e-02
-3.045156111887362821e-02
-3.195618054990751605e-02
-3.282416017340195058e-02
-3.305943899367966288e-02
-3.268281453779268986e-02
-3.171972722658692595e-02
-3.021146816560828924e-02
-2.820377341468253279e-02
-2.574852439950029576e-02
-2.290365605488484113e-02
-1.972781762963232710e-02
-1.628134066148355374e-02
-1.262479598243853272e-02
-8.816073912978806063e-03
-4.910720203827214150e-03
-9.621542321569384257e-04
2.982767397996486346e-03
6.878911534290323496e-03
1.068737038546258705e-02
1.437406912765382301e-02
1.790757691721417411e-02
2.126352301723247878e-02
2.441913465567754904e-02
2.735633322050316091e-02
3.006027242038668279e-02
3.251753127770839330e-02
3.471803828961370769e-02
3.665236473729440586e-02
3.831255640699455373e-02
3.969155872931316720e-02
4.078268077487451349e-02
4.157999059796820690e-02
4.207776702378972916e-02
4.227131492367743049e-02
4.215650162970933229e-02
4.173037529548587199e-02
4.099222528439902535e-02
3.994209418029203568e-02
3.858398405065414233e-02
3.692381618537098065e-02
3.497058425514225355e-02
3.273843763223918679e-02
3.024296277650539294e-02
2.750617025354293310e-02
2.455282076136997005e-02
2.141136898221589896e-02
1.811576248474966802e-02
1.470121289772675401e-02
1.120776044846092875e-02
7.677249141838215357e-03
4.152926936098687641e-03
6.798929317420308351e-04
-2.696836845741780626e-03
-5.933326472932536066e-03
-8.986081707815176192e-03
-1.181457982769530159e-02
-1.438178029781553811e-02
-1.665247276629461259e-02
-1.859876195585072334e-02
-2.019506395206607796e-02
-2.142228487914896173e-02
-2.226808188813669126e-02
-2.272298462121526835e-02
-2.278752001347458811e-02
-2.246501751054555407e-02
-2.176601555995819059e-02
-2.070771022301828163e-02
-1.930993881218227154e-02
-1.760069457874893079e-02
-1.560998376734569655e-02
-1.337235781984513240e-02
-1.092609400762275043e-02
-8.310488840404802596e-03
-5.567549198124225121e-03
-2.739760968615429990e-03
1.307156842381054090e-04
3.001959778656306758e-03
5.833249416447905226e-03
8.586979605226181464e-03
1.122644764955674397e-02
1.371958776884156864e-02
1.603733141475296997e-02
1.815343720220984752e-02
2.004803380502434562e-02
2.170277546429548454e-02
2.310559395622280993e-02
2.424801701291678935e-02
2.512451468028843726e-02
2.573541484710051286e-02
2.608227826871361427e-02
2.617112653451776627e-02
2.601024093663924230e-02
2.560944821135986010e-02
2.498129915733350581e-02
2.413881983655966762e-02
2.309644979615365495e-02
2.186925961513683236e-02
2.047264162614836902e-02
1.892249085303174608e-02
1.723480183108843516e-02
1.542591802661476968e-02
1.351232642383076200e-02
1.151087073061328112e-02
9.438892186829618558e-03
7.313931196759969507e-03
5.154417469576762570e-03
2.979099492894769947e-03
8.072702582713957124e-04
-1.341103545102199229e-03
-3.445985399888587021e-03
-5.487205108488156166e-03
-7.444584392743529289e-03
-9.298815671874060065e-03
-1.103154785811827701e-02
-1.262520647752236012e-02
-1.406524516223901615e-02
-1.533805522333548700e-02
-1.643332902671847812e-02
-1.734397821693167002e-02
-1.806448514406814448e-02
-1.859454771858654043e-02
-1.893525334197791732e-02
-1.909140257741773899e-02
-1.907101075022862163e-02
-1.888327694116807842e-02
-1.854081538606305174e-02
-1.805699183148039288e-02
-1.744631334506327458e-02
-1.672416315871994019e-02
-1.590565185697945944e-02
-1.500507170389909530e-02
-1.403638754482115260e-02
-1.301122675757826301e-02
-1.193962089540527745e-02
-1.083007703599617004e-02
-9.687467643471368156e-03
-8.515836175031793465e-03
-7.316181985912694960e-03
-6.087665688556061910e-03
-4.828638879245712376e-03
-3.535776014420096217e-03
-2.205607233884319951e-03
-8.353148544621609439e-04
5.775574063199622951e-04
2.033916951282134424e-03
3.531755124133281482e-03
5.068161447660376497e-03
6.635714783595821065e-03
8.224840658695080006e-03
9.823326040927241043e-03
1.141458000083846180e-02
1.298110427784643361e-02
1.450208237967439730e-02
1.595532205055868319e-02
1.731833936929060014e-02
1.856822645858683535e-02
1.968257032613858482e-02
2.064205019123060286e-02
2.142856574775396650e-02
2.202796890316214423e-02
2.243127787809345852e-02
2.263141157348073224e-02
2.262918063944145686e-02
2.242805609328364647e-02
2.203633925181080339e-02
2.146793426053867498e-02
2.073807882550848108e-02
1.986652880300697477e-02
1.887431333891387633e-02
1.778300288784947711e-02
1.661472531722960749e-02
1.539094093778901884e-02
1.413043204371840396e-02
1.285115448041946815e-02
1.156752785236733923e-02
1.029073857242953846e-02
9.030432000360764933e-03
7.791458824026820107e-03
6.577508695029245234e-03
5.389812406695763773e-03
4.227605688649844345e-03
3.089990318814209332e-03
1.975843012562345825e-03
8.841726812230366571e-04
-1.836625418644684607e-04
-1.224610152548630086e-03
-2.233701877430657040e-03
-3.201118247136101706e-03
-4.115855629365951576e-03
-4.962204353936777029e-03
-5.721448601763759120e-03
-6.373234353286684820e-03
-6.893600819234655536e-03
-7.258061524794030828e-03
-7.441854524430909640e-03
-7.420077432319387503e-03
-7.169817042311317848e-03
-6.672138073150417348e-03
-5.909572119497373890e-03
-4.872949825773858698e-03
-3.557302823191759583e-03
-1.964030117559001018e-03
-1.057079698437730225e-04
2.002129814581450531e-03
4.330856992776939765e-03
6.846001215072627238e-03
9.506315004321492373e-03
1.226002033585825608e-02
1.505321979735818085e-02
1.782449684448780824e-02
2.050952687563684790e-02
2.304332341043726501e-02
2.535999376501796992e-02
2.739477027415448962e-02
2.908934101474295458e-02
3.038782794727893505e-02
3.124316267716350376e-02
3.161907029418697945e-02
3.148389005098067156e-02
3.082462096186840833e-02
2.963428511104634205e-02
2.792000772920145979e-02
2.570425099495344395e-02
2.301471673023768039e-02
1.989748545433345922e-02
1.640379788248241474e-02
1.259429189878319075e-02
8.538678149075005011e-03
4.308485707154485929e-03
-1.955925346712548279e-05
-4.367689164381875419e-03
-8.660325506718158720e-03
-1.282376709567048002e-02
-1.678744036688573082e-02
-2.049038183623610315e-02
-2.387429623964185815e-02
-2.689250422250075157e-02
-2.950716611271611556e-02
-3.168638380007732930e-02
-3.341394814401956598e-02
-3.467733716106072978e-02
-3.547663522880670911e-02
-3.582043562840456913e-02
-3.572192649702587985e-02
-3.520497129356164878e-02
-3.429550228854134214e-02
-3.302464059819295444e-02
-3.142660299711639432e-02
-2.953585281956219027e-02
-2.738728792930746753e-02
-2.501547930103051320e-02
-2.245157649564788471e-02
-1.972489970841258267e-02
-1.686193701553947294e-02
-1.388391944051668540e-02
-1.081085798080658709e-02
-7.657799669028639636e-03
-4.437466849040330383e-03
-1.161207536292445386e-03
2.161876565240676389e-03
5.522680148096042671e-03
8.910675643850111960e-03
1.231469337456298982e-02
1.572042058243898130e-02
1.910895684124913618e-02
2.245972277830731584e-02
2.574453962775687804e-02
2.893238858958041559e-02
3.198772726001074262e-02
3.486916178147436013e-02
3.753420684458166207e-02
3.993684664718157029e-02
4.203001672551744811e-02
4.376839180811045033e-02
4.510864463197791774e-02
4.600976156662307803e-02
4.644038040380771976e-02
4.637224811253146117e-02
4.578824766218417969e-02
4.468261567814942048e-02
4.305500159513567932e-02
4.092377741630848220e-02
3.831247832741448145e-02
3.525806116683595504e-02
3.180963138319663208e-02
2.802056556938425924e-02
2.395701602688836418e-02
1.968804317916469926e-02
1.528669133888179744e-02
1.082920355810699543e-02
6.390658798535852475e-03
2.042480304483267322e-03
-2.145270383212491590e-03
-6.111866652129779517e-03
-9.803244391481339554e-03
-1.317148777021623536e-02
-1.618401952576244834e-02
-1.881196985885861400e-02
-2.104105913387548793e-02
-2.286623849200996456e-02
-2.428860881574264330e-02
-2.532274880969878628e-02
-2.598590850556820736e-02
-2.630336549546746089e-02
-2.630488323211326029e-02
-2.602136378992592897e-02
-2.548586415647490638e-02
-2.473126894986182878e-02
-2.378695609001738737e-02
-2.268053042955892051e-02
-2.143560398844029935e-02
-2.006884065836268133e-02
-1.859504917226392773e-02
-1.702081391585741343e-02
-1.534909658593573874e-02
-1.357936504239539051e-02
-1.170571502054371972e-02
-9.721561589984779872e-03
-7.618957948593650664e-03
-5.389500919391228273e-03
-3.027497247589231756e-03
-5.309617178335685611e-04
2.100018423871642149e-03
4.855689400475405280e-03
7.722826213685940813e-03
1.067986923109019194e-02
1.369515059752330656e-02
1.673374104693959447e-02
1.974833570366641561e-02
2.268781572520745665e-02
2.549555728413863132e-02
2.810900993463349984e-02
3.046531561139451116e-02
3.250155792317034609e-02
3.415513559399040860e-02
3.537045274627190899e-02
3.609860974220144986e-02
3.629614123638996021e-02
3.593790685845750510e-02
3.500389827865147546e-02
3.349274182630044422e-02
3.141887748201287189e-02
2.880515193226138027e-02
2.569890457000229694e-02
2.215333625271464352e-02
1.823803098430238495e-02
1.403490910799028851e-02
9.630113154180284032e-03
5.120419643378339505e-03
6.043329394945580642e-04
-3.820343400331130575e-03
-8.056290392730805147e-03
-1.201117463990026245e-02
-1.560450994188077901e-02
-1.875934855274129925e-02
-2.141747693814007036e-02
-2.353180875969673735e-02
-2.506672799854871986e-02
-2.601034359774444249e-02
-2.635628785344220487e-02
-2.612063927960361909e-02
-2.533127092142444664e-02
-2.402554751994646215e-02
-2.225818172945929346e-02
-2.008708411808690641e-02
-1.758023204071396811e-02
-1.481023760326972798e-02
-1.185035735356139604e-02
-8.774860272272784825e-03
-5.657027151749836891e-03
-2.563024710200837927e-03
4.440077759482398585e-04
3.308608472074554569e-03
5.986402205647127842e-03
8.436512122538687708e-03
1.063309017587947894e-02
1.255584603371806204e-02
1.419327302251242352e-02
1.554511272142158375e-02
1.661389010692983920e-02
1.741229913338886853e-02
1.795631125804410602e-02
1.826558472799212629e-02
1.836396879961975370e-02
1.827576607880151277e-02
1.802625827081832943e-02
1.764091874504525662e-02
1.714350730286173796e-02
1.655605411723508683e-02
1.589940823876622930e-02
1.519024783780358566e-02
1.444409475013467767e-02
1.367319666195209067e-02
1.288686725806933997e-02
1.209332436625847572e-02
1.129751657575741967e-02
1.050362586553651306e-02
9.714354273188624198e-03
8.931226843214613159e-03
8.155482889364355087e-03
7.387632055453845388e-03
6.628038727666690950e-03
5.876875053479785858e-03
5.134177532343627698e-03
4.399931621188063816e-03
3.674001005298091482e-03
2.956225523106848461e-03
2.246390355131178823e-03
1.544246987900959808e-03
8.496354527383989143e-04
1.625935183164396204e-04
-5.167426299823871597e-04
-1.187555786261966853e-03
-1.848647147979668587e-03
-2.498105215195236227e-03
-3.132632071235445272e-03
-3.748510555261366436e-03
-4.339918566179106971e-03
-4.899992222210228232e-03
-5.420493572599750787e-03
-5.890823046369725660e-03
-6.299843832924463191e-03
-6.634291280661022694e-03
-6.879981656967822448e-03
-7.022328102665016669e-03
-7.046133036454819629e-03
-6.936432903682249879e-03
-6.680002934002893245e-03
-6.264339560689481667e-03
-5.679793405392454669e-03
-4.920578006786918354e-03
-3.982528742781593981e-03
-2.868612283785335927e-03
-1.584315421356495904e-03
-1.406847014503217336e-04
1.444558088848699965e-03
3.151551412107271317e-03
4.952390746939403648e-03
6.816704236302846900e-03
8.710213709085257161e-03
1.059447743700918376e-02
1.243050009734242463e-02
1.417787510795623894e-02
1.579597492054678198e-02
1.724695962957055462e-02
1.849562739379182613e-02
1.950936707089324929e-02
2.026428857431325503e-02
2.073896790893356434e-02
2.092149479525882289e-02
2.080795189731293043e-02
2.039892300219742216e-02
1.970802026366350046e-02
1.875199060561521386e-02
1.755682336305525518e-02
1.615539784404150872e-02
1.458324286714909879e-02
1.288255285931119015e-02
1.109668129497248107e-02
9.269619037591079330e-03
7.445769516534772939e-03
5.667291333965679412e-03
3.971039917732772581e-03
2.392201474391180468e-03
9.567234281934568554e-04
-3.148795332904141125e-04
-1.407775558940084319e-03
-2.318768877387802733e-03
-3.047294331899464380e-03
-3.603130922797629504e-03
-4.001430238302397177e-03
-4.260959961386572709e-03
-4.407017177284569889e-03
-4.465789321431856349e-03
-4.464921524765711955e-03
-4.432687605818462495e-03
-4.395077474372649506e-03
-4.374384871619200685e-03
-4.391278778255945994e-03
-4.458054719955644937e-03
-4.583533856911100116e-03
-4.770270763897658736e-03
-5.011865782288441387e-03
-5.299538851258516273e-03
-5.614968608580189410e-03
-5.936388693775312281e-03
-6.238268653330629118e-03
-6.490307435492960117e-03
-6.661826082820357375e-03
-6.721800265864259424e-03
-6.639232785961030753e-03
-6.386949603717427884e-03
-5.942080361675835740e-03
-5.284441389309961837e-03
-4.404365629354785663e-03
-3.295407978712004866e-03
-1.960517825995246322e-03
-4.120323264050719178e-04
1.333905540756155812e-03
3.248469182799468627e-03
5.299489235577662521e-03
7.447609423848738225e-03
9.647097807781924994e-03
1.185079894033716670e-02
1.400763992828859932e-02
1.606588855645778302e-02
1.797593507141280814e-02
1.968984367238199584e-02
2.116276273445256290e-02
2.235850038699261494e-02
2.324324417633423512e-02
2.379416368652764041e-02
2.399610716422147239e-02
2.383969411598799160e-02
2.332957257026209430e-02
2.247358241302094273e-02
2.129093837321848620e-02
1.980790365217252602e-02
1.805478565352006820e-02
1.607054601822836132e-02
1.389568652491075980e-02
1.157436018342407162e-02
9.152709629235453864e-03
6.676339468978309197e-03
4.189773789944629609e-03
1.736794549904035773e-03
-6.437883594196929654e-04
-2.915610582475264105e-03
-5.046279830416621620e-03
-7.010167637553559733e-03
-8.783382277073736519e-03
-1.034948892562324342e-02
-1.169527809336611511e-02
-1.281110908073290235e-02
-1.369272194590490967e-02
-1.433695171795634944e-02
-1.474452839798965319e-02
-1.491765918299910697e-02
-1.485969514572547771e-02
-1.457551723362179343e-02
-1.407023857384257122e-02
-1.334962651828538148e-02
-1.241967641044714084e-02
-1.128685797156550250e-02
-9.958204773860787964e-03
-8.441218404375300938e-03
-6.745383604934662020e-03
-4.880858664785410819e-03
-2.860567214196388548e-03
-7.003509929754221305e-04
1.582362650899873414e-03
3.964399990275785379e-03
6.420929901279731969e-03
8.922399315665734132e-03
1.143483141837273176e-02
1.392261835135678513e-02
1.634508921309561075e-02
1.866039507319560212e-02
2.082531079835762966e-02
2.279546760409378869e-02
2.452746739089586153e-02
2.598095750608289678e-02
2.711665274293264399e-02
2.790219005136578001e-02
2.831032013434190558e-02
2.831867223005512385e-02
2.791750077115758705e-02
2.710024967868072954e-02
2.587360612261754150e-02
2.425293417578211486e-02
2.225985781799580399e-02
1.993023359789407312e-02
1.730293984774048527e-02
1.442690774854717660e-02
1.135689593766670349e-02
8.150145428128096475e-03
4.868842061085213238e-03
1.575613810289465747e-03
-1.668325294841198347e-03
-4.802523419729080867e-03
-7.770371664151263374e-03
-1.052220272649138921e-02
-1.301060149454467789e-02
-1.519944208254827601e-02
-1.705778880063849035e-02
-1.856212995481787420e-02
-1.970078893736693093e-02
-2.046505035271867917e-02
-2.085839318516560098e-02
-2.088923307075296609e-02
-2.057155972505552571e-02
-1.992724104137794799e-02
-1.897962998016532871e-02
-1.775702731697996473e-02
-1.628946030625202934e-02
-1.460739829785753612e-02
-1.274186374424850395e-02
-1.072342448263464108e-02
-8.580271416944330182e-03
-6.339789116372531591e-03
-4.026931776718487357e-03
-1.663945322096955885e-03
7.277685490419205996e-04
3.129778972297328748e-03
5.524480788417700065e-03
7.895175282121909971e-03
1.022606047640633661e-02
1.250118684278116697e-02
1.470391934291663018e-02
1.681738094072666306e-02
1.882315011844723496e-02
2.070144879469964366e-02
2.243180289900586349e-02
2.399164501880412387e-02
2.535795394264800384e-02
2.650720363874611851e-02
2.741547564793875985e-02
2.805962758151732406e-02
2.841873317313179520e-02
2.847263767811275548e-02
2.820609304592860272e-02
2.760725047597559906e-02
2.666783843859981545e-02
2.538825896064812737e-02
2.377110365447426821e-02
2.182841307525273250e-02
1.957803074541198882e-02
1.704249604708354612e-02
1.425437158480565361e-02
1.124838167236564927e-02
8.067067983445891377e-03
4.757218691585137806e-03
1.368107730789743740e-03
-2.046309347755507178e-03
-5.431459396783909141e-03
-8.732064516994013023e-03
-1.189253652254296766e-02
-1.485926029600245606e-02
-1.758196226176360344e-02
-2.001177993229914798e-02
-2.210731248348633826e-02
-2.383040058057910027e-02
-2.514900887743221763e-02
-2.604025453750644786e-02
-2.648403239444380164e-02
-2.647228914769015479e-02
-2.600159640774202252e-02
-2.507621298191943515e-02
-2.371058773506536099e-02
-2.192203554975062640e-02
-1.973905612398972609e-02
-1.719393997040080668e-02
-1.432484567013688793e-02
-1.117683638525572218e-02
-7.796611048973427910e-03
-4.236454076900004334e-03
-5.502736318809221469e-04
3.206735367009898221e-03
6.978033797117657276e-03
1.070750261250055443e-02
1.434092092980192475e-02
1.782472578911400291e-02
2.110922302006430079e-02
2.414830685367742175e-02
2.689828816402776296e-02
2.932329480543972161e-02
3.138959224643391582e-02
3.307114879205633184e-02
3.434827572885860991e-02
3.520507433701129674e-02
3.563643137247491516e-02
3.563990421047340262e-02
3.522218105000832905e-02
3.439662325445964203e-02
3.318046671055004809e-02
3.160071372870194850e-02
2.968652627932474170e-02
2.747380202263758481e-02
2.500280241708417728e-02
2.231572138154638146e-02
1.945903682221318889e-02
1.647986147084409131e-02
1.342564127222035594e-02
1.034400014256934078e-02
7.280763148651950983e-03
4.278101688131433211e-03
1.376930379664407286e-03
-1.388761272668951295e-03
-3.988532836968830542e-03
-6.396687773014041525e-03
-8.595973946887606326e-03
-1.057119123086607340e-02
-1.231574921468461641e-02
-1.382694655907493013e-02
-1.510582510070848476e-02
-1.615932449243374230e-02
-1.699541847231612196e-02
-1.762532960479789440e-02
-1.806154805293033738e-02
-1.831645370604598894e-02
-1.840226773829582024e-02
-1.833068257926580985e-02
-1.811054237320438437e-02
-1.774964118846767552e-02
-1.725315172562696259e-02
-1.662298881676925466e-02
-1.586013656891389900e-02
-1.496209077945819498e-02
-1.392527297539955695e-02
-1.274529085768613158e-02
-1.141685447118887843e-02
-9.935172347886518998e-03
-8.297731373320979195e-03
-6.502807868469613270e-03
-4.552975635687191158e-03
-2.455017574518985647e-03
-2.182404388038341678e-04
2.139486103254437891e-03
4.597946310986281322e-03
7.129786864052290590e-03
9.701448138218502285e-03
1.227680516133931345e-02
1.481222149016271465e-02
1.726238369170602499e-02
1.957920188798526612e-02
2.171244570628275833e-02
2.361271894651698067e-02
2.523310405802715178e-02
2.652772742129935052e-02
2.745846921394524964e-02
2.799252875532133589e-02
2.810306942162028865e-02
2.777758126591529930e-02
2.700718663669993136e-02
2.579884987463122031e-02
2.416916619612224232e-02
2.214250057632555224e-02
1.975963316479844439e-02
1.706478793668804450e-02
1.411418965740430034e-02
1.097050850390582019e-02
7.699448610430684528e-03
4.372349040237494960e-03
1.060943295893105980e-03
-2.164868770155047722e-03
-5.236118978837106530e-03
-8.088830779711573063e-03
-1.066737681092251588e-02
-1.291903320250787669e-02
-1.480535265924287809e-02
-1.629399676104344163e-02
-1.736253574713796793e-02
-1.800319515647309104e-02
-1.821211185987873377e-02
-1.800144096007066929e-02
-1.738936591335829562e-02
-1.640192514412789487e-02
-1.507546277446511658e-02
-1.344843324574710765e-02
-1.156649753509362590e-02
-9.477643743841652341e-03
-7.230815775808849266e-03
-4.876070087628034747e-03
-2.462710456448911553e-03
-3.640949803088329439e-05
2.358378959946368439e-03
4.682298791043407529e-03
6.901266269644334289e-03
8.983755574649922651e-03
1.090722818373873401e-02
1.265166683958569155e-02
1.420379569314316262e-02
1.555652907164124972e-02
1.670523156382482458e-02
1.765279147485012551e-02
1.840393923329202222e-02
1.896749131311731285e-02
1.935559441584917134e-02
1.958130391811185519e-02
1.966007885230138669e-02
1.960781058340955313e-02
1.944024732325253663e-02
1.917303197585351615e-02
1.882092646930407648e-02
1.839641292297252220e-02
1.791131986644432794e-02
1.737415571353329025e-02
1.679129579630686889e-02
1.616725847922121512e-02
1.550240882043909738e-02
1.479620072042244980e-02
1.404480412439688443e-02
1.324252407868371784e-02
1.238286307383313842e-02
1.145775524412408382e-02
1.045907589027938317e-02
9.379780443549701197e-03
8.213387956584529415e-03
6.955535488826207480e-03
5.605605324295669795e-03
4.164207299480288289e-03
2.638057952234837064e-03
1.036625421614196900e-03
-6.266596597465576290e-04
-2.332176523237350189e-03
-4.058840405291535766e-03
-5.779776428344726366e-03
-7.465831713192330743e-03
-9.086065664864272085e-03
-1.060706335480222397e-02
-1.199543125673093076e-02
-1.321888526472096877e-02
-1.424561672348046391e-02
-1.504725764312509796e-02
-1.559967420505353232e-02
-1.588082330479143045e-02
-1.587734082706795252e-02
-1.557870055426091409e-02
-1.498163821133764555e-02
-1.409082085868786603e-02
-1.291390564702877934e-02
-1.146924865034099246e-02
-9.778277156405383586e-03
-7.869098093374023509e-03
-5.776295265240470947e-03
-3.536418974427335202e-03
-1.192150299459404650e-03
1.212359201177455863e-03
3.631370457076722041e-03
6.017778345074758367e-03
8.325206053577506940e-03
1.050971047557811879e-02
1.252818791442289297e-02
1.434288003358916500e-02
1.592011494645791114e-02
1.722972958416936831e-02
1.825094575937756189e-02
1.896533619109896582e-02
1.936376405182164973e-02
1.944339343007497889e-02
1.920568768367687459e-02
1.866221740000745949e-02
1.782676421337646769e-02
1.672062640559327309e-02
1.536961902732418041e-02
1.380205294749852103e-02
1.205141754236063907e-02
1.015209749302245154e-02
8.140569237675898337e-03
6.054414174251140576e-03
3.930998636213553846e-03
1.807266732152160160e-03
-2.801699570041437173e-04
-2.296914543784322853e-03
-4.209628652117488462e-03
-5.986796381149617902e-03
-7.599912195041975960e-03
-9.021325917626285898e-03
-1.022721701011516590e-02
-1.119538593288812653e-02
-1.190620076111849161e-02
-1.234378877904849549e-02
-1.249343771138120875e-02
-1.234543317665055644e-02
-1.189195747787159634e-02
-1.112898760305870011e-02
-1.005743115072735977e-02
-8.679971413853461784e-03
-7.006594568146467042e-03
-5.049776663320655959e-03
-2.827709843866290512e-03
-3.651789062972957481e-04
2.310601465711751949e-03
5.163331409613954037e-03
8.153970049035754591e-03
1.123766606429333487e-02
1.436361862737731490e-02
1.747937978118276753e-02
2.052721485146064007e-02
2.344810413196720539e-02
2.618270163451105054e-02
2.867136507907488280e-02
3.085614104673421731e-02
3.268476916366695739e-02
3.410677252818531541e-02
3.508120250358565118e-02
3.557480170391923158e-02
3.556026684676907856e-02
3.502708791182947146e-02
3.396902135693827263e-02
3.239605804071320899e-02
3.032981769030894392e-02
2.779917652961306357e-02
2.485098564108439989e-02
2.153600789238183794e-02
1.791712969021991980e-02
1.406493120017374490e-02
1.005292337642819944e-02
5.960950356997660182e-03
1.869555936016318014e-03
-2.142335686248266098e-03
-5.996741935389503578e-03
-9.620185903219165974e-03
-1.294811889423259053e-02
-1.591878339650647928e-02
-1.848482369616155641e-02
-2.060611598379501891e-02
-2.225209964799207407e-02
-2.340889186059293831e-02
-2.406680280199472582e-02
-2.423406034441467211e-02
-2.392684340351169253e-02
-2.317038205040505838e-02
-2.200389268783965735e-02
-2.046957290817962016e-02
-1.862062854566332720e-02
-1.651454218858868644e-02
-1.421178341147009798e-02
-1.177691361893790957e-02
-9.274463644103196278e-03
-6.767200801317015471e-03
-4.317152857814157696e-03
-1.981316756663790979e-03
1.894394769374513517e-04
2.147211640539113502e-03
3.856248191084702369e-03
5.284733690925655890e-03
6.410914784399297447e-03
7.223917942147576807e-03
7.717023011914719149e-03
7.898267010589207077e-03
7.779897220446361714e-03
7.383595443889832619e-03
6.740100265804144057e-03
5.883106210223592800e-03
4.855541840362699244e-03
3.702590480814379591e-03
2.472907557375978588e-03
1.218106865604343461e-03
-1.036764436796247524e-05
-1.161895340276278103e-03
-2.186358015527143164e-03
-3.038626672581253713e-03
-3.677349558294164267e-03
-4.065173132773800685e-03
-4.175385770677345065e-03
-3.984079982054893748e-03
-3.479690183953037391e-03
-2.658940352049014334e-03
-1.525185635993419470e-03
-9.727567487003308672e-05
1.602385410658642081e-03
3.538023610854952074e-03
5.665908912554784224e-03
7.937301418969127526e-03
1.029313853919400570e-02
1.267260709752575723e-02
1.501093460209878411e-02
1.724129359207435264e-02
1.929875186313894514e-02
2.112192803307588046e-02
2.265131943346278265e-02
2.383883878685600505e-02
2.464181032632145607e-02
2.502754334582754647e-02
2.497967646361284877e-02
2.448653974685102014e-02
2.355746551478751782e-02
2.221054852201673896e-02
2.047590806322477364e-02
1.840108645795039688e-02
1.603758363879243670e-02
1.345175224596245958e-02
1.071533603279823006e-02
7.904017267527022397e-03
5.098539075485273436e-03
2.379184181210884739e-03
-1.777286064946308197e-04
-2.497420173112834159e-03
-4.514138284636832338e-03
-6.172438697452091450e-03
-7.422079518321926875e-03
-8.233006318485844646e-03
-8.581349497048891897e-03
-8.459635503017105471e-03
-7.877011666651060479e-03
-6.848983865688560227e-03
-5.412375355757151688e-03
-3.609687499896618336e-03
-1.495354313401588489e-03
8.654513726313417359e-04
3.404873011819258347e-03
6.047435507058393847e-03
8.716151738723103629e-03
1.133502942382810796e-02
1.382887371883275048e-02
1.612565461065430458e-02
1.816244174331865802e-02
1.987889898148027107e-02
2.122735339601946464e-02
2.216911570523846103e-02
2.267272268986494227e-02
2.272456955490469860e-02
2.231531397270346273e-02
2.145207738364916100e-02
2.015233874096134664e-02
1.844082056059173289e-02
1.635804669850805110e-02
1.394782198994111953e-02
1.126485872715352228e-02
8.369938366352015074e-03
5.326649212537074018e-03
2.203968574201926184e-03
-9.286252131146498223e-04
-4.002693187999454422e-03
-6.950353169724289570e-03
-9.707737964139682291e-03
-1.221794060821855717e-02
-1.442654249448049007e-02
-1.629179323474583968e-02
-1.777755876369041532e-02
-1.885710010066197345e-02
-1.951806613397740614e-02
-1.975212342479992084e-02
-1.956805346014597186e-02
-1.898132768436928963e-02
-1.801681916306206027e-02
-1.671216965467588883e-02
-1.510794194366657343e-02
-1.325537913894574669e-02
-1.120934668524016520e-02
-9.027517929225679569e-03
-6.770950208733616735e-03
-4.500304535734443029e-03
-2.273470927970560294e-03
-1.472917979015928025e-04
1.827798130291681793e-03
3.608223538027549408e-03
5.154194769729659314e-03
6.439857551003217231e-03
7.443436730426404579e-03
8.154942664631729954e-03
8.575586432707484053e-03
8.711221903593416999e-03
8.582500458654957615e-03
8.213804890691994015e-03
7.637684389808389179e-03
6.893577447138771880e-03
6.022377408975336001e-03
5.068791724585891730e-03
4.078064687876830317e-03
3.092648618382242906e-03
2.152901117289756500e-03
1.295737548006216724e-03
5.489322383004937266e-04
-6.214395084300390615e-05
-5.227297219787142152e-04
-8.251156459234696219e-04
-9.665061202879078953e-04
-9.554313510615726826e-04
-8.027399720140354633e-04
-5.262609064403608872e-04
-1.479234048411296951e-04
3.095226425963637160e-04
8.217273556617248585e-04
1.364637718268421011e-03
1.918556923144784220e-03
2.466092500755930669e-03
2.994545989717128931e-03
3.499803621962089585e-03
3.980031888887042291e-03
4.443665107243403682e-03
4.903893112869909914e-03
5.378444929181824818e-03
5.892378380735067804e-03
6.471799246504681552e-03
7.145277722259156354e-03
7.942313970987342070e-03
8.889474867234025551e-03
1.000910783355831585e-02
1.132111296543083373e-02
1.283336581166504876e-02
1.454922144365474075e-02
1.646133967860603786e-02
1.854875937697432475e-02
2.078610129426416986e-02
2.313054559135577920e-02
2.553359291890846400e-02
2.793778460357548843e-02
3.027553477154718703e-02
3.247760073018878674e-02
3.446995281870057770e-02
3.617746189848865257e-02
3.752933404616707463e-02
3.845912618244471531e-02
3.890498994841783825e-02
3.882159739120694120e-02
3.816845971263108095e-02
3.692329798004333197e-02
3.508005858072092004e-02
3.264127159105666143e-02
2.963571186621824505e-02
2.609870586042843665e-02
2.208410442006590590e-02
1.766040821649951520e-02
1.290168397139794532e-02
7.896791177040018289e-03
2.737487898444398993e-03
-2.480974254524525961e-03
-7.660901805391884603e-03
-1.270717552459843004e-02
-1.753126505486725384e-02
-2.204688320157161679e-02
-2.618126908774603273e-02
-2.987010007992718652e-02
-3.305790220505801236e-02
-3.570844889631840519e-02
-3.779010631208767207e-02
-3.929026663242071726e-02
-4.020683101237507856e-02
-4.054633842437901925e-02
-4.033191394684548098e-02
-3.959003130886243338e-02
-3.835880616716225849e-02
-3.668202670526811426e-02
-3.460652749613985640e-02
-3.218431079433821396e-02
-2.946782743728770804e-02
-2.650910676784562492e-02
-2.335995000107881497e-02
-2.006939568871822510e-02
-1.668228625432975620e-02
-1.324201410100634031e-02
-9.785326231480937290e-03
-6.346393053949494698e-03
-2.955537361041235371e-03
3.620917083749838200e-04
3.582511128437674587e-03
6.685952071091219931e-03
9.654063918198372424e-03
1.246972989497427235e-02
1.511730554824719172e-02
1.758129257532636824e-02
1.984646642591997301e-02
2.189768390045183227e-02
2.371987924036626783e-02
2.529806875331189198e-02
2.661765694454138603e-02
2.766558276662529903e-02
2.842931479667869937e-02
2.889935134193010596e-02
2.906904143078899161e-02
2.893379667764425095e-02
2.849582810742543049e-02
2.775922093822359715e-02
2.673475400232414034e-02
2.543879745433830220e-02
2.389064476211750360e-02
2.211796484380875588e-02
2.015038579683746389e-02
1.802278545073979221e-02
1.577393201571494763e-02
1.344373630552961676e-02
1.107491035758332437e-02
8.710540684450068794e-03
6.392676950980913722e-03
4.162680643501711318e-03
2.059854917695915638e-03
1.187142255507762055e-04
-1.627605386247771464e-03
-3.152991706693621977e-03
-4.435439061983452447e-03
-5.457245650860632208e-03
-6.209470785593026315e-03
-6.685249135726087366e-03
-6.886334550332651877e-03
-6.818941360638680615e-03
-6.493257608869307945e-03
-5.926626921192166761e-03
-5.137847977577870290e-03
-4.150923306738369886e-03
-2.992228829273482771e-03
-1.689625620433113026e-03
-2.733421733573807369e-04
1.226170028965474501e-03
2.778399543724090898e-03
4.352837280324775571e-03
5.920233015145822536e-03
7.453127447883511891e-03
8.924851732885909217e-03
1.031240059151592413e-02
1.159412468859578188e-02
1.275130805945800042e-02
1.376893295403880217e-02
1.463321405541099726e-02
1.533522486377523857e-02
1.586762932928547504e-02
1.622625280815178511e-02
1.641045860204802531e-02
1.642076794814281010e-02
1.626183081959971938e-02
1.593949999582704169e-02
1.546203150653395822e-02
1.484006917217102831e-02
1.408494741351063416e-02
1.321018088396153783e-02
1.222981610088125920e-02
1.115839332276808218e-02
1.001088819000095151e-02
8.801966303799797428e-03
7.545241381289785609e-03
6.253984946608373910e-03
4.939478055448340114e-03
3.611442803534616313e-03
2.278483490975026678e-03
9.461572377006668630e-04
-3.806859193862524235e-04
-1.699401339227239738e-03
-3.008875578451003507e-03
-4.308432853784016636e-03
-5.598407601054169666e-03
-6.879187619585424782e-03
-8.150064051303673382e-03
-9.409646320406698378e-03
-1.065497999223411797e-02
-1.187971824832413127e-02
-1.307656448008214824e-02
-1.423355684514827739e-02
-1.533617958450034409e-02
-1.636743519723127260e-02
-1.730559993413935405e-02
-1.812802706669822822e-02
-1.880898776407646800e-02
-1.932127829573347666e-02
-1.963777251849263550e-02
-1.973149185282078999e-02
-1.957609233839531504e-02
-1.914950538441982653e-02
-1.843155186019804909e-02
-1.740691781268296351e-02
-1.606759575617518199e-02
-1.440805420320881609e-02
-1.243395535393552152e-02
-1.015528665117874929e-02
-7.589658381587453470e-03
-4.764829845072583031e-03
-1.711373507668726042e-03
1.529180636513260277e-03
4.911599294776331816e-03
8.385726771751098388e-03
1.189559084813871306e-02
1.538439217081586340e-02
1.879310705173781182e-02
2.206218714345246912e-02
2.513470888708164985e-02
2.795650274912193228e-02
3.047589060016189788e-02
3.265051471176858705e-02
3.444080938900103556e-02
3.581720989282059786e-02
3.675946742487375130e-02
3.725210384360057997e-02
3.729484763684256382e-02
3.689137151969689582e-02
3.605658818979071839e-02
3.481470478753091735e-02
3.319373934398889975e-02
3.123233852806481248e-02
2.897146434229682516e-02
2.645658997782180527e-02
2.373649625141652231e-02
2.085999990512291125e-02
1.787581184705077861e-02
1.483229614842013558e-02
1.177394934314473368e-02
8.742744632347618922e-03
5.777840849537512619e-03
2.911981063410493554e-03
1.764035774296560631e-04
-2.403637098651450858e-03
-4.806340993365049163e-03
-7.012272433372716135e-03
-9.006730255039051627e-03
-1.077591435458775775e-02
-1.230880092957364370e-02
-1.359578316791457998e-02
-1.462804677270453969e-02
-1.539818276110862909e-02
-1.589912644851004808e-02
-1.612526814165713557e-02
-1.607167552029289959e-02
-1.573515937070749798e-02
-1.511529722141532854e-02
-1.421283344809744741e-02
-1.303438249780536871e-02
-1.158897918524469557e-02
-9.891050639690666946e-03
-7.962609497414722959e-03
-5.828178304392486742e-03
-3.523019680068443897e-03
-1.086277967494070178e-03
1.436329788768826807e-03
3.990884030755170210e-03
6.521572946294091483e-03
8.965949634409518809e-03
1.125956693129004371e-02
1.333788978564479435e-02
1.513628620705455632e-02
1.659212154639926745e-02
1.765117698607552091e-02
1.826200777416175577e-02
1.838575121270630275e-02
1.799592098923403355e-02
1.707324316119351176e-02
1.562296646448490568e-02
1.365712265246116566e-02
1.120899412041537896e-02
8.330421197206323500e-03
5.081676990060593653e-03
1.548026078548213596e-03
-2.179398022847881498e-03
-5.996167058054734794e-03
-9.787551901786199771e-03
-1.343757822857479141e-02
-1.682753774804969515e-02
-1.983913119966782684e-02
-2.236526101303672881e-02
-2.430655456396531994e-02
-2.557484725344673360e-02
-2.610912871417228609e-02
-2.585562494463488487e-02
-2.479431436048255138e-02
-2.292579291382982470e-02
-2.026891741334978236e-02
-1.688135491360884255e-02
-1.282934766396535108e-02
-8.211393198753210929e-03
-3.143412078762511212e-03
2.247978567150812727e-03
7.816114619348462147e-03
1.341169256396520897e-02
1.888232241660019878e-02
2.407426630299068504e-02
2.884243122208416527e-02
3.305627789925155019e-02
3.659133375970851504e-02
3.935493418753029798e-02
4.126813249854523885e-02
4.227676810696660153e-02
4.236350711129364954e-02
4.152144059817194227e-02
3.978753076706691844e-02
3.721536417620535664e-02
3.388175927405290971e-02
2.989414857103386142e-02
2.536653841103643503e-02
2.043594694777465387e-02
1.524686251401779352e-02
9.946962083385971903e-03
4.687650190443282475e-03
-3.825153699406128038e-04
-5.128663962889769973e-03
-9.420573141788752408e-03
-1.314826006338769109e-02
-1.622276535825364213e-02
-1.856573022114940685e-02
-2.013634626737930561e-02
-2.090442647425987122e-02
-2.086899303609910522e-02
-2.005600463148298623e-02
-1.850223719957874713e-02
-1.627786637113948220e-02
-1.346124793559961598e-02
-1.014846170950501822e-02
-6.450094959328089156e-03
-2.479948940261952547e-03
1.639880370353911845e-03
5.786109523198390212e-03
9.840233921158576813e-03
1.368723087059891923e-02
1.721867432573715578e-02
2.034313204012801884e-02
2.297377506606083225e-02
2.504540118151275807e-02
2.650676168395157267e-02
2.731844524130275925e-02
2.746761960461521074e-02
2.694756050950254667e-02
2.577521577829523791e-02
2.398106604023704513e-02
2.160562322105170213e-02
1.870931192361516976e-02
1.535651605650463492e-02
1.162483737600237751e-02
7.598548151255020769e-03
3.365117682571700918e-03
-9.823843030278113855e-04
-5.350511152210839921e-03
-9.647274772412190585e-03
-1.378140469583179033e-02
-1.766617971763060485e-02
-2.122203338672823403e-02
-2.437212785119463598e-02
-2.705285922462333237e-02
-2.920599382491424756e-02
-3.078380724822288306e-02
-3.175320795047704980e-02
-3.208579137621542926e-02
-3.177286925689194741e-02
-3.081284194041404578e-02
-2.921725787369549437e-02
-2.701391052755269112e-02
-2.423552193566839985e-02
-2.093350687464471532e-02
-1.716521257899228381e-02
-1.299810007485563933e-02
-8.510723713058186701e-03
-3.784298974381300647e-03
1.091256500703892494e-03
6.023725658623375195e-03
1.092001876204968386e-02
1.568619630577654939e-02
2.023017915247280613e-02
2.446675691992374058e-02
2.831289220176923943e-02
3.169662455556229719e-02
3.455557113116223406e-02
3.683394680024087292e-02
3.849584455834118013e-02
3.951051922961271168e-02
3.986567026419959858e-02
3.956315311168877302e-02
3.861299302161480540e-02
3.704683691238325194e-02
3.490127882247693464e-02
3.222835303982533872e-02
2.909060429269236941e-02
2.555555975876782487e-02
2.170236220805920463e-02
1.761227789065623883e-02
1.337074421024328844e-02
9.065701385087991671e-03
4.783912132634368305e-03
6.095499091975618844e-04
-3.374500799024164437e-03
-7.094006200677627216e-03
-1.047939718142045472e-02
-1.346827280981473772e-02
-1.601165533344910824e-02
-1.806421140937375380e-02
-1.959741033789714343e-02
-2.059073333700488923e-02
-2.103363857035712298e-02
-2.093211521100084294e-02
-2.029618312172507683e-02
-1.915245770816363657e-02
-1.753454710399667688e-02
-1.548396155405803477e-02
-1.305382169327571305e-02
-1.029961736159600884e-02
-7.285230152195778727e-03
-4.077618362237545382e-03
-7.453596034229957243e-04
2.640859424423202921e-03
6.010869102932262821e-03
9.297846033422114270e-03
1.243621400583668109e-02
1.536612023037919363e-02
1.803434206592269273e-02
2.039085938807923964e-02
2.239817959604138015e-02
2.402270803912143898e-02
2.524137817478756818e-02
2.604195004501493049e-02
2.641663462816221802e-02
2.637290380366030806e-02
2.592242771814882996e-02
2.508706295420705390e-02
2.389796603327754010e-02
2.238952598197194860e-02
2.060586409475267250e-02
1.859336037737112715e-02
1.640184444332198899e-02
1.408394021934458902e-02
1.169174281934266466e-02
9.275554767837108222e-03
6.884883654549176640e-03
4.562926814388124780e-03
2.348338179453231950e-03
2.752471051787378463e-04
-1.633626529531797753e-03
-3.358379611174773863e-03
-4.890552898559634085e-03
-6.228990696106776609e-03
-7.377420219222300887e-03
-8.350364203969050728e-03
-9.164429180492447355e-03
-9.842029819554494116e-03
-1.040884865766472829e-02
-1.089049728657771887e-02
-1.131237291004238976e-02
-1.169909101235300057e-02
-1.206896374692028630e-02
-1.243710625954429390e-02
-1.281286225548417153e-02
-1.319545131151201624e-02
-1.358141848175201637e-02
-1.395548805610855557e-02
-1.429712435812389125e-02
-1.458032548641056102e-02
-1.477060922428879465e-02
-1.483212959714474109e-02
-1.472512209254013375e-02
-1.440836649166636792e-02
-1.384286538155497272e-02
-1.299269263914547452e-02
-1.182427749691997328e-02
-1.031557703663064582e-02
-8.448767199120450419e-03
-6.217578241523285393e-03
-3.629875347661382610e-03
-6.987436157696079800e-04
2.542202277467028437e-03
6.052826292751849538e-03
9.780075805342628575e-03
1.365687188500720566e-02
1.761240162437753554e-02
2.156340943305275204e-02
2.542334649630646759e-02
2.910352188356248732e-02
3.251317957566070282e-02
3.556366083704937120e-02
3.817412056667235376e-02
4.026623367254660718e-02
4.177528034953433000e-02
4.264818708587631707e-02
4.283996559017663047e-02
4.232974618920812976e-02
4.110284766956723984e-02
3.916634871137424090e-02
3.654386063554273395e-02
3.326819577507920261e-02
2.939623253553440285e-02
2.499022457215094306e-02
2.012835251492225974e-02
1.489952721297508643e-02
9.397104110713018488e-03
3.724638363770446225e-03
-2.012667108998608852e-03
-7.708070705522767838e-03
-1.325393270098178776e-02
-1.854564379257309797e-02
-2.348502610456833228e-02
-2.797620051572494854e-02
-3.193652337459347568e-02
-3.529040918154320583e-02
-3.797232168130666718e-02
-3.993534143909890227e-02
-4.113753890238784627e-02
-4.155970708415455961e-02
-4.119336418778739989e-02
-4.004341075322982724e-02
-3.813669707762123301e-02
-3.550541208844618796e-02
-3.220361264651384892e-02
-2.829447295144404961e-02
-2.385136857370121627e-02
-1.896251323814267253e-02
-1.371902100406052934e-02
-8.221966512762008891e-03
-2.576009501752267103e-03
3.113342980091623156e-03
8.739494410392050633e-03
1.419731081783417136e-02
1.938935960288729055e-02
2.422097498184326569e-02
2.860812865678889760e-02
3.247899158988554885e-02
3.576738750763494568e-02
3.842892530637512238e-02
4.042590051695551384e-02
4.173803810683754389e-02
4.236280763282307404e-02
4.230459869598382494e-02
4.159115096469297862e-02
4.025649720958381778e-02
3.834872448311867077e-02
3.592862270723209961e-02
3.306077848964930621e-02
2.982089215403842947e-02
2.628710073023102917e-02
2.253957731146353366e-02
1.866012634611292909e-02
1.472878007239295482e-02
1.082028073584928411e-02
7.007718195843721035e-03
3.354917211989762778e-03
-8.089911831823948241e-05
-3.247954642712317340e-03
-6.108003761714496035e-03
-8.626017938943067107e-03
-1.077925385634899424e-02
-1.255273040847339726e-02
-1.393684771106319491e-02
-1.493379340645639534e-02
-1.554827472234185208e-02
-1.579379139954507211e-02
-1.568876480708975701e-02
-1.525486294074438094e-02
-1.452005809994460876e-02
-1.351352641069110579e-02
-1.226827175398348575e-02
-1.081919053163258627e-02
-9.202147103265069170e-03
-7.454670046915395226e-03
-5.614460074271521162e-03
-3.719253810568722875e-03
-1.806787849683496108e-03
8.612197579375199114e-05
1.924079447834793535e-03
3.672376210396557147e-03
5.299789715033064938e-03
6.776503636549089174e-03
8.076268228828620277e-03
9.177701573490867556e-03
1.006130052284055776e-02
1.071573333431198247e-02
1.113258082328431528e-02
1.130986740672980731e-02
1.125342087775014870e-02
1.097168302975031970e-02
1.048308671576435661e-02
9.809182260939514411e-03
8.977086859873046470e-03
8.019902457607700624e-03
6.972036509805257937e-03
5.871997218620373868e-03
4.759300273118434281e-03
3.672761806487477576e-03
2.650530158302497746e-03
1.729083415568769683e-03
9.390793241817649815e-04
3.094726373665699845e-04
-1.379906970981614744e-04
-3.876736169333098309e-04
-4.274953283861463588e-04
-2.557780935456078000e-04
1.266142741159215213e-04
7.110760489578804404e-04
1.483179354939566721e-03
2.425890791510047599e-03
3.515505319995958049e-03
4.726953900647619736e-03
6.032183695418617646e-03
7.401154208535510107e-03
8.803645246162204036e-03
1.020909515587302939e-02
1.158706640248939601e-02
1.290891269439364830e-02
1.414705282934582663e-02
1.527543656046024233e-02
1.627118690534628404e-02
1.711222444094558093e-02
1.777999139387939631e-02
1.825778142709858290e-02
1.853074663121698912e-02
1.858743810042628661e-02
1.841723509824850363e-02
1.801302154785432846e-02
1.736932285877500551e-02
1.648298734494570150e-02
1.535463678680970730e-02
1.398606725631655612e-02
1.238450465811933784e-02
1.055944873770884099e-02
8.524570162735729817e-03
6.299551410934686908e-03
3.905896938729635105e-03
1.372824936520369420e-03
-1.267603222206802396e-03
-3.979021186249927927e-03
-6.719557787647245303e-03
-9.446218031650731664e-03
-1.211221677063171499e-02
-1.466961255658611775e-02
-1.707094735865506002e-02
-1.926931242602291511e-02
-2.121914279455994201e-02
-2.288055363446947488e-02
-2.421549898104891074e-02
-2.519303614219554899e-02
-2.578938194858452354e-02
-2.598439624246203644e-02
-2.577048116502815567e-02
-2.514351871202837041e-02
-2.410935564121115954e-02
-2.268275556879956190e-02
-2.088235676741566349e-02
-1.873851033301296432e-02
-1.628442638818016625e-02
-1.356043204026666053e-02
-1.061250689938078064e-02
-7.488535721421002087e-03
-4.241436580892102987e-03
-9.250833243708827397e-04
2.405913740209252374e-03
5.696429183308397357e-03
8.892652261698467606e-03
1.194411529548466792e-02
1.480146190592044643e-02
1.742191173924260289e-02
1.976680647225981940e-02
2.180220054718348677e-02
2.350445758549477016e-02
2.485255944095900865e-02
2.583716510020119678e-02
2.645541919967742822e-02
2.671071912682831950e-02
2.661854377037815855e-02
2.619706303059220892e-02
2.547495697398050735e-02
2.448606402677282190e-02
2.326815169169425823e-02
2.186570553880696349e-02
2.032419914773217484e-02
1.869136811267826243e-02
1.701588263888266506e-02
1.534448514439002396e-02
1.372097077727560399e-02
1.218748750330436378e-02
1.077767903040617592e-02
9.521819566613663050e-03
8.442779758677746577e-03
7.553428240487856243e-03
6.863543538082753429e-03
6.370323854362646386e-03
6.066625656715726907e-03
5.938709326879084913e-03
5.964928094683772525e-03
6.122068719763628514e-03
6.381857766077133481e-03
6.714589226337096609e-03
7.091134334951837773e-03
7.482978870403380819e-03
7.863085465461846710e-03
8.210224019331562734e-03
8.504918944563221242e-03
8.733895192668600024e-03
8.889736896380652509e-03
8.967509736449167518e-03
8.970163272313494418e-03
8.902586052579817763e-03
8.773335512660580815e-03
8.594046166324942684e-03
8.376469898273595366e-03
8.132426269980346997e-03
7.873504237371410641e-03
7.607830128558552146e-03
7.340950165374133390e-03
7.075948306491333488e-03
6.809478818749336443e-03
6.536687998541883954e-03
6.247418466201064974e-03
5.928012001285664148e-03
5.563467573350698407e-03
5.135772373333064370e-03
4.626622163946086247e-03
4.019146807241684438e-03
3.297332018337937112e-03
2.448162453265624941e-03
1.464806296406350340e-03
3.422803727257872283e-04
-9.149749496442840385e-04
-2.297609111038090117e-03
-3.790738467758462266e-03
-5.369452818352080797e-03
-7.006704249464781181e-03
-8.667417832474088105e-03
-1.031285064868929166e-02
-1.190259577217117441e-02
-1.339359056131820928e-02
-1.474308005696392358e-02
-1.591186976968759353e-02
-1.686230246559207446e-02
-1.756239901611943155e-02
-1.798828793863809644e-02
-1.811903767823640904e-02
-1.794676776836367366e-02
-1.746839923337666078e-02
-1.668953525429675566e-02
-1.562677121396311569e-02
-1.429966589623509095e-02
-1.273883883749575389e-02
-1.097844069173122168e-02
-9.056843346828130636e-03
-7.017162656749164132e-03
-4.902831356991328715e-03
-2.757557854856370477e-03
-6.249566316304097299e-04
1.455196395667290778e-03
3.446955656895795816e-03
5.317022190852629081e-03
7.041340992820725037e-03
8.598443142154400115e-03
9.974948235049031428e-03
1.116464148156802103e-02
1.216441139597170158e-02
1.298043468091970160e-02
1.362108853660306054e-02
1.409961813183999157e-02
1.443309554551042324e-02
1.463934539505599118e-02
1.473803996926242345e-02
1.474904819730214062e-02
1.469056052911234256e-02
1.457959310395957539e-02
1.443138283573065957e-02
1.425678758843797710e-02
1.406558086094665538e-02
1.386301606590007070e-02
1.365154896201613115e-02
1.343186636632014673e-02
1.320086589337231275e-02
1.295476765804045791e-02
1.268815823808744879e-02
1.239473525487522730e-02
1.206841835536738745e-02
1.170357365067110390e-02
1.129486631298893401e-02
1.083895215857010041e-02
1.033346393374578488e-02
9.777560843773559079e-03
9.172997222489213259e-03
8.522195311410001722e-03
7.830447597459273823e-03
7.104287526031104888e-03
6.351694332172145435e-03
5.582824326683151137e-03
4.808284263019546589e-03
4.040300859226316106e-03
3.291709464324050864e-03
2.575620000967033564e-03
1.905508530141162074e-03
1.294712291865297068e-03
7.557098861073266449e-04
3.006591570942507979e-04
-5.960655881040444193e-05
-3.158261949104306313e-04
-4.594530273544956966e-04
-4.847745643870643092e-04
-3.869760051643167040e-04
-1.635738591794135693e-04
1.854588125155204673e-04
6.591338415446196947e-04
1.252900719893553991e-03
1.961196189347785834e-03
2.775808148579662297e-03
3.686046474148275444e-03
4.680175688616929064e-03
5.743172114776553226e-03
6.859176177148372175e-03
8.010225933033441464e-03
9.176613539293224792e-03
1.033803225316605803e-02
1.147252424586061095e-02
1.255780676896334387e-02
1.357140050232026780e-02
1.449068245311187740e-02
1.529361279887047655e-02
1.595970511157376176e-02
1.646899337818738540e-02
1.680465366925366910e-02
1.695192092491470265e-02
1.689832992553040591e-02
1.663668187746532301e-02
1.616110902672955596e-02
1.547160635554144410e-02
1.457157248705803418e-02
1.346734278696340784e-02
1.217118085772579336e-02
1.069660452004257689e-02
9.061676230220755066e-03
7.286789479944079384e-03
5.393750683911917657e-03
3.406885165220916931e-03
1.350873832956129249e-03
-7.489286725458118438e-04
-2.866871254085373404e-03
-4.977696724072937229e-03
-7.056779286977617888e-03
-9.079754970210542758e-03
-1.102357558723879652e-02
-1.286573007617308577e-02
-1.458455674062954059e-02
-1.615959336329244461e-02
-1.757072083274840990e-02
-1.879922441844796011e-02
-1.982690737163615713e-02
-2.063673085815957708e-02
-2.121310752122252535e-02
-2.154113905857191202e-02
-2.160882052140263021e-02
-2.140513395923413636e-02
-2.092220559041495231e-02
-2.015566030901935757e-02
-1.910284794734355002e-02
-1.776763098365809201e-02
-1.615584587383168264e-02
-1.427906248781154845e-02
-1.215451467542450793e-02
-9.801915313237364452e-03
-7.249221782004121317e-03
-4.526584965076648967e-03
-1.669582414943843358e-03
1.281449040908069076e-03
4.284670174846796735e-03
7.293928959161324888e-03
1.026219478319416803e-02
1.314223430782678406e-02
1.588665835669757220e-02
1.844965689024022359e-02
2.078987418301830176e-02
2.286732983178213496e-02
2.464966548349783321e-02
2.610979363368801792e-02
2.722548020543944652e-02
2.798620906855698448e-02
2.838429594200975181e-02
2.842346655003859940e-02
2.811444025265320834e-02
2.747293306794289930e-02
2.652528533233632774e-02
2.529995494584878768e-02
2.383209090530644114e-02
2.216046288946778298e-02
2.032497268075500463e-02
1.836761979432128405e-02
1.633033309804764188e-02
1.425260739860744093e-02
1.217273725354275568e-02
1.012581830426602728e-02
8.141554231506548805e-03
6.248079947030809808e-03
4.466351592319759561e-03
2.814247279100457778e-03
1.305732379375143699e-03
-5.106188206320874667e-05
-1.249285691857410924e-03
-2.286860623529518750e-03
-3.163501187145832672e-03
-3.880520352279854743e-03
-4.441345244802158768e-03
-4.849713953319822676e-03
-5.110218608941986818e-03
-5.227729468891228332e-03
-5.207222150596692301e-03
-5.053795946879897222e-03
-4.772669636810212418e-03
-4.369567556839166339e-03
-3.850400187928905427e-03
-3.222173496400321073e-03
-2.493036271063809976e-03
-1.671882218485509601e-03
-7.703163016241684063e-04
1.992705157306626923e-04
1.222044542305114698e-03
2.280909718622969092e-03
3.357900293008924883e-03
4.432366792878720228e-03
5.483047318494616539e-03
6.488035601987197573e-03
7.424896200987586223e-03
8.271829541666969599e-03
9.008984334476447670e-03
9.617164365591446967e-03
1.008121094520735700e-02
1.038891382056283605e-02
1.053072966727736787e-02
1.050392570307303805e-02
1.030743193020967202e-02
9.946712763915649402e-03
9.431463183544104567e-03
8.774062231616325952e-03
7.992901221143098797e-03
7.107526193598022457e-03
6.140577268051277716e-03
5.116461507859496743e-03
4.059540183715719223e-03
2.994039892230272726e-03
1.943804311455728327e-03
9.295651891528958558e-04
-2.954400073471984828e-05
-9.170413476618814383e-04
-1.721163267222472829e-03
-2.431332226604497777e-03
-3.042068555141227461e-03
-3.550192091280241803e-03
-3.954746788465364482e-03
-4.258276001460836735e-03
-4.463928084660496315e-03
-4.576725386970683165e-03
-4.602419560413659877e-03
-4.546665384123106668e-03
-4.414979676180569301e-03
-4.212567231272322868e-03
-3.942972936732749845e-03
-3.609132931987525487e-03
-3.212541265554757185e-03
-2.752902346484518807e-03
-2.229459930954121559e-03
-1.639785981034500538e-03
-9.809520230965006193e-04
-2.500154778983260800e-04
5.559816741767891445e-04
1.439450683497875156e-03
2.400516572083120567e-03
3.438561241879770254e-03
4.549727575267825501e-03
5.726990601063502301e-03
6.961648491818222401e-03
8.239374886187715921e-03
9.544340242539105235e-03
1.085668269945396121e-02
1.215303933723703954e-02
1.340891989304343786e-02
1.459661941963411209e-02
1.568779392470685818e-02
1.665407580478364680e-02
1.746708095162213814e-02
1.809970927113482148e-02
1.852843420552755666e-02
1.873080907902172076e-02
1.869021189915675424e-02
1.839400797505141155e-02
1.783312892791934223e-02
1.700702240392280504e-02
1.591716144911132017e-02
1.457301669541988774e-02
1.298891124855160867e-02
1.118264090278827186e-02
9.179311198312542497e-03
7.005531893216192588e-03
4.692995215490220438e-03
2.276121602169502503e-03
-2.091050929666077307e-04
-2.723790815964255603e-03
-5.228605497877000796e-03
-7.683341764443707769e-03
-1.004738752429132700e-02
-1.228075369223906137e-02
-1.434449680635426806e-02
-1.620023799981113594e-02
-1.781274356399487058e-02
-1.914814028798911272e-02
-2.017561850097070175e-02
-2.086889558911608766e-02
-2.120326948108139375e-02
-2.116116609073063343e-02
-2.072774328055261572e-02
-1.989376812631880875e-02
-1.865735935800612311e-02
-1.701918033111283340e-02
-1.499033433029264319e-02
-1.258549172978722964e-02
-9.826885983707714725e-03
-6.745548709939140977e-03
-3.375506543871022343e-03
2.381005729480290684e-04
4.046777797091495772e-03
7.995499422046775662e-03
1.202249481683454087e-02
1.606426854422531719e-02
2.005184275288277029e-02
2.391490919734275133e-02
2.758311858167337288e-02
3.098608425710528552e-02
3.405532063168819484e-02
3.672877718887186671e-02
3.894639808223475386e-02
4.065847791441923320e-02
4.182373828333030286e-02
4.240732270916282992e-02
4.239263849659390127e-02
4.176775040871213290e-02
4.053838122381397957e-02
3.872301202536116566e-02
3.634802425767944684e-02
3.345953433375611907e-02
3.010797255862417143e-02
2.635708794531067128e-02
2.227915611415779568e-02
1.794972007991304033e-02
1.345144345597895121e-02
8.867832668705947358e-03
4.281000277807625945e-03
-2.277618863975794036e-04
-4.581625662355199094e-03
-8.712690630300015671e-03
-1.255579201428129975e-02
-1.605976258113122473e-02
-1.918051793262905841e-02
-2.188270669452855449e-02
-2.414633511689157075e-02
-2.595504088414710836e-02
-2.730734775531985792e-02
-2.820842458961968224e-02
-2.866984530096960276e-02
-2.871316038377847574e-02
-2.836173999424639741e-02
-2.764490277390430073e-02
-2.659427688451911076e-02
-2.524209391533097091e-02
-2.362141489418658619e-02
-2.176490387234068791e-02
-1.970273497509845290e-02
-1.746416984768801167e-02
-1.507604828237189311e-02
-1.256223452769605724e-02
-9.945822171383211438e-03
-7.247121093043649639e-03
-4.485608879347170036e-03
-1.680510912904160763e-03
1.149222360850248644e-03
3.984090575892666915e-03
6.802266261135799137e-03
9.581188340711617804e-03
1.229540057465537337e-02
1.491664345546128527e-02
1.741556677195271741e-02
1.975930765110813642e-02
2.191418311367106242e-02
2.384597771898779028e-02
2.552001891024639757e-02
2.690284748322858965e-02
2.796486539902338225e-02
2.867771954293813624e-02
2.902025691387594836e-02
2.897682089112888631e-02
2.853639235137734459e-02
2.770033077847055408e-02
2.647306729739305059e-02
2.487094477328455344e-02
2.291837201886840619e-02
2.064491678399718588e-02
1.809223448311110191e-02
1.530449526137217867e-02
1.233351231766706933e-02
9.235678616080347098e-03
6.068850735840427418e-03
2.893862542174493319e-03
-2.283460874688862316e-04
-3.239301028738284308e-03
-6.081867079077284133e-03
-8.702739269242587561e-03
-1.105576262327170357e-02
-1.309696333620226534e-02
-1.479315361302465347e-02
-1.611626854369641731e-02
-1.704531006385304887e-02
-1.757092669780272592e-02
-1.768675692255022858e-02
-1.739911093812455956e-02
-1.671961964091853159e-02
-1.566657535779597543e-02
-1.426800431022444242e-02
-1.255415606577356923e-02
-1.056367914438587768e-02
-8.338317985105375349e-03
-5.922809479485530507e-03
-3.365770440731251541e-03
-7.162271929981563548e-04
1.976035312037118050e-03
4.661059113027919872e-03
7.290860610247106889e-03
9.819730501908355627e-03
1.220344612262226625e-02
1.440376442667196284e-02
1.638432697762296289e-02
1.811458316480078073e-02
1.956992071438706099e-02
2.072846912121701496e-02
2.157783526428475734e-02
2.210827795493745113e-02
2.231748243406430493e-02
2.220987539931278815e-02
2.179287188703757372e-02
2.108306235946393742e-02
2.009932474086543325e-02
1.886649818555339447e-02
1.741422517433386524e-02
1.577391168263119620e-02
1.398172031589402058e-02
1.207477030068245319e-02
1.009141369833824534e-02
8.070881423037279054e-03
6.051656280595446059e-03
4.070255603664934066e-03
2.162497812254916309e-03
3.598022479111401793e-04
-1.309208271230056717e-03
-2.818934255171417352e-03
-4.150483277326857609e-03
-5.286597964177280201e-03
-6.216948296879664868e-03
-6.935104627216449880e-03
-7.437949803755401768e-03
-7.728850967213787143e-03
-7.812548783098061111e-03
-7.698827675180524438e-03
-7.399982977196770811e-03
-6.930102798658809710e-03
-6.306382923940829360e-03
-5.546541645372823209e-03
-4.669787139151265060e-03
-3.695974614901133791e-03
-2.644924702601113460e-03
-1.536400386050785355e-03
-3.899560872162180850e-04
7.761127621826163087e-04
1.944018836170545612e-03
3.097185442986387285e-03
4.220695309926048369e-03
5.300150023579168132e-03
6.323293270906360508e-03
7.278622320865992847e-03
8.155887945256921900e-03
8.946365335621904794e-03
9.641776026621317469e-03
1.023549919564696077e-02
1.072144254384518533e-02
1.109468163944341695e-02
1.135155301129997865e-02
1.148897101904923501e-02
1.150595171647919232e-02
1.140213946054886157e-02
1.117914984186645436e-02
1.084048806671203749e-02
1.039059899724890587e-02
9.837000853915044835e-03
9.188025478795838752e-03
8.454281748531050633e-03
7.648316263539886584e-03
6.783382453609723695e-03
5.874738704023536526e-03
4.938050280980962707e-03
3.989250890117690233e-03
3.044475852567939470e-03
2.119215614610435276e-03
1.227192494019630972e-03
3.815739081275493563e-04
-4.076125801777963353e-04
-1.132445826423366525e-03
-1.786849218883925818e-03
-2.369058514026222903e-03
-2.878262652895235627e-03
-3.317001654234190237e-03
-3.689803944192221116e-03
-4.001992389931907299e-03
-4.260504493417180405e-03
-4.472383926491949047e-03
-4.643808831252123695e-03
-4.780488997354380779e-03
-4.886512607917699660e-03
-4.962970456780409212e-03
-5.010064320381283839e-03
-5.023691399322840687e-03
-4.997731756945096929e-03
-4.923743817076465037e-03
-4.789501420041539573e-03
-4.582070390309563035e-03
-4.286156346466741748e-03
-3.885516697137667355e-03
-3.364327863156797195e-03
-2.707377692704313575e-03
-1.900270621425069299e-03
-9.330141196717805369e-04
2.026903392515627678e-04
1.510245359794088957e-03
2.986763680327054159e-03
4.627016059987673971e-03
6.416161473473001343e-03
8.336155095980322255e-03
1.036260967999881252e-02
1.246390659001002377e-02
1.460642188269478323e-02
1.674953165686395712e-02
1.885062925388833466e-02
2.086516872629572833e-02
2.274664109350872654e-02
2.444915595217880128e-02
2.592949665088271904e-02
2.714539994625827374e-02
2.806072657511129997e-02
2.864484120310154674e-02
2.887100297112355635e-02
2.872469934460789714e-02
2.819465790241303810e-02
2.728091790519873716e-02
2.599254320241151106e-02
2.434336777831432735e-02
2.236029040532964279e-02
2.007318212634672666e-02
1.752017202208131647e-02
1.474523270772879618e-02
1.179436331837820442e-02
8.718386345501389495e-03
5.568857137210643862e-03
2.397111798660695250e-03
-7.456605487748766553e-04
-3.810312946670242791e-03
-6.752241660472512591e-03
-9.528208865687011475e-03
-1.210213963415941903e-02
-1.444195921445285725e-02
-1.652000094201976771e-02
-1.831716463382512816e-02
-1.981635915424442840e-02
-2.100876649175605071e-02
-2.188965440841671162e-02
-2.245800013694224107e-02
-2.271916003726395100e-02
-2.267977682560640140e-02
-2.235108184252623809e-02
-2.174630493884108923e-02
-2.088015925659171546e-02
-1.976961958863727303e-02
-1.843204240764884788e-02
-1.688594561994295057e-02
-1.515029569003729405e-02
-1.324449118795257598e-02
-1.118851634422561060e-02
-9.002595640117187076e-03
-6.708007480478495738e-03
-4.326414652310216907e-03
-1.880663401982374770e-03
6.049749170636453850e-04
3.105647836286274180e-03
5.594206906462240343e-03
8.042791025163038843e-03
1.042225793619983715e-02
1.270209593214232519e-02
1.485170990222005848e-02
1.684043833979358487e-02
1.863770355001274220e-02
2.021503629604907981e-02
2.154596837923577340e-02
2.260587581297546222e-02
2.337634465642737108e-02
2.384073695093397866e-02
2.398948579245074181e-02
2.381898222124329001e-02
2.332921736458713757e-02
2.253067451678854305e-02
2.143643919315076085e-02
2.006808795279515362e-02
1.845354676051211978e-02
1.662394160131179521e-02
1.461859854412985230e-02
1.247856459850988503e-02
1.024917220355686318e-02
7.978592267443861824e-03
5.715356331984723995e-03
3.508728071003812225e-03
1.407756715502517936e-03
-5.417834869665726430e-04
-2.296059030071246308e-03
-3.814724066592502585e-03
-5.064631699068870493e-03
-6.014662608526493565e-03
-6.643595524840961025e-03
-6.935392984637160294e-03
-6.880237253206368184e-03
-6.479635985099194140e-03
-5.737887415796843679e-03
-4.671187910693253703e-03
-3.301246684883286237e-03
-1.655730590816455010e-03
2.280823598133072984e-04
2.310878350710089159e-03
4.545792369431329166e-03
6.882890224662926298e-03
9.270158775075492200e-03
1.165261306085392003e-02
1.397525068896924433e-02
1.618427100048169809e-02
1.822639505101851520e-02
2.005203031623513377e-02
2.161627381620119526e-02
2.287651008471384972e-02
2.379989747428281482e-02
2.435689696394577330e-02
2.452658166978895216e-02
2.429774618568133343e-02
2.366300542800597179e-02
2.262914249321018589e-02
2.120716716031455229e-02
1.941789055786363044e-02
1.729194625359134485e-02
1.486332478652441225e-02
1.217698234566137044e-02
9.280699159470218174e-03
6.227099529828136054e-03
3.073117236355563803e-03
-1.239825735198478440e-04
-3.306342920212966031e-03
-6.416255659515425827e-03
-9.400202960227860630e-03
-1.220797846015405676e-02
-1.479287396053543917e-02
-1.711792409382129759e-02
-1.914869777350090840e-02
-2.086123693060045609e-02
-2.223892596081013945e-02
-2.327012925767306395e-02
-2.395531502399052964e-02
-2.429762565060793189e-02
-2.430910737215595530e-02
-2.400733775083214311e-02
-2.341265594909344022e-02
-2.255130399225484250e-02
-2.145048057821866139e-02
-2.013897657166464905e-02
-1.864644654004201513e-02
-1.700152153334775346e-02
-1.523082819133046890e-02
-1.336021470009140545e-02
-1.141110587357430789e-02
-9.402753301654229179e-03
-7.351558783885017018e-03
-5.269061829749305953e-03
-3.165732406122374540e-03
-1.047920310013403765e-03
1.079793895616749499e-03
3.213779920574155041e-03
5.351839281011780414e-03
7.491635604198815940e-03
9.629277941274050345e-03
1.176023105755281788e-02
1.387727823771095839e-02
1.596959966071057058e-02
1.802504075283523077e-02
2.002577078649269565e-02
2.195200074337273766e-02
2.378063422664785515e-02
2.548463259787901031e-02
2.703621226229461355e-02
2.840523849999073563e-02
2.956095247703093704e-02
3.047380738706158970e-02
3.111553915772144463e-02
3.145949090490948730e-02
3.148516762720945938e-02
3.117395724204889695e-02
3.051440986666585642e-02
2.950180487325324702e-02
2.813489840045502871e-02
2.642363158853320432e-02
2.438085859350360568e-02
2.202760933674008381e-02
1.939173285137219330e-02
1.650383573680965985e-02
1.340227033932370193e-02
1.012711159303870956e-02
6.722054779604385265e-03
3.233473697181229144e-03
-2.917569495438669322e-04
-3.805596789535575439e-03
-7.259904092418183533e-03
-1.060761072211939722e-02
-1.380235668710889756e-02
-1.679900210525726162e-02
-1.955522914956683844e-02
-2.202949783013270074e-02
-2.418405856222417133e-02
-2.598337610985098495e-02
-2.739445349903596449e-02
-2.838945838280103329e-02
-2.894195269276175764e-02
-2.903205692823372652e-02
-2.864329700553254476e-02
-2.776377755364384942e-02
-2.638986179864121623e-02
-2.452024030190521481e-02
-2.216443592281590325e-02
-1.933696911787297773e-02
-1.605970436805643359e-02
-1.236624882593979728e-02
-8.293403298029227572e-03
-3.891729255787852726e-03
7.825999107977112644e-04
5.665921355493206031e-03
1.068395285179354025e-02
1.576014920715989795e-02
2.080983094478482814e-02
2.574547188190482588e-02
3.047883965488212138e-02
3.492081605188966653e-02
3.898383038220301633e-02
4.258812305074414356e-02
4.565671601317752848e-02
4.812417958790188299e-02
4.993799019151957952e-02
5.105203873220234140e-02
5.144455731596474929e-02
5.110111952061747315e-02
5.002734751028993510e-02
4.824875458347802071e-02
4.579868926452410755e-02
4.273634887061546206e-02
3.912767303037560651e-02
3.505269527837526905e-02
3.060386266165694008e-02
2.587617702193678593e-02
2.097152484849508502e-02
1.599286067141194451e-02
1.103823924930053338e-02
6.201879277293443835e-03
1.571792044586956764e-03
-2.781270551595480846e-03
-6.791215552662153640e-03
-1.041287241251466662e-02
-1.361559349351451446e-02
-1.637923811102031529e-02
-1.870899178349420822e-02
-2.061562330583801422e-02
-2.212865415341860875e-02
-2.328913380316200571e-02
-2.414322344649193902e-02
-2.474786247092543301e-02
-2.516128340492153337e-02
-2.544054575601824991e-02
-2.564201711564627340e-02
-2.581554351820364301e-02
-2.599845502937309094e-02
-2.622402412873311994e-02
-2.650450133931121777e-02
-2.684191508327790632e-02
-2.722503158087839076e-02
-2.762021955604729295e-02
-2.798880126917432237e-02
-2.827232390958839270e-02
-2.840392178474874380e-02
-2.831160823128531234e-02
-2.791575067618259215e-02
-2.713731883876017298e-02
-2.590463255164802969e-02
-2.414909802665687194e-02
-2.181739907743598939e-02
-1.887654262076125106e-02
-1.530226221364535712e-02
-1.110826083105256532e-02
-6.321422328796632434e-03
-9.972899074872166106e-04
4.774771623316923820e-03
1.089509632002760853e-02
1.722626490076463804e-02
2.361959730613466535e-02
2.991139081950996287e-02
3.592220389451941664e-02
4.147253114879816127e-02
4.638554429358198589e-02
5.048614008922282237e-02
5.362080278357426316e-02
5.565609726936660007e-02
5.647420979722751755e-02
5.600841245612108582e-02
5.420596781390156493e-02
5.106444640387411416e-02
4.662296272228873967e-02
4.094294050225543574e-02
3.414909658517344127e-02
2.638102042506034611e-02
1.782045482058946737e-02
8.680025194645677247e-03
-8.167359078137988171e-04
-1.041945308318144824e-02
-1.987353246011756835e-02
-2.892607789248419908e-02
-3.732534705617774479e-02
-4.483277539924247768e-02
-5.124021101938515399e-02
-5.634885232414862249e-02
-6.001036945959838803e-02
-6.210561760513535340e-02
-6.254824522672335074e-02
-6.131792757351346018e-02
-5.841024023895125677e-02
-5.388798556687488667e-02
-4.784835681312732403e-02
-4.041974890504886758e-02
-3.178610560376241706e-02
-2.214229491228440067e-02
-1.172092959550453777e-02
-7.715664845047535969e-04
1.044977714483561783e-02
2.167695063971412234e-02
3.264555829444428653e-02
4.310810831893773648e-02
5.282427366256540330e-02
6.157880196136076428e-02
6.919167663387928990e-02
7.549596530989091669e-02
8.038245228581723800e-02
8.376290991446644352e-02
8.558999331313717207e-02
8.586730831728930924e-02
8.461371611218619637e-02
8.190611233146782855e-02
7.783989438905640490e-02
7.253998878260162209e-02
6.616399049532305232e-02
5.887654526278802980e-02
5.086478080138327751e-02
4.232172855828669755e-02
3.344059749889696787e-02
2.441477080391574184e-02
1.543236052267535352e-02
6.662162205481920660e-03
-1.732842753069280609e-03
-9.615074880017565259e-03
-1.686910709085154281e-02
-2.339246056701216325e-02
-2.912165571877875503e-02
-3.400300127724151938e-02
-3.801319682842258657e-02
-4.115246529256092606e-02
-4.343199224230724631e-02
-4.489189919246137223e-02
-4.557849357573175164e-02
-4.555286244675674917e-02
-4.488623344006308774e-02
-4.365193936783108575e-02
-4.192798931523837591e-02
-3.979264769255234924e-02
-3.731937497399690634e-02
-3.457868774912735421e-02
-3.163601569459761204e-02
-2.854590808145014702e-02
-2.536021681176017784e-02
-2.211906005401871600e-02
-1.885621776193345533e-02
-1.560052601793192502e-02
-1.237153742838232977e-02
-9.187177463306035394e-03
-6.060744329878338041e-03
-3.003351602325446054e-03
-2.643438608533610346e-05
2.858010350961300190e-03
5.637298903278038092e-03
8.294444977109724504e-03
1.081061665381249925e-02
1.316402728363381437e-02
1.532850751470541534e-02
1.727714806313868784e-02
1.898077529755196058e-02
2.040943779434411381e-02
2.153515551307972481e-02
2.233254674094013043e-02
2.277827861847813579e-02
2.285861499183675788e-02
2.256321013310958606e-02
2.189172524960343591e-02
2.085551356581872434e-02
1.947051431044932029e-02
1.777019513831953543e-02
1.579336578748263137e-02
1.358987122190388405e-02
1.122100246294479436e-02
8.750901809975992693e-03
6.252750818609589464e-03
3.801891370518986103e-03
1.472856154907570530e-03
-6.605677545069065307e-04
-2.528195942640693375e-03
-4.071995494004542263e-03
-5.237533575009164361e-03
-5.987114313517997999e-03
-6.296726070782982659e-03
-6.151241917125202172e-03
-5.560739308746745491e-03
-4.541406507695695816e-03
-3.129301288653405996e-03
-1.374895046061109030e-03
6.646861510133856600e-04
2.915834174958468247e-03
5.301835747865153020e-03
7.740691399091365055e-03
1.014701841051596568e-02
1.243788182752860252e-02
1.453607046141761755e-02
1.636669346324508972e-02
1.786984023586192516e-02
1.899418514397417657e-02
1.969938305872361711e-02
1.996699844430428750e-02
1.978400410691902311e-02
1.916079406186298184e-02
1.811962383581581723e-02
1.669371976600759339e-02
1.493564619833648820e-02
1.290168867765675159e-02
1.066070946564956490e-02
8.287144259607782948e-03
5.856767529964164269e-03
3.447419115003396740e-03
1.135791435108891769e-03
-1.009778842920588601e-03
-2.924422523091644958e-03
-4.553620167655116763e-03
-5.857247878621909057e-03
-6.800198727614979038e-03
-7.368960522730325091e-03
-7.557756351133622721e-03
-7.374578312845053371e-03
-6.844405966755246623e-03
-5.996678883134601984e-03
-4.877061482930393835e-03
-3.536236571239469682e-03
-2.030289074529501719e-03
-4.212204269433738116e-04
1.229080096328316000e-03
2.860438784628998796e-03
4.413467669581018146e-03
5.836240792991255477e-03
7.084088559119386744e-03
8.117001585517955725e-03
8.910744674335602938e-03
9.445392210558664625e-03
9.714324687385419294e-03
9.722409954224679740e-03
9.479471765518283910e-03
9.009798091560597064e-03
8.341005016614297038e-03
7.507819011870406345e-03
6.550412489947023305e-03
5.509668717564695714e-03
4.428053359954111159e-03
3.347968146090731303e-03
2.307637195936699560e-03
1.342437448079462133e-03
4.839909941238718788e-04
-2.450557554389562812e-04
-8.242974451302753983e-04
-1.242915008346448351e-03
-1.495873088849331532e-03
-1.582452240926820845e-03
-1.510972461264819058e-03
-1.291556936182303682e-03
-9.401279797779972525e-04
-4.756964494699424464e-04
8.160640565799603605e-05
7.095952245843098471e-04
1.386022158262814521e-03
2.089917123210933807e-03
2.800933359869692447e-03
3.500572070848969458e-03
4.173400102414990404e-03
4.804821681518225453e-03
5.383920787672800620e-03
5.901328488091831664e-03
6.349366378339943093e-03
6.722836105967021879e-03
7.017028479498999341e-03
7.228927615884547797e-03
7.356145935415583231e-03
7.396952949070756053e-03
7.350473886465286322e-03
7.216141035195670732e-03
6.994651416234776847e-03
6.687151534138876044e-03
6.296299403196464056e-03
5.826501439664599422e-03
5.283067571530196231e-03
4.674867377633595486e-03
4.011882485957284430e-03
3.307224833909088585e-03
2.577220803508260220e-03
1.839371682859539114e-03
1.115139194800221761e-03
4.270003536343378210e-04
-2.013531006727570585e-04
-7.451221848645108239e-04
-1.180192524441511966e-03
-1.484886503169960924e-03
-1.638385723018062970e-03
-1.625488441785917330e-03
-1.435539854812266543e-03
-1.061569298817827307e-03
-5.070458732450988659e-04
2.219463500712439037e-04
1.109778516250238805e-03
2.133966495638882094e-03
3.268415748545345709e-03
4.478122672502170450e-03
5.726355088438106478e-03
6.972797727932043832e-03
8.174863002133193890e-03
9.290945118318481855e-03
1.028174109237213474e-02
1.110908809471401748e-02
1.174281318068585642e-02
1.215728090283270391e-02
1.233324188039849022e-02
1.226406822859539385e-02
1.194634524464831780e-02
1.139095120513481871e-02
1.061593275483868268e-02
9.646285412062079873e-03
8.519134410893219878e-03
7.273933097595865205e-03
5.958001960879673667e-03
4.622103593103199168e-03
3.317397931724890957e-03
2.095640574421065144e-03
1.007470566953989725e-03
9.626748993789551595e-05
-5.975666857918155925e-04
-1.042226967478883728e-03
-1.217745207283100518e-03
-1.108331283428761090e-03
-7.160983284604915261e-04
-4.951571051626385556e-05
8.713890930041965494e-04
2.012471291070371416e-03
3.335885359363742562e-03
4.790420684149877470e-03
6.320797289229775073e-03
7.867887448998507269e-03
9.368391405221471180e-03
1.075973302491971262e-02
1.198316006395219041e-02
1.298132907352876099e-02
1.370611746300203458e-02
1.411827986265619915e-02
1.418414051848147263e-02
1.388865436797370040e-02
1.322184712795961524e-02
1.218972127623107853e-02
1.081193452145721642e-02
9.114326731773036983e-03
7.140674986857695021e-03
4.938902622246990268e-03
2.566496045446160865e-03
8.819297168676963269e-05
-2.429940927897297417e-03
-4.918702053391931991e-03
-7.308735722471064108e-03
-9.535361052518117470e-03
-1.153705384406538727e-02
-1.325735067589821174e-02
-1.465178902535283802e-02
-1.567907677954363116e-02
-1.631260636500835026e-02
-1.653454787975446733e-02
-1.633489713520090703e-02
-1.571992279279539606e-02
-1.469950687980253572e-02
-1.329734404916473912e-02
-1.154443414699299862e-02
-9.477017716828345720e-03
-7.140969897985334144e-03
-4.583828095048749982e-03
-1.857822700925397877e-03
9.826463597624977842e-04
3.883419431074710149e-03
6.790751538616624644e-03
9.651624948714448288e-03
1.241759064406093918e-02
1.504214317519658381e-02
1.748302471324203466e-02
1.970415470770534722e-02
2.167135647338987864e-02
2.335860843202783310e-02
2.474293642719272573e-02
2.580653479828488167e-02
2.653826466629023023e-02
2.692896194040493574e-02
2.697714440821693399e-02
2.668389056798395331e-02
2.605505015047705764e-02
2.510193626094017749e-02
2.383766694851632145e-02
2.228193151366526098e-02
2.045639377567926714e-02
1.838702567019984482e-02
1.610417885566694379e-02
1.363977744164806410e-02
1.103098516717422595e-02
8.316356903013057134e-03
5.537228872884277821e-03
2.737447527064828037e-03
-3.877363056771932631e-05
-2.746300810353125010e-03
-5.339959584413038821e-03
-7.776963266518407622e-03
-1.001643978029698526e-02
-1.202005919050525527e-02
-1.375672009993378873e-02
-1.519730890449771422e-02
-1.632178496849311794e-02
-1.711656210705091857e-02
-1.757294715790075346e-02
-1.769435513858542280e-02
-1.748700563781097062e-02
-1.696729237311146027e-02
-1.615802496799253335e-02
-1.508578955797387593e-02
-1.378539905003457917e-02
-1.229317007884952150e-02
-1.064912445436011317e-02
-8.895340464012314527e-03
-7.073415396975696670e-03
-5.223954841336388849e-03
-3.386787518160714466e-03
-1.596313180257814997e-03
1.157886898070109062e-04
1.722569118752788602e-03
3.205279319227922856e-03
4.547388005013210631e-03
5.742257303217864622e-03
6.787610875220218692e-03
7.686338573837510520e-03
8.449257079377539212e-03
9.088822585978564156e-03
9.623411257165901539e-03
1.007366990070990460e-02
1.046132517184455817e-02
1.080957061306703215e-02
1.114120752375586873e-02
1.147638111353595572e-02
1.183423116018099928e-02
1.222980704208008473e-02
1.267321098180476321e-02
1.317249356704408743e-02
1.372754509202990698e-02
1.433567811832001278e-02
1.498874261406661634e-02
1.567272425574495892e-02
1.637195763744779542e-02
1.706525574575639553e-02
1.772996843913572651e-02
1.834208516493515684e-02
1.887629881600777840e-02
1.930783930660748271e-02
1.961401763972549922e-02
1.977284344521548776e-02
1.976646507529198488e-02
1.958053329891350572e-02
1.920314329936878561e-02
1.862959828021328729e-02
1.785703077146967577e-02
1.688894388628760235e-02
1.573362553470022962e-02
1.440201787316952760e-02
1.291192520481888178e-02
1.128267325808686959e-02
9.538109871186747218e-03
7.705094402985501745e-03
5.811761472149960112e-03
3.889142951300561708e-03
1.968742997325867612e-03
8.260028029181227735e-05
-1.736936745670518943e-03
-3.458274637455358361e-03
-5.051404935064821369e-03
-6.486910070008131482e-03
-7.738826416201877514e-03
-8.783013041038104443e-03
-9.598104808970366053e-03
-1.016782089964325328e-02
-1.047732285341866458e-02
-1.051855577361213330e-02
-1.028663813500437299e-02
-9.781228376899120738e-03
-9.009349527585006762e-03
-7.980033128720236818e-03
-6.711041244987128729e-03
-5.223755716028640958e-03
-3.544710562321389501e-03
-1.707852027518201414e-03
2.510309748511635117e-04
2.288945325760322926e-03
4.360281449561385220e-03
6.416728040170877057e-03
8.406525233959846050e-03
1.027775686622060120e-02
1.197884592229480141e-02
1.345845899754775227e-02
1.466931187466474253e-02
1.556871125215887088e-02
1.611690205959307592e-02
1.628573983777296258e-02
1.605069791896239148e-02
1.539857100408864241e-02
1.432754845226869023e-02
1.284094439477417512e-02
1.095947296812289917e-02
8.708575879627441715e-03
6.125719806635205635e-03
3.259116210533665424e-03
1.607702749135057722e-04
-3.106093180297919698e-03
-6.475713572700929344e-03
-9.878642966996017960e-03
-1.324251092400713196e-02
-1.649581080618170437e-02
-1.956974775681235429e-02
-2.239660803109067011e-02
-2.491650077061580842e-02
-2.707504784209439908e-02
-2.882336804467348912e-02
-3.012613454316170891e-02
-3.095139910789909687e-02
-3.128137683022053778e-02
-3.110713262247204181e-02
-3.042671859336738144e-02
-2.925335714163044415e-02
-2.760362347733082145e-02
-2.550655397506062377e-02
-2.299808090915351350e-02
-2.011893666484847187e-02
-1.691907599649603716e-02
-1.345013968004830744e-02
-9.768806447283024524e-03
-5.934205457674838688e-03
-2.005842002124182642e-03
1.956158733613934299e-03
5.892073463370459466e-03
9.745421999216911241e-03
1.346117323447583967e-02
1.698792038524147771e-02
2.027977109158463076e-02
2.329264830114512186e-02
2.599067887840408181e-02
2.834120598122286810e-02
3.031744548254126925e-02
3.190053439850896316e-02
3.307412289257863347e-02
3.383216159158669578e-02
3.417220109756092389e-02
3.409882387102898538e-02
3.362503056957059921e-02
3.276659293899682190e-02
3.154973644849400766e-02
3.000393757416210810e-02
2.816511163557167824e-02
2.607601724690676581e-02
2.378143263416940961e-02
2.133290070272704508e-02
1.878376450367183134e-02
1.618957176356671315e-02
1.360795042022345386e-02
1.109609167226915070e-02
8.709376230137679323e-03
6.502473047662190100e-03
4.524657192295304317e-03
2.820684316748240002e-03
1.431503184358084123e-03
3.868641962683442431e-04
-2.864320165509295565e-04
-5.732193626121684024e-04
-4.669840932247171575e-04
3.310546159588940301e-05
9.132366992546563436e-04
2.156189724081695840e-03
3.732965714843340752e-03
5.606796699876357218e-03
7.736467916747064022e-03
1.007064673247511782e-02
1.255604020022207251e-02
1.513417551359729461e-02
1.774356337254804489e-02
2.032269788037636277e-02
2.281011631898173520e-02
2.514502195652461303e-02
2.727236020829426622e-02
2.914008962502054323e-02
3.070201360589039363e-02
3.192254425292430364e-02
3.276917118327980077e-02
3.322398351632974839e-02
3.327582231006127877e-02
3.292260446330514539e-02
3.217681734009018857e-02
3.105454855588980767e-02
2.958665073446583443e-02
2.780999718378727309e-02
2.576820480933128543e-02
2.351449015270171139e-02
2.110381801829806087e-02
1.859684569179561459e-02
1.605620255625567899e-02
1.354393243534030185e-02
1.112133582881557475e-02
8.848088683336346322e-03
6.776149760074431753e-03
4.954793569562299972e-03
3.423942094240841824e-03
2.213020233808743638e-03
1.346571159487998295e-03
8.306899330864361483e-04
6.658829381397330174e-04
8.373358750622460038e-04
1.314968560959213668e-03
2.062189609001999300e-03
3.020637986940758780e-03
4.126104526884759142e-03
5.299729400114182656e-03
6.449692717739138013e-03
7.479822528075646265e-03
8.281265102864107316e-03
8.742489458308759856e-03
8.750308832317928165e-03
8.190241630160421255e-03
6.952010621271808959e-03
4.937379876578033670e-03
2.052085209075816055e-03
-1.774275558581148854e-03
-6.595455582221580043e-03
-1.244802306434602580e-02
-1.932658243573880802e-02
-2.721500115845406492e-02
-3.605001786085782617e-02
-4.573921221910165480e-02
-5.616560665647107181e-02
-6.715938477905777915e-02
-7.853914771990444521e-02
-9.008073548360588656e-02
-1.015365939646415139e-01
-1.126461734236692824e-01
-1.231242970468132969e-01
-1.326833180389367650e-01
-1.410382931828380870e-01
-1.479058234093284518e-01
-1.530218249721515267e-01
-1.561551211260912009e-01
-1.570872759208855052e-01
-1.556657731503950370e-01
-1.517668881543339787e-01
-1.453186271953053055e-01
-1.363268648741474132e-01
-1.248199256915505095e-01
-1.109220664543969087e-01
-9.479443386492093782e-02
-7.665186892428013654e-02
-5.678089287431218463e-02
-3.548450743321698853e-02
-1.312558574907018473e-02
9.913100421886304747e-03
3.323445565032713545e-02
5.642441619344650688e-02
7.907250422438255599e-02
1.007890002767174581e-01
1.211917078663595215e-01
1.399396477091841562e-01
1.567352103302283028e-01
1.713043188249379623e-01
1.834579286173763646e-01
1.930314996507685177e-01
1.999310151750321174e-01
2.041283392627984972e-01
2.056232194937876456e-01
2.045030212116827062e-01
2.008771676630692893e-01
1.949078848044189793e-01
1.868011848549002984e-01
1.767773106549808404e-01
1.650954752482001464e-01
1.520228861310063406e-01
1.378361020053701091e-01
1.228185502478070373e-01
1.072496703574031818e-01
9.139793584688048200e-02
7.552814394569498657e-02
5.988288991059321359e-02
4.469025128788180201e-02
3.016449011132223135e-02
1.648836464039358726e-02
3.836998312187534389e-03
-7.646287263141161514e-03
-1.783661464831864940e-02
-2.662622389659100031e-02
-3.394189322891359717e-02
-3.971891497157232359e-02
-4.392943294755322081e-02
-4.656458166063111304e-02
-4.763790239908858443e-02
-4.720308251011091916e-02
-4.532421811010902551e-02
-4.211123764783268608e-02
-3.769501609120363278e-02
-3.223234008853372717e-02
-2.592116287631098664e-02
-1.896869411139225775e-02
-1.161782864417263035e-02
-4.125706914721180563e-03
3.241736422963269280e-03
1.020619503381421309e-02
1.649145242142503742e-02
2.183809983607020583e-02
2.599347087552203450e-02
2.873851762720366909e-02
2.989628318439455784e-02
2.930963366647085233e-02
2.690446054800876147e-02
2.263414551453353518e-02
1.651986677376937607e-02
8.658133543275575716e-03
-8.281950778166249916e-04
-1.172172634226291595e-02
-2.377799317481261998e-02
-3.670403206704064142e-02
-5.015903933519307717e-02
-6.379408124596774865e-02
-7.723778821248156179e-02
-9.011480362722223969e-02
-1.020711864219617793e-01
-1.127717557689045108e-01
-1.219039859023423600e-01
-1.292260537517526953e-01
-1.345154416173651168e-01
-1.376276886820013701e-01
-1.384790238455292644e-01
-1.370223425957088903e-01
-1.333090573044182492e-01
-1.274133035345633713e-01
-1.194798953451261248e-01
-1.097023866930140340e-01
-9.829628080518876265e-02
-8.552878384255299671e-02
-7.167641425576184999e-02
-5.703177692710261620e-02
-4.189725161445826546e-02
-2.656907734578602825e-02
-1.132988834680592229e-02
3.543329802544475330e-03
1.780920526109305152e-02
3.124578133610676767e-02
4.365676249477507681e-02
5.489449750777301851e-02
6.482345841921607899e-02
7.336070998205218574e-02
8.044865821946386997e-02
8.605626031839098966e-02
9.019700377198056063e-02
9.289409969705333947e-02
9.420791349809097548e-02
9.421460800489221687e-02
9.300460124651073468e-02
9.068951301886400695e-02
8.738460762563401985e-02
8.321648216679904120e-02
7.831590026217592759e-02
7.281395061529986890e-02
6.684214361351586975e-02
6.053053187570607563e-02
5.400150627696700262e-02
4.737471393146240606e-02
4.076095967701323652e-02
3.426067236786367598e-02
2.796990887555397126e-02
2.196775493484466601e-02
1.632799543303958822e-02
1.111103752676080234e-02
6.363352737198911362e-03
2.125802076657036174e-03
-1.580169002844164332e-03
-4.738536761748362094e-03
-7.346733923596054927e-03
-9.414638252914910715e-03
-1.095688603992217396e-02
-1.200276940144025771e-02
-1.258517447328044540e-02
-1.274470427680388963e-02
-1.252829654663730093e-02
-1.198441816991329019e-02
-1.116554163732214403e-02
-1.012478926588978451e-02
-8.913983655094796441e-03
-7.583996591002293078e-03
-6.183329626656576886e-03
-4.754341741371953881e-03
-3.337684257428866035e-03
-1.965691136682763511e-03
-6.653138690675868341e-04
5.412124729436973425e-04
1.642280757104567709e-03
2.628725894937487123e-03
3.500829908195559129e-03
4.264288638806179588e-03
4.928438300652079884e-03
5.509850493583322815e-03
6.026335378296377582e-03
6.498801579406283599e-03
6.949707962884023663e-03
7.400622230989313544e-03
7.871500256367588641e-03
8.381296759474837071e-03
8.942873533493614358e-03
9.566307713114691885e-03
1.025647750873442433e-02
1.101007456587889746e-02
1.182151548003822217e-02
1.267539583960789959e-02
1.355237768231593899e-02
1.442820881614622665e-02
1.527177931709742739e-02
1.605072924068889212e-02
1.672863768733076628e-02
1.726772130247965914e-02
1.763105065922981537e-02
1.778275637419604593e-02
1.768847050900795165e-02
1.732068906703269212e-02
1.665424200561506363e-02
1.567178631688085494e-02
1.436458916716332711e-02
1.272778594299204223e-02
1.077079435701795013e-02
8.507252438113354492e-03
5.961811170558418971e-03
3.169877047883263525e-03
1.711083223901372664e-04
-2.981008013537554159e-03
-6.229406478604490940e-03
-9.509150533413909465e-03
-1.274847963495168678e-02
-1.587405708533828202e-02
-1.880826031547219029e-02
-2.147280324386770245e-02
-2.379216367175761293e-02
-2.569295077318389797e-02
-2.710603664373859717e-02
-2.797398269681615479e-02
-2.824269715108463502e-02
-2.787481719820449760e-02
-2.684441544195085433e-02
-2.513579335917904417e-02
-2.275764194268148355e-02
-1.972455647380836480e-02
-1.607516164893319638e-02
-1.186264409241415303e-02
-7.151219830085681073e-03
-2.028312548594019167e-03
3.413903573768778399e-03
9.067328674640499214e-03
1.481534189019480079e-02
2.053808991468187434e-02
2.610976186967071261e-02
3.140465050153593701e-02
3.630302825231034036e-02
4.068811456552884342e-02
4.445315394789766533e-02
4.750809941369244643e-02
4.976860079214112664e-02
5.117805347192502796e-02
5.169170143244342097e-02
5.128455030497070660e-02
4.996075118113747771e-02
4.773252905580129685e-02
4.464564249280417174e-02
4.075846409219802818e-02
3.614699715975699945e-02
3.091031183636015062e-02
2.515249600539427172e-02
1.899524747428989885e-02
1.256594736389091485e-02
5.994755129762619969e-03
-5.849444449873867843e-04
-7.041767611291414181e-03
-1.325401562209667546e-02
-1.910329262302268988e-02
-2.448621134386683162e-02
-2.931486300579207865e-02
-3.350936576078263063e-02
-3.701815235543558236e-02
-3.979764888889969487e-02
-4.182685156842613078e-02
-4.310542191311536597e-02
-4.364166269013509958e-02
-4.347048397675939285e-02
-4.263334826247709708e-02
-4.118702096622948311e-02
-3.920070409009785567e-02
-3.674719437067967137e-02
-3.390883693716961744e-02
-3.076970913236336258e-02
-2.741360286013041353e-02
-2.392409705662845720e-02
-2.038138417136864389e-02
-1.685690951045677038e-02
-1.341958551364343631e-02
-1.012529326606186574e-02
-7.021564312470494895e-03
-4.148344460038078801e-03
-1.528649597529687168e-03
8.184186296506181131e-04
2.889126899959476406e-03
4.688462421447170576e-03
6.227698405361238761e-03
7.530490968800214457e-03
8.622799556397440709e-03
9.537512971325861483e-03
1.031097676216495562e-02
1.097994765640952428e-02
1.158186405049136357e-02
1.215353474381534495e-02
1.272672497950343845e-02
1.333090154063622940e-02
1.399027762002220607e-02
1.472087407147433871e-02
1.553627344750418970e-02
1.643927543561338189e-02
1.742838863234164037e-02
1.849602897681871042e-02
1.962619357709456669e-02
2.080096338994666394e-02
2.199537146031354390e-02
2.318201622245275040e-02
2.433161865924628187e-02
2.541259803628208302e-02
2.639354882190388107e-02
2.724455991602670740e-02
2.793629224991274473e-02
2.844293692597619355e-02
2.874252970862428008e-02
2.881509516535227244e-02
2.864805342024076551e-02
2.823100684146341577e-02
2.755957244759901781e-02
2.663518265761909143e-02
2.546171059369586875e-02
2.405094655606435788e-02
2.241675653981547306e-02
2.057828439141332066e-02
1.855920424121430823e-02
1.638495413946969986e-02
1.408604691955062105e-02
1.169414906554196512e-02
9.243291661983742830e-03
6.769306363392250427e-03
4.308212384209741778e-03
1.896420047771615446e-03
-4.297408374956323759e-04
-2.635759264640646742e-03
-4.688357348613935230e-03
-6.556068761087463850e-03
-8.211737915064940690e-03
-9.629394669943865462e-03
-1.078882871534762866e-02
-1.167329092969540162e-02
-1.226967029052422782e-02
-1.257247173230078598e-02
-1.257809434640351325e-02
-1.229121193698397459e-02
-1.172090597259321278e-02
-1.088068272441462987e-02
-9.792247870797127565e-03
-8.479150533599186940e-03
-6.972224586910434271e-03
-5.305731923735568234e-03
-3.516769642425364092e-03
-1.647088050229165990e-03
2.608627479911609232e-04
2.162872777006610674e-03
4.014038168727072399e-03
5.770798230250154606e-03
7.391559878060808761e-03
8.836021742977512305e-03
1.007045331488471383e-02
1.106365193126535203e-02
1.179098750664618611e-02
1.223634673918709732e-02
1.238671322087949930e-02
1.224180498262835565e-02
1.180562169233372039e-02
1.109065922736348145e-02
1.011918424076901739e-02
8.916266308685338524e-03
7.516904045953381325e-03
5.958969566712915035e-03
4.283949495472364095e-03
2.537020844606937414e-03
7.633622573386777792e-04
-9.924784729152648713e-04
-2.686329869849254579e-03
-4.278392777236407832e-03
-5.732831608329208919e-03
-7.016727652181670161e-03
-8.106421873294007360e-03
-8.980707765648191648e-03
-9.626737692162148571e-03
-1.003839038446663681e-02
-1.021291623595111872e-02
-1.015685093297728075e-02
-9.878823922712127309e-03
-9.392931696787643406e-03
-8.717172675239286822e-03
-7.870724939457784952e-03
-6.875569423657213255e-03
-5.754086593535805844e-03
-4.528179330334990496e-03
-3.219443148471127537e-03
-1.848224950643172562e-03
-4.320757968959160894e-04
1.012197099853911434e-03
2.471274757398245550e-03
3.933798489153250526e-03
5.389963996735422716e-03
6.833002511769626156e-03
8.256668785997269000e-03
9.656093028741079970e-03
1.102707812438373340e-02
1.236497588222572851e-02
1.366434129800429137e-02
1.491926307570757768e-02
1.612107965172150659e-02
1.725990246219588631e-02
1.832385302215316231e-02
1.929798349686254536e-02
2.016670180088802472e-02
2.091206340902180411e-02
2.151523158934628283e-02
2.195756548869703256e-02
2.222069498936251469e-02
2.228697009863438855e-02
2.214249894969001070e-02
2.177477659918335834e-02
2.117573680484725190e-02
2.034270470176169354e-02
1.927513346034180619e-02
1.798089956764317709e-02
1.647054869812466030e-02
1.476021466806598688e-02
1.287205621814686493e-02
1.082996826549938174e-02
8.663700203850469364e-03
6.404577432233833634e-03
4.085747225140770426e-03
1.742100737000413287e-03
-5.916864452960718390e-04
-2.881953269728348629e-03
-5.095429498264070906e-03
-7.201733180549483443e-03
-9.172937139733874576e-03
-1.098285290185066487e-02
-1.261044539422784445e-02
-1.403598999196451445e-02
-1.524431115789672171e-02
-1.622366496080386578e-02
-1.696427952943090067e-02
-1.746151165893620322e-02
-1.771190162406480195e-02
-1.771590214114282524e-02
-1.747658446342150590e-02
-1.699861105425952423e-02
-1.629032410644752626e-02
-1.536087265344600501e-02
-1.422220199805245520e-02
-1.288791762778209761e-02
-1.137284201358006348e-02
-9.694305431814893154e-03
-7.870205116375988616e-03
-5.920660873490418349e-03
-3.866963452610110152e-03
-1.731483950666723969e-03
4.614263855919867492e-04
2.687004496961681223e-03
4.918982748676740957e-03
7.130397602346093267e-03
9.294040161347496068e-03
1.138230632760873356e-02
1.336773058704320005e-02
1.522400118245986582e-02
1.692530902705890669e-02
1.844764501056562339e-02
1.976960390639991016e-02
2.087083602741748867e-02
2.173586262995761548e-02
2.235104211580868361e-02
2.270684092695958445e-02
2.279899493665963478e-02
2.262507595619048933e-02
2.219007115112329315e-02
2.150143571127813985e-02
2.057150632399535467e-02
1.941817739676931706e-02
1.806095775306324272e-02
1.652504785172445936e-02
1.483728233123277930e-02
1.302664424394680415e-02
1.112428826107174883e-02
9.161445694724355132e-03
7.169273671542776560e-03
5.178804374034916280e-03
3.219021815827547307e-03
1.317071837025134053e-03
-5.012752921996826636e-04
-2.214574480007155954e-03
-3.802519113622314546e-03
-5.248699001610322018e-03
-6.539808071066978076e-03
-7.664152717875506032e-03
-8.614445099566702194e-03
-9.384406326103877927e-03
-9.970641478696759888e-03
-1.037179391393506372e-02
-1.058740820414989792e-02
-1.061920083119804840e-02
-1.046933459483035539e-02
-1.014117649412149547e-02
-9.638849048141601497e-03
-8.967032390073978107e-03
-8.131620953986012576e-03
-7.138862923624252760e-03
-5.996812498768317248e-03
-4.714534012191481591e-03
-3.302577065850661846e-03
-1.774380420475001052e-03
-1.441764142114387859e-04
1.570066364120108800e-03
3.348532046742138790e-03
5.169336799798729919e-03
7.007040642465030798e-03
8.835486906539215257e-03
1.062596354052453874e-02
1.234866082719476149e-02
1.397373448368777540e-02
1.547129378969744166e-02
1.681200190910648457e-02
1.796992438008086432e-02
1.892051045459439834e-02
1.964354663786777033e-02
2.012469734277801819e-02
2.035186996374382939e-02
2.032264436252934070e-02
2.003799867077178665e-02
1.950565161620474233e-02
1.874142630018620082e-02
1.776342650841957263e-02
1.659806737234156143e-02
1.527427347737962508e-02
1.382387209180348069e-02
1.228178868568534192e-02
1.068287208782098610e-02
9.061054244040731009e-03
7.449845569159944947e-03
5.878765539956122554e-03
4.373551519791914199e-03
2.957516060499621249e-03
1.645978242451806659e-03
4.521368403248167932e-04
-6.170961228206765098e-04
-1.560097478700000519e-03
-2.377239019548824106e-03
-3.074508379219877824e-03
-3.659066070991458253e-03
-4.139492315796739277e-03
-4.525425171100065994e-03
-4.825694996330801012e-03
-5.046894143306833100e-03
-5.194898340441934936e-03
-5.271440240578845540e-03
-5.275506265983085502e-03
-5.204060084120436247e-03
-5.049410107636561826e-03
-4.802998800861456308e-03
-4.454274936310901462e-03
-3.991527222579708059e-03
-3.403995299215768419e-03
-2.682922889808097774e-03
-1.820513714831250782e-03
-8.151828132819958009e-04
3.313961366105530257e-04
1.612630689925045359e-03
3.012972094223540474e-03
4.514636554502630267e-03
6.090221981359718144e-03
7.707890054903949670e-03
9.331922534662744073e-03
1.092035785589227231e-02
1.243046392479317704e-02
1.381819750874184113e-02
1.503905728730999154e-02
1.605180758134396729e-02
1.681989430288189508e-02
1.730914238187880594e-02
1.749678089844018333e-02
1.736429625952486122e-02
1.690262120648820462e-02
1.611468393680126621e-02
1.500717770902839157e-02
1.360150215173536008e-02
1.192383670216988663e-02
1.000802857857276129e-02
7.896567516585321564e-03
5.633745096250110211e-03
3.269597035394833720e-03
8.556826733824049284e-04
-1.556792037101909637e-03
-3.916974818104762904e-03
-6.175603224033366506e-03
-8.289301016397371963e-03
-1.021644861799925023e-02
-1.192257814051306784e-02
-1.337957576051717994e-02
-1.456279185080888890e-02
-1.545816045661054135e-02
-1.605428356183460914e-02
-1.634771342168917646e-02
-1.634127216563997786e-02
-1.604068360032431112e-02
-1.545946818961754614e-02
-1.461287859725249501e-02
-1.352071816713385465e-02
-1.220597354930545893e-02
-1.069283772652749112e-02
-9.008359374286786098e-03
-7.180097067653355009e-03
-5.236383980554787376e-03
-3.206031397300703432e-03
-1.117614611127497846e-03
1.000825869781194009e-03
3.121451799345410956e-03
5.217654015230874243e-03
7.263502372784136699e-03
9.233877361149684521e-03
1.110521759517708526e-02
1.285437107008424035e-02
1.446004428608971097e-02
1.590185769885222450e-02
1.716080155826756048e-02
1.822020129340547190e-02
1.906412112451442986e-02
1.968016895830463492e-02
2.005750778339424750e-02
2.018813163262160593e-02
2.006831466763674826e-02
1.969567679539752092e-02
1.907379855569960383e-02
1.820857901891151376e-02
1.710995230300128844e-02
1.579326350451690925e-02
1.427540436387383926e-02
1.257938170273400179e-02
1.073029520424820422e-02
8.756357882383603020e-03
6.689488212320170504e-03
4.562372680859058671e-03
2.410215788372482588e-03
2.689392047212214691e-04
-1.825558789115827932e-03
-3.837404685685170090e-03
-5.731332453897773974e-03
-7.474489249538888644e-03
-9.034778898438355216e-03
-1.038331959047594788e-02
-1.149424527178886588e-02
-1.234348521265258604e-02
-1.291279778744585348e-02
-1.318553621949902603e-02
-1.315063604662816167e-02
-1.280168270694530437e-02
-1.213507656662475738e-02
-1.115532784325694478e-02
-9.868992624338539243e-03
-8.289854713400981664e-03
-6.437041676689184838e-03
-4.332920485493467130e-03
-2.008132858000780813e-03
5.048129417110961380e-04
3.167392419984040811e-03
5.937137473197228246e-03
8.769750988662526614e-03
1.161682822601198956e-02
1.442933125298770207e-02
1.715773275152612798e-02
1.975223374747821919e-02
2.216477260965224461e-02
2.435086229331585861e-02
2.626733052398396578e-02
2.787856068315364838e-02
2.915285991597461185e-02
3.006440077623155627e-02
3.059792615819590528e-02
3.074101686473990069e-02
3.049406204719907337e-02
2.986332938852288149e-02
2.886229974389021430e-02
2.751596319769060439e-02
2.585195078305426580e-02
2.390822397626539420e-02
2.172691145747628061e-02
1.935386375343358528e-02
1.684019618392322559e-02
1.423756093367522547e-02
1.159837315541460863e-02
8.975227770345241274e-03
6.417643846677568119e-03
3.971271747980060877e-03
1.679600233418771134e-03
-4.231942962489411778e-04
-2.306043367688073373e-03
-3.945851527547339366e-03
-5.328420647484753692e-03
-6.442736524699588588e-03
-7.289295595168991670e-03
-7.871929739503251769e-03
-8.200959314518658366e-03
-8.293132952184098863e-03
-8.166846351855886615e-03
-7.845566736638163660e-03
-7.353971781019262230e-03
-6.717460535620733281e-03
-5.962066249974360896e-03
-5.113106110951011474e-03
-4.193517254139498412e-03
-3.225533195466947362e-03
-2.227958051546073334e-03
-1.216918065175708573e-03
-2.069414352256103082e-04
7.917535703945706264e-04
1.769901416180170561e-03
2.720769257453098389e-03
3.639377190471336249e-03
4.521103921167733512e-03
5.362129137335946635e-03
6.158659427787866250e-03
6.905872741656722547e-03
7.598312051523972016e-03
8.229565643870820693e-03
8.791163970596264227e-03
9.274187162688046770e-03
9.668051614964135593e-03
9.961272094744066941e-03
1.014223504390416100e-02
1.019909775339217055e-02
1.012023902098843631e-02
9.896005469535552185e-03
9.517714268734836502e-03
8.979086067451291786e-03
8.277903915271741728e-03
7.413240473489037669e-03
6.390325058729467989e-03
5.217044600886275307e-03
3.905205459457689911e-03
2.472477194093866681e-03
9.379153222874546392e-04
-6.740401202387320476e-04
-2.336925712988147802e-03
-4.022717597354509914e-03
-5.701322710238808725e-03
-7.342736487012004390e-03
-8.918153549995488233e-03
-1.039925223630746437e-02
-1.176076019554440390e-02
-1.298099902061192711e-02
-1.404000939355748261e-02
-1.492465704767990432e-02
-1.562394169618059291e-02
-1.613210535997375294e-02
-1.644887452745821127e-02
-1.657590738432773020e-02
-1.652144619416406196e-02
-1.629552132020894301e-02
-1.591157843136199734e-02
-1.538623535680455102e-02
-1.473680897419566045e-02
-1.398260288335033581e-02
-1.314331907166837836e-02
-1.223820125620641609e-02
-1.128611480729433542e-02
-1.030506403506332123e-02
-9.310504136856363744e-03
-8.317197916739410210e-03
-7.336908255169919540e-03
-6.379202144634950333e-03
-5.452235799848730372e-03
-4.560590155533641304e-03
-3.708053724792738197e-03
-2.895934640509303763e-03
-2.123931866508453441e-03
-1.391060172550422254e-03
-6.948179474488194035e-04
-3.246957499879708775e-05
5.989274725755025681e-04
1.202431828010692028e-03
1.780754045987535238e-03
2.335894654765771801e-03
2.869647190584173786e-03
3.382775527364870281e-03
3.875518055823578070e-03
4.347680694040578081e-03
4.798301211964920918e-03
5.226298585326739216e-03
5.630306557292679738e-03
6.008833326230865121e-03
6.360485441044235778e-03
6.684026294642039095e-03
6.978306363517271932e-03
7.242641152699992591e-03
7.476538032286386692e-03
7.679961009077574535e-03
7.853514641059506501e-03
7.998074992844137615e-03
8.115751886707031626e-03
8.209112811411411331e-03
8.281939991285711816e-03
8.339527544057763475e-03
8.387765704135147909e-03
8.434954231627248347e-03
8.490176016081346644e-03
8.564183816108374842e-03
8.669575202285074653e-03
8.819459202464970116e-03
9.028687892748018390e-03
9.312578450765314139e-03
9.686642470477842964e-03
1.016658221984530729e-02
1.076759973242681981e-02
1.150304020227236462e-02
1.238564261151365795e-02
1.342483865517109243e-02
1.462717980412998366e-02
1.599709902728330829e-02
1.753257843940162625e-02
1.922990137958538112e-02
2.107910434431618102e-02
2.306539491081539828e-02
2.517122189661508136e-02
2.737168365960492705e-02
2.964022367630263222e-02
3.194545762673287742e-02
3.425269223603424201e-02
3.652610084219517356e-02
3.872723964410042935e-02
4.081734949665892509e-02
4.275850295085222713e-02
4.451328799303556211e-02
4.604634768780012377e-02
4.732673444449279898e-02
4.832485660190226351e-02
4.901827908678094842e-02
4.938844253313512400e-02
4.942153685603854069e-02
4.911269707992683281e-02
4.845924566663764588e-02
4.746783641477307636e-02
4.614958954564113425e-02
4.452004669771066070e-02
4.260211968696218238e-02
4.042019740326673743e-02
3.800391496050187223e-02
3.538511051533650698e-02
3.259685889774573825e-02
2.967405970652065711e-02
2.665161971796095597e-02
2.356361769141837592e-02
2.044378356554069076e-02
1.732397162158587356e-02
1.423356966062205159e-02
1.120097864838391286e-02
8.250407537059713942e-03
5.404631250928034446e-03
2.683450898738008912e-03
1.031982108935171512e-04
-2.320908023462155828e-03
-4.577738103601104724e-03
-6.657403464975496579e-03
-8.552504349852283264e-03
-1.025821876411375615e-02
-1.177067672266172808e-02
-1.308924701103558220e-02
-1.421421576842391878e-02
-1.514845271434344699e-02
-1.589720334482946223e-02
-1.646698057473579280e-02
-1.686829855943314943e-02
-1.711273920870347298e-02
-1.721548063602147682e-02
-1.719463680236089920e-02
-1.706994849011751747e-02
-1.686572745357090702e-02
-1.660736527124157674e-02
-1.632348073060535532e-02
-1.604502979718900463e-02
-1.580380567197062908e-02
-1.563364193366475335e-02
-1.556863932659535883e-02
-1.564220702846422228e-02
-1.588730291210076195e-02
-1.633500038500323298e-02
-1.701208777151295981e-02
-1.794400168086741909e-02
-1.914875583272649534e-02
-2.064011798588814839e-02
-2.242668151837062113e-02
-2.450673510328583993e-02
-2.687599963193211539e-02
-2.951897892781310540e-02
-3.241450105930979153e-02
-3.553585626183408674e-02
-3.884658333577970662e-02
-4.230823348315339988e-02
-4.587520745106229980e-02
-4.949872912057740049e-02
-5.312845929370359210e-02
-5.671162775412862816e-02
-6.019561088366797569e-02
-6.353004066572873199e-02
-6.666551242799316490e-02
-6.955671038720451227e-02
-7.216399902774148223e-02
-7.444994497831643188e-02
-7.638684026281832018e-02
-7.795047806932126067e-02
-7.912362385960242106e-02
-7.989763318275631965e-02
-8.026643784947720683e-02
-8.023369072265990054e-02
-7.980610528108768309e-02
-7.899521525345994111e-02
-7.781782629167977028e-02
-7.629182641250450980e-02
-7.443847607491380081e-02
-7.227989801257758695e-02
-6.983798483270443891e-02
-6.713440565059003440e-02
-6.418993755830056103e-02
-6.102216920604330158e-02
-5.764777042086795256e-02
-5.407985457447254951e-02
-5.032846904625133677e-02
-4.640220044203714062e-02
-4.230534482941408075e-02
-3.804121253762412364e-02
-3.361101043589678067e-02
-2.901433686322316130e-02
-2.425073236790027675e-02
-1.931969049521320425e-02
-1.422087232878358094e-02
-8.956123495245825114e-03
-3.528776077146265032e-03
2.055960041307024547e-03
7.788395861224607294e-03
1.365769796943294007e-02
1.964797119586610824e-02
2.574026988248719755e-02
3.191319900931118697e-02
3.814023422148267450e-02
4.439381846665765158e-02
5.064301388278778099e-02
5.685508729800917149e-02
6.299693218405824635e-02
6.903477161772468562e-02
7.493507783949769629e-02
8.066682901294193464e-02
8.620021453887029284e-02
9.150834807011978822e-02
9.656918516796691998e-02
1.013621394894382716e-01
1.058733409661185704e-01
1.100917565736121012e-01
1.140103458557299165e-01
1.176279208406964816e-01
1.209447020081481777e-01
1.239663825531375912e-01
1.267006857603809877e-01
1.291575525243175981e-01
1.313498077228081873e-01
1.332907457680812813e-01
1.349950581677416828e-01
1.364778680124576760e-01
1.377540185286765528e-01
1.388380294551077032e-01
1.397440269580902117e-01
1.404844812688823552e-01
1.410713389394333550e-01
1.415149230062490993e-01
1.418238917407018407e-01
1.420061715249430201e-01
1.420671658044039831e-01
1.420115692540491747e-01
1.418420741523557516e-01
1.415595498326912838e-01
1.411639508935148279e-01
1.406523860899394351e-01
1.400212188578161820e-01
1.392644099019919313e-01
1.383739780298660349e-01
1.373408834622228403e-01
1.361531444689302317e-01
1.347980798469695096e-01
1.332608159457924768e-01
1.315249067741084688e-01
1.295731018719051553e-01
1.273861710020025295e-01
1.249444751412422949e-01
1.222272941982846944e-01
1.192132217973196490e-01
1.158807640327364774e-01
1.122082540163398673e-01
1.081741186939646632e-01
1.037579232284975700e-01
9.893988221600870381e-02
9.370164149783434537e-02
8.802767955910729969e-02
8.190336241930649963e-02
7.531864499921231415e-02
6.826579306958652227e-02
6.074039865001654159e-02
5.274386561847960869e-02
4.427915317950499585e-02
3.535614181451223609e-02
2.598779435332319171e-02
1.619096616530790733e-02
5.988538431825850966e-03
-4.595216023341867559e-03
-1.553061457610045888e-02
-2.678585875439653402e-02
-3.832719570906644585e-02
-5.011818959569925430e-02
-6.212210150099983091e-02
-7.430161091084837299e-02
-8.661923297916969411e-02
-9.903852729364343022e-02
-1.115243279650483255e-01
-1.240421115668481900e-01
-1.365600078981709931e-01
-1.490469822638697817e-01
-1.614735331710249189e-01
-1.738118192778159987e-01
-1.860341986284074212e-01
-1.981135058559077011e-01
-2.100226296224680378e-01
-2.217330023860718535e-01
-2.332146566575182267e-01
-2.444363440320279079e-01
-2.553624449288325327e-01
-2.659561058251433963e-01
-2.761759283453252278e-01
-2.859766351458692402e-01
-2.953110117918629207e-01
-3.041261913332591882e-01
-3.123680169671904094e-01
-3.199795423950874129e-01
-3.269017102029946331e-01
-3.330757376211641585e-01
-3.384437342360870349e-01
-3.429484197067676488e-01
-3.465381465258575711e-01
-3.491650628265552947e-01
-3.507863954488674163e-01
-3.513713686437746064e-01
-3.508924272221656260e-01
-3.493372314410211898e-01
-3.467025273711725752e-01
-3.429938132401167961e-01
-3.382347802910177226e-01
-3.324533021813280143e-01
-3.256939734801011510e-01
-3.180102219678462849e-01
-3.094621094281353457e-01
-3.001218830263240323e-01
-2.900637768208902401e-01
-2.793670842727784542e-01
-2.681134054855620619e-01
-2.563820594810417575e-01
-2.442485979240279492e-01
-2.317862718495437568e-01
-2.190554142531688786e-01
-2.061108803935624012e-01
-1.929960409599345006e-01
-1.797375898376586401e-01
-1.663571875602110894e-01
-1.528551122012634933e-01
-1.392237059132443167e-01
-1.254434133927005979e-01
-1.114793564503022139e-01
-9.729326003425187164e-02
-8.283492252316568272e-02
-6.805036750142974544e-02
-5.288401275966043980e-02
-3.727844108408554652e-02
-2.117790515987551248e-02
-4.534373384116319877e-03
1.269759708900148817e-02
3.055193216674525342e-02
4.905086609633441813e-02
6.821055360145142354e-02
8.802602776581436306e-02
1.084864464591397265e-01
1.295644879500219282e-01
1.512179778820509635e-01
1.733987164746870202e-01
1.960402804702354729e-01
2.190718874977140296e-01
2.424134667803730103e-01
2.659775182133861660e-01
2.896751673371575353e-01
3.134141566451789651e-01
3.371019012023474537e-01
3.606495613408260970e-01
3.839709626274138698e-01
4.069839111784144814e-01
4.296161883791318470e-01
4.517981219026579454e-01
4.734710776713804137e-01
4.945833760267532853e-01
5.150882172186306285e-01
5.349494629219558872e-01
5.541330438635384548e-01
5.726108573309686145e-01
5.903581144792628965e-01
6.073501718487772649e-01
6.235626023375188121e-01
6.389703120874994369e-01
6.535425327324402289e-01
6.672456496809395787e-01
6.800405297326773679e-01
6.918784834533475703e-01
7.027082084085451985e-01
7.124666762230158490e-01
7.210857030487028974e-01
7.284913633003667899e-01
7.346009360282005352e-01
7.393302008549229587e-01
7.425903309762320603e-01
7.442907977263324426e-01
7.443429303890578552e-01
7.426605930216473306e-01
7.391599462775227947e-01
7.337684204153022138e-01
7.264175428689726433e-01
7.170507407495223529e-01
7.056258116810806280e-01
6.921061910725786470e-01
6.764774946705220948e-01
6.587323643101282711e-01
6.388790374224292412e-01
6.169424699281418345e-01
5.929531795336527855e-01
5.669608662795017073e-01
5.390205483191470304e-01
5.091970821921737445e-01
4.775646879619300234e-01
4.441998311447686310e-01
4.091855906197184312e-01
3.726065384342193143e-01
3.345478477817609431e-01
2.950951992022563530e-01
2.543333822919530141e-01
2.123443905346467098e-01
1.692094738865630998e-01
1.250069161626778114e-01
7.981277731208721860e-02
3.370233091207455733e-02
-1.325112693059769288e-02
-6.097456217205941137e-02
-1.093941152181871906e-01
-1.584353724380536677e-01
-2.080222565526077538e-01
-2.580747720255318067e-01
-3.085118223911737512e-01
-3.592468325464255319e-01
-4.101899902539634657e-01
-4.612485944727952036e-01
-5.123240068828244231e-01
-5.633163949268465975e-01
-6.141219566710228728e-01
-6.646348276531843791e-01
-7.147488790453996321e-01
-7.643575280427775676e-01
-8.133546434883899279e-01
-8.616378800744585176e-01
-9.091066848595241723e-01
-9.556646707169574873e-01
-1.001222207769733030e+00
-1.045691645469950082e+00
-1.088994230833584931e+00
-1.131054878577012479e+00
-1.171802956521268424e+00
-1.211174227639798540e+00
-1.249105422024969769e+00
-1.285535943684496862e+00
-1.320406059658166598e+00
-1.353653055208077660e+00
-1.385210409624032302e+00
-1.415008702815844455e+00
-1.442965406302569198e+00
-1.468993477503588219e+00
-1.492992175964082069e+00
-1.514845254244450157e+00
-1.534430148435885988e+00
-1.551600677934546368e+00
-1.566203649526370922e+00
-1.578070693181605089e+00
-1.587018185745342924e+00
-1.592858566348828608e+00
-1.595391993848951140e+00
-1.594415828793462220e+00
-1.589729041192519343e+00
-1.581132038465241418e+00
-1.568431304750308231e+00
-1.551453086302546192e+00
-1.530029617779245843e+00
-1.504023482581395399e+00
-1.473321309605130525e+00
-1.437828510737709120e+00
-1.397502477983446179e+00
-1.352313786291433839e+00
-1.302284293114978730e+00
-1.247471911837944480e+00
-1.187958544921689841e+00
-1.123884534250076506e+00
-1.055403167596401293e+00
-9.827109282798152101e-01
-9.060312100453412620e-01
-8.256003853247895208e-01
-7.416826161380513094e-01
-6.545460777014060483e-01
-5.644617182351164830e-01
-4.717019134473114383e-01
-3.765273003898351734e-01
-2.791756268876770530e-01
-1.798763814647643955e-01
-7.881353891208985052e-02
2.385139298544222686e-02
1.279896297421495299e-01
2.335284099960229787e-01
3.404090214517918045e-01
4.486323052379554421e-01
5.582249518008098876e-01
6.692387877569095922e-01
7.817637392291948428e-01
8.958944699047186599e-01
1.011734986899895938e+00
1.129392275588226191e+00
1.248951246754649080e+00
1.370467044028672143e+00
1.493975381895192855e+00
1.619420720924505064e+00
1.746715104956398035e+00
1.875689871412029142e+00
2.006079872266557373e+00
2.137568179526127210e+00
2.269626349613490301e+00
2.401665321335401782e+00
2.533096028459878024e+00
2.663329404754842589e+00
