BVP Signal
-2.749092604387897570e-02
-2.159093569521700062e-02
-1.556887179845214964e-02
-9.449249068033307997e-03
-3.256582218409215246e-03
2.984613233437322100e-03
9.240167571941904079e-03
1.544222428238092859e-02
2.151426155517435768e-02
2.735727196664775041e-02
3.285343975116541970e-02
3.787743184302685973e-02
4.228276249818618826e-02
4.591874394890235744e-02
4.863205975979276174e-02
5.026745610160229805e-02
5.067674651342099490e-02
4.973073374202389985e-02
4.730642729325694462e-02
4.331746933818902967e-02
3.770167321839971997e-02
3.042244311783909305e-02
2.150217044592843407e-02
1.097802430112360117e-02
-1.048598821782282392e-03
-1.443874353102519645e-02
-2.902109253116447879e-02
-4.455852522457039167e-02
-6.079995035500210254e-02
-7.744357655725980782e-02
-9.416144007004562111e-02
-1.106121980456716697e-01
-1.264305468323520254e-01
-1.412500429955998726e-01
-1.547147121317609952e-01
-1.664737301827520777e-01
-1.762037605816260954e-01
-1.836256528188088544e-01
-1.884768560155007378e-01
-1.905763016450744973e-01
-1.897766078198282191e-01
-1.859921858378267845e-01
-1.792253627603806743e-01
-1.695040949311932554e-01
-1.569624549547634917e-01
-1.417731078821473367e-01
-1.241668448122463519e-01
-1.044478288236108943e-01
-8.293697497850548161e-02
-6.001408768339522304e-02
-3.607733983844700620e-02
-1.153661191482685533e-02
1.318509821193630110e-02
3.766991476887763396e-02
6.152473357109876362e-02
8.436488067390701673e-02
1.058475541909887491e-01
1.256716148800271493e-01
1.435584296723749487e-01
1.593062880779280710e-01
1.727346176153401469e-01
1.837238398345651114e-01
1.922082560257593886e-01
1.981453069784059329e-01
2.015614489317605063e-01
2.024997322100201835e-01
2.010436766944999898e-01
1.973085306138377126e-01
1.914203937273101230e-01
1.835337315378142709e-01
1.738087110237926391e-01
1.624146166916781708e-01
1.495270683414620660e-01
1.353219682774682298e-01
1.199756032351558255e-01
1.036641880582178099e-01
8.656251283398708196e-02
6.884449571369416487e-02
5.068492008914182723e-02
3.226048899435524087e-02
1.374879412494212083e-02
-4.666663330712750302e-03
-2.279914021292550608e-02
-4.045848692319531370e-02
-5.744805209011899505e-02
-7.357034551000563027e-02
-8.862708550415843156e-02
-1.024196946903190852e-01
-1.147561641805307370e-01
-1.254556679012322762e-01
-1.343427851609910739e-01
-1.412718994219658297e-01
-1.461104873601988263e-01
-1.487546238604703086e-01
-1.491433841625494083e-01
-1.472299434433386733e-01
-1.430305984569978928e-01
-1.365860517557711540e-01
-1.279792479312623632e-01
-1.173494524511770609e-01
-1.048513704798065826e-01
-9.069967917538346303e-02
-7.512935027274753041e-02
-5.840220196240686334e-02
-4.081182079150230679e-02
-2.265669563224698146e-02
-4.249209720185220807e-03
1.409471677003282242e-02
3.206922676108664438e-02
4.937903701718776572e-02
6.573908271881218068e-02
8.090271961553091584e-02
9.463477402206338374e-02
1.067402918934024364e-01
1.170618376615093492e-01
1.254605986576229626e-01
1.318570555260150101e-01
1.361870646522625738e-01
1.384299963559951219e-01
1.386012554842022959e-01
1.367321379509104373e-01
1.328985681840739452e-01
1.271867861622862361e-01
1.197101010085128148e-01
1.106017136776329401e-01
1.000033771269070448e-01
8.807821110362595851e-02
7.499383737617187906e-02
6.092983344662089573e-02
4.607356797514483571e-02
3.061593516979457807e-02
1.475569526633849216e-02
-1.306975749519989627e-03
-1.736886207217638867e-02
-3.322500591591853736e-02
-4.867150876984890906e-02
-6.350667684578750749e-02
-7.753021561580009102e-02
-9.055151282450647765e-02
-1.023849915295682866e-01
-1.128559049896075833e-01
-1.218089413692268197e-01
-1.290952660470655322e-01
-1.345988359524343536e-01
-1.382186842900532397e-01
-1.398795650583842809e-01
-1.395470792215605937e-01
-1.371987904938759828e-01
-1.328654026421714207e-01
-1.265992166248347262e-01
-1.184851993758012090e-01
-1.086543129288369824e-01
-9.724924638255355580e-02
-8.445850916938815733e-02
-7.048695507239625957e-02
-5.555893448249095423e-02
-3.992315821383553287e-02
-2.383203154923800582e-02
-7.548383285962662059e-03
8.662059328819499138e-03
2.454039137889096542e-02
3.983527889689263135e-02
5.430232643978748219e-02
6.772468930356567718e-02
7.989406096519335865e-02
9.063100069826796057e-02
9.978450238749952961e-02
1.072173252344732763e-01
1.128383514549448630e-01
1.165690322005299845e-01
1.183671130050375497e-01
1.182220805712970169e-01
1.161384958104984683e-01
1.121658107747826177e-01
1.063646448724658300e-01
9.882879067484376390e-02
8.967779302297620991e-02
7.904428979255249954e-02
6.709574706690790702e-02
5.400753738707096685e-02
3.997848897073572050e-02
2.522358122768242339e-02
9.964916267225967794e-03
-5.558665440282870018e-03
-2.110546775767177530e-02
-3.643026146054734182e-02
-5.128569406734891090e-02
-6.542952928798868861e-02
-7.863066264828676155e-02
-9.066232040952106053e-02
-1.013241638976810077e-01
-1.104302719847757436e-01
-1.178167965440972964e-01
-1.233617124496233092e-01
-1.269546388879094490e-01
-1.285400417885752544e-01
-1.280888563056544749e-01
-1.256057832288215992e-01
-1.211521301281370117e-01
-1.148029540654133540e-01
-1.066900056049358836e-01
-9.696916346468460735e-02
-8.582121561120521769e-02
-7.346396181245724855e-02
-6.012148435435246685e-02
-4.603718049619988373e-02
-3.146141298192019209e-02
-1.664007172390636474e-02
-1.813123809181811652e-03
1.278601003113345735e-02
2.695550058064992774e-02
4.050468345527941105e-02
5.327512919292229365e-02
6.514617953405031636e-02
7.601136983772444067e-02
8.581821825382328350e-02
9.453069099090292970e-02
1.021455941971693704e-01
1.086938943307418082e-01
1.142154341337464213e-01
1.187785251323457969e-01
1.224586120430747049e-01
1.253347107084644141e-01
1.274891341200422301e-01
1.289990668089776027e-01
1.299237820207941319e-01
1.303171148562629611e-01
1.302061581602831364e-01
1.295960778210991649e-01
1.284784539697293726e-01
1.268063013795079907e-01
1.245235699669019758e-01
1.215479296554521638e-01
1.177779385962386682e-01
1.131068780180282951e-01
1.074153747279680826e-01
1.005830224048192834e-01
9.250108330023287806e-02
8.306840524282854687e-02
7.220135787491523127e-02
5.985620822069459557e-02
4.600071278462571078e-02
3.066103249182529356e-02
1.389684515158273737e-02
-4.196246892549104768e-03
-2.345087586875319388e-02
-4.368291473473754488e-02
-6.463958826225441046e-02
-8.603330152461580171e-02
-1.075486169254966928e-01
-1.288209407526287598e-01
-1.494779295588917478e-01
-1.691277580261786317e-01
-1.873701737562644687e-01
-2.038174625810975915e-01
-2.181017316864579114e-01
-2.298671352341162266e-01
-2.388228563694150819e-01
-2.447047018347847103e-01
-2.473092931369825220e-01
-2.465180650052328226e-01
-2.422401516123676157e-01
-2.345020080133493057e-01
-2.233721751349607709e-01
-2.089921204265039467e-01
-1.915935416737277741e-01
-1.714320379269939354e-01
-1.488505645959317669e-01
-1.242193041444280555e-01
-9.794104847704507288e-02
-7.045440697639097916e-02
-4.220049822485220925e-02
-1.362325169764124974e-02
1.483389788218378996e-02
4.275447618315046661e-02
6.974830158321919382e-02
9.544400012858970939e-02
1.195344968058978663e-01
1.417305302743007422e-01
1.618009044735769508e-01
1.795646968525960174e-01
1.948648795353618013e-01
2.076148912419116255e-01
2.177451326939579546e-01
2.252312600391744857e-01
2.300837040171158088e-01
2.323267739688158473e-01
2.320208011736445419e-01
2.292336673599362773e-01
2.240502427677030783e-01
2.165669750340858957e-01
2.068845859919433150e-01
1.951136564057786293e-01
1.813670031779750780e-01
1.657655671520289475e-01
1.484352244901990803e-01
1.295089857383385223e-01
1.091349836282808350e-01
8.746602682885037949e-02
6.467964588372160373e-02
4.096669481558599252e-02
1.653567540430454091e-02
-8.371846868067564507e-03
-3.350619274713724505e-02
-5.858300388499276812e-02
-8.330146087186648951e-02
-1.073474020543006557e-01
-1.303845819603965672e-01
-1.520746165924343474e-01
-1.720788153447160296e-01
-1.900587219948390305e-01
-2.056949119000398007e-01
-2.186960405584013611e-01
-2.287844179077007101e-01
-2.357489820847470940e-01
-2.394043194747658143e-01
-2.396245467765996673e-01
-2.363615852069306245e-01
-2.295938663216832154e-01
-2.194079220645928086e-01
-2.059267949060752390e-01
-1.893418024336275818e-01
-1.699234573769622669e-01
-1.479641704443172001e-01
-1.238337226307973660e-01
-9.792445695941243144e-02
-7.065637359132277695e-02
-4.247795425046134443e-02
-1.383806033438896022e-02
1.481802159447795364e-02
4.304743546152695055e-02
7.043815914909018483e-02
9.660636323126761682e-02
1.211889081934110213e-01
1.438889140787582011e-01
1.644272024179641023e-01
1.825854394891061605e-01
1.981946779148541227e-01
2.111117407323790385e-01
2.212651994735647110e-01
2.286003434976846549e-01
2.331107559194317003e-01
2.348247995809845667e-01
2.337863310807797856e-01
2.300772440626792648e-01
2.237871928261837562e-01
2.150253045239857164e-01
2.039131408692432812e-01
1.905780310838212088e-01
1.751599348113508370e-01
1.578017869833067688e-01
1.386585326090960246e-01
1.178919565526254792e-01
9.567343237413572510e-02
7.219334032824648029e-02
4.764760897650581473e-02
2.225962525370275835e-02
-3.733363548674234478e-03
-3.007646077414638519e-02
-5.648381659667167654e-02
-8.266245953075318509e-02
-1.082908562078568060e-01
-1.330348410226819544e-01
-1.565528768132266602e-01
-1.784920103481776876e-01
-1.985007156972122822e-01
-2.162425456295811177e-01
-2.313875491793759287e-01
-2.436369035559128871e-01
-2.527347816668157887e-01
-2.584445364153795666e-01
-2.606163947908602951e-01
-2.591320218492422778e-01
-2.539466527506492044e-01
-2.451056495412147762e-01
-2.326854998806852648e-01
-2.168835700739984440e-01
-1.979355393048807810e-01
-1.761494991425040235e-01
-1.519122873381769656e-01
-1.256310567340536144e-01
-9.778022512925238496e-02
-6.885202165639461858e-02
-3.934984666333689318e-02
-9.787885511476022635e-03
1.933014816237913977e-02
4.753969162711890045e-02
7.438862491871434113e-02
9.948964711842273045e-02
1.225110217513185329e-01
1.431572159002497402e-01
1.612405069565010507e-01
1.766002872526294121e-01
1.891648700501663560e-01
1.989302189729520443e-01
2.059252263941886985e-01
2.102644546263405245e-01
2.120805157676971531e-01
2.115491404948737775e-01
2.088751261145773142e-01
2.042676067573353516e-01
1.979448464085650783e-01
1.901243076770303686e-01
1.810009760966948822e-01
1.707563125422972006e-01
1.595513155982778153e-01
1.475040434009898815e-01
1.347222450091903889e-01
1.212703307419470689e-01
1.071897336855150290e-01
9.250657117588446943e-02
7.721875011689734170e-02
6.132082805710104001e-02
4.480534917014497576e-02
2.766414692409041240e-02
9.905081879293321789e-03
-8.437536161566699944e-03
-2.731888560643766506e-02
-4.664062567549141780e-02
-6.628181119998767523e-02
-8.608325530359406397e-02
-1.058300173435371971e-01
-1.252931311060474506e-01
-1.441881242805407859e-01
-1.622101891176361554e-01
-1.790372238862237009e-01
-1.943247721105941239e-01
-2.077299785458464887e-01
-2.189255057948418515e-01
-2.275903029310123171e-01
-2.334458737143008389e-01
-2.362625964421039559e-01
-2.358373099209170876e-01
-2.320709520516821833e-01
-2.248967162705871603e-01
-2.143374232605522456e-01
-2.005072725230337971e-01
-1.835564934649578650e-01
-1.637572237410882536e-01
-1.414143065887879525e-01
-1.169023069962898120e-01
-9.065889732992750416e-02
-6.313725737226021095e-02
-3.483466755837368728e-02
-6.257025792435769174e-03
2.209870528679311330e-02
4.974275866119039213e-02
7.620649893296001232e-02
1.010822807751409202e-01
1.239795820416376426e-01
1.445889476935335871e-01
1.626587583374585477e-01
1.779807580432551939e-01
1.904542785354957357e-01
2.000034544998565700e-01
2.066412057085935672e-01
2.104366023383842377e-01
2.114914849837437050e-01
2.099792692723472243e-01
2.060867876979907420e-01
2.000361103602048274e-01
1.920689710866091970e-01
1.824285754872755627e-01
1.713606170181974919e-01
1.591081833459326300e-01
1.458904706943090490e-01
1.319146678335886280e-01
1.173669033616764334e-01
1.023966903841556086e-01
8.714431613879781990e-02
7.171064255225731432e-02
5.617917636617124344e-02
4.061732963154570525e-02
2.506777134613390884e-02
9.569782813269409050e-03
-5.845184217617933886e-03
-2.114846965034770238e-02
-3.630318407813774156e-02
-5.126117401557132164e-02
-6.596809562556016360e-02
-8.034080432451570775e-02
-9.428591095638305664e-02
-1.076884661707790958e-01
-1.204073735259993949e-01
-1.322948334541088622e-01
-1.431791181963810722e-01
-1.528814481843705497e-01
-1.612209046379260158e-01
-1.680142664107760198e-01
-1.730842806937451239e-01
-1.762784283364048910e-01
-1.774522904426457104e-01
-1.764999640414762760e-01
-1.733523618534014987e-01
-1.679621330415235758e-01
-1.603538000057156132e-01
-1.505712575871917536e-01
-1.387183304334513589e-01
-1.249496983106854475e-01
-1.094425933189061562e-01
-9.243912504359297344e-02
-7.419617598519981372e-02
-5.500312880727675768e-02
-3.517383008106150788e-02
-1.502518654725611136e-02
5.119216605673104770e-03
2.493645566887327594e-02
4.412529787226901479e-02
6.239904701372198104e-02
7.949145641252783334e-02
9.518432974527153700e-02
1.092718741022233042e-01
1.216041576092405374e-01
1.320643921400823650e-01
1.405643442311526881e-01
1.470746947038322761e-01
1.515789225948745433e-01
1.541081383446421260e-01
1.547184505687604350e-01
1.534830499012112548e-01
1.505062874610220147e-01
1.458978136115454682e-01
1.397819771658024846e-01
1.322898865830019477e-01
1.235530696537207040e-01
1.137036807360129742e-01
1.028728505710657104e-01
9.118459688337898772e-02
7.875996868755424929e-02
6.571525674597217259e-02
5.215988505015103915e-02
3.820220011546653083e-02
2.394745880067580129e-02
9.499900233310917819e-03
-5.033334159556322566e-03
-1.954138201308879691e-02
-3.391089206586592186e-02
-4.801735878302815230e-02
-6.173252683968655230e-02
-7.491955840209343909e-02
-8.743185801179109706e-02
-9.912075091868943755e-02
-1.098308501328532916e-01
-1.194051630203626646e-01
-1.276916216491897349e-01
-1.345431289875758940e-01
-1.398194771199502973e-01
-1.434056398299767832e-01
-1.451942635922041647e-01
-1.451109137323050025e-01
-1.431106561140825517e-01
-1.391666207054105542e-01
-1.333080265528409913e-01
-1.255786629812634669e-01
-1.160699954046259808e-01
-1.049114151310648058e-01
-9.225085848046662984e-02
-7.828668309435318773e-02
-6.322830683886732084e-02
-4.731188353289374204e-02
-3.079242165749945803e-02
-1.392767155710794222e-02
3.018686864051217320e-03
1.978361268956920979e-02
3.612142499491076408e-02
5.179736291209826454e-02
6.659383367497673234e-02
8.033099402578168513e-02
9.283880440718228488e-02
1.039920314796932699e-01
1.136903554383991294e-01
1.218564071148159900e-01
1.284572042562444616e-01
1.334692416679129912e-01
1.369042866118609647e-01
1.387914281404850625e-01
1.391716945766498237e-01
1.381065386336673417e-01
1.356605615825439426e-01
1.319062438994524078e-01
1.269194255300127028e-01
1.207749086644955838e-01
1.135458899127194665e-01
1.053046294267176997e-01
9.611851002558804979e-02
8.605306232063036909e-02
7.517311111763075315e-02
6.354253008369087352e-02
5.122649119878611157e-02
3.829739638642509769e-02
2.483035994274056246e-02
1.091129457044888451e-02
-3.360920458238200736e-03
-1.788175526724494757e-02
-3.252416788727627295e-02
-4.715403303636048898e-02
-6.162170404509326183e-02
-7.576099045746044480e-02
-8.940133894017907035e-02
-1.023578929032205043e-01
-1.144422366734023089e-01
-1.254666737618862216e-01
-1.352441886717527242e-01
-1.435937470640933356e-01
-1.503551940417080512e-01
-1.553748222810703017e-01
-1.585310063873128783e-01
-1.597290767335516892e-01
-1.588934014043770770e-01
-1.560041040914323385e-01
-1.510555247403166934e-01
-1.440929691785957090e-01
-1.351997486886733213e-01
-1.244806807457298214e-01
-1.120958354157723103e-01
-9.821734263796125242e-02
-8.305203350066528434e-02
-6.682967336190365204e-02
-4.978758151905865459e-02
-3.217990793615271850e-02
-1.426261595659202019e-02
3.714520181049736202e-03
2.150542148202871234e-02
3.887645709285392215e-02
5.561969804692838693e-02
7.153459630441585948e-02
8.645715177285043240e-02
1.002424288479361325e-01
1.127663246920325157e-01
1.239425340002029696e-01
1.336931413363895427e-01
1.419729763475213735e-01
1.487519332843258435e-01
1.540120197841075012e-01
1.577546977517465809e-01
1.599845971284676038e-01
1.607154337644158548e-01
1.599645596389876745e-01
1.577495926315006791e-01
1.540885174458879181e-01
1.489990461963721091e-01
1.424971937305321290e-01
1.345984480099114144e-01
1.253207967144119861e-01
1.146853994830620282e-01
1.027169217115259103e-01
8.945623920144882280e-02
7.494993856366918838e-02
5.926598065422988837e-02
4.249638541784168944e-02
2.474479319389652487e-02
6.159087891282749583e-03
-1.309949761019991998e-02
-3.283493596727205671e-02
-5.281643031754133799e-02
-7.280094164628952980e-02
-9.250537269064683377e-02
-1.116365156514684404e-01
-1.298868243106320874e-01
-1.469360341658686453e-01
-1.624671957430895153e-01
-1.761755970386231218e-01
-1.877614736420862573e-01
-1.969631264407083748e-01
-2.035488482618721950e-01
-2.073149969476853482e-01
-2.081355945764540860e-01
-2.059048179526481448e-01
-2.005999749496382711e-01
-1.922564902045383883e-01
-1.809502142837697836e-01
-1.668550424625204198e-01
-1.501666915945666647e-01
-1.311550434546603916e-01
-1.101359215937025848e-01
-8.744858384407613872e-02
-6.348226966051614961e-02
-3.863418772246176441e-02
-1.331396986599723414e-02
1.206206117652543208e-02
3.708882247418784917e-02
6.138311958572298388e-02
8.457037747496683189e-02
1.063251786910826002e-01
1.263462432619966713e-01
1.443683133733474899e-01
1.601874499372972216e-01
1.736156871861494200e-01
1.845342478918081119e-01
1.928543449820353528e-01
1.985239051657349818e-01
2.015462269288981756e-01
2.019374091831111495e-01
1.997628533148078644e-01
1.951068234859630324e-01
1.880749288831584098e-01
1.788013462000904163e-01
1.674265031096190126e-01
1.541130644190335242e-01
1.390312618937330769e-01
1.223615907371253808e-01
1.042967436796684855e-01
8.503315337998663959e-02
6.478105751742689600e-02
4.375501413260768357e-02
2.217948031993029201e-02
2.893589456158356110e-04
-2.167672721509960460e-02
-4.346735796111990402e-02
-6.482770153660871726e-02
-8.549814298162838888e-02
-1.052145865214647869e-01
-1.237146805772093572e-01
-1.407427186325653223e-01
-1.560456388489024349e-01
-1.693906980111984928e-01
-1.805620571821298093e-01
-1.893600749685468432e-01
-1.956326147381900471e-01
-1.992404579312397339e-01
-2.000999579969759412e-01
-1.981685050880693799e-01
-1.934332773285884488e-01
-1.859579344390293043e-01
-1.758242388510017906e-01
-1.631797629431669394e-01
-1.482151771686928687e-01
-1.311470016571743835e-01
-1.122502366365957238e-01
-9.181133005685984672e-02
-7.014829686434519151e-02
-4.759741475482356932e-02
-2.449740370293831265e-02
-1.191536485102746151e-03
2.197888145358876943e-02
4.469429618143662408e-02
6.664648974429696060e-02
8.754944256471597352e-02
1.071571321628661810e-01
1.252346091090321967e-01
1.415978457938498192e-01
1.560861489461004004e-01
1.685672865794318742e-01
1.789543724062270802e-01
1.871709602472411693e-01
1.931815110711549988e-01
1.969670172937620922e-01
1.985257896705511227e-01
1.978806118288529148e-01
1.950593057431101451e-01
1.901074337221093646e-01
1.830769227728154536e-01
1.740275776175759237e-01
1.630290886364409719e-01
1.501547176867384925e-01
1.354920152273362821e-01
1.191334229474202699e-01
1.011872344689363629e-01
8.177940800846485170e-02
6.104523632187591059e-02
3.915558511233499517e-02
1.629216821564651724e-02
-7.330763831203152003e-03
-3.146677171928435879e-02
-5.585584067624778382e-02
-8.019293075039102270e-02
-1.041613206631836208e-01
-1.274203802337365854e-01
-1.496084822004328241e-01
-1.703622882379541292e-01
-1.893152475720790706e-01
-2.061020055720937383e-01
-2.203852754381274703e-01
-2.318496721666822302e-01
-2.402065857256708847e-01
-2.452412242541128218e-01
-2.467588260123889099e-01
-2.446556319168825544e-01
-2.388908803073236942e-01
-2.294734161340269973e-01
-2.165315820185960694e-01
-2.002213220018232431e-01
-1.808010042211829205e-01
-1.585918329482796929e-01
-1.339533715662652447e-01
-1.073265785561631491e-01
-7.916694078965337555e-02
-4.996547117233909874e-02
-2.023232756408013117e-02
9.528681155016083953e-03
3.882626587345748559e-02
6.717759588222439737e-02
9.415576112819204480e-02
1.193611218699313359e-01
1.424413072160391203e-01
1.631236385644475595e-01
1.811571189440277507e-01
1.963866193909170610e-01
2.086981683622170514e-01
2.180296811469640272e-01
2.243965495308875013e-01
2.278316466267298890e-01
2.284340011589836017e-01
2.263275677359665172e-01
2.216596812078557854e-01
2.146086465409868804e-01
2.053568289205935926e-01
1.940965417493064615e-01
1.810231149960176422e-01
1.663259272213465367e-01
1.501873504272764615e-01
1.327859449678852055e-01
1.142849101140138435e-01
9.484285381356967470e-02
7.461171245282414988e-02
5.373645278285123228e-02
3.236279918733702549e-02
1.064073829664567358e-02
-1.127799447372224151e-02
-3.322750446033178456e-02
-5.502876398187350748e-02
-7.649429916129914242e-02
-9.740939233975048905e-02
-1.175523783658517230e-01
-1.366830810741542224e-01
-1.545460860195349839e-01
-1.708837478803039989e-01
-1.854330982410083428e-01
-1.979316237099562614e-01
-2.081368307555123143e-01
-2.158208833995959863e-01
-2.207777584836655982e-01
-2.228577842732676340e-01
-2.219267652313705597e-01
-2.179245380398983634e-01
-2.108389863171855338e-01
-2.006999991886197765e-01
-1.876323953825496105e-01
-1.717828087399663473e-01
-1.533821397110285145e-01
-1.327097213320148350e-01
-1.100775812352860206e-01
-8.586292035550266433e-02
-6.045439145020808924e-02
-3.427092798922443118e-02
-7.746706139591025275e-03
1.868865267248763506e-02
4.461389186745622071e-02
6.961464765896133167e-02
9.332070139875606185e-02
1.153820904175194284e-01
1.354880822958629272e-01
1.533899045227706814e-01
1.688565580446129699e-01
1.817350115015357592e-01
1.919036745520331100e-01
1.992856919635807578e-01
2.038668294992545538e-01
2.056483796155374466e-01
2.046913947929984157e-01
2.010781797841501295e-01
1.949185286922948401e-01
1.863563884504809975e-01
1.755435045613998324e-01
1.626587957223343817e-01
1.478897315781316224e-01
1.314351688700474974e-01
1.135065257165904090e-01
9.431866868721372477e-02
7.409817726205136790e-02
5.307504112908864591e-02
3.148697712937043036e-02
9.579270288190333549e-03
-1.239983830816582255e-02
-3.419248117483450478e-02
-5.553841271987197681e-02
-7.617405782513250734e-02
-9.583294756451044005e-02
-1.142510399262136045e-01
-1.311723289998470432e-01
-1.463438751131351523e-01
-1.595348017961498444e-01
-1.705312738930145067e-01
-1.791373592373798618e-01
-1.852057872781795456e-01
-1.886023653013904622e-01
-1.892517053245440783e-01
-1.871187222754182589e-01
-1.822010759018986570e-01
-1.745745583582760940e-01
-1.643332658376747413e-01
-1.516416239268409405e-01
-1.367067815828056643e-01
-1.197645810128553645e-01
-1.011112701806371750e-01
-8.105456749369117919e-02
-5.993538830809518742e-02
-3.811241532736430598e-02
-1.594582999914791188e-02
6.201663698486702125e-03
2.797055433501734190e-02
4.902856401779361051e-02
6.905663003777309794e-02
8.776342271107809290e-02
1.049039204488420030e-01
1.202466111206760002e-01
1.336215913776770681e-01
1.448852120904802754e-01
1.539308326028864804e-01
1.607065327934064092e-01
1.651741154423682079e-01
1.673500141518727835e-01
1.672712025915761846e-01
1.650006520949994226e-01
1.606354417517761313e-01
1.542801734094578769e-01
1.460660514371401320e-01
1.361330586163961298e-01
1.246304979130191670e-01
1.117185278925119096e-01
9.755930784424277080e-02
8.232117918515610699e-02
6.617431462578168833e-02
4.929160501377237436e-02
3.184875243513297927e-02
1.402296408815679324e-02
-4.003212372747907977e-03
-2.204565438572290981e-02
-3.991471315091596472e-02
-5.741566549718404855e-02
-7.435175798328527708e-02
-9.051999618471873177e-02
-1.057161033671460970e-01
-1.197364254486570911e-01
-1.323778195222514165e-01
-1.434420365916082574e-01
-1.527452764415280217e-01
-1.601084369837447174e-01
-1.653801683889873364e-01
-1.684292177627692011e-01
-1.691445266103192568e-01
-1.674662763845199964e-01
-1.633478502631643403e-01
-1.568001368888443658e-01
-1.478709605789521042e-01
-1.366379731875173587e-01
-1.232454396235953542e-01
-1.078525312088041699e-01
-9.067395587520976630e-02
-7.195601286259065144e-02
-5.196582746868182862e-02
-3.101160732348379884e-02
-9.408820814494470164e-03
1.250733816576690693e-02
3.439183739467771561e-02
5.590127271148118138e-02
7.669525350628422777e-02
9.643721089678508607e-02
1.148160038290971796e-01
1.315320999228818399e-01
1.463118086000750329e-01
1.589218519310403588e-01
1.691420134626464566e-01
1.768118408679361098e-01
1.817949165307770065e-01
1.839969184033879435e-01
1.833818765015257091e-01
1.799313176982335338e-01
1.736986444061550949e-01
1.647629023656211056e-01
1.532478459569468765e-01
1.393322299744156612e-01
1.232108710742696872e-01
1.051387054884745653e-01
8.538961897978838977e-02
6.426859020889651164e-02
4.211455567835292735e-02
1.927407231232877369e-02
-3.881917210111184013e-03
-2.697620431830816123e-02
-4.963234163062299475e-02
-7.147462014691956245e-02
-9.213530040519692099e-02
-1.112752697279319192e-01
-1.285642640648425872e-01
-1.437147361520278999e-01
-1.564759150532730458e-01
-1.666226232100239679e-01
-1.740064908440618063e-01
-1.784992233966512243e-01
-1.800463757008371191e-01
-1.786499393261415658e-01
-1.743461229622776942e-01
-1.672614998401474873e-01
-1.575434949199486234e-01
-1.454068307229204327e-01
-1.311118428393917568e-01
-1.149408595199581107e-01
-9.722730054855710513e-02
-7.831372713650158746e-02
-5.855926351433450583e-02
-3.833291290535106866e-02
-1.799648463988318819e-02
2.103797036667576226e-03
2.162835287134306367e-02
4.027945852225393863e-02
5.778183193560142150e-02
7.389147079375255056e-02
8.842265367023438571e-02
1.012044314440276871e-01
1.121305590246674255e-01
1.211254333354815360e-01
1.281462024002351097e-01
1.332040041624554250e-01
1.363214960110917251e-01
1.375644465841435182e-01
1.370165923852241507e-01
1.347760225579583693e-01
1.309617999258289034e-01
1.256958444420997190e-01
1.191069573533094228e-01
1.113263471650224601e-01
1.024824944748011224e-01
9.270032888619778033e-02
8.210293315083394550e-02
7.080526135054082681e-02
5.891958296168514631e-02
4.655442609341943483e-02
3.381400420658395300e-02
2.080244081904877168e-02
7.624517642089288783e-03
-5.614590507281385333e-03
-1.880461723405304000e-02
-3.183008264086280292e-02
-4.457257744681925038e-02
-5.690335563749331776e-02
-6.869090363086224893e-02
-7.979810039951319711e-02
-9.008272784538473577e-02
-9.940302818065366308e-02
-1.076194065649974385e-01
-1.145935420472005695e-01
-1.202003172632254702e-01
-1.243252752943790618e-01
-1.268650681834006533e-01
-1.277479882864575311e-01
-1.269108268244372728e-01
-1.243271453811217453e-01
-1.199968509366366454e-01
-1.139391160573997863e-01
-1.062210875486348516e-01
-9.692104941578688626e-02
-8.615754700092159712e-02
-7.407470182894798638e-02
-6.083210845107483306e-02
-4.662333538689573259e-02
-3.164847721820743254e-02
-1.612573514150081669e-02
-2.834648736077596820e-04
1.564853868458644659e-02
3.143784435264927041e-02
4.685314877880916717e-02
6.167507715971405624e-02
7.569030140191866651e-02
8.869828362748935491e-02
1.005208366936457820e-01
1.109864284794774836e-01
1.199549451597036187e-01
1.273002985109112362e-01
1.329172948143927668e-01
1.367330553175938879e-01
1.386836503837247658e-01
1.387433513197291468e-01
1.369015686482142613e-01
1.331712577598030967e-01
1.275976791561509449e-01
1.202352789822344614e-01
1.111753215349778751e-01
1.005220578768004497e-01
8.840183855452111994e-02
7.496792876653286808e-02
6.038149730853257374e-02
4.483311938663385454e-02
2.852256259656592643e-02
1.166511408912714390e-02
-5.507158582682643300e-03
-2.275844024683951888e-02
-3.984101881181903448e-02
-5.650423475265770046e-02
-7.249938057711557970e-02
-8.757962293093843331e-02
-1.015038306603752299e-01
-1.140509288338290017e-01
-1.250059820088564588e-01
-1.341833611897207679e-01
-1.414224165250644039e-01
-1.465800297168282085e-01
-1.495651761446934458e-01
-1.503003803644069325e-01
-1.487582624020171440e-01
-1.449493431448387326e-01
-1.389075165040080384e-01
-1.307278235029980529e-01
-1.205194606275288016e-01
-1.084385867011706944e-01
-9.467287496502432842e-02
-7.942682987227611680e-02
-6.294382282677613016e-02
-4.547476076152037749e-02
-2.728974386931178400e-02
-8.670257567484535716e-03
1.010096186722136274e-02
2.873886019664895902e-02
4.695954768464193074e-02
6.449208577384732410e-02
8.107244767138649388e-02
9.644999864160017089e-02
1.103988451594922204e-01
1.227003896708877828e-01
1.331712679697408808e-01
1.416447288055385223e-01
1.479785515097322701e-01
1.520706028730320625e-01
1.538300813333469408e-01
1.532165176369702786e-01
1.502105215745888622e-01
1.448255541805606728e-01
1.371226884029791426e-01
1.271765491089521805e-01
1.151180538891284216e-01
1.010990468217548566e-01
8.530510332024837661e-02
6.796518194418663117e-02
4.931996602599814788e-02
2.965440276951619367e-02
9.267875256101357206e-03
-1.152101682398849053e-02
-3.237173403971252417e-02
-5.294110292406428719e-02
-7.287970105114559283e-02
-9.183702924761584507e-02
-1.094772620028736515e-01
-1.254794488574540456e-01
-1.395359468807381986e-01
-1.513870931666864150e-01
-1.607874230795330872e-01
-1.675455041432069025e-01
-1.715185335133136146e-01
-1.725914222098363926e-01
-1.707351115569660238e-01
-1.659428448645091370e-01
-1.582793518123079557e-01
-1.478664753060878745e-01
-1.348547563999354937e-01
-1.194732213289570744e-01
-1.019686796718799748e-01
-8.263638334229420068e-02
-6.180591228829859785e-02
-3.981862802020198766e-02
-1.704395210094624899e-02
6.144397714543947675e-03
2.937369920610763407e-02
5.227190781966304517e-02
7.447829130248462270e-02
9.565732739467167067e-02
1.154810795497047959e-01
1.336614358562136784e-01
1.499325632654218143e-01
1.640539672871709487e-01
1.758344824109355498e-01
1.850951279981020436e-01
1.917096056349246458e-01
1.955777384946577324e-01
1.966284554880793067e-01
1.948408807840305013e-01
1.902065586946717346e-01
1.827693682959385113e-01
1.725962447984848991e-01
1.597844067318137384e-01
1.444774195509678782e-01
1.268312701708579626e-01
1.070538915061796797e-01
8.537357654348333436e-02
6.204953673519178481e-02
3.738297923498069136e-02
1.168620114309725823e-02
-1.468548508099680114e-02
-4.136197366345555071e-02
-6.795509085753499712e-02
-9.405488135031914165e-02
-1.192495474403814371e-01
-1.431247711594484939e-01
-1.652663135903723601e-01
-1.852810254729382877e-01
-2.027983343095531854e-01
-2.174651468117158593e-01
-2.289945126260207187e-01
-2.371196099196851148e-01
-2.416456869063989266e-01
-2.424464863116724822e-01
-2.394317798433289179e-01
-2.326287419507414023e-01
-2.220957883880296801e-01
-2.079843417086097435e-01
-1.905242961328985074e-01
-1.699803750865103436e-01
-1.467169480030860174e-01
-1.211211632094224000e-01
-9.363277419910259747e-02
-6.473090793746053007e-02
-3.490230748965272856e-02
-4.651683160282875720e-03
2.551516497259546934e-02
5.511544586060157513e-02
8.368171550870819042e-02
1.107722463794523216e-01
1.360054985342247225e-01
1.590159277507990077e-01
1.795127563809971738e-01
1.972493294338431569e-01
2.120198865725949622e-01
2.237026395570419490e-01
2.321948949140132945e-01
2.374694981907268243e-01
2.395387664434410202e-01
2.384478957887508077e-01
2.343018512458630576e-01
2.272177994690441349e-01
2.173566477881141434e-01
2.048995058745151643e-01
1.900429992456118544e-01
1.730087718527101581e-01
1.540231173921804420e-01
1.333277471837049089e-01
1.111706713578645978e-01
8.780527697582599100e-02
6.349265461523440068e-02
3.849562793565512037e-02
1.308346462094801821e-02
-1.247221313239456342e-02
-3.789658484774871550e-02
-6.291075829692931165e-02
-8.723535269739485232e-02
-1.105898803673439068e-01
-1.326937089796635938e-01
-1.532718961611421182e-01
-1.720559323763637405e-01
-1.887834382277621681e-01
-2.032169151400244345e-01
-2.151269939193497516e-01
-2.243176711787507327e-01
-2.306264292604403576e-01
-2.339103996669945063e-01
-2.340949205301291469e-01
-2.311246794216164080e-01
-2.250076816001810309e-01
-2.158083490848212160e-01
-2.036191587267471570e-01
-1.886179777615153708e-01
-1.710038900797120065e-01
-1.510346972270872334e-01
-1.290146370400724329e-01
-1.052656258692387936e-01
-8.015657117181845814e-02
-5.406569373801424494e-02
-2.738369021061445863e-02
-5.099837809141027911e-04
2.616273011571365603e-02
5.225909741947354359e-02
7.740991764467650138e-02
1.012843464501164414e-01
1.235754701072455108e-01
1.440019823917385033e-01
1.623382941123534540e-01
1.783722578667419900e-01
1.919481846832444827e-01
2.029415845220193804e-01
2.112553320507066790e-01
2.168448888036562106e-01
2.196773045451741457e-01
2.197643899773822906e-01
2.171398754227188976e-01
2.118580425098343101e-01
2.040082182507789998e-01
1.936878432891610546e-01
1.810268850075061331e-01
1.661694871193531431e-01
1.492779937011020075e-01
1.305423215234723655e-01
1.101598811638895420e-01
8.835944727327632586e-02
6.538197102600390442e-02
4.148723174375387734e-02
1.696032681974847522e-02
-7.907200524485707982e-03
-3.279929728225813856e-02
-5.739166063978035082e-02
-8.135276331525839733e-02
-1.043424571704631709e-01
-1.260225032916036381e-01
-1.460657233790905174e-01
-1.641491718217712448e-01
-1.799772407574395383e-01
-1.932832949099126396e-01
-2.038190655765893533e-01
-2.114040568225171168e-01
-2.158779104046655017e-01
-2.171468443268049497e-01
-2.151797179950157290e-01
-2.099762362006535876e-01
-2.016350783015512516e-01
-1.902807047572805665e-01
-1.761095546524873989e-01
-1.593781880144082286e-01
-1.403672560660402524e-01
-1.194251215337722161e-01
-9.691490063649510489e-02
-7.322681309057597898e-02
-4.877115017290985233e-02
-2.395631783127712133e-02
8.155631415947967033e-04
2.514636179323334608e-02
4.867310068614803809e-02
7.105597141188524368e-02
9.198157676139456784e-02
1.111973797523713170e-01
1.284658398187501493e-01
1.436131766107361374e-01
1.565028304705488038e-01
1.670286711479428421e-01
1.751463038471077205e-01
1.808245039994796077e-01
1.840801921651055717e-01
1.849551596346949989e-01
1.835090931301832928e-01
1.798338334614424938e-01
1.740273022609716558e-01
1.662073921489989614e-01
1.565011193038007287e-01
1.450422000580493531e-01
1.319750436017578243e-01
1.174465119393611479e-01
1.016130681729124074e-01
8.463514129488255988e-02
6.668053903013661243e-02
4.792755219049134319e-02
2.855817210318194188e-02
8.770643131718970642e-03
-1.123082316377226053e-02
-3.123076083974413858e-02
-5.099951609278527420e-02
-7.030393466262033209e-02
-8.889821021190494332e-02
-1.065326910094825524e-01
-1.229579095011199552e-01
-1.379246052916536236e-01
-1.511883845015947747e-01
-1.625254979562950064e-01
-1.717191189628375081e-01
-1.785850845173548307e-01
-1.829716854187187769e-01
-1.847470968382209366e-01
-1.838480531310865973e-01
-1.802306167552814031e-01
-1.739146206560350794e-01
-1.649761504183513972e-01
-1.535190135109700815e-01
-1.397305071563867407e-01
-1.238183471509490818e-01
-1.060448110969904045e-01
-8.671489155821271444e-02
-6.614800055814426538e-02
-4.470115048750292197e-02
-2.273811749671744709e-02
-6.246753366450190359e-04
2.127205001731261730e-02
4.259716758107744139e-02
6.302623339721646900e-02
8.224400947608673240e-02
9.998490298343401528e-02
1.160139716040984870e-01
1.301265769310138154e-01
1.421832631597885477e-01
1.520598292835752263e-01
1.596938914379872620e-01
1.650568578708610512e-01
1.681473113339669312e-01
1.690154744998964564e-01
1.677219347843931785e-01
1.643631907574334972e-01
1.590530743744031361e-01
1.519160960966093044e-01
1.430947297878414626e-01
1.327341118201283698e-01
1.209856976411631535e-01
1.080036050385029534e-01
9.394192695941462612e-02
7.895470496481704625e-02
6.319597028789557258e-02
4.681971778382156696e-02
2.997998973504593240e-02
1.283333635261470901e-02
-4.460350155642694991e-03
-2.173933317284289235e-02
-3.883349705916647188e-02
-5.556982775311383738e-02
-7.176943428423125659e-02
-8.724648035137461122e-02
-1.018142219083813249e-01
-1.152836206699552890e-01
-1.274653287111791322e-01
-1.381785204474682005e-01
-1.472513121585209694e-01
-1.545202777864929378e-01
-1.598537076967403991e-01
-1.631295852413067182e-01
-1.642638244286722393e-01
-1.632076720505831469e-01
-1.599321892174248028e-01
-1.544720369996521736e-01
-1.468786409684139649e-01
-1.372549157785389329e-01
-1.257463540326510254e-01
-1.125176452832065133e-01
-9.778740310422717741e-02
-8.178628352085831610e-02
-6.477194609693236182e-02
-4.702185357837079110e-02
-2.881580481314612377e-02
-1.043855601603929650e-02
7.825921953231750050e-03
2.571234537366817730e-02
4.296763724455181233e-02
5.935597349751993435e-02
7.468098885228666162e-02
8.875636987783942777e-02
1.014405602500756676e-01
1.126178737984451506e-01
1.221948252699631560e-01
1.301225464583474767e-01
1.363617379751053127e-01
1.409084753984892469e-01
1.437769212260432417e-01
1.449943092875250195e-01
1.446111263547108505e-01
1.426821415731412412e-01
1.392757778656749379e-01
1.344666184532047060e-01
1.283329798903032892e-01
1.209590695770323826e-01
1.124302248497421469e-01
1.028356440468644328e-01
9.226611268415828293e-02
8.081573755957030536e-02
6.858329728145212689e-02
5.566964501322568815e-02
4.218517695154048314e-02
2.824381222718857012e-02
1.396794111852545442e-02
-5.094726779790378912e-04
-1.505202200874952365e-02
-2.950990481725047909e-02
-4.372907659864847668e-02
-5.754962005898737326e-02
-7.080511155345994845e-02
-8.332904184034597983e-02
-9.495596230149865036e-02
-1.055211581820393596e-01
-1.148700813460121761e-01
-1.228581841483779857e-01
-1.293489947621596636e-01
-1.342340965240448603e-01
-1.374132067977674176e-01
-1.388171711065206149e-01
-1.384040200559198686e-01
-1.361477852916420650e-01
-1.320707827051659233e-01
-1.262076173321048378e-01
-1.186329348287837593e-01
-1.094524195441972936e-01
-9.878746096570875657e-02
-8.680115495821266736e-02
-7.366574373967618716e-02
-5.957758018135721201e-02
-4.474958727849616402e-02
-2.939924528378599911e-02
-1.375442875313853675e-02
1.956010100389090484e-03
1.750954342804453626e-02
3.268754130719492279e-02
4.728116888076227403e-02
6.110262737816460343e-02
7.397008872093042975e-02
8.573133712469675760e-02
9.625022337706710951e-02
1.054084406536802687e-01
1.131213587856227387e-01
1.193123328525950433e-01
1.239378941299626169e-01
1.269705016705752476e-01
1.283984800619602518e-01
1.282366780322445887e-01
1.265057386439002451e-01
1.232484430020682753e-01
1.185169823696284042e-01
1.123733906424439488e-01
1.048943061656605613e-01
9.615984255573770123e-02
8.626361976055349490e-02
7.530439819413459190e-02
6.338899314077062197e-02
5.063483549787145543e-02
3.716272984118819400e-02
2.310708011244946847e-02
8.606943066621491889e-03
-6.189337373343942184e-03
-2.112255143880212988e-02
-3.603020834651829429e-02
-5.073789672447827359e-02
-6.506770988529342326e-02
-7.883774562727902113e-02
-9.186195161716870228e-02
-1.039554831960677744e-01
-1.149389616305451223e-01
-1.246351000998587033e-01
-1.328817602958695943e-01
-1.395307744507549297e-01
-1.444449305034763986e-01
-1.475225385537717038e-01
-1.486717526398172451e-01
-1.478383799290692302e-01
-1.449990561000069622e-01
-1.401489684510205391e-01
-1.333358118004463466e-01
-1.246200441492578137e-01
-1.141038298263676865e-01
-1.019196343243778113e-01
-8.821542728003609057e-02
-7.317782428679929507e-02
-5.700142389567383616e-02
-3.990124659390972828e-02
-2.210545339164758649e-02
-3.844850762094731422e-03
1.464419379682314198e-02
3.312542128885968135e-02
5.137127362328293423e-02
6.915920744754838756e-02
8.627601621231534290e-02
1.025272039613093766e-01
1.177232389661558021e-01
1.316975099686317485e-01
1.442950514204460744e-01
1.553735174429506094e-01
1.648128655302937007e-01
1.724983198792182648e-01
1.783366980305068905e-01
1.822445521214497988e-01
1.841501631341674883e-01
1.840002033472232790e-01
1.817464330522334803e-01
1.773624960257104699e-01
1.708309034778376367e-01
1.621509651007236041e-01
1.513453795007961289e-01
1.384453968918157030e-01
1.235195837454479695e-01
1.066501150446131363e-01
8.795074929151375231e-02
6.757427127798742994e-02
4.568790485590180916e-02
2.251616625591102566e-02
-1.697947799089841170e-03
-2.667230220828975540e-02
-5.208183207284636240e-02
-7.758878081368250634e-02
-1.028117716539464210e-01
-1.273575662066657732e-01
-1.508211885685696863e-01
-1.727862328694662886e-01
-1.928419409275750618e-01
-2.105997353247239523e-01
-2.256788253094314800e-01
-2.377479923418180652e-01
-2.465188814095585490e-01
-2.517362295127317795e-01
-2.532450149743581402e-01
-2.509166956842149299e-01
-2.447224302143457264e-01
-2.347098983740381339e-01
-2.209726509405670336e-01
-2.037258469384845561e-01
-1.832125278043468530e-01
-1.597633010044681445e-01
-1.337683781418715079e-01
-1.056450828407940051e-01
-7.587383307474050709e-02
-4.494609322998939505e-02
-1.337081539594178400e-02
1.833258707538497345e-02
4.965522911378995180e-02
8.011102788930685170e-02
1.092228044876026039e-01
1.365674100135044200e-01
1.617507814393717991e-01
1.844183564235745143e-01
2.042894828952447339e-01
2.211024172329508763e-01
2.346789181634466037e-01
2.448805019806998551e-01
2.516139836424700627e-01
2.548612021224313517e-01
2.546215773597126919e-01
2.509650575726176669e-01
2.439913103794605631e-01
2.338336635904573746e-01
2.206749014704924572e-01
2.047091454220622553e-01
1.861735293028749516e-01
1.653212522016470065e-01
1.424254319186585849e-01
1.177851685839500229e-01
9.170571768978527660e-02
6.451469864733724857e-02
3.654710879430905779e-02
8.147036803659496451e-03
-2.033089950080518848e-02
-4.853080189366121289e-02
-7.609371140260060007e-02
-1.026601553101175179e-01
-1.278787032143648417e-01
-1.514061951631943126e-01
-1.729077784512143001e-01
-1.920791875635836088e-01
-2.086255788750005780e-01
-2.222922968181929304e-01
-2.328613782342793814e-01
-2.401387096279812838e-01
-2.440059247990521429e-01
-2.443650967764092741e-01
-2.411914129943202312e-01
-2.345193236276049142e-01
-2.244172984080565758e-01
-2.110488896383205804e-01
-1.946003084046578624e-01
-1.753288382505525100e-01
-1.535428759433817847e-01
-1.295748770021545870e-01
-1.038164421112723890e-01
-7.667066901120017652e-02
-4.856455098485104593e-02
-1.994027383269028619e-02
8.762908593124014989e-03
3.711293674603716869e-02
6.468224623129853468e-02
9.107733310243075475e-02
1.159240661462063449e-01
1.388758332534290874e-01
1.596404958271418206e-01
1.779400569925178588e-01
1.935605038810713219e-01
2.063200141714270353e-01
2.160725789425173571e-01
2.227348549805713285e-01
2.262385051232743138e-01
2.265772288222119846e-01
2.237723944026239198e-01
2.178779497002616972e-01
2.089984106359097371e-01
1.972508373295638329e-01
1.828031249430572824e-01
1.658433278920365406e-01
1.465876200987092370e-01
1.252909183543878813e-01
1.022184155312635401e-01
7.767558227873577748e-02
5.198205735931846205e-02
2.547832189918076279e-02
-1.469651609643735438e-03
-2.849036447586130588e-02
-5.519360769803209610e-02
-8.118371184776772276e-02
-1.060661860251801425e-01
-1.294478200161523207e-01
-1.509425940237088259e-01
-1.701937549098006819e-01
-1.868541296383065542e-01
-2.006211145809131402e-01
-2.112350760733760213e-01
-2.184633760265811686e-01
-2.221638182516938453e-01
-2.222193151061450100e-01
-2.185986198494987154e-01
-2.113439612908077636e-01
-2.005365652968504608e-01
-1.863722415078199746e-01
-1.690747774079531529e-01
-1.489504912612212295e-01
-1.263683939536808243e-01
-1.017240629894756720e-01
-7.548154229130633885e-02
-4.811835171334453987e-02
-2.013495288904403047e-02
7.952781461802109486e-03
3.563630606154129243e-02
6.242537173737770090e-02
8.783745577780968650e-02
1.114426480487363397e-01
1.328426007427822297e-01
1.516783917349237287e-01
1.676735565594615340e-01
1.805725123781621588e-01
1.902126102565914190e-01
1.964805618598666481e-01
1.993128098308217799e-01
1.987376864026945134e-01
1.948044639374136300e-01
1.876462104443208379e-01
1.774353793149612835e-01
1.643819203127970252e-01
1.487572005844864098e-01
1.308451827082346419e-01
1.109754490193960441e-01
8.949646512967304735e-02
6.677097440066086242e-02
4.318246124363016303e-02
1.911657610443000949e-02
-5.037996604756710302e-03
-2.889176103707789822e-02
-5.206575114863608300e-02
-7.419461415466206688e-02
-9.492103189866846202e-02
-1.139234705856335683e-01
-1.308928241420773408e-01
-1.455566324017625035e-01
-1.576844602412500462e-01
-1.670645564542958539e-01
-1.735567662140218848e-01
-1.770430055725613627e-01
-1.774647394053334160e-01
-1.748240581772984026e-01
-1.691485589718804694e-01
-1.605527231555473056e-01
-1.491748400203641300e-01
-1.352130523033177600e-01
-1.189196016627353247e-01
-1.005669029499666189e-01
-8.048802606147953398e-02
-5.903036490465329855e-02
-3.656875679165917659e-02
-1.350005115281513457e-02
9.776841272899733717e-03
3.285881556882796345e-02
5.534357329575696760e-02
7.684966059948215855e-02
9.701049203319309089e-02
1.154785456843344105e-01
1.319541037599204214e-01
1.461500987652622485e-01
1.578373207341310924e-01
1.668231512614170575e-01
1.729479334960822845e-01
1.761245957789184247e-01
1.762834751064236705e-01
1.734272119109609989e-01
1.675989995302142876e-01
1.588791173900898079e-01
1.474201928608100398e-01
1.333913100927364981e-01
1.170272208508008061e-01
9.859529143330147960e-02
7.839188356933049495e-02
5.676350241860689261e-02
3.406632004949907561e-02
1.068940314060588467e-02
-1.296388156334126254e-02
-3.648614793955159974e-02
-5.946390098961987225e-02
-8.148681944128452481e-02
-1.021673151558386006e-01
-1.211271761547311754e-01
-1.380204070257244897e-01
-1.525449917519619003e-01
-1.644166560449127901e-01
-1.734290558145798467e-01
-1.794036495401417075e-01
-1.822242055369241442e-01
-1.818499513174332560e-01
-1.782662879193803729e-01
-1.715594026035640041e-01
-1.618472238562091436e-01
-1.493115503574798386e-01
-1.342028459260297402e-01
-1.167922526064411048e-01
-9.742110126095876454e-02
-7.644988245660720716e-02
-5.426768130607183271e-02
-3.129087522052557968e-02
-7.938026721025889104e-03
1.536842176342458066e-02
3.820647764826270998e-02
6.017686109422337726e-02
8.089954321071413101e-02
1.000130921831605124e-01
1.172117187235010294e-01
1.322045669407347912e-01
1.447615255224298791e-01
1.546981817279629579e-01
1.618611229873798130e-01
1.661778697510921110e-01
1.675952747441204482e-01
1.661302116063678169e-01
1.618462898572588515e-01
1.548376367251906860e-01
1.452689000733529689e-01
1.333200764939739547e-01
1.192237385126722893e-01
1.032435567056340375e-01
8.566178950610270348e-02
6.679873349725076737e-02
4.698143794218315183e-02
2.655440111860329216e-02
5.871184095957852553e-03
-1.471663805249313894e-02
-3.486129763748631316e-02
-5.421879593717837675e-02
-7.247063163168346311e-02
-8.931037053374338286e-02
-1.044570976552349484e-01
-1.176714038539271312e-01
-1.287270052086053329e-01
-1.374587132075765494e-01
-1.437268415098760799e-01
-1.474345116408392609e-01
-1.485465381104984495e-01
-1.470455948575989935e-01
-1.429887397662839565e-01
-1.364605053675621016e-01
-1.275891057673174678e-01
-1.165586131600312991e-01
-1.035676618436571772e-01
-8.886901020003470930e-02
-7.273292029135208780e-02
-5.545175147636446922e-02
-3.734294730859960554e-02
-1.872719572258793597e-02
6.665586015200397618e-05
1.870804105471700340e-02
3.687771281853384486e-02
5.426783319482283291e-02
7.058071572975127550e-02
8.555504378054337722e-02
9.894014499026199116e-02
1.105247468457616344e-01
1.201328343992031922e-01
1.276082234053112219e-01
1.328558810620423802e-01
1.357966092628416499e-01
1.364026072998096584e-01
1.346869038296173438e-01
1.306844190476841305e-01
1.244898214354708821e-01
1.162117698627764539e-01
1.060023818827321995e-01
9.404440687952314581e-02
8.053640153713031991e-02
6.571518107106949502e-02
4.982543876833181451e-02
3.313340262853067819e-02
1.591874160134570948e-02
-1.535300073423145895e-03
-1.893800396663120056e-02
-3.599862268759961015e-02
-5.243563653146732229e-02
-6.797271917668834540e-02
-8.234690792174310936e-02
-9.532123791230613652e-02
-1.066668231782440385e-01
-1.161959886387568253e-01
-1.237414550104193045e-01
-1.291651815506097700e-01
-1.323793272018109479e-01
-1.333096178777159468e-01
-1.319420575300966625e-01
-1.282890693927494219e-01
-1.223988143691002728e-01
-1.143738373801486130e-01
-1.043303567170837387e-01
-9.243987108002491015e-02
-7.889527477958879764e-02
-6.391597976879580256e-02
-4.775719998046582676e-02
-3.068151263360293507e-02
-1.297698640706253063e-02
5.059803259078503312e-03
2.312842637311771088e-02
4.092383658193912699e-02
5.814367734886827233e-02
7.449922790622498514e-02
8.970653399941994066e-02
1.035034683645522091e-01
1.156511356438520988e-01
1.259232820692442467e-01
1.341398634105649412e-01
1.401344674926856271e-01
1.437831742945760438e-01
1.450022168596357131e-01
1.437277664478191497e-01
1.399602874860824964e-01
1.337173445355977763e-01
1.250684200757748443e-01
1.141265513469976178e-01
1.010266209371165902e-01
8.596620025195444992e-02
6.915794756129700627e-02
5.085922828100754300e-02
3.136069171797561950e-02
1.096808386602914076e-02
-9.974540232639564352e-03
-3.111554975812835799e-02
-5.208858134118152933e-02
-7.251757570083117166e-02
-9.203056071146478723e-02
-1.102655757897218064e-01
-1.268656393169744490e-01
-1.415097953533645814e-01
-1.538982995026351164e-01
-1.637624134163815914e-01
-1.708970108129646004e-01
-1.751142008702867847e-01
-1.763075176632234731e-01
-1.744129315950592729e-01
-1.694151418337879467e-01
-1.613871616246821683e-01
-1.504231186827419131e-01
-1.367049805015129182e-01
-1.204551898466366677e-01
-1.019369506896012356e-01
-8.147891867564760471e-02
-5.942263780028247955e-02
-3.615470976046539220e-02
-1.207987433308693737e-02
1.238927474339802937e-02
3.682898879446307172e-02
6.081799032754095502e-02
8.395374731230696719e-02
1.058410728142900881e-01
1.261137446100795700e-01
1.444422233895245322e-01
1.605124402326553179e-01
1.740745971976745965e-01
1.849003391851296307e-01
1.928123462456379500e-01
1.976906595403764844e-01
1.994368830756239053e-01
1.980317174985037343e-01
1.934794001894822868e-01
1.858394959939432822e-01
1.752267783497925002e-01
1.617771203401257019e-01
1.456961092187595286e-01
1.272079552635391742e-01
1.065814408950528369e-01
8.412483429910172505e-02
6.016101218266253770e-02
3.505592728364359534e-02
9.185517682864019484e-03
-1.705509882661071508e-02
-4.325572930586614462e-02
-6.900577511286799803e-02
-9.389463889594243384e-02
-1.175135035406723039e-01
-1.394765799869995826e-01
-1.594141833589697577e-01
-1.769784662259590857e-01
-1.918752419185080493e-01
-2.038249612450539483e-01
-2.126182413901268053e-01
-2.180892039197837029e-01
-2.201142941488830607e-01
-2.186613749688154362e-01
-2.137202822567363936e-01
-2.053728386084659463e-01
-1.937514028744016237e-01
-1.790326454347814789e-01
-1.614778971415810616e-01
-1.413662365893659234e-01
-1.190415695962657450e-01
-9.487923399917339018e-02
-6.927404468295036977e-02
-4.265372276792679662e-02
-1.544940615836414184e-02
1.190637863027685373e-02
3.898082519838516613e-02
6.535837777798891857e-02
9.064953844913242742e-02
1.144757166407280591e-01
1.365108442616585482e-01
1.564493545787755124e-01
1.740265517730459344e-01
1.890323968098955865e-01
2.012740148387330286e-01
2.106282296984050562e-01
2.169959210878420475e-01
2.203220536214644532e-01
2.206039147738128037e-01
2.178549345098658163e-01
2.121481481888752296e-01
2.035749341533521217e-01
1.922621290253404003e-01
1.783739322306377995e-01
1.620868675906354806e-01
1.436192831579222728e-01
1.232011310456040953e-01
1.010876055313394001e-01
7.755751507414739010e-02
5.289816903743257276e-02
2.742315604282297148e-02
1.452533255354201969e-03
-2.468040357892600789e-02
-5.063136626309705512e-02
-7.605459536861539083e-02
-1.006008898836996124e-01
-1.239212727057629193e-01
-1.456789823010913865e-01
-1.655462783936298421e-01
-1.832093651216091246e-01
-1.983908238363005783e-01
-2.108236578764240421e-01
-2.202936160021751744e-01
-2.266209927276362501e-01
-2.296605617101812324e-01
-2.293459037507225573e-01
-2.256302408108069035e-01
-2.185517489317724271e-01
-2.081979312069349164e-01
-1.946998094851962735e-01
-1.782762819763604734e-01
-1.591653818582073054e-01
-1.376771792206522016e-01
-1.141587185080709388e-01
-8.898181554833878293e-02
-6.256250371162433432e-02
-3.532315865486886780e-02
-7.698725304339362752e-03
1.987038712377528493e-02
4.695544734575181345e-02
7.314641721093270710e-02
9.804237337865187585e-02
1.212900860033820083e-01
1.425559811778202013e-01
1.615461285239223610e-01
1.780226011909736283e-01
1.917648729251782425e-01
2.026256752689715168e-01
2.104843748684831484e-01
2.152669019814990592e-01
2.169575486075066562e-01
2.155578981089106838e-01
2.111354074847839324e-01
2.037788296909932573e-01
1.936154649038542841e-01
1.808155045355627488e-01
1.655624622073777752e-01
1.480866438128821683e-01
1.286319003412970674e-01
1.074689283648647409e-01
8.489494483947128411e-02
6.121546692895565855e-02
3.676243197850510847e-02
1.187439500917977786e-02
-1.310025481612518694e-02
-3.780450489956060922e-02
-6.188260985616145238e-02
-8.498383956467805977e-02
-1.067599055435070055e-01
-1.268843479080112580e-01
-1.450477126899297753e-01
-1.609588389714498580e-01
-1.743767712231180655e-01
-1.850741595291624519e-01
-1.928853877726081634e-01
-1.976875189420408407e-01
-1.993929042406260010e-01
-1.979988803980265721e-01
-1.935230465450721027e-01
-1.860627747400601384e-01
-1.757643330347180843e-01
-1.628089357742565357e-01
-1.474521036064187218e-01
-1.299643597200465517e-01
-1.106647982859530754e-01
-8.989881176916533767e-02
-6.802179643774253215e-02
-4.540779120156371307e-02
-2.243143700728979228e-02
5.445108439764700936e-04
2.316322022009584258e-02
4.508824999961247304e-02
6.601754714393820445e-02
8.565993860896967127e-02
1.037760238202427854e-01
1.201486852999984201e-01
1.345936427684326364e-01
1.469755963314032243e-01
1.571717744066914169e-01
1.651099712749713455e-01
1.707371919270959659e-01
1.740259036590718067e-01
1.749822698398948440e-01
1.736208465065815776e-01
1.699875407385541548e-01
1.641389079576886789e-01
1.561491270591786884e-01
1.461130840583125257e-01
1.341329557558925689e-01
1.203383811124844605e-01
1.048676159944252617e-01
8.788128215512788777e-02
6.956333342183004809e-02
5.010776338363229221e-02
2.974364980091476207e-02
8.709885275552983752e-03
-1.273019048187712388e-02
-3.429059589854424606e-02
-5.567819212357294489e-02
-7.657827328933156097e-02
-9.667148087188789929e-02
-1.156377288097409917e-01
-1.331563394296872427e-01
-1.489156102542473492e-01
-1.626307283686022342e-01
-1.740253317251098386e-01
-1.828706351852926182e-01
-1.889725972754028871e-01
-1.921687096639053127e-01
-1.923769972988589871e-01
-1.895355996680930799e-01
-1.836651910978895075e-01
-1.748399026305061943e-01
-1.631729826181928522e-01
-1.488656169470804758e-01
-1.321378984338306417e-01
-1.132751564490749457e-01
-9.260012204376766309e-02
-7.045534316676192732e-02
-4.722262314166994490e-02
-2.328932103544902044e-02
9.503155613900388099e-04
2.509870038104311529e-02
4.877055526789642048e-02
7.160265101061016879e-02
9.324031691449560788e-02
1.133747684744574602e-01
1.317181396449602637e-01
1.480165352663928013e-01
1.620696113077937928e-01
1.736917266614602107e-01
1.827604004065409016e-01
1.891785925668059698e-01
1.928858370071739881e-01
1.938727915028896076e-01
1.921436212392471088e-01
1.877558153076044900e-01
1.807859408684664992e-01
1.713400826010007538e-01
1.595609493450096950e-01
1.456015983180482254e-01
1.296537119807385785e-01
1.119213198496624290e-01
9.263041422469180108e-02
7.203118122042340143e-02
5.038105597786178558e-02
2.796254359786204402e-02
5.065219020007338813e-03
-1.800967528680622043e-02
-4.094948582043136942e-02
-6.344019845479226261e-02
-8.516457957469775186e-02
-1.058052825692129550e-01
-1.250561508743425199e-01
-1.426207468137405954e-01
-1.582143484058831095e-01
-1.715884580195784492e-01
-1.825049642398664518e-01
-1.907737232829848639e-01
-1.962415742160034116e-01
-1.987837299141008152e-01
-1.983516939842840943e-01
-1.949159766302700492e-01
-1.885205608507252717e-01
-1.792596914118812501e-01
-1.672612758312253256e-01
-1.527330097409017595e-01
-1.358999527126991402e-01
-1.170449169221883523e-01
-9.648571084356523386e-02
-7.455723349368613417e-02
-5.163002700791197164e-02
-2.807977082590398799e-02
-4.286926296678955639e-03
1.936560499653700029e-02
4.250742540257751445e-02
6.479184395877232716e-02
8.588081316833379164e-02
1.054832775612428164e-01
1.233307654268801512e-01
1.391886784045184844e-01
1.528788335342796678e-01
1.642379318640278529e-01
1.731670261917052089e-01
1.795944910367845426e-01
1.834840364647483957e-01
1.848515334598667126e-01
1.837255024352283661e-01
1.801839699065775624e-01
1.743235442156511605e-01
1.662642040222075124e-01
1.561565446076044750e-01
1.441581915472574804e-01
1.304520491746622157e-01
1.152294022908691429e-01
9.869196127540100227e-02
8.105356294130425243e-02
6.253070338751035018e-02
4.334866669047006404e-02
2.373528555052045741e-02
3.921012722742603374e-03
-1.586099315563992140e-02
-3.537789568234606108e-02
-5.439859064758273410e-02
-7.269275333467296873e-02
-9.003717240125277965e-02
-1.062151594145234607e-01
-1.210162252316631382e-01
-1.342500338945070426e-01
-1.457321090085652027e-01
-1.553040807637579013e-01
-1.628288341925597238e-01
-1.681850973797880122e-01
-1.712966157020950342e-01
-1.720987788383434025e-01
-1.705727368604063598e-01
-1.667327074582228286e-01
-1.606155946476269247e-01
-1.523151772239648982e-01
-1.419383583132542426e-01
-1.296383683085802208e-01
-1.155981215849966881e-01
-1.000177906808085299e-01
-8.313572651174758188e-02
-6.519749920528865317e-02
-4.646759732178068480e-02
-2.722120666351425522e-02
-7.734000559452294810e-03
1.171761348706717998e-02
3.085899235388203654e-02
4.943101298784746689e-02
6.718246649642344026e-02
8.387720275107723999e-02
9.930560946276587031e-02
1.132657318813269226e-01
1.255913277162003794e-01
1.361322211688763550e-01
1.447612665899368767e-01
1.513872430480384113e-01
1.559286625384811997e-01
1.583453599102677689e-01
1.586136738203069441e-01
1.567349107334057579e-01
1.527449304930202922e-01
1.466893515871070808e-01
1.386530374858665204e-01
1.287348203151625903e-01
1.170574698285520021e-01
1.037731612932734360e-01
8.904286026663529863e-02
7.306060151326129737e-02
5.603087117415941898e-02
3.817640143372605377e-02
1.973982330802294405e-02
9.686888317204239707e-04
-1.787329348026085035e-02
-3.651818398280854555e-02
-5.469666498266356758e-02
-7.213808467005367042e-02
-8.857601514922879005e-02
-1.037594308185214864e-01
-1.174422505707107822e-01
-1.294046869984112613e-01
-1.394495579229109439e-01
-1.473966261865728988e-01
-1.531166113772318427e-01
-1.564937489467404241e-01
-1.574643187205309602e-01
-1.560043183841051950e-01
-1.521152043686333777e-01
-1.458657276075855935e-01
-1.373404511508634074e-01
-1.266777106385920948e-01
-1.140522428995858484e-01
-9.965878880263817630e-02
-8.373872681202880475e-02
-6.654266641802615567e-02
-4.834575040040808847e-02
-2.943781040779134411e-02
-1.011138733358232268e-02
9.335644406752746649e-03
2.860613802725284205e-02
4.741560767116222153e-02
6.548638947952895029e-02
8.255484882038299776e-02
9.838350722901095802e-02
1.127424317840224066e-01
1.254377957056388160e-01
1.362929164352890687e-01
1.451544345623966559e-01
1.519074264424009613e-01
1.564471976854855118e-01
1.587132904635190078e-01
1.586638969023511647e-01
1.562843752440801204e-01
1.515997932206330223e-01
1.446464101820542913e-01
1.355070462398633435e-01
1.242820135724900799e-01
1.111010025675578383e-01
9.613181642361652568e-02
7.955347381672867035e-02
6.158871807678010374e-02
4.247485055060866432e-02
2.247344421038520793e-02
1.874023866886558032e-03
-1.902716562179733450e-02
-3.991114975254111963e-02
-6.045261893571035605e-02
-8.032403104841487340e-02
-9.919556144492500116e-02
-1.167428075304008106e-01
-1.326625404819758713e-01
-1.466584330692337901e-01
-1.584697373939628895e-01
-1.678680046640886325e-01
-1.746469263162205854e-01
-1.786703143530879445e-01
-1.798208513337367920e-01
-1.780490551106859998e-01
-1.733601122633633695e-01
-1.657903781191194803e-01
-1.554627903172901560e-01
-1.425207787494786604e-01
-1.271714862524290224e-01
-1.096676121369191959e-01
-9.028327473402888992e-02
-6.934495019102664137e-02
-4.718933398905753029e-02
-2.417522333876907098e-02
-6.753916282389166303e-04
2.293855081025204801e-02
4.629810921387869649e-02
6.903779611772627167e-02
9.081702236072809742e-02
1.113092881020892322e-01
1.302092195072114822e-01
1.472530318536162397e-01
1.621879796005712693e-01
1.748121160630420612e-01
1.849489213182803626e-01
1.924517003349367761e-01
1.972256600322190023e-01
1.991889013363066507e-01
1.983141542441441696e-01
1.945984097909142507e-01
1.880694951753009991e-01
1.788028365470944181e-01
1.668862906220989206e-01
1.524592924115679982e-01
1.356816582580252228e-01
1.167436389612234449e-01
9.587718111548085287e-02
7.332568799825359140e-02
4.937789372286538470e-02
2.433840594266942214e-02
-1.464123713167161944e-03
-2.767180429226774596e-02
-5.392028146336236283e-02
-7.982322303677076569e-02
-1.049878875849062920e-01
-1.290219121976160788e-01
-1.515333435239230586e-01
-1.721375617995476726e-01
-1.904797848704695151e-01
-2.062149733525681095e-01
-2.190436307273255778e-01
-2.287099179560317941e-01
-2.349852367872400372e-01
-2.377316789633822092e-01
-2.368363427401102839e-01
-2.322709611631964544e-01
-2.240792957444822653e-01
-2.123428658638277788e-01
-1.972534130493121540e-01
-1.790293804149983847e-01
-1.579669267077239425e-01
-1.344209054238431067e-01
-1.087705159361885832e-01
-8.145727124197110758e-02
-5.293476638135691248e-02
-2.367594714505516507e-02
5.833323279783420023e-03
3.511477394436035571e-02
6.370882920617232381e-02
9.116332092461787440e-02
1.170745705124526248e-01
1.410678137914142538e-01
1.628030932644071727e-01
1.820127898884602025e-01
1.984472050038346425e-01
2.119346160157941639e-01
2.223444580469046694e-01
2.295858328100512102e-01
2.336406813561097140e-01
2.345070967960758423e-01
2.322461644637872080e-01
2.269483906135874030e-01
2.187314437886737628e-01
2.077572197975737778e-01
1.941968456045199409e-01
1.782553475184140424e-01
1.601517654484819753e-01
1.401190214957585556e-01
1.184101073947836924e-01
9.528250455910952654e-02
7.101039708610906720e-02
4.587412527471251833e-02
2.016235694398510470e-02
-5.825546652072965959e-03
-3.178769027011188464e-02
-5.741305321606646195e-02
-8.238775930385264235e-02
-1.063974041848328583e-01
-1.291269822546206592e-01
-1.502647936715482968e-01
-1.695136410644367264e-01
-1.865813664265735528e-01
-2.012017315775012083e-01
-2.131347360800317503e-01
-2.221575701171402684e-01
-2.281081284337977966e-01
-2.308419180331955922e-01
-2.302763799059827643e-01
-2.263846162237949655e-01
-2.191698068171056835e-01
-2.087280258139092015e-01
-1.951791076609642461e-01
-1.787153399054553504e-01
-1.595868100911221332e-01
-1.380700937990785859e-01
-1.145136959726618109e-01
-8.928175569256864563e-02
-6.277423584830463255e-02
-3.541643484594754476e-02
-7.636688919549289994e-03
2.013032082298646386e-02
4.745111310832950124e-02
7.391665632483607196e-02
9.913333839769322697e-02
1.227309673531709611e-01
1.443909845337043585e-01
1.638084018949786946e-01
1.807410480548673481e-01
1.949818031459774059e-01
2.063585693412340882e-01
2.147672411053208053e-01
2.201195672423081895e-01
2.223922128744718618e-01
2.215939325447179309e-01
2.177650500128267552e-01
2.110002097075606153e-01
2.014062746621602118e-01
1.891380995437015877e-01
1.743715642018205669e-01
1.573052291057067675e-01
1.381722937082672797e-01
1.172140116606158328e-01
9.470291847367726112e-02
7.092370972711341259e-02
4.617610523024730240e-02
2.078019674939529660e-02
-4.939551241613826527e-03
-3.064317411752115472e-02
-5.598553859057506243e-02
-8.062009125434016488e-02
-1.041985722196423492e-01
-1.263762877814703922e-01
-1.468255097880016569e-01
-1.652245027096570507e-01
-1.812799020146451945e-01
-1.947286705350680103e-01
-2.053255903782994773e-01
-2.128913320808701048e-01
-2.172662305819370032e-01
-2.183547019207853768e-01
-2.161219766889574956e-01
-2.105634450580943229e-01
-2.017721512590050781e-01
-1.898668675837136832e-01
-1.750397232142658077e-01
-1.575446503854165958e-01
-1.376615104713947435e-01
-1.157439200251748901e-01
-9.216203648822900163e-02
-6.732063756779817221e-02
-4.165037113694475962e-02
-1.558408539295228108e-02
1.044112381658136163e-02
3.598969893343876431e-02
6.065312750842141720e-02
8.404089018171280456e-02
1.057869428439251192e-01
1.255822945781106259e-01
1.431328108878424654e-01
1.582121077385707231e-01
1.706337247953691738e-01
1.802481076312026920e-01
1.869813700133130530e-01
1.907769772108754980e-01
1.916477566753524431e-01
1.896427399152666449e-01
1.848424185812880260e-01
1.773844155208953999e-01
1.674184258268946457e-01
1.551390509869602918e-01
1.407616269933467668e-01
1.245190663660816488e-01
1.066726000438225352e-01
8.748886138664532797e-02
6.725284679747470240e-02
4.625699773981292728e-02
2.479789742584742607e-02
3.178044508859015349e-03
-1.830046826721844211e-02
-3.934043454727143008e-02
-5.964667543132701200e-02
-7.893551632114359506e-02
-9.693791683658029013e-02
-1.133924360693040756e-01
-1.280704047844007376e-01
-1.407543524053743167e-01
-1.512592975724627586e-01
-1.594369335088176021e-01
-1.651552216737037226e-01
-1.683435430106184350e-01
-1.689499241756095560e-01
-1.669723369024033732e-01
-1.624588055400634778e-01
-1.554779376731160734e-01
-1.461672395021898496e-01
-1.346826728228658343e-01
-1.212240155559410892e-01
-1.060300285895618977e-01
-8.935199828977202774e-02
-7.147770824668664424e-02
-5.270291985658143163e-02
-3.333167634710304528e-02
-1.367455297239947298e-02
5.963103772541111791e-03
2.529140294338699801e-02
4.402553040338587353e-02
6.191103963615296468e-02
7.871478589938221693e-02
9.422248997463336662e-02
1.082660606617998900e-01
1.206884552312455228e-01
1.313759008196210831e-01
1.402415321097209844e-01
1.472173213022555938e-01
1.522758610925119549e-01
1.553982239990445990e-01
1.565942563274014820e-01
1.558896492194331018e-01
1.533201040517813696e-01
1.489404429081607195e-01
1.428093220132304886e-01
1.349986153072114670e-01
1.255866734726466261e-01
1.146589864950515181e-01
1.023132138766910393e-01
8.865070979744268942e-02
7.379022953448752253e-02
5.785817352397443214e-02
4.099475688599768519e-02
2.336111052251799158e-02
5.124687430029140067e-03
-1.351943771776265013e-02
-3.236549655549318671e-02
-5.119176483325869886e-02
-6.975509424453243956e-02
-8.780792523538903660e-02
-1.050874516204862996e-01
-1.213259667431147160e-01
-1.362584999677834141e-01
-1.496233462770795442e-01
-1.611655463633155927e-01
-1.706601109641933678e-01
-1.778921629562838502e-01
-1.826864234045934565e-01
-1.849095191116861825e-01
-1.844494783557700246e-01
-1.812716266187283098e-01
-1.753636386726472041e-01
-1.667768440060314328e-01
-1.556223784729160176e-01
-1.420365113413813163e-01
-1.262348635648088413e-01
-1.084530338404252892e-01
-8.897296718509824232e-02
-6.811526142115972848e-02
-4.621120738304584918e-02
-2.362099682004932186e-02
-7.100607828557509160e-04
2.215941178826648372e-02
4.462765192056866725e-02
6.634719576455452850e-02
8.700317406424667999e-02
1.062899741094012473e-01
1.239482340084741008e-01
1.397489993451427326e-01
1.534895885175683872e-01
1.650274721702750802e-01
1.742341230984131295e-01
1.810357878318445413e-01
1.853906292116972998e-01
1.872811125647364516e-01
1.867388815038150685e-01
1.838060065286919453e-01
1.785623772787318653e-01
1.711074020578895460e-01
1.615555684938436987e-01
1.500484407080831251e-01
1.367332100352525448e-01
1.217776676251964424e-01
1.053590396705064158e-01
8.766397516133436763e-02
6.889416604509562836e-02
4.925496964068731831e-02
2.896662756078230427e-02
8.255448334315435011e-03
-1.264431404655350089e-02
-3.348714003627156766e-02
-5.402522897890349451e-02
-7.400281983703266286e-02
-9.316143945679428162e-02
-1.112446002282510560e-01
-1.279983187808348410e-01
-1.431729246380934462e-01
-1.565389724159452212e-01
-1.678741481374411149e-01
-1.769840326677799003e-01
-1.837053811906473322e-01
-1.878909990382653938e-01
-1.894548476268887449e-01
-1.883295102343411354e-01
-1.845019497650801366e-01
-1.780130817253832709e-01
-1.689274049225620578e-01
-1.573881596447533893e-01
-1.435596413390914372e-01
-1.276586282966833963e-01
-1.099481260374734065e-01
-9.070680955171615822e-02
-7.025888439480780512e-02
-4.893851221241618532e-02
-2.709173059423874985e-02
-5.073850771222521150e-03
1.676561039804236319e-02
3.809421365096038459e-02
5.858538475312685678e-02
7.794935605653047217e-02
9.592192318217912517e-02
1.122626523164911849e-01
1.267887691910935810e-01
1.393314601606794600e-01
1.497781771053915412e-01
1.580510152051119999e-01
1.640978566491981816e-01
1.679216986092005315e-01
1.695372493755749055e-01
1.690004969433937243e-01
1.663899283961777220e-01
1.617982709004023023e-01
1.553451820793817495e-01
1.471550716223587463e-01
1.373658842093185839e-01
1.261220664563390825e-01
1.135704286312894662e-01
9.986172333474477303e-02
8.514721236513678182e-02
6.957903004793211665e-02
5.330970724141768924e-02
3.649339820326463063e-02
1.928669287443512959e-02
1.847554442105298067e-03
-1.565905779627747851e-02
-3.306545251057305124e-02
-5.019784169699086779e-02
-6.687433040443824250e-02
-8.291098222674395113e-02
-9.811618337268154799e-02
-1.122958649143408344e-01
-1.252568085975500067e-01
-1.368068017580445495e-01
-1.467574271619682402e-01
-1.549371601698270318e-01
-1.611802633922349293e-01
-1.653464758448098260e-01
-1.673222283154166823e-01
-1.670090382965635500e-01
-1.643629141993638854e-01
-1.593557175910521040e-01
-1.520085597102209807e-01
-1.423883621540820155e-01
-1.305833196266952267e-01
-1.167487814443590455e-01
-1.010572185552919555e-01
-8.372608294661387784e-02
-6.500996728840587047e-02
-4.517700602939704602e-02
-2.453268000521766079e-02
-3.390233656196506296e-03
1.792627442006816674e-02
3.908487671476015834e-02
5.975796190618913595e-02
7.962986058951770918e-02
9.838936276283949400e-02
1.157547474969905094e-01
1.314635041610670574e-01
1.452740608638490860e-01
1.569924905648499847e-01
1.664367995034835568e-01
1.734770194712252356e-01
1.780132228523473303e-01
1.799731017264092348e-01
1.793398263973319529e-01
1.761094022933586967e-01
1.703298412789902572e-01
1.620757745899771840e-01
1.514473272726152564e-01
1.385900321122679468e-01
1.236597471903897461e-01
1.068534466823064799e-01
8.838675877653609514e-02
6.849493992050276203e-02
4.744427505751433460e-02
2.550788056935140991e-02
2.984810199792381491e-03
-1.981552006096568008e-02
-4.257474620214599104e-02
-6.496195597056837745e-02
-8.664550074234113330e-02
-1.072948696075228525e-01
-1.265803486068111383e-01
-1.441866403326056423e-01
-1.598164217081702032e-01
-1.731833665992974503e-01
-1.840486506241363895e-01
-1.921894953528426597e-01
-1.974323664951239399e-01
-1.996582125193105683e-01
-1.987721757223217256e-01
-1.947690696479311701e-01
-1.876702991745822779e-01
-1.775657766460002895e-01
-1.646127051416394482e-01
-1.489939636201843554e-01
-1.309760274649606482e-01
-1.108469702810540719e-01
-8.893998333500717501e-02
-6.562759910509073646e-02
-4.129143677809929414e-02
-1.633793650598490410e-02
8.822080182536828907e-03
3.378631253601410006e-02
5.815906954598611123e-02
8.155916705637505926e-02
1.036454944495513175e-01
1.240879615088490706e-01
1.426079763402880174e-01
1.589623414348607100e-01
1.729357014520919722e-01
1.843792772485611242e-01
1.931597916735864895e-01
1.992027419236221952e-01
2.024694426439148098e-01
2.029469869876519561e-01
2.006769721412038909e-01
1.957127124871579915e-01
1.881498724626416430e-01
1.781069905397728304e-01
1.657202013487090730e-01
1.511586754218763318e-01
1.345986867626271510e-01
1.162433076591370407e-01
9.630845725972499161e-02
7.502285039623046714e-02
5.263656296486052960e-02
2.940471062000376418e-02
5.602771325820581766e-03
-1.848512576928044299e-02
-4.256534635573018532e-02
-6.633017053207224123e-02
-8.946964818738067926e-02
-1.116674235471882271e-01
-1.326049734901859622e-01
-1.519706742633755159e-01
-1.694619945612654832e-01
-1.847839566029921277e-01
-1.976771332036028339e-01
-2.078948107448591875e-01
-2.152321152458802067e-01
-2.195330585555426706e-01
-2.206637096623539629e-01
-2.185763042531077005e-01
-2.132499467863130382e-01
-2.047329388349037604e-01
-1.931453555468010397e-01
-1.786345646603283155e-01
-1.614412884359410216e-01
-1.418316566224454567e-01
-1.201251043529621143e-01
-9.669015306533682019e-02
-7.190764865061163857e-02
-4.619410651876973417e-02
-1.997337678937914640e-02
6.334580513304004581e-03
3.231299487652319197e-02
5.755901679202478360e-02
8.171087763295629969e-02
1.044184412216808411e-01
1.253868471887881753e-01
1.443613558536713803e-01
1.611167630837141707e-01
1.755024064909750103e-01
1.873849955777576737e-01
1.966935852568051368e-01
2.033973572277496533e-01
2.074899883464331740e-01
2.090196519139411735e-01
2.080455389370821639e-01
2.046606143987854676e-01
1.989770858231094675e-01
1.911163162608462418e-01
1.812176573036995142e-01
1.694234182973063385e-01
1.558826450592836477e-01
1.407477816021208139e-01
1.241732239061196508e-01
1.063167915120935003e-01
8.733772267898748387e-02
6.740300239324902021e-02
4.668317981663863692e-02
2.535779795570484302e-02
3.620509137621260361e-03
-1.833032782254317983e-02
-4.027452746864133154e-02
-6.198315875481776732e-02
-8.321449425095203689e-02
-1.037090216086313105e-01
-1.232041402142836084e-01
-1.414275643836080398e-01
-1.581039456763490836e-01
-1.729658855617665358e-01
-1.857558013383694140e-01
-1.962254651818176876e-01
-2.041682721261978695e-01
-2.093917845225469199e-01
-2.117526769504116113e-01
-2.111614182547646990e-01
-2.075536414630167470e-01
-2.009579874413203182e-01
-1.914304749386495641e-01
-1.790986104574786020e-01
-1.641594174257272887e-01
-1.468357433854427241e-01
-1.274334660755332416e-01
-1.062794175243001182e-01
-8.373951702944439079e-02
-6.021342424955898609e-02
-3.610461855422010535e-02
-1.182514611718060715e-02
1.221305661016621608e-02
3.562473530392407106e-02
5.804510037567931630e-02
7.913280825938007190e-02
9.860989370518559449e-02
1.162147452230869737e-01
1.317542441181292490e-01
1.450818608383566966e-01
1.560835124955080033e-01
1.647216622639263439e-01
1.709754925790523128e-01
1.748806434025771406e-01
1.765067758220399685e-01
1.759417386453575316e-01
1.733111930757742780e-01
1.687472589921444610e-01
1.623965193761386372e-01
1.544132223583567221e-01
1.449503336035997125e-01
1.341582735851569452e-01
1.221857431539852268e-01
1.091702666732302096e-01
9.524405840666505529e-02
8.053353624599088323e-02
6.515553408152828518e-02
4.922569988898439775e-02
3.285779401000481215e-02
1.616491271468899898e-02
-7.339356821487799665e-04
-1.771104203130290100e-02
-3.463466172246128238e-02
-5.135359692571349333e-02
-6.770928844868116803e-02
-8.353001283566030555e-02
-9.862689377437411364e-02
-1.128077239230157736e-01
-1.258692565889558690e-01
-1.376049590142892631e-01
-1.478144580972000077e-01
-1.563045080635291906e-01
-1.628901772157543837e-01
-1.674214964786838178e-01
-1.697598785435052160e-01
-1.698085678844777346e-01
-1.675137652236208807e-01
-1.628428681006910961e-01
-1.558373650255132636e-01
-1.465594697960387327e-01
-1.351280217276201734e-01
-1.217134839381022182e-01
-1.065063062777498459e-01
-8.975775779271583099e-02
-7.173354394792225142e-02
-5.272640693296222481e-02
-3.305096238484324378e-02
-1.302281844370228869e-02
7.041344392468019617e-03
2.682646642584565408e-02
4.604199033938397023e-02
6.441497943547866423e-02
8.169188218266773549e-02
9.766806060357832719e-02
1.121510700288918527e-01
1.249989200061046024e-01
1.361017804163902611e-01
1.453728524958958213e-01
1.527762662356029200e-01
1.582868832052671815e-01
1.619157739329011303e-01
1.636944374995939477e-01
1.636654215099841436e-01
1.618928313817999953e-01
1.584442211608197981e-01
1.533945893086165468e-01
1.468226203946912944e-01
1.388065051162148955e-01
1.294235190303329452e-01
1.187506710186227998e-01
1.068637232579512930e-01
9.383795454013216242e-02
7.975234039963441379e-02
6.469160953116109836e-02
4.874400837997405755e-02
3.201655649831226802e-02
1.462389379465496575e-02
-3.300661760347260720e-03
-2.159807835371719414e-02
-4.010083876249904283e-02
-5.860572393777600808e-02
-7.689694179733030932e-02
-9.473913013022491891e-02
-1.118730250105559043e-01
-1.280353896378617351e-01
-1.429511418197726424e-01
-1.563421596497696076e-01
-1.679420691692650736e-01
-1.774972367107364724e-01
-1.847670189353519121e-01
-1.895614186655726341e-01
-1.917061537677676730e-01
-1.910857740599424814e-01
-1.876414685105071700e-01
-1.813438711286501914e-01
-1.722607030873490042e-01
-1.604855847748004882e-01
-1.461861463065201594e-01
-1.295932721135947263e-01
-1.109635940736955068e-01
-9.062780759739944014e-02
-6.893321542117997192e-02
-4.625910872978211685e-02
-2.300902723930776939e-02
4.137951388118732421e-04
2.360860765231029279e-02
4.617795890323495023e-02
6.775978147093331128e-02
8.801587334850183297e-02
1.066364079000969300e-01
1.233785721915324207e-01
1.380163674747938440e-01
1.503965165874343590e-01
1.604091904421956483e-01
1.679797814745377371e-01
1.731068119378972869e-01
1.758043376438291894e-01
1.761422020488474238e-01
1.742197288187739834e-01
1.701548385684806541e-01
1.640995821343909367e-01
1.562115447939568524e-01
1.466622195356745428e-01
1.356295256890875378e-01
1.232904520841492935e-01
1.098203992954701474e-01
9.539322731638016917e-02
8.017355640170670261e-02
6.432214330123524337e-02
4.799457865647360766e-02
3.133894645945931035e-02
1.450229316838066995e-02
-2.370898050726544248e-03
-1.913698599249316623e-02
-3.564951223160123250e-02
-5.175838041480873564e-02
-6.731179215195445820e-02
-8.215062916002235927e-02
-9.611342889162169389e-02
-1.090370326145814750e-01
-1.207563399074416122e-01
-1.311084905959012947e-01
-1.399408694446604984e-01
-1.471044962254036415e-01
-1.524702978838704814e-01
-1.559294395731173066e-01
-1.573859133204816851e-01
-1.567890924991140467e-01
-1.541013973036317874e-01
-1.493285513097256378e-01
-1.425153629779482289e-01
-1.337259336990624936e-01
-1.230838041280917783e-01
-1.107273981827448794e-01
-9.683575043577102859e-02
-8.162043024612011810e-02
-6.530500686245202524e-02
-4.814525513261260631e-02
-3.040333330698743661e-02
-1.234895527847642074e-02
5.742812432249507805e-03
2.360226673338605696e-02
4.097365095155561243e-02
5.760593693870725424e-02
7.327664273702401421e-02
8.778132581598004081e-02
1.009342805484270272e-01
1.125910975797352748e-01
1.226173336523111446e-01
1.309202894999656752e-01
1.374306351322097108e-01
1.420991815466296493e-01
1.449159453376602791e-01
1.458794253412008524e-01
1.450201308784042908e-01
1.423844314708130054e-01
1.380315701776477777e-01
1.320430043406388976e-01
1.245046654347019832e-01
1.155184199803576672e-01
1.051931343760866833e-01
9.364451609751059391e-02
8.099876185686299968e-02
6.738483046522347752e-02
5.294315369320753972e-02
3.781870570311535174e-02
2.216472133006884560e-02
6.145690326043770635e-03
-1.007041498238194291e-02
-2.630134908983490505e-02
-4.235991031265496504e-02
-5.805179129357146417e-02
-7.317409327016777265e-02
-8.752309976682864923e-02
-1.008936846801385678e-01
-1.130806779660358530e-01
-1.238884927515540024e-01
-1.331318305750830711e-01
-1.406339224719699299e-01
-1.462505171716795282e-01
-1.498473644402086580e-01
-1.513274740880029834e-01
-1.506293691227631737e-01
-1.477107951979508838e-01
-1.425924595720236832e-01
-1.353119206740612812e-01
-1.259577271295530265e-01
-1.146615728523027594e-01
-1.015746162713731388e-01
-8.690392765566755384e-02
-7.086948111546233220e-02
-5.372214211234879050e-02
-3.573596633651832805e-02
-1.719071471943535434e-02
1.619948816589389384e-03
2.040067593514791056e-02
3.886389756567151799e-02
5.672725798900535299e-02
7.371992983481145956e-02
8.959822027131283950e-02
1.041259363259356974e-01
1.171035494106471009e-01
1.283532403892551632e-01
1.377188394015368966e-01
1.450888051006868906e-01
1.503622562632873361e-01
1.534829361209567311e-01
1.544180081295946083e-01
1.531575445510442168e-01
1.497334468631433824e-01
1.441873785243364958e-01
1.366008628357653354e-01
1.270739815431979336e-01
1.157274355036309876e-01
1.027153381602189802e-01
8.819978367998965174e-02
7.237505744406969033e-02
5.544872164309436191e-02
3.764385442376771973e-02
1.920584667013608415e-02
3.846575682220354508e-04
-1.855363527935599555e-02
-3.733721853083971087e-02
-5.569266425519076025e-02
-7.334448970945195434e-02
-9.002000063871559710e-02
-1.054609728625811593e-01
-1.194144248663566166e-01
-1.316499001090776499e-01
-1.419624792900436583e-01
-1.501605398644265399e-01
-1.561038935809988537e-01
-1.596682243570359538e-01
-1.607757756971379681e-01
-1.593956520818005651e-01
-1.555177117472063275e-01
-1.492021590783472462e-01
-1.405283748603225746e-01
-1.296255556320460300e-01
-1.166674106172571612e-01
-1.018448320023406239e-01
-8.540000916753058557e-02
-6.758725475084528811e-02
-4.868602642446860640e-02
-2.899572103041218873e-02
-8.819532956173381510e-03
1.153000770683001996e-02
3.173939682679388641e-02
5.150419250455923192e-02
7.052634984263320139e-02
8.851850169033927129e-02
1.052198357829220582e-01
1.203767816381154376e-01
1.337704142802174923e-01
1.452034748455654223e-01
1.544995147099068045e-01
1.615274243610377858e-01
1.661672453191450072e-01
1.683469428389478550e-01
1.680210692669105721e-01
1.651708077713731071e-01
1.598287433799912560e-01
1.520398935217344150e-01
1.419019755507052172e-01
1.295386383861392154e-01
1.151017133187897529e-01
9.879127596594054761e-02
8.081862083447220735e-02
6.144019495852810764e-02
4.093208140333735867e-02
1.958992671607470704e-02
-2.260924331828409461e-03
-2.429004740370423882e-02
-4.615133811901972472e-02
-6.749291763782119813e-02
-8.796751058095442222e-02
-1.072340706361058493e-01
-1.249584234088145229e-01
-1.408403210818408580e-01
-1.545918742321876205e-01
-1.659646923004926000e-01
-1.747576764469917221e-01
-1.807901142455513865e-01
-1.839621642412360147e-01
-1.841996606789747803e-01
-1.814917755955209044e-01
-1.758949979120149887e-01
-1.674906584316770974e-01
-1.564465649154356819e-01
-1.429546003243257757e-01
-1.272568990831352553e-01
-1.096430119994138419e-01
-9.041556140179496381e-02
-6.991638089838708714e-02
-4.849618393648261194e-02
-2.651111055166856245e-02
-4.321841259129641233e-03
1.771810216808150304e-02
3.927748481467787517e-02
6.003186015786498436e-02
7.969296004187484406e-02
9.799942683501823570e-02
1.147107306927844933e-01
1.296403253279324874e-01
1.426146482444268226e-01
1.535086165839339434e-01
1.622291341155526478e-01
1.687042153335777950e-01
1.729101104732903016e-01
1.748335498188994253e-01
1.744974761882288061e-01
1.719460132697009369e-01
1.672375430675812624e-01
1.604593631220317396e-01
1.517048788735125830e-01
1.410894888539413472e-01
1.287400070134626373e-01
1.147934613131607606e-01
9.940532640761826078e-02
8.273554185911796699e-02
6.496279859682987934e-02
4.627445006518177140e-02
2.686886788184932040e-02
6.962108654010416842e-03
-1.322538839817022534e-02
-3.345518012989325690e-02
-5.348150920948187281e-02
-7.305171464259577196e-02
-9.190331217881660131e-02
-1.097734863644724557e-01
-1.264017937946054215e-01
-1.415290177974513619e-01
-1.549105390312348340e-01
-1.663202018683820338e-01
-1.755425006050262693e-01
-1.824082509095022731e-01
-1.867640123486918879e-01
-1.885019617485153565e-01
-1.875654750565980411e-01
-1.839193084656099986e-01
-1.776078313437767786e-01
-1.686991281878217896e-01
-1.573181925409872783e-01
-1.436467233512546682e-01
-1.278861014588966172e-01
-1.103018153337875507e-01
-9.117579736058750717e-02
-7.081864082307617880e-02
-4.956629094250444845e-02
-2.775723662301671224e-02
-5.735388270784437525e-03
1.615553367960854969e-02
3.759166353392834337e-02
5.826473675526055995e-02
7.788304566936762874e-02
9.620072232716904426e-02
1.129837042018442400e-01
1.280459771260385460e-01
1.412350189926400990e-01
1.524209500398070183e-01
1.615285973344378345e-01
1.684950078835643350e-01
1.732992458271322977e-01
1.759463395088288751e-01
1.764569527639189006e-01
1.748851540002376304e-01
1.712916831089969227e-01
1.657582436353018385e-01
1.583780150409681009e-01
1.492513694969421212e-01
1.384923380640388502e-01
1.262179675200218454e-01
1.125569881398941069e-01
9.764384323488584094e-02
8.162093524872342243e-02
6.464417149651452421e-02
4.687349961287885780e-02
2.848770028234462459e-02
9.673732995873290941e-03
-9.369276925258268607e-03
-2.842389901730857371e-02
-4.726847236183251422e-02
-6.566506300880486924e-02
-8.336964506485611270e-02
-1.001359559960783852e-01
-1.157147574516834143e-01
-1.298597951206273415e-01
-1.423414553740083022e-01
-1.529363778440571697e-01
-1.614482531725404679e-01
-1.677128372211685592e-01
-1.715817748211144744e-01
-1.729704346620454525e-01
-1.718144427696214616e-01
-1.681043184476423147e-01
-1.618883404119910718e-01
-1.532375858685579850e-01
-1.423025458702032453e-01
-1.292557426932286202e-01
-1.143181307179925998e-01
-9.775590754731559862e-02
-7.984810666640534960e-02
-6.091211984798539092e-02
-4.127388824074462725e-02
-2.126389317793153655e-02
-1.216374852208490509e-03
1.854257135295658832e-02
3.771178363365054742e-02
5.599762564507937412e-02
7.314614298456231789e-02
8.893260243958275857e-02
1.031548102303279923e-01
1.156683855218413881e-01
1.263426359300550417e-01
1.350968491999609000e-01
1.418829510172925357e-01
1.466727836274184238e-01
1.494831401845626850e-01
1.503399649256027815e-01
1.492971209757838758e-01
1.464246139420635473e-01
1.418001903569835187e-01
1.355170237045613402e-01
1.276709816892896976e-01
1.183648782044772196e-01
1.077050931778577303e-01
9.580095793645482249e-02
8.276707659839652176e-02
6.871992313221796100e-02
5.378570816124376985e-02
3.809515441778399403e-02
2.178852463932734462e-02
5.021262133259346561e-03
-1.204637647100809117e-02
-2.923201736324748667e-02
-4.634429712212731478e-02
-6.317882016591261363e-02
-7.951281588681266554e-02
-9.512002097102384424e-02
-1.097624776008881975e-01
-1.231983269233522527e-01
-1.351906461717135577e-01
-1.455086984716582599e-01
-1.539290449687332196e-01
-1.602616597351860239e-01
-1.643280471807732623e-01
-1.659900896164258621e-01
-1.651545357375789336e-01
-1.617489310041357042e-01
-1.557786427434333931e-01
-1.472722446594252610e-01
-1.363188450689779285e-01
-1.230672680534952157e-01
-1.076891633556215783e-01
-9.043080843645773248e-02
-7.155784221680233648e-02
-5.137638589049692284e-02
-3.022801239015437957e-02
-8.462603501104726256e-03
1.354712892641797561e-02
3.542436914202656828e-02
5.679941383766254348e-02
7.730810151955025411e-02
9.659934829127131417e-02
1.143583954576566086e-01
1.302806529627715537e-01
1.441103715466012514e-01
1.556255197362022280e-01
1.646321831813670478e-01
1.710040769549783790e-01
1.746312011190196134e-01
1.754688358506291401e-01
1.735122337416014349e-01
1.687884962711522219e-01
1.613924888495683330e-01
1.514342802594367543e-01
1.390823026322799694e-01
1.245366580365665915e-01
1.080227173663664691e-01
8.981351985147692507e-02
7.019174957957979855e-02
4.947394761178940809e-02
2.799286271195828082e-02
6.090258495301960340e-03
-1.587706006443479617e-02
-3.755154892605731820e-02
-5.858050653532335950e-02
-7.861356227882125569e-02
-9.731698025331927959e-02
-1.143818462984562967e-01
-1.295100631485560927e-01
-1.424556152266626963e-01
-1.529927187316861836e-01
-1.609409960532058870e-01
-1.661801008855484096e-01
-1.686102719260635374e-01
-1.682165834036494223e-01
-1.650131577762759538e-01
-1.590703615178071240e-01
-1.505245543664945340e-01
-1.395316490897606787e-01
-1.263184398012816845e-01
-1.111329058851374674e-01
-9.425525137253390473e-02
-7.599924838891057577e-02
-5.668407980984509209e-02
-3.664396890607696244e-02
-1.621628900236909976e-02
4.272224426714736276e-03
2.450467508708512737e-02
4.417505522078774005e-02
6.301328702786967995e-02
8.075920317276186200e-02
9.718970771736079595e-02
1.121121429537064312e-01
1.253504810115929624e-01
1.367756515446305610e-01
1.462697807822015694e-01
1.537490518353582525e-01
1.591544632491669609e-01
1.624399050116506760e-01
1.635915144022431211e-01
1.626027029881235708e-01
1.594909069864889062e-01
1.542891013813542378e-01
1.470418272070869725e-01
1.378195989092412810e-01
1.266993444628296550e-01
1.137854830809282292e-01
9.919823049926836112e-02
8.307433669213756811e-02
6.558362138034132260e-02
4.690409476588484894e-02
2.724935972732832334e-02
6.851138766886529646e-03
-1.404078133647067989e-02
-3.514461471770033429e-02
-5.617218094202769407e-02
-7.681278421030160453e-02
-9.674572541019439698e-02
-1.156491797601130189e-01
-1.331996166297030881e-01
-1.490775567598547069e-01
-1.629900862294598185e-01
-1.746554027789196106e-01
-1.838267448060722231e-01
-1.903063030102266906e-01
-1.939151841589847880e-01
-1.945583658891254508e-01
-1.921712806753509972e-01
-1.867529638939078307e-01
-1.783812650844089354e-01
-1.671591129299461742e-01
-1.532859062124929395e-01
-1.369917603312608978e-01
-1.185594511988983246e-01
-9.832968131609121087e-02
-7.665636678367199197e-02
-5.393611121963778898e-02
-3.057667614727143518e-02
-6.986637066990264433e-03
1.642463592000878436e-02
3.925836906193293230e-02
6.115443200919129518e-02
8.176438695271354140e-02
1.007922893903202555e-01
1.179877113738616035e-01
1.331274075043666627e-01
1.460696352922655761e-01
1.566930818965989458e-01
1.649406107967702206e-01
1.708044749639669457e-01
1.743003021896197546e-01
1.755051274193225597e-01
1.745091256707493321e-01
1.714346381079496495e-01
1.664259501010305065e-01
1.596327149177725613e-01
1.512166369640736141e-01
1.413406512937770421e-01
1.301616307768090341e-01
1.178327514939161991e-01
1.045003053415998473e-01
9.029593904297027185e-02
7.534813623424871376e-02
5.977382896601714929e-02
4.368378369707046766e-02
2.718807531432319152e-02
1.039558081098258466e-02
-6.583456814699971231e-03
-2.362708422045994155e-02
-4.060768464999229416e-02
-5.738598328316737995e-02
-7.380329680914395063e-02
-8.969595818470044168e-02
-1.048790991950946938e-01
-1.191589675360749112e-01
-1.323356934576826738e-01
-1.442004093968701772e-01
-1.545453232928438725e-01
-1.631731843807286420e-01
-1.698911466291831429e-01
-1.745293068877063480e-01
-1.769478010482640196e-01
-1.770206621121495627e-01
-1.746823582917810258e-01
-1.698881859201497035e-01
-1.626435250721094961e-01
-1.530119362573219843e-01
-1.410773003508815626e-01
-1.269991860475156165e-01
-1.109599534744385996e-01
-9.318576911171352894e-02
-7.394797681133924439e-02
-5.352966644146621433e-02
-3.225135686820310849e-02
-1.044293227676421770e-02
1.155957562052103461e-02
3.341450764200792900e-02
5.478589963317837680e-02
7.535772068626442333e-02
9.482021422864092552e-02
1.128972813219193128e-01
1.293401857351760276e-01
1.439198152382165641e-01
1.564626471704329003e-01
1.668090679628081441e-01
1.748497080805297699e-01
1.805114472124206559e-01
1.837431777808253008e-01
1.845486600967993496e-01
1.829439873557511254e-01
1.789862667683523867e-01
1.727588492224153005e-01
1.643608639628502954e-01
1.539263280263578060e-01
1.415965529995392713e-01
1.275369931498978870e-01
1.119267954866482173e-01
9.495408096238144857e-02
7.682462039390741682e-02
5.774774856443092019e-02
3.794502701448956850e-02
1.764415741493888246e-02
-2.922853875757667336e-03
-2.351647566162836517e-02
-4.389602280262262790e-02
-6.381802955377045838e-02
-8.303785773809482795e-02
-1.013137797340668000e-01
-1.184086229089996167e-01
-1.340883372910143256e-01
-1.481359065691456589e-01
-1.603413233460049547e-01
-1.705145682746830593e-01
-1.784932621732741864e-01
-1.841261289561596515e-01
-1.873111513201585754e-01
-1.879641286643428111e-01
-1.860414738510655086e-01
-1.815494242810039849e-01
-1.745117109247565634e-01
-1.650203222755103893e-01
-1.531890198424470662e-01
-1.391754167731616143e-01
-1.231848821189742843e-01
-1.054370071941393011e-01
-8.620005732534073706e-02
-6.575571457503685824e-02
-4.440475916694330838e-02
-2.246643653046611483e-02
-2.610128751240198275e-04
2.189029033547855441e-02
4.366698040826158533e-02
6.476528533420358724e-02
8.489578836676019147e-02
1.037815421916929437e-01
1.211832737607301258e-01
1.368716782255947062e-01
1.506556650636921568e-01
1.623732650064714511e-01
1.718809873184475867e-01
1.790840938206891275e-01
1.838994655966055269e-01
1.862850620751339004e-01
1.862266201917325281e-01
1.837281898079537734e-01
1.788367055793774474e-01
1.716088269551095391e-01
1.621368159694668576e-01
1.505342931265711282e-01
1.369312864812504971e-01
1.214920080489626519e-01
1.043884184767818746e-01
8.582286420564833040e-02
6.601386027051771299e-02
4.519438000839941932e-02
2.362415902800694273e-02
1.568591003171679321e-03
-2.068592153078663287e-02
-4.284313093965540220e-02
-6.460156394136497282e-02
-8.565120315937910234e-02
-1.056825527444238966e-01
-1.243949330171678080e-01
-1.414916345587287072e-01
-1.566946978187337969e-01
-1.697535699652601704e-01
-1.804293815225877784e-01
-1.885382802974030769e-01
-1.939173722085118790e-01
-1.964507704299855162e-01
-1.960834955833783422e-01
-1.927814370782512943e-01
-1.865951174241382848e-01
-1.776034664715893940e-01
-1.659404263296819781e-01
-1.518032037956910385e-01
-1.354074619481182573e-01
-1.170345030952484877e-01
-9.698476239731092241e-02
-7.558583312272963706e-02
-5.319303683929934440e-02
-3.016445627679821204e-02
-6.863951041832528840e-03
1.634418499170560077e-02
3.911402269329072867e-02
6.111628124721282806e-02
8.203618071130856781e-02
1.016053435537498106e-01
1.195679598876426830e-01
1.357145471904069312e-01
1.498729046817791066e-01
1.618919850532109794e-01
1.716794027944448797e-01
1.791566814014145803e-01
1.842889948174095127e-01
1.870726861971820087e-01
1.875200603667316612e-01
1.856825380932934366e-01
1.816198380657019495e-01
1.754157708857749243e-01
1.671694024431721326e-01
1.569879737466529368e-01
1.449965627928341272e-01
1.313241523408815170e-01
1.161138845006725873e-01
9.951687404559333983e-02
8.169255464485015994e-02
6.281666015404152592e-02
4.306921752881251453e-02
2.264987944833860012e-02
1.768104940473129438e-03
-1.935537902357327075e-02
-4.048026768270671788e-02
-6.136208801386645179e-02
-8.174072506444997332e-02
-1.013492473674496297e-01
-1.199190592845608555e-01
-1.371790346139882544e-01
-1.528606624648082557e-01
-1.667129149926452891e-01
-1.784920197372520945e-01
-1.879801863036457688e-01
-1.949951964408896399e-01
-1.993697009083700844e-01
-2.010023199678040162e-01
-1.998152919063397037e-01
-1.957843175600809393e-01
-1.889500290821670148e-01
-1.793750769645671705e-01
-1.672066892513334735e-01
-1.526186527009611993e-01
-1.358344566349178328e-01
-1.171311774486005486e-01
-9.679982020656732744e-02
-7.517729707898412883e-02
-5.261265209918139507e-02
-2.946440106006111351e-02
-6.100125797679447313e-03
1.711777275976024415e-02
3.984659344116073254e-02
6.175002378729643748e-02
8.252690676288895744e-02
1.019059635614616988e-01
1.196358769981264447e-01
1.355243275456850527e-01
1.493938794237295586e-01
1.611174560874739647e-01
1.706059673791353037e-01
1.777907938601752391e-01
1.826563960334064152e-01
1.851990855013387616e-01
1.854508200560429365e-01
1.834674067780270590e-01
1.793167658219961547e-01
1.730946587092479227e-01
1.649025751365656156e-01
1.548592652271018610e-01
1.430937217187413790e-01
1.297416128163875471e-01
1.149523316997332345e-01
9.887846743290565343e-02
8.168559615947024177e-02
6.354615154490564355e-02
4.464045238657698977e-02
2.516329714664268524e-02
5.313129166853145652e-03
-1.469577907566861977e-02
-3.464176785547930237e-02
-5.429600927561300389e-02
-7.341801730379871049e-02
-9.176578164845024255e-02
-1.090943474192978546e-01
-1.251577297596641325e-01
-1.397180603942592136e-01
-1.525492261267479555e-01
-1.634320415457696241e-01
-1.721816781427899512e-01
-1.786264198887321242e-01
-1.826293639708993499e-01
-1.840982666375033105e-01
-1.829578521327646090e-01
-1.792026981488096249e-01
-1.728507902037994537e-01
-1.639707685937367987e-01
-1.526889462601749015e-01
-1.391505487415474196e-01
-1.235692303138006265e-01
-1.061787183861454542e-01
-8.724855822278319850e-02
-6.708449998257598468e-02
-4.600020267753167358e-02
-2.433316710758091916e-02
-2.426346894576741908e-03
1.938078494224931836e-02
4.075188060534119805e-02
6.135962712637151734e-02
8.090616731676494866e-02
9.910211982287199517e-02
1.156960195885637227e-01
1.304666124457471987e-01
1.432129817552350304e-01
1.537904945704130499e-01
1.620683802075612578e-01
1.679655340504968564e-01
1.714359696768118779e-01
1.724557968712454037e-01
1.710551663914038067e-01
1.672764291349353172e-01
1.612041006034093671e-01
1.529491387079423836e-01
1.426395521080566220e-01
1.304403668311385767e-01
1.165244119323053107e-01
1.010912503948169505e-01
8.435530135530409923e-02
6.654091260211582315e-02
4.789157780719321966e-02
2.865440100208276747e-02
9.087800823024828889e-03
-1.054427132701020800e-02
-2.997665541314871104e-02
-4.894216491492416055e-02
-6.717479919779871522e-02
-8.441832277066425860e-02
-1.004209394487270701e-01
-1.149451749770441511e-01
-1.277754488676612621e-01
-1.387047453914422857e-01
-1.475669997667621025e-01
-1.542123907414570394e-01
-1.585256792245912649e-01
-1.604384794071083420e-01
-1.598981806693144103e-01
-1.569181181194378716e-01
-1.515347423248772363e-01
-1.438286992625039118e-01
-1.339337714377461797e-01
-1.219994732847189678e-01
-1.082334082243398277e-01
-9.286097662381059825e-02
-7.613456168770489640e-02
-5.833534753004487872e-02
-3.974930175442169256e-02
-2.067599791048053970e-02
-1.418034578561627734e-03
1.773033515530247212e-02
3.648276730634562870e-02
5.456190237404728166e-02
7.172084298636964561e-02
8.772125562424133716e-02
1.023570650844964902e-01
1.154493367860607855e-01
1.268342488662484724e-01
1.363917568123900748e-01
1.440125678723052083e-01
1.496214317525794701e-01
1.531685195197626803e-01
1.546179098394882545e-01
1.539694091262394648e-01
1.512310611666053961e-01
1.464385510154925796e-01
1.396458829604709795e-01
1.309198003566776625e-01
1.203563218524237866e-01
1.080584268995061770e-01
9.415710421256304197e-02
7.879982290744025342e-02
6.214914912819283210e-02
4.439855333968331652e-02
2.574872304584456539e-02
6.429822361422088406e-03
-1.331262846238269459e-02
-3.322043570558835812e-02
-5.301243585415690157e-02
-7.240359642449507860e-02
-9.109823774038489086e-02
-1.087959106953306221e-01
-1.252014274324448895e-01
-1.400281545030248043e-01
-1.529954816789210748e-01
-1.638569327369795992e-01
-1.723804228356424217e-01
-1.783696401901823103e-01
-1.816794831804297572e-01
-1.821829067299260974e-01
-1.798325878506789599e-01
-1.746107179213711169e-01
-1.665563857072797638e-01
-1.557809259532556001e-01
-1.424174152946557914e-01
-1.266829084761641466e-01
-1.088217465188313082e-01
-8.912182610876537292e-02
-6.792013639861069207e-02
-4.556427117086248035e-02
-2.243603707517090318e-02
1.073588159990278290e-03
2.457351659542721806e-02
4.767255019722446696e-02
6.998785834993787036e-02
9.116791091047535267e-02
1.108707374386523337e-01
1.287964946857009796e-01
1.446827687000641349e-01
1.582895825925150768e-01
1.694459310486874370e-01
1.779986219960420502e-01
1.838528942210800321e-01
1.869600706897365794e-01
1.872960401936641373e-01
1.849032401189044106e-01
1.798395862314819960e-01
1.722108410929004130e-01
1.621562508027798444e-01
1.498329203960515055e-01
1.354409309328958866e-01
1.191895572451872054e-01
1.013164404108967964e-01
8.207682137920585541e-02
6.173544349035864354e-02
4.057737945878656105e-02
1.889144454170883780e-02
-3.023828928788746540e-03
-2.486459854491051419e-02
-4.632760800686380048e-02
-6.711084214922341529e-02
-8.691427357504095952e-02
-1.054527374737936340e-01
-1.224484579925113059e-01
-1.376409914426837966e-01
-1.507994876137460638e-01
-1.617031674471756941e-01
-1.701810870263900377e-01
-1.760841572018876644e-01
-1.793022851885460178e-01
-1.797843326579168233e-01
-1.774968171532508299e-01
-1.724830514665707804e-01
-1.648161031732968129e-01
-1.546161437191984067e-01
-1.420665044600222804e-01
-1.273667575231809956e-01
-1.107783556562254301e-01
-9.258371630212627879e-02
-7.308987843404966822e-02
-5.263318244229706067e-02
-3.155334407980453504e-02
-1.019767565227045966e-02
1.108492307428367990e-02
3.196029064680833837e-02
5.210984085808330335e-02
7.122664628757739702e-02
8.904721343443747217e-02
1.053208886400698596e-01
1.198388541732358092e-01
1.324315428524807658e-01
1.429480102123185936e-01
1.512967071645487938e-01
1.574015069078716078e-01
1.612291725370885720e-01
1.627821896131972090e-01
1.620789410418372323e-01
1.591827349264179625e-01
1.541674102893896003e-01
1.471355561042577420e-01
1.382110120379046181e-01
1.275275344399096067e-01
1.152439067899461156e-01
1.015243592905891168e-01
8.654896356308974803e-02
7.050817805267305116e-02
5.359802318577771424e-02
3.602707544764514186e-02
1.800647856860327148e-02
-2.447628739599069791e-04
-1.850308215328815009e-02
-3.654316933984480542e-02
-5.413624904788547076e-02
-7.105358919148835328e-02
-8.707050418994960461e-02
-1.019644660497072974e-01
-1.155214417622252299e-01
-1.275427589796951366e-01
-1.378356096311457446e-01
-1.462387331329800810e-01
-1.526054919186108361e-01
-1.568164675993867219e-01
-1.587957307082987768e-01
-1.584805575848474146e-01
-1.558680130682018605e-01
-1.509796287591537722e-01
-1.438751334227493239e-01
-1.346683527591782670e-01
-1.234872147134574716e-01
-1.105154408664479893e-01
-9.595680206650711308e-02
-8.003996607254837414e-02
-6.302488839028544398e-02
-4.517681625507509457e-02
-2.677704590263041418e-02
-8.111572194762481369e-03
1.053845902360499992e-02
2.889731473053673214e-02
4.669563196230575725e-02
6.368983663310970322e-02
7.964436684655193388e-02
9.435039666105284051e-02
1.076255881596794306e-01
1.192997949495547549e-01
1.292437427354932999e-01
1.373392551837790965e-01
1.434987374921505854e-01
1.476614936736754813e-01
1.497793498377459898e-01
1.498415745896461704e-01
1.478468809628719349e-01
1.438231165300298542e-01
1.378208782720545811e-01
1.299038879652057443e-01
1.201712084401584668e-01
1.087304637678107311e-01
9.571963518643059055e-02
8.129774180591688160e-02
6.563771792065327404e-02
4.894590110819797835e-02
3.143610735894528108e-02
1.334817434417302426e-02
-5.062079285914312769e-03
-2.353027233857001715e-02
-4.177388987173562274e-02
-5.950781628934464357e-02
-7.644493292463977463e-02
-9.229712154318375772e-02
-1.067860570191577069e-01
-1.196522191145998060e-01
-1.306435784902315045e-01
-1.395507553312319016e-01
-1.461851919792902244e-01
-1.503939702398229272e-01
-1.520843429051403628e-01
-1.511808129161138492e-01
-1.476863584778887462e-01
-1.416377897031135535e-01
-1.331195056226707196e-01
-1.222870869665876742e-01
-1.093136635243486393e-01
-9.444204124589752891e-02
-7.794142830812432476e-02
-6.011020459813663092e-02
-4.128545680401449203e-02
-2.181014072431357656e-02
-2.043752039349949756e-03
1.764918299985047956e-02
3.691385383523240749e-02
5.540690472461351490e-02
7.279482309382007132e-02
8.878554110168257463e-02
1.031003711854065752e-01
1.155029978628728804e-01
1.258014352743392905e-01
1.338236051733176224e-01
1.394675425536911761e-01
1.426511622595858508e-01
1.433456939020629761e-01
1.415718873923787480e-01
1.373715155029348045e-01
1.308520702480942544e-01
1.221377226387122539e-01
1.113956773960100011e-01
9.882862177128920456e-02
8.465331515370641546e-02
6.912555277608659066e-02
5.250973279967849350e-02
3.508846849919769473e-02
1.715769290879240461e-02
-9.849428935570364585e-04
-1.903807284905739694e-02
-3.670079384102396119e-02
-5.368465883987894732e-02
-6.970934222073367492e-02
-8.450798628264719059e-02
-9.784449784267119921e-02
-1.094914682727485683e-01
-1.192648285358832022e-01
-1.270055344922802476e-01
-1.325826758922449833e-01
-1.359219050211832591e-01
-1.369629741739925854e-01
-1.357073058276317135e-01
-1.321878673235738211e-01
-1.264701408265872518e-01
-1.186774711677224814e-01
-1.089460567347712294e-01
-9.746224999289318514e-02
-8.443504619383368492e-02
-7.009236036110653989e-02
-5.469193901759648868e-02
-3.849600487375948177e-02
-2.177841494801781297e-02
-4.817456352862847790e-03
1.211440668260864786e-02
2.875290052544704489e-02
4.483921619543752152e-02
6.014132128775557390e-02
7.443705284484980478e-02
8.752836655122685217e-02
9.924723594355683298e-02
1.094361292858691409e-01
1.179789112577417087e-01
1.247728667337182074e-01
1.297430210100276315e-01
1.328450459280500484e-01
1.340451123536128830e-01
1.333467359999448432e-01
1.307643068671223152e-01
1.263365869450258916e-01
1.201262430571122114e-01
1.122051940914883944e-01
1.026754949578174703e-01
9.164723564437904368e-02
7.925145784820183947e-02
6.563744771203378070e-02
5.096274813430654027e-02
3.540929583094275246e-02
1.916500439133209110e-02
2.434685879128289931e-03
-1.456378741824088108e-02
-3.160711045793468399e-02
-4.845776004426688433e-02
-6.487551272360106425e-02
-8.061712749220911745e-02
-9.543731154220430613e-02
-1.090955884577027857e-01
-1.213633714763329152e-01
-1.320164608415143048e-01
-1.408584767864484166e-01
-1.477100250970543316e-01
-1.524141322241318042e-01
-1.548615875539154918e-01
-1.549558940845221500e-01
-1.526600415720598680e-01
-1.479691919545533807e-01
-1.409131501939992481e-01
-1.315868999047068444e-01
-1.201006029105896045e-01
-1.066264405901135026e-01
-9.136624196217724148e-02
-7.454838493024504298e-02
-5.644547434420810195e-02
-3.733802519460693858e-02
-1.753156398314581477e-02
2.657995637311838522e-03
2.291504727805954156e-02
4.292449080809287998e-02
6.237531360182282936e-02
8.098031902386258751e-02
9.846163302313298837e-02
1.145669249092482050e-01
1.290774446296351075e-01
1.417864507346104364e-01
1.525369703884826011e-01
1.611890278477835503e-01
1.676370867061159897e-01
1.718157887393561012e-01
1.736729610396232915e-01
1.732051084030487020e-01
1.704235438322481977e-01
1.653700258559850367e-01
1.581178467521534015e-01
1.487513502177029712e-01
1.373921875481053101e-01
1.241723122122675160e-01
1.092481759222204141e-01
9.279875780916940764e-02
7.501244728952582985e-02
5.610672506354605349e-02
3.630643842373904029e-02
1.585609182807315443e-02
-4.983764788558359138e-03
-2.594646089059135519e-02
-4.674856192017259882e-02
-6.710333634387147250e-02
-8.672127613349667197e-02
-1.053108765579733874e-01
-1.225866290248394386e-01
-1.382787234722571978e-01
-1.521228137051840457e-01
-1.638885136989466640e-01
-1.733673178823766925e-01
-1.803769309841620760e-01
-1.847940737611459272e-01
-1.865109092850084915e-01
-1.854906917755551055e-01
-1.817372713905435200e-01
-1.752945897351625704e-01
-1.662862529252534249e-01
-1.548540156276369262e-01
-1.412120296033319011e-01
-1.256109957494790097e-01
-1.083299391004030610e-01
-8.969766065917350595e-02
-7.005086196635301743e-02
-4.974646382653663546e-02
-2.915015117911035070e-02
-8.618441381189168027e-03
1.150659410271759331e-02
3.089181577432481562e-02
4.925223686832880254e-02
6.632244106378148985e-02
8.187905085280333672e-02
9.575705961091296459e-02
1.078093707977612059e-01
1.179630815588359471e-01
1.261716673520163479e-01
1.324303064955560938e-01
1.367855512574726040e-01
1.392962128643847608e-01
1.400642842965749146e-01
1.392050018874118611e-01
1.368454406674076140e-01
1.331256226976919033e-01
1.281847478939008300e-01
1.221558866695933721e-01
1.151698251901342451e-01
1.073421169597285063e-01
9.877352391747273863e-02
8.955748455446116418e-02
7.976318904293622225e-02
6.945361557319174040e-02
5.867854204867145596e-02
4.747636818626321809e-02
3.588423329886436530e-02
2.393647637537105188e-02
1.166763725568967236e-02
-8.766107573957571120e-04
-1.364206729846553778e-02
-2.656470638354561931e-02
-3.955397867062256795e-02
-5.251260530557450013e-02
-6.531602999923302733e-02
-7.782117627738280308e-02
-8.987438243798501203e-02
-1.012972036869663195e-01
-1.119068250417487587e-01
-1.215131248701990518e-01
-1.299216395420415560e-01
-1.369450011622058150e-01
-1.424110827181507832e-01
-1.461538964176901656e-01
-1.480451917793542682e-01
-1.479769937974223515e-01
-1.458708539303673057e-01
-1.417034342768198618e-01
-1.354657843295173913e-01
-1.272134068965545262e-01
-1.170323900752417989e-01
-1.050427441715305887e-01
-9.142049167837906776e-02
-7.635358154060933877e-02
-6.007453364594328438e-02
-4.283441915652541621e-02
-2.489641125567820801e-02
-6.541377872647524683e-03
1.194951003593547334e-02
3.030154023774733751e-02
4.824280312305462282e-02
6.551990212366609612e-02
8.190354142996603137e-02
9.717469985038351687e-02
1.111581648563045865e-01
1.236936119356244479e-01
1.346529656664983143e-01
1.439453981202322153e-01
1.514921066443941644e-01
1.572581724518200552e-01
1.612217693719829592e-01
1.633851890748353464e-01
1.637754536704606467e-01
1.624265009018578398e-01
1.593945344269668274e-01
1.547415863954609838e-01
1.485390266755418631e-01
1.408667257114966098e-01
1.318070014804409995e-01
1.214493430736235391e-01
1.098851243285952073e-01
9.721188072520881018e-02
8.353212910208829278e-02
6.895286024826485782e-02
5.359376921558978157e-02
3.757805245195022792e-02
2.104484586468358120e-02
4.144722875844109033e-03
-1.296306914017986145e-02
-3.009762791970893581e-02
-4.707318128994852913e-02
-6.368760191878553023e-02
-7.972837143732802723e-02
-9.497975561982174852e-02
-1.092191316436439408e-01
-1.222240191491454908e-01
-1.337824660336593974e-01
-1.436885502867528697e-01
-1.517526234851883649e-01
-1.578172748221607913e-01
-1.617352729739752193e-01
-1.634122651209067301e-01
-1.627805092111551111e-01
-1.598090873395482392e-01
-1.545314104646464681e-01
-1.469972645834831115e-01
-1.373270262409376219e-01
-1.256724223505338855e-01
-1.122196504626876978e-01
-9.720824396715677107e-02
-8.088814756616395651e-02
-6.354536084360262738e-02
-4.547976863794736535e-02
-2.699468059661530583e-02
-8.398079536507507825e-03
1.000634451013560078e-02
2.793987942088849152e-02
4.513312973076621937e-02
6.134844817276774442e-02
7.638691703519340237e-02
9.006494405619014376e-02
1.022598544134130094e-01
1.128683760106221623e-01
1.218282969709720831e-01
1.291218658347630388e-01
1.347447232189815658e-01
1.387382349499202139e-01
1.411562949194618000e-01
1.420705921902438718e-01
1.415699228045170788e-01
1.397441606928697677e-01
1.366845573472255104e-01
1.324819309892568686e-01
1.272140933917509376e-01
1.209477541563608316e-01
1.137411404597470366e-01
1.056271389357830159e-01
9.663244638430956712e-02
8.676531027778144889e-02
7.602000764901362118e-02
6.438743977965488696e-02
5.185023800893828749e-02
3.839058179119270164e-02
2.400225535349020944e-02
8.686878375433249033e-03
-7.538774072749721000e-03
-2.462197088594209049e-02
-4.249999394183623380e-02
-6.106103695907494355e-02
-8.016398567724092317e-02
-9.964027248041995577e-02
-1.192642851855598707e-01
-1.387980340383851985e-01
-1.579576566478346766e-01
-1.764351193697468734e-01
-1.939106238752219546e-01
-2.100429019359426608e-01
-2.244900869206296612e-01
-2.369236299566932491e-01
-2.470215609518826572e-01
-2.544916618405503872e-01
-2.590905261410652027e-01
-2.605925760287515214e-01
-2.588602646524076345e-01
-2.537931181411399173e-01
-2.453559453768179299e-01
-2.336083276824696409e-01
-2.186364683091692740e-01
-2.006366923102747002e-01
-1.798460718626067045e-01
-1.565582280908117685e-01
-1.311396074268380563e-01
-1.039716887686918945e-01
-7.548707414520083869e-02
-4.613442447798032919e-02
-1.636567196709148853e-02
1.336351612779085318e-02
4.260629215792982594e-02
7.095513842627118595e-02
9.801543963684861138e-02
1.234443499400234845e-01
1.469515782832493123e-01
1.682726276216698624e-01
1.872321143649088304e-01
2.036792626375281690e-01
2.175293647447695822e-01
2.287572582655705844e-01
2.373608883186866247e-01
2.434077803879075574e-01
2.469820146942647288e-01
2.482017231408788493e-01
2.472122742308542342e-01
2.441644745586641907e-01
2.392226921583566757e-01
2.325531325976741837e-01
2.243139511316107892e-01
2.146575738314329129e-01
2.037277200375400277e-01
1.916462845707425089e-01
1.785299541962070968e-01
1.644753332582764571e-01
1.495663891666456635e-01
1.338815318415322864e-01
1.174871925605946998e-01
1.004486260565289335e-01
8.283535363272420682e-02
6.471935051034982678e-02
4.618339205662191915e-02
2.733145846182871708e-02
8.274041325680769887e-03
-1.084527447628857999e-02
-2.986645979129765038e-02
-4.861020829349893546e-02
-6.686391008864944752e-02
-8.440814683427699805e-02
-1.009988937476942183e-01
-1.163814919992454122e-01
-1.303000606061557320e-01
-1.424969041818657800e-01
-1.527188638225362993e-01
-1.607415390123012600e-01
-1.663522925291207599e-01
-1.693762153146103344e-01
-1.696897509245394176e-01
-1.671893011632681336e-01
-1.618580035064685063e-01
-1.537096837755074219e-01
-1.428216949898315491e-01
-1.293481010928916319e-01
-1.134663473949473200e-01
-9.544112166026774702e-02
-7.556395253667780310e-02
-5.416691602204526390e-02
-3.162555393839738827e-02
-8.321949577446030588e-03
1.534398376924439589e-02
3.896866174020896523e-02
6.216616409992381520e-02
8.456738298592725300e-02
1.058200756773080009e-01
1.256291709412464819e-01
1.437156140546735905e-01
1.598592618812779698e-01
1.738897497490010657e-01
1.856630203775480048e-01
1.951113059472329159e-01
2.021850909371472049e-01
2.068865501241052840e-01
2.092566156021579138e-01
2.093514537280270482e-01
2.072658225872994198e-01
2.031018698115478749e-01
1.969731464087507433e-01
1.890007646512629202e-01
1.793028631902775505e-01
1.679902125981167504e-01
1.551709587809673163e-01
1.409372512932813848e-01
1.253717965955627456e-01
1.085502287525521581e-01
9.053368654436422247e-02
7.138130635592832007e-02
5.115055910165011710e-02
2.989814136466417693e-02
7.689757383598561091e-03
-1.539230924671741718e-02
-3.925925622698489548e-02
-6.378644135278666027e-02
-8.883243635529414206e-02
-1.142288301290497188e-01
-1.397634869375812272e-01
-1.652131489607784331e-01
-1.903080148683429229e-01
-2.147592103848712242e-01
-2.382601602997045376e-01
-2.604788865085101435e-01
-2.810817930107560869e-01
-2.997372935292990093e-01
-3.161152218655853829e-01
-3.299119862292858585e-01
-3.408579015675936574e-01
-3.487017953093136668e-01
-3.532731033065594772e-01
-3.544286446777533683e-01
-3.520985476434237427e-01
-3.462959305945609856e-01
-3.370654919863778076e-01
-3.245687387369606824e-01
-3.090017558841822165e-01
-2.906332252132592942e-01
-2.698047902722517932e-01
-2.468783115141093276e-01
-2.222795803745327703e-01
-1.964499399390753354e-01
-1.698409339362978443e-01
-1.429132042015748283e-01
-1.161161869795872548e-01
-8.986152538879288443e-02
-6.454912521807187886e-02
-4.051640188819050081e-02
-1.805126296262749008e-02
2.593521337688642348e-03
2.126206470447833397e-02
3.782192474597856346e-02
5.222150685037973972e-02
6.446603931078342953e-02
7.459078197328672388e-02
8.270354568761728586e-02
8.892661194816575687e-02
9.341818319230821288e-02
9.635879784210654719e-02
9.793117054921296472e-02
9.832208316127122316e-02
9.771637733483640176e-02
9.627546542964449117e-02
9.414772364690371376e-02
9.146157392401477182e-02
8.830684070492145210e-02
8.476422730720090115e-02
8.087660542661279095e-02
7.666835591376387760e-02
7.215153217750180925e-02
6.731719618801634830e-02
6.215475001233539132e-02
5.665647267675799625e-02
5.081617480559952327e-02
4.464503137546316225e-02
3.818062963562329770e-02
3.147095319658266277e-02
2.461354855296793431e-02
1.772534201512510066e-02
1.095770672568185944e-02
4.508409770847876530e-03
-1.413790749831278504e-03
-6.559507337584591369e-03
-1.066569401786132687e-02
-1.345854655440525960e-02
-1.465140563147571129e-02
-1.396807323639492893e-02
-1.118381098186027600e-02
-6.088628140034302305e-03
1.527464790964216945e-03
1.187445731302716467e-02
