BVP Green Neck Signal
2.851475071152447666e-02
2.756378910622725442e-02
2.581269000475088643e-02
2.316957703942610150e-02
1.975904242487903917e-02
1.597014049548045253e-02
1.244386607649384212e-02
9.998519115106446059e-03
9.500336601462572306e-03
1.169408267529816609e-02
1.701610921990979672e-02
2.542031203487314303e-02
3.625203310268447499e-02
4.820337687470596655e-02
5.937567881757106758e-02
6.746243151434959395e-02
7.004878924806923202e-02
6.500107048319840597e-02
5.089402386005226209e-02
2.740247364861254920e-02
-4.424366752381739265e-03
-4.207932647684563265e-02
-8.175429413540076518e-02
-1.187513340933325917e-01
-1.481139784476504795e-01
-1.653910502260410031e-01
-1.673984122875015745e-01
-1.528226216608113697e-01
-1.225288062319785237e-01
-7.949330261586569357e-02
-2.836478586425694032e-02
2.525772655815321233e-02
7.567952545008116427e-02
1.179249176344894789e-01
1.483620102885582492e-01
1.650448757390732546e-01
1.677518111166809434e-01
1.577621177249416140e-01
1.374553002078819641e-01
1.098320948203743430e-01
7.805071371082712706e-02
4.505115294255782055e-02
1.331135432647748834e-02
-1.525377853112565296e-02
-3.927141529132273379e-02
-5.781455239566697657e-02
-7.029073928782601788e-02
-7.637232668173091210e-02
-7.600267485790986044e-02
-6.947707426813234943e-02
-5.755853889641106280e-02
-4.156167042715532001e-02
-2.333556988137985497e-02
-5.103506043981954204e-03
1.083531891353254478e-02
2.248451244848942432e-02
2.851438317604679251e-02
2.850752064589233761e-02
2.301222374651391844e-02
1.338991057360433209e-02
1.507946391674602499e-03
-1.063029718019028493e-02
-2.122524657080299137e-02
-2.892656431472974410e-02
-3.295773811150707472e-02
-3.312459141015247632e-02
-2.973207188441796822e-02
-2.344323369908719173e-02
-1.511679621683420169e-02
-5.656031500394679418e-03
4.107732727205075027e-03
1.348640213033184404e-02
2.196189046215482610e-02
2.917619161111102005e-02
3.489658928491756046e-02
3.897083531706908160e-02
4.128853517435225606e-02
4.176224975104678855e-02
4.033410682994387209e-02
3.700390142997966869e-02
3.186728661304803756e-02
2.515018269836796078e-02
1.722716118733893728e-02
8.615300887530744425e-03
-5.995026298670795215e-05
-8.123902865641116633e-03
-1.492689728623241771e-02
-1.991965441918028615e-02
-2.271643132952462160e-02
-2.313737503974017118e-02
-2.122630075692146651e-02
-1.724284673744114899e-02
-1.162975372506959253e-02
-4.959054362032842139e-03
2.135002838673938450e-03
9.025917801570401688e-03
1.515793982501687301e-02
2.009477933970793551e-02
2.354910971504313791e-02
2.538980907154382224e-02
2.562691750784615655e-02
2.437948728946585930e-02
2.183671731415366343e-02
1.822420374671847657e-02
1.378340321308876848e-02
8.765730989488771524e-03
3.436511249255979738e-03
-1.919692532292037023e-03
-7.001449108836686058e-03
-1.150688755612376026e-02
-1.516447211225905450e-02
-1.777078166602065815e-02
-1.922271048329412396e-02
-1.953214006949599915e-02
-1.881727005971975050e-02
-1.727238071527786856e-02
-1.512311994849810728e-02
-1.257728182422376134e-02
-9.783088257902505455e-03
-6.807592920001659387e-03
-3.644076291242315854e-03
-2.482156831736868734e-04
3.408056715724021735e-03
7.283161061421733820e-03
1.123131365518725833e-02
1.499975653867580486e-02
1.826239461417044838e-02
2.068440356101981792e-02
2.200135886643903374e-02
2.208806138261685745e-02
2.099224432452440059e-02
1.891961152744723804e-02
1.617519610629105514e-02
1.308267058194721374e-02
9.909988683283958710e-03
6.824990226630273105e-03
3.892561264296256433e-03
1.111155258930827689e-03
-1.525293976610257989e-03
-3.961632147966579615e-03
-6.035179488791323280e-03
-7.467048384072132172e-03
-7.898723289870054898e-03
-6.968933739920586679e-03
-4.414753453048120280e-03
-1.733762309682044568e-04
5.541780685223597971e-03
1.221400187738236678e-02
1.905924152391160614e-02
2.512511195184097615e-02
2.943801737762438350e-02
3.117175353508902513e-02
2.980417086859429160e-02
2.522787900164528280e-02
1.778804686631509091e-02
8.235959352991952670e-03
-2.392124998554439035e-03
-1.294272584581797336e-02
-2.232251610405131328e-02
-2.965080969277432421e-02
-3.436228172456812224e-02
-3.624648916803049209e-02
-3.542211071078216200e-02
-3.225585074657401352e-02
-2.724786986430449004e-02
-2.091348689152730880e-02
-1.369082797307000221e-02
-5.895776844160290422e-03
2.267814470922159282e-03
1.064944062712796027e-02
1.906517675595315389e-02
2.721335420121196585e-02
3.462611509427873657e-02
4.068234288157775158e-02
4.468914050941213273e-02
4.601639136397589480e-02
4.425024190027128379e-02
3.932256943455676723e-02
3.157706138362945808e-02
2.174799281831209241e-02
1.085161160735650596e-02
1.510598017879409907e-05
-9.714385509262270235e-03
-1.753458245414101641e-02
-2.299066165179099522e-02
-2.599780622481142126e-02
-2.678537526239647623e-02
-2.578137905136569305e-02
-2.346891734413342548e-02
-2.025293359850464242e-02
-1.637286028637486776e-02
-1.188348445955200207e-02
-6.706480134537867732e-03
-7.355760576535793314e-04
6.035203091098026093e-03
1.339691267593532895e-02
2.086060197227040253e-02
2.766935223270865218e-02
3.289788005701650003e-02
3.562600995039807983e-02
3.514806012451013317e-02
3.116504576429773160e-02
2.390685323563077058e-02
1.414728549175368714e-02
3.101145460643381108e-03
-7.777856328746769049e-03
-1.705414189556771556e-02
-2.356384654848094409e-02
-2.660842186933226605e-02
-2.604912508944490571e-02
-2.228930839863115659e-02
-1.615707092801699218e-02
-8.720188410959894831e-03
-1.076590299688382716e-03
5.833764054993851450e-03
1.135763583361705867e-02
1.517808532503101340e-02
1.728812524018199376e-02
1.791055716933280181e-02
1.739424486128895303e-02
1.611469821437406733e-02
1.439888164249598056e-02
1.248479301786079368e-02
1.051636308785202679e-02
8.564042566127326450e-03
6.654753265175278668e-03
4.796203585397224370e-03
2.989302767756586710e-03
1.231931096195380566e-03
-4.786697348659846134e-04
-2.139446658842677606e-03
-3.729343262002757144e-03
-5.192912212595126448e-03
-6.424483441541581005e-03
-7.260973759368358552e-03
-7.492596957275797498e-03
-6.897047202501073102e-03
-5.294349605785370061e-03
-2.610277201151885770e-03
1.069334029725038313e-03
5.470844021289968800e-03
1.014418401657673531e-02
1.451789530522435735e-02
1.799207283000606519e-02
2.005207170090285429e-02
2.037692427944907958e-02
1.891452166759894846e-02
1.590240990855838060e-02
1.182590123306711573e-02
7.320047386576215148e-03
3.036138725314999325e-03
-4.956270685340107181e-04
-2.971793338761119768e-03
-4.361128575152938003e-03
-4.878680131839499209e-03
-4.898000876628760478e-03
-4.827482334992846957e-03
-4.984021075701630665e-03
-5.495891183331783059e-03
-6.259007645135376136e-03
-6.958277985578924588e-03
-7.149746878997144395e-03
-6.383029941282342135e-03
-4.332449024686744338e-03
-9.034725976121535558e-04
3.711579451338421504e-03
9.041882056436776477e-03
1.440980634507459980e-02
1.905194192542760193e-02
2.226370513187744815e-02
2.353448420135086788e-02
2.264158935588697630e-02
1.968268521614336200e-02
1.504363586120775059e-02
9.314653685878226605e-03
3.177717048395598768e-03
-2.708032993886714656e-03
-7.797986505715033892e-03
-1.171332039652148854e-02
-1.424673282585790096e-02
-1.533152073072626201e-02
-1.499277851974215037e-02
-1.330173679180367274e-02
-1.034954465366585627e-02
-6.248426398420218325e-03
-1.158615287901946633e-03
4.670146332556595128e-03
1.086154996594670616e-02
1.690140052207558807e-02
2.216741389505051674e-02
2.600299735501921880e-02
2.782377892604431802e-02
2.723450437565070464e-02
2.412787401615316268e-02
1.873738218619908427e-02
1.162500763582020175e-02
3.601280902143159327e-03
-4.405344027360806602e-03
-1.149882495345639494e-02
-1.695138864573434226e-02
-2.029775590781469907e-02
-2.137281185123907773e-02
-2.029080228828228014e-02
-1.737649847772375356e-02
-1.306969411871707065e-02
-7.830774243418679725e-03
-2.072813824868009139e-03
3.865882395115778376e-03
9.710556880143869640e-03
1.521420827236607404e-02
2.011649176181929191e-02
2.411572311308092867e-02
2.686808824331430451e-02
2.802080475894546882e-02
2.727523150270060384e-02
2.446419334259953421e-02
1.962058661703151505e-02
1.301601658672287692e-02
5.157751683844059853e-03
-3.255981130117754484e-03
-1.141353929004770146e-02
-1.848671841106079225e-02
-2.373147695817866623e-02
-2.657745887306812646e-02
-2.669429695880570080e-02
-2.402772443985459749e-02
-1.880348541286928216e-02
-1.150050075592071348e-02
-2.797243258146383648e-03
6.501925700246463657e-03
1.555075853247775419e-02
2.354462945713152108e-02
2.979483861611610315e-02
3.378893438182255932e-02
3.523477214075892289e-02
3.408571576721967922e-02
3.054319229857006823e-02
2.503326542012538486e-02
1.815630730535301024e-02
1.061228478370673800e-02
3.108970500818977831e-03
-3.732872859793824171e-03
-9.457303480810853175e-03
-1.381424431235477729e-02
-1.675332053658387665e-02
-1.837485849634663132e-02
-1.885532559857307916e-02
-1.837004191178317689e-02
-1.703400469612950663e-02
-1.487549583677741372e-02
-1.184936306255927711e-02
-7.887678136070535445e-03
-2.975119447017325527e-03
2.772429590761254451e-03
9.050920492053809649e-03
1.535361917875656748e-02
2.101024220658011255e-02
2.527906349345647799e-02
2.747866982030156002e-02
2.713348763254182922e-02
2.409790066541193931e-02
1.862346727394291468e-02
1.134615698951684307e-02
3.192455829696910861e-03
-4.774562566491181645e-03
-1.153409610827179146e-02
-1.627323848390505381e-02
-1.850697305891206915e-02
-1.813176201945253252e-02
-1.540712591874225310e-02
-1.087556813480373280e-02
-5.243930220259514566e-03
7.452204392634806211e-04
6.426560361021798826e-03
1.129242042532405815e-02
1.503339098658878874e-02
1.753976343647626127e-02
1.887058720581048787e-02
1.920157272843876772e-02
1.876451929382978029e-02
1.778893563335144298e-02
1.645333257411564151e-02
1.485221092734387988e-02
1.298505158378128986e-02
1.077254092819577083e-02
8.100101504638239358e-03
4.880351393851950839e-03
1.118306643966043585e-03
-3.040125699278540313e-03
-7.293004513658354199e-03
-1.120904431956645277e-02
-1.429315677258410217e-02
-1.607638139682585759e-02
-1.620859887354613588e-02
-1.453278460253049076e-02
-1.112647353459910761e-02
-6.304838371490265742e-03
-5.861934683391166641e-04
5.375180666833819301e-03
1.087970867880373033e-02
1.528239491925461636e-02
1.808430041435010044e-02
1.899912229675035022e-02
1.798371684018543193e-02
1.522911857036736948e-02
1.111704608753274343e-02
6.154366838449536886e-03
9.020635055912496793e-04
-4.086184068702423608e-03
-8.307343768986485619e-03
-1.133453921583574969e-02
-1.283139043834328336e-02
-1.256367635506512592e-02
-1.041489009071311540e-02
-6.408657052019836251e-03
-7.363559458820859334e-04
6.217705281096235284e-03
1.386722676831399041e-02
2.144687153799044316e-02
2.807817758243649070e-02
3.287774169001062008e-02
3.509317043662761593e-02
3.424133482197209283e-02
3.021836904980163691e-02
2.335278089580980140e-02
1.438263903007907379e-02
4.354700035056831980e-03
-5.536375896868832303e-03
-1.413471235435343615e-02
-2.049740854308938071e-02
-2.402547239128643639e-02
-2.453419508030207918e-02
-2.225784688565753816e-02
-1.779222529651713902e-02
-1.198599254956564213e-02
-5.799437947436999682e-03
-1.549142269634310419e-04
4.196752871077048808e-03
6.775204195571812166e-03
7.424091557779005993e-03
6.315688484547327466e-03
3.909086104096164832e-03
8.699743519467897750e-04
-2.035814154109040573e-03
-4.061355787645276258e-03
-4.597503652372230201e-03
-3.279245566109235521e-03
-6.507970065901518691e-05
4.727981044986122490e-03
1.044957843623352776e-02
1.620756219320951957e-02
2.101684933675501687e-02
2.398149673969727363e-02
2.447572768227078421e-02
2.228598450598199762e-02
1.767979078877324195e-02
1.137964281083279905e-02
4.440943470832816459e-03
-1.942924998368269953e-03
-6.666605118843951100e-03
-8.921461981292073962e-03
-8.344559727982595737e-03
-5.079966339263081165e-03
2.567805324657618758e-04
6.700029258439425817e-03
1.311240431502079008e-02
1.838157537047798232e-02
2.159835414262218506e-02
2.218972643098569841e-02
1.999312240369128385e-02
1.526763459237812787e-02
8.644294995462754178e-03
1.023929235836857233e-03
-6.561883530351282981e-03
-1.310600467810577388e-02
-1.777478252110138365e-02
-2.003001009756614700e-02
-1.970567519006992049e-02
-1.702596841676132233e-02
-1.255908099639145570e-02
-7.113068767494214184e-03
-1.592162948119767423e-03
3.160354288043017591e-03
6.505071999805664765e-03
8.110281550317103086e-03
7.996734097525361185e-03
6.511381183453929244e-03
4.231770332666778822e-03
1.820979919981694038e-03
-1.308316934685912342e-04
-1.236256479763592816e-03
-1.377526697845736937e-03
-6.941042289967361452e-04
5.033430525483591732e-04
1.866214935717118526e-03
3.147685919250287762e-03
4.304571599208553527e-03
5.527205151643703115e-03
7.184527912461548607e-03
9.697100115909129681e-03
1.337219250059079600e-02
1.824711197026248483e-02
2.398759858673492340e-02
2.987731831214145498e-02
3.491292818063443382e-02
3.799070508381385131e-02
3.814339553494918572e-02
3.476913231805489612e-02
2.779375815069026062e-02
1.772386629272847472e-02
5.575922785912450219e-03
-7.300703163061288831e-03
-1.946188954544131669e-02
-2.961036598298184136e-02
-3.678813602487145118e-02
-4.048615840330166415e-02
-4.066169651660691414e-02
-3.767415370941851194e-02
-3.216373786839699100e-02
-2.490489953991909672e-02
-1.666883922222557254e-02
-8.124586400555681986e-03
2.051821335711926687e-04
7.935920582438211329e-03
1.477907602164506631e-02
2.049202245502245237e-02
2.484389879393943124e-02
2.761240583388496414e-02
2.861454144060077143e-02
2.776125535151158924e-02
2.511528376180788974e-02
2.092771664877132384e-02
1.563539386337693335e-02
9.815607977477894264e-03
4.109110893022493646e-03
-8.698876911365275265e-04
-4.618071345038977926e-03
-6.807031347638058810e-03
-7.317143303144625632e-03
-6.237277905888922308e-03
-3.833400404324270507e-03
-4.956825105700709243e-04
3.323213792161406124e-03
7.167493117419214584e-03
1.062785485332078637e-02
1.337742890394339607e-02
1.519250270776071471e-02
1.595902025293633938e-02
1.566811643645257129e-02
1.440411925186990162e-02
1.232601377947382601e-02
9.641083940546031628e-03
6.570718313114509712e-03
3.313234504274972011e-03
1.342280465514060842e-05
-3.250553142089133204e-03
-6.456225765246457679e-03
-9.602272914451599750e-03
-1.265860888449460431e-02
-1.551606439851597324e-02
-1.795388197763700747e-02
-1.964073737580771320e-02
-2.017612888621066886e-02
-1.916652085960547647e-02
-1.631951718724131487e-02
-1.153360112677958259e-02
-4.961534407429937094e-03
2.969164721459814030e-03
1.158688020065265500e-02
2.005563918215930858e-02
2.749134794598371428e-02
3.309374942776188017e-02
3.626957961900834776e-02
3.672334146963444207e-02
3.449706162257239195e-02
2.994941808559406504e-02
2.367804930285578868e-02
1.640439894528477466e-02
8.851972267496109950e-03
1.649836431343993954e-03
-4.717933846284314003e-03
-9.914221735216100645e-03
-1.371638543393198517e-02
-1.597291102068515087e-02
-1.657331363063905064e-02
-1.544852019430754606e-02
-1.260680163034238327e-02
-8.195378900795968757e-03
-2.564440879286686726e-03
3.696025544536522562e-03
9.772379629091014833e-03
1.470986367012736690e-02
1.755840617307501822e-02
1.756141238653756084e-02
1.435152466306697724e-02
8.105990950314946944e-03
-3.873542413795933066e-04
-9.789617277945639184e-03
-1.840480146256905439e-02
-2.448228730499323394e-02
-2.657007203600814105e-02
-2.384188270987235014e-02
-1.632041565201605010e-02
-4.937194994920917138e-03
8.596108436467995301e-03
2.208672822047528725e-02
3.327096400301340906e-02
4.024918771556440511e-02
4.185362924575700139e-02
3.787228780702300152e-02
2.908377405692923190e-02
1.709820861621183866e-02
4.040451864451913289e-03
-7.855191655879285861e-03
-1.665369402710836083e-02
-2.105125673523033578e-02
-2.057254731028984596e-02
-1.560642650692063010e-02
-7.285596152059287123e-03
2.755935274427051117e-03
1.269277395017015878e-02
2.082198290684705508e-02
2.582406033727975211e-02
2.693363905793892676e-02
2.400627145187177874e-02
1.748773102365120541e-02
8.305601456867353974e-03
-2.289536423815006962e-03
-1.290369998902803420e-02
-2.217399121517902791e-02
-2.892094368965310303e-02
-3.227112446307811577e-02
-3.174709446081842856e-02
-2.732075428944360715e-02
-1.942332443411371595e-02
-8.905645526499856093e-03
3.052576556182226997e-03
1.507866886441303067e-02
2.577480910323767110e-02
3.389788786341570853e-02
3.852590723047106397e-02
3.918306283981830285e-02
3.590025319573276336e-02
2.920031708520303554e-02
2.001344237751262467e-02
9.541028465409565062e-03
-9.080104907422874121e-04
-1.008481537150766189e-02
-1.695140123625452772e-02
-2.079795381261740142e-02
-2.131443248270755569e-02
-1.860998623987243639e-02
-1.317997565361653939e-02
-5.826534391668922522e-03
2.455763331210423801e-03
1.061297311124674396e-02
1.766529274817844192e-02
2.282428713805914958e-02
2.558143962582886191e-02
2.575976052208143324e-02
2.352229844964133509e-02
1.933346457545444264e-02
1.387444436985248511e-02
7.922928649813745436e-03
2.216594827643400979e-03
-2.674166357071717636e-03
-6.437103827368846620e-03
-9.049071343699732414e-03
-1.073478107840488381e-02
-1.185971871973949716e-02
-1.278456994120463069e-02
-1.372264602339535663e-02
-1.464214878646367263e-02
-1.524184634650673636e-02
-1.500842914319583735e-02
-1.334395904213498546e-02
-9.736057633532094191e-03
-3.932352162398082898e-03
3.924257361459810439e-03
1.323806234522952041e-02
2.300265374023902423e-02
3.194007098290287117e-02
3.871032035090942597e-02
4.214816996958633405e-02
4.147819213600767441e-02
3.646386927071926243e-02
2.746200988449781777e-02
1.537694959617388890e-02
1.532203239205367096e-03
-1.250907534393457324e-02
-2.514292459489709738e-02
-3.491832085568257610e-02
-4.070855586206868076e-02
-4.184535879609949105e-02
-3.820095838505063734e-02
-3.020601390710223044e-02
-1.879866773368916999e-02
-5.309503411012600829e-03
8.704314736621903553e-03
2.165594511661929344e-02
3.213190559767183790e-02
3.907295122130730047e-02
4.190487582923629190e-02
4.059710308572322957e-02
3.563791937526660653e-02
2.793001430829112133e-02
1.862648158185056801e-02
8.941391346518383354e-03
-2.548416847439121877e-05
-7.417094915871527000e-03
-1.268503544619902293e-02
-1.559655557849391749e-02
-1.619909956145746191e-02
-1.476197815838899835e-02
-1.171130793576853277e-02
-7.568991727684092410e-03
-2.901101258178146510e-03
1.724906957973921986e-03
5.780166717671845339e-03
8.819061568084395064e-03
1.053090181670593775e-02
1.079109844195854512e-02
9.695705681975183565e-03
7.561538906289987094e-03
4.881309888469820626e-03
2.237003565882786371e-03
1.895559159363364304e-04
-8.276809767591461302e-04
-5.845990624802166295e-04
9.177125087632357486e-04
3.467924150981789837e-03
6.701374024994400172e-03
1.017282482216883520e-02
1.342599432026498653e-02
1.604691013192954471e-02
1.769557248282488046e-02
1.811762558061352432e-02
1.714449437480014202e-02
1.469482247133045358e-02
1.078836924284545286e-02
5.574129644021501642e-03
-6.388664003556701436e-04
-7.368788560210151953e-03
-1.398521715560283735e-02
-1.977637722473055831e-02
-2.404852806439942633e-02
-2.623479940502888505e-02
-2.598844523944843915e-02
-2.324115563343568530e-02
-1.821695058103200981e-02
-1.140286393127872173e-02
-3.485753288820627859e-03
4.732410915364138049e-03
1.242994546614716728e-02
1.886312677441209784e-02
2.345766794187198467e-02
2.588303553935100351e-02
2.609684829095479039e-02
2.434863920608773893e-02
2.113833855660688862e-02
1.713260757909799634e-02
1.304976945289776716e-02
9.531659543524497596e-03
7.027913477765988445e-03
5.721285935436967035e-03
5.516181747033123070e-03
6.095585852678366001e-03
7.030035545956029100e-03
7.905453420978215615e-03
8.431080467094918818e-03
8.495832598486833045e-03
8.158584742289160668e-03
7.580025921332377362e-03
6.923691322764279760e-03
6.264010712703953557e-03
5.535444677744357639e-03
4.541096246728650206e-03
3.018697120109808257e-03
7.437681960915558735e-04
-2.362103729120309647e-03
-6.153874619696261469e-03
-1.024649819013837004e-02
-1.407188987072996444e-02
-1.699737446053030399e-02
-1.847157395007396202e-02
-1.815480669776696129e-02
-1.599846247953225220e-02
-1.225565048544306063e-02
-7.424683558291624366e-03
-2.142131765360755485e-03
2.947791691884255137e-03
7.316080031173238449e-03
1.063500575107286308e-02
1.280902604171841111e-02
1.394823375465429650e-02
1.429776826241063552e-02
1.414687179028268141e-02
1.374426803473264083e-02
1.324238846108753698e-02
1.268246669442624382e-02
1.201811411423086076e-02
1.116207337096587586e-02
1.003574130946015969e-02
8.605937844794358735e-03
6.903479821165752275e-03
5.025637500793680296e-03
3.126170427603990141e-03
1.395492374551648724e-03
3.384106782370688640e-05
-7.777191358146712079e-04
-9.029240965815524787e-04
-2.690448258273999207e-04
1.121669408775815766e-03
3.186599012984740048e-03
5.762814813700800967e-03
8.613473770141660477e-03
1.144204049127403935e-02
1.391545165814416646e-02
1.569672215306238197e-02
1.648614976758204509e-02
1.606676754374021174e-02
1.434451563661343944e-02
1.137061418545013899e-02
7.337037544710345652e-03
2.545699539094314120e-03
-2.637520289326645510e-03
-7.828049885662434135e-03
-1.265482172373120009e-02
-1.677568062080878053e-02
-1.988092472878682376e-02
-2.169495607682276478e-02
-2.198636364386481051e-02
-2.059248050970792152e-02
-1.745676816259588565e-02
-1.266944359798105602e-02
-6.497376988510536466e-03
6.100016380407341683e-04
8.047527236813845075e-03
1.511604460642642159e-02
2.111332211192423411e-02
2.543966420443337373e-02
2.769653306931429970e-02
2.775429616666182098e-02
2.577044452252040194e-02
2.215165159910060036e-02
1.746833765841076386e-02
1.234392210893280398e-02
7.347778801715162261e-03
2.918215178472443033e-03
-6.696406624221262587e-04
-3.291960113817769037e-03
-4.935140233025507930e-03
-5.646901261651973702e-03
-5.498554522920209853e-03
-4.569041715254986563e-03
-2.951531335070328981e-03
-7.750942300248637833e-04
1.771619710248422677e-03
4.429640330925101871e-03
6.883481797234218200e-03
8.802473831886420755e-03
9.901455789749054326e-03
1.000380412800255109e-02
9.086921756765392946e-03
7.294260429226515768e-03
4.907338744630109981e-03
2.283780382254765613e-03
-2.206581320513029305e-04
-2.322004073538835953e-03
-3.849364308262233098e-03
-4.748923121181827106e-03
-5.056049457245697862e-03
-4.850247169276577369e-03
-4.209442665448016874e-03
-3.176720445978209722e-03
-1.748077007129856825e-03
1.146886369292388942e-04
2.447784882583036760e-03
5.235796058149402854e-03
8.365456926728258649e-03
1.160099540571818237e-02
1.459313032893724132e-02
1.692323625036454629e-02
1.817379549009115469e-02
1.800887629085019120e-02
1.624489667110445151e-02
1.289374456307597859e-02
8.168890143717454436e-03
2.457983676433925322e-03
-3.724677138704820655e-03
-9.791501320235145023e-03
-1.513304154258536191e-02
-1.916677718830268537e-02
-2.138481925689914367e-02
-2.140061528647761030e-02
-1.899319573016445412e-02
-1.414714325223477911e-02
-7.085018759394084292e-03
1.714950331342247284e-03
1.152686777294210582e-02
2.142129113928165421e-02
3.035011816799225784e-02
3.726814362478871046e-02
4.127801515408342087e-02
4.177655377215211407e-02
3.857317346444226469e-02
3.194915681082603764e-02
2.263473440854374061e-02
1.170037167742309613e-02
3.832173735733236837e-04
-1.011141468344842892e-02
-1.878839003662150647e-02
-2.498447631519165255e-02
-2.841407579900537966e-02
-2.913893213556136008e-02
-2.747926072003415571e-02
-2.389621487272086675e-02
-1.887987642603726479e-02
-1.287140401382799726e-02
-6.234470162962963205e-03
7.254706860843865464e-04
7.710322861732236271e-03
1.437293852103490449e-02
2.028368769978041580e-02
2.494175850386480889e-02
2.783728997826128565e-02
2.855078757044889406e-02
2.686064266775943857e-02
2.282486988285804472e-02
1.681105768850242599e-02
9.464651702334608147e-03
1.622834537828317120e-03
-5.806221205001758923e-03
-1.197322704195450185e-02
-1.620231223370885432e-02
-1.807249254486994333e-02
-1.745797989193358796e-02
-1.452754461522443030e-02
-9.707811177543887796e-03
-3.617875847719618457e-03
3.014638157429549038e-03
9.443473098778859195e-03
1.498721863310780063e-02
1.909779682987063423e-02
2.141013080499094140e-02
2.177178924208213878e-02
2.025134426801208226e-02
1.712361434153794257e-02
1.283106229155717148e-02
7.923811937779159237e-03
2.985183348373600127e-03
-1.446014852290538732e-03
-4.942753105533775546e-03
-7.234180714326585507e-03
-8.220240569206893610e-03
-7.957694567661509344e-03
-6.625939261684959253e-03
-4.483872072716738738e-03
-1.827158519900296593e-03
1.048528502819094047e-03
3.875116473579975646e-03
6.428283977468085553e-03
8.531730130452278710e-03
1.005318891364645299e-02
1.089948110726777705e-02
1.101743480961551135e-02
1.040246016071942094e-02
9.110493091222495593e-03
7.265664930328227453e-03
5.056167141564291839e-03
2.713402597585620919e-03
4.746010713736373114e-04
-1.463312490016444988e-03
-2.983508113502027822e-03
-4.066031689846245564e-03
-4.772208459326299224e-03
-5.200430831759392941e-03
-5.428714373211986771e-03
-5.463866799901611476e-03
-5.214172781970109749e-03
-4.495553154957488903e-03
-3.073010098423966611e-03
-7.303430321728555767e-04
2.647889503462981433e-03
7.004407729900179180e-03
1.206904551281218381e-02
1.736447473458361049e-02
2.226059490481974504e-02
2.606957397964533574e-02
2.816469252633798520e-02
2.809920499648520253e-02
2.569808151535746266e-02
2.109939434300008715e-02
1.473481635141420283e-02
7.255930777907341686e-03
-5.731841062667146318e-04
-7.991580309057236264e-03
-1.434250515269443887e-02
-1.914366770880076424e-02
-2.211832733933213196e-02
-2.318766806941766762e-02
-2.243385307446644356e-02
-2.004944736976118497e-02
-1.628991823200220956e-02
-1.144160765895773507e-02
-5.810282395029110064e-03
2.724433553825439565e-04
6.434488010643885439e-03
1.225482510572952106e-02
1.727538229504144499e-02
2.104093450111916078e-02
2.316313257300689488e-02
2.339366584265273330e-02
2.168628254307901349e-02
1.823002754491017882e-02
1.344413978592912465e-02
7.934278993222305953e-03
2.417285112182598634e-03
-2.373314197475849107e-03
-5.786545272995350861e-03
-7.343858938970625194e-03
-6.807721038671762925e-03
-4.219864988284515242e-03
9.675188105656750207e-05
5.574182747040461183e-03
1.147017941085442042e-02
1.696353541176334398e-02
2.126043550849515337e-02
2.369808323964451083e-02
2.383405560493784270e-02
2.151130253867063538e-02
1.688872388628389135e-02
1.042832434671723575e-02
2.835021321480460810e-03
-5.045404253029661321e-03
-1.235379834961676526e-02
-1.834608336295774286e-02
-2.249645289893576622e-02
-2.455456585568709105e-02
-2.454703609152868171e-02
-2.272708663057667125e-02
-1.948851615837097345e-02
-1.526737842151316971e-02
-1.045518056560940448e-02
-5.342138186044472978e-03
-1.008091157628991479e-04
5.188991856357834040e-03
1.048323524749347410e-02
1.570327577411329348e-02
2.067568648386609170e-02
2.510380868177016639e-02
2.858336443611318028e-02
3.066162065336085207e-02
3.092668853505644438e-02
2.910367869516670286e-02
2.513069982971921287e-02
1.919290315658412488e-02
1.170683302304077224e-02
3.264736318307204666e-03
-5.439725169734413446e-03
-1.368268257926036693e-02
-2.076600699648568915e-02
-2.605748591047766030e-02
-2.902200882280438210e-02
-2.925216900264216574e-02
-2.650490370155013375e-02
-2.074697722309375159e-02
-1.220547764130951174e-02
-1.410225977238877253e-03
1.079288388674076726e-02
2.327920797433040076e-02
3.474574585840548707e-02
4.387103093181859981e-02
4.951356686369300097e-02
5.091312198231469355e-02
4.784999037861624449e-02
4.071770361636640329e-02
3.047886206741937110e-02
1.850140185695672845e-02
6.305670720171078353e-03
-4.721245058474217438e-03
-1.357758238621328828e-02
-1.980674370602730425e-02
-2.352774122282870473e-02
-2.532876282784544270e-02
-2.604851391161493862e-02
-2.649756691219949667e-02
-2.718819322908753999e-02
-2.814231022361318724e-02
-2.883324647654869621e-02
-2.828996682280453256e-02
-2.535512710599821529e-02
-1.904649871905257641e-02
-8.935111719383357493e-03
4.564383814079742835e-03
2.008561686581487177e-02
3.544007827350142970e-02
4.798026934053854775e-02
5.512824933314642434e-02
5.495190811439773504e-02
4.665228226653624771e-02
3.084292198477055214e-02
9.550330114622331695e-03
-1.407241121214927032e-02
-3.626544579283755981e-02
-5.331536231507243845e-02
-6.221670536207909996e-02
-6.121558228284591785e-02
-5.013183723671101044e-02
-3.039926706063106332e-02
-4.818935160324541722e-03
2.292307251278154212e-02
4.887804666937394654e-02
6.947927058896756491e-02
8.209266556558138250e-02
8.538051483738952341e-02
7.942438844306780321e-02
6.560111905663429388e-02
4.625297868530182932e-02
2.422959995045160728e-02
2.396302449369156363e-03
-1.680056724595220541e-02
-3.164114972328721520e-02
-4.127241614934390457e-02
-4.567591429407613646e-02
-4.549210942541554586e-02
-4.175855799771878429e-02
-3.563250596644219198e-02
-2.816247458245753343e-02
-2.015108849834426272e-02
-1.212202944665096913e-02
-4.376568184328369360e-03
2.895411415937590872e-03
9.496087277178334382e-03
1.513737908868112783e-02
1.942688130496826593e-02
2.192949523573174339e-02
2.228676177327907487e-02
2.035716551625171497e-02
1.633263966823919264e-02
1.078900905016491607e-02
4.640955011567082789e-03
-1.004091028921261144e-03
-5.067166524749314865e-03
-6.739596199025033041e-03
-5.678885412818331438e-03
-2.103194677486896081e-03
3.242332387641425583e-03
9.239776211674752271e-03
1.463639579569189775e-02
1.831132369059824960e-02
1.951096962436606880e-02
1.800145933680516105e-02
1.410615775219362100e-02
8.622813387588940115e-03
2.641678404591627730e-03
-2.693081840224675807e-03
-6.425229802340021862e-03
-7.978413259734022656e-03
-7.257126393056615929e-03
-4.637435676442201379e-03
-8.547561825244360222e-04
3.180299522198384073e-03
6.592175836522251239e-03
8.727534064055809601e-03
9.277781342689054786e-03
8.312438629879457738e-03
6.221925876146616741e-03
3.591775396321644082e-03
1.046732349236688484e-03
-8.928512319208606156e-04
-1.908855963340844262e-03
-1.920829394084526496e-03
-1.060446727480009437e-03
3.986467048466609681e-04
2.129508067592973761e-03
3.830571239269322300e-03
5.272958134313204988e-03
6.310410268533255332e-03
6.862363547595883365e-03
6.889723115549034257e-03
6.380896535278627463e-03
5.356339987499810981e-03
3.889435600017743938e-03
2.133169175283506323e-03
3.362273379291110496e-04
-1.169568769951764408e-03
-2.022078546240844727e-03
-1.917197868860231417e-03
-7.082368758223561538e-04
1.519667873231551891e-03
4.431337226836569963e-03
7.492389336187371685e-03
1.007978585243922247e-02
1.162549184471679473e-02
1.175796130570678708e-02
1.040588571033366876e-02
7.836034742112843801e-03
4.611397723806625465e-03
1.474920395506798976e-03
-8.169185522697978465e-04
-1.673127957971628620e-03
-8.178692801007031964e-04
1.626146159379464242e-03
5.143890671576063778e-03
8.927022470465379930e-03
1.204588206413980192e-02
1.365558232027148239e-02
1.318811736748727072e-02
1.048560125717064653e-02
5.843859557918681599e-03
-4.270080168030038550e-05
-6.219782077028550293e-03
-1.166045148255486288e-02
-1.545678397111680674e-02
-1.697528948838696039e-02
-1.594891154506914918e-02
-1.249567925235550714e-02
-7.069896729670666763e-03
-3.635522417655893783e-04
6.816951589512513371e-03
1.367146872024957785e-02
1.950167936828844928e-02
2.377032291776091238e-02
2.612597019425572098e-02
2.640400168239149734e-02
2.461604932195565754e-02
2.093655168670214423e-02
1.569002432500615773e-02
9.337779486444151497e-03
2.457778373505194961e-03
-4.292579261754045014e-03
-1.023923592788519334e-02
-1.477819126962195626e-02
-1.746996622161765128e-02
-1.811612731947348509e-02
-1.679442030306263836e-02
-1.384132491947934196e-02
-9.785623834910595759e-03
-5.247615558680869541e-03
-8.246534598994052952e-04
3.013836955979433841e-03
5.999878882856942222e-03
8.093386819822412370e-03
9.457135547060136968e-03
1.038829826683651536e-02
1.122404599960401261e-02
1.224345345185543985e-02
1.358841407285224165e-02
1.522240747755539483e-02
1.693698183468065818e-02
1.840276733394567016e-02
1.924923648400884285e-02
1.915079121302096232e-02
1.789841756257113878e-02
1.544377804746303179e-02
1.191162900898444683e-02
7.583493728937039380e-03
2.859775488975856931e-03
-1.790633404674435696e-03
-5.884613460804320392e-03
-8.976899274491675906e-03
-1.070733720812219389e-02
-1.084279701511235705e-02
-9.312951767706859757e-03
-6.237270591891178051e-03
-1.938459340875987608e-03
3.064314473711634863e-03
8.090372095353433671e-03
1.236711349230637177e-02
1.513367451093633465e-02
1.576613122183331828e-02
1.390014409581762957e-02
9.521919321927333965e-03
3.002631041284237277e-03
-4.936463776765834255e-03
-1.332467250193021535e-02
-2.108868842973677521e-02
-2.721517221255940339e-02
-3.089682395272572157e-02
-3.163702375932303523e-02
-2.930070399965059580e-02
-2.411120614793493128e-02
-1.660091402826406604e-02
-7.527817964373849022e-03
2.227000445768623649e-03
1.176420302712515367e-02
2.025793453446971676e-02
2.702517230072862264e-02
3.157215976891530190e-02
3.362359943990427674e-02
3.314032901318292312e-02
3.032642530874859327e-02
2.562143571098711783e-02
1.967095864855959025e-02
1.326987708895536501e-02
7.277204265516852219e-03
2.509415502879395760e-03
-3.720394922577387013e-04
-9.582029016620553612e-04
8.438036514131501582e-04
4.792013601372845100e-03
1.033774249122659632e-02
1.669674886389747523e-02
2.295608445606433373e-02
2.820511765029123930e-02
3.167308524350393589e-02
3.285028912291409336e-02
3.157027863150575764e-02
2.803755729007496866e-02
2.279622072834822100e-02
1.664485180741790554e-02
1.051019972913205119e-02
5.297388746496439413e-03
1.737401750478937638e-03
2.514338808245887395e-04
8.466684005223779237e-04
3.053887779854338579e-03
5.918728738961683347e-03
8.063188442113611992e-03
7.834193737823832993e-03
3.545381320670889808e-03
-6.202849156004516459e-03
-2.216584497954728408e-02
-4.412435895044582168e-02
-7.066082991447404649e-02
-9.912100371453463898e-02
-1.258172998387407648e-01
-1.464851632335379683e-01
-1.569430306629139293e-01
-1.538465224808211185e-01
-1.353871032839446265e-01
-1.017792800695344752e-01
-5.541341155957107967e-02
-6.175632362700462889e-04
5.694356483222601240e-02
1.111227591348946109e-01
1.562299704811710710e-01
1.878720521072582972e-01
2.035328576616233787e-01
2.027964524924860401e-01
1.872002162049550000e-01
1.597897454817364671e-01
1.245099210578938520e-01
8.558563440052860405e-02
4.701529734968520891e-02
1.223565932814818513e-02
-1.605293628092954727e-02
-3.595950076932051542e-02
-4.644596338455746903e-02
-4.739344833672835822e-02
-3.969681392291312533e-02
-2.533683101489752482e-02
-7.338761065097128278e-03
1.047474505936799374e-02
2.398025346465582075e-02
2.945873067923760608e-02
2.437712105553940106e-02
8.051420688713607082e-03
-1.801082889537547471e-02
-5.023103140308943920e-02
-8.356706766214981597e-02
-1.124870223782289125e-01
-1.320697766911407001e-01
-1.389522782557410518e-01
-1.318982584138103931e-01
-1.118870745665893757e-01
-8.175988890486533822e-02
-4.556301755671568476e-02
-7.770893317957425217e-03
2.744132638279030145e-02
5.675217404688485956e-02
7.801198440916855270e-02
9.031994767165371640e-02
9.390220525334258550e-02
8.986068665078204842e-02
7.986782633758941763e-02
6.586921390108527175e-02
4.983300920115839305e-02
3.356077455841934010e-02
1.855640651141612224e-02
5.942138393068733399e-03
-3.587087286622684442e-03
-9.772210666996090228e-03
-1.275790875613752595e-02
-1.301831549106383795e-02
-1.124794944503294467e-02
-8.234344837038963527e-03
-4.732501643436193284e-03
-1.358585633545089915e-03
1.484540374261010976e-03
3.640732920680267524e-03
5.186647613792370187e-03
6.370548232218456453e-03
7.514587665669720390e-03
8.901973503893833434e-03
1.067546474766642960e-02
1.277118333303108380e-02
1.490382567619476240e-02
1.660841177615680550e-02
1.733096317118648297e-02
1.654836627895993686e-02
1.389095013441873569e-02
9.243491140086827068e-03
2.808968898144862097e-03
-4.872509487410754681e-03
-1.295384951536187115e-02
-2.036326143309504302e-02
-2.593732271909662476e-02
-2.859355244518360650e-02
-2.751924384595485357e-02
-2.234439344789906218e-02
-1.326390372582575763e-02
-1.078521501823296713e-03
1.286472531382644099e-02
2.683397338620431560e-02
3.895578132437400865e-02
4.750094266467593668e-02
5.116258389033292303e-02
4.927608393216972860e-02
4.193986007659013249e-02
3.001254303037451110e-02
1.498323420231758261e-02
-1.264730010150010974e-03
-1.675376289593307616e-02
-2.971847176711151645e-02
-3.886037128796573231e-02
-4.350643588932782968e-02
-4.365031385935697061e-02
-3.987994818267395769e-02
-3.321598476999347571e-02
-2.489866897758033840e-02
-1.616556173444510039e-02
-8.058472802768237853e-03
-1.287912098356831358e-03
3.829181723810630867e-03
7.355161146822539187e-03
9.649608418192486339e-03
1.123976088866705976e-02
1.267271012722514210e-02
1.438165802794589415e-02
1.659313247006318284e-02
1.928997653756465286e-02
2.223100911566203847e-02
2.501659945579842725e-02
2.718132587804223538e-02
2.829101475798392884e-02
2.802333611259926610e-02
2.621918172301196392e-02
2.290280587635707549e-02
1.827629100574881121e-02
1.269523131279326825e-02
6.630152926316331199e-03
6.168678542265285981e-04
-4.799803701491236682e-03
-9.123193972447461025e-03
-1.195791778726270835e-02
-1.305584384583470883e-02
-1.235176158122208712e-02
-9.983491608371013876e-03
-6.289867487104056076e-03
-1.782044196106834320e-03
2.911872070284102134e-03
7.124675045262894579e-03
1.024312900750720332e-02
1.180496751213691228e-02
1.158259274377605383e-02
9.632079030598528907e-03
6.289534793475452280e-03
2.109885324402720978e-03
-2.239307439318860646e-03
-6.102814437048610652e-03
-8.951391607244361948e-03
-1.045937518488361702e-02
-1.053241031212550499e-02
-9.284578863780550487e-03
-6.976739207107620147e-03
-3.936645725155030542e-03
-4.834662087257542325e-04
3.125333306559590751e-03
6.714995015433409403e-03
1.018118012666502370e-02
1.345121453338302651e-02
1.643351579881622074e-02
1.897562506864592519e-02
2.085067315187256326e-02
2.178267485126558073e-02
2.150591130617548336e-02
1.983988210541213354e-02
1.675494327695506783e-02
1.240677062703192043e-02
7.128281054342816905e-03
1.381532732413003495e-03
-4.315318271785046136e-03
-9.464297369583317063e-03
-1.364769280177015667e-02
-1.656232740700969847e-02
-1.802966339870885545e-02
-1.798972818556528186e-02
-1.648699276386345405e-02
-1.365383028964525097e-02
-9.695464727203728650e-03
-4.879168919085213885e-03
4.723547096151799012e-04
5.987903916392844569e-03
1.126196064663390582e-02
1.588062440667652175e-02
1.945825221416298129e-02
2.167968080918619700e-02
2.234194465617370812e-02
2.138897306362900347e-02
1.893081708278514241e-02
1.523810407528925631e-02
1.070712606395456297e-02
5.801229168412882359e-03
9.837693064131459476e-04
-3.339846652095821832e-03
-6.859216131631320004e-03
-9.371814950211125941e-03
-1.077496385181226507e-02
-1.104407021298346378e-02
-1.020708986732638164e-02
-8.326444941252912971e-03
-5.496957121939274882e-03
-1.860717629789830543e-03
2.369551385937698155e-03
6.892917200600371525e-03
1.132228082573203017e-02
1.521442353397904623e-02
1.812840791264239138e-02
1.970343693487899145e-02
1.973798976107581787e-02
1.824597091187006581e-02
1.546756899860251416e-02
1.182495027483457251e-02
7.831963933374480949e-03
3.983836847378019463e-03
6.596356208598886696e-04
-1.934643287051911100e-03
-3.767731032142767039e-03
-4.931973693799784203e-03
-5.558964384008451345e-03
-5.733553942205864284e-03
-5.439622839164137344e-03
-4.560029996037938058e-03
-2.933141908101689118e-03
-4.472071412023504063e-04
2.860778828546065109e-03
6.738789292868183067e-03
1.071495629789904341e-02
1.416477859306299741e-02
1.643713857715070267e-02
1.700479647465448496e-02
1.559527869036393330e-02
1.226422998186126219e-02
7.392473769406023368e-03
1.611606739566030181e-03
-4.318093920601912689e-03
-9.644367489335352664e-03
-1.374210778563984825e-02
-1.619205193376256277e-02
-1.681040087948224016e-02
-1.563502635621322884e-02
-1.288291762499097631e-02
-8.895050092358844362e-03
-4.081399984900833944e-03
1.125469939909966733e-03
6.303407285136900656e-03
1.105953408192429481e-02
1.503953272269046605e-02
1.793585510479762599e-02
1.950261247024632355e-02
1.957932959272185025e-02
1.811900679803159914e-02
1.521179229944986423e-02
1.109510211162638600e-02
6.143583893616402433e-03
8.372542346013916482e-04
-4.287546473019678700e-03
-8.694562262556460377e-03
-1.190082307962289643e-02
-1.352065519854389608e-02
-1.330087571754791365e-02
-1.115019479132568075e-02
-7.162711889977907767e-03
-1.629858275433546718e-03
4.967557432259806990e-03
1.199334793238402558e-02
1.871709691853282176e-02
2.439827267778344258e-02
2.838391406707627129e-02
3.020511141458900178e-02
2.965384551086532733e-02
2.682291099979686178e-02
2.209828167118054604e-02
1.610265892101355248e-02
9.598134644582879613e-03
3.364122096871265555e-03
-1.926357051689371169e-03
-5.805782202111801904e-03
-8.064564164498289750e-03
-8.746971525980288056e-03
-8.096924752030745104e-03
-6.473253261009207296e-03
-4.259321641949774528e-03
-1.789413496855542501e-03
6.928740977586314922e-04
3.038427732173505647e-03
5.163780270663652708e-03
7.005084249819710021e-03
8.475482577413076882e-03
9.443448498985254277e-03
9.740297782842955582e-03
9.194572812771010031e-03
7.683335830755894102e-03
5.185867591836593876e-03
1.822830819966024442e-03
-2.135045116638154775e-03
-6.297341031075402371e-03
-1.021868700768850322e-02
-1.348008847300954591e-02
-1.576354924908580576e-02
-1.690102843683474049e-02
-1.688895514041590870e-02
-1.586963275326572567e-02
-1.408765503369616146e-02
-1.183313765722485492e-02
-9.385090737427560434e-03
-6.967201492906069382e-03
-4.724027866396068170e-03
-2.719407155766886876e-03
-9.532992018252656012e-04
6.103913980724990675e-04
2.014428193703304230e-03
3.286576312058535083e-03
4.431467710818278935e-03
5.435361566999181646e-03
6.277380131005793826e-03
6.940075757421261538e-03
7.416916713636238605e-03
7.719663037029773217e-03
7.889296055828552354e-03
8.009704764165350224e-03
8.218137278978234969e-03
8.704868382523914608e-03
9.696994978117075628e-03
1.142524677061031689e-02
1.407672744288735421e-02
1.774123454699090552e-02
2.236388295746388061e-02
2.771885505153030838e-02
3.341506497964388117e-02
3.893560201884271182e-02
4.370404406930883390e-02
4.716586214036546515e-02
4.887140324281175063e-02
4.854577636755467995e-02
4.613086174933402062e-02
4.178905975126080696e-02
3.586840745256676677e-02
2.884001872841347042e-02
2.122526278468207447e-02
1.352925474691868239e-02
6.191627042188114008e-03
-4.409396004418550917e-04
-6.121673403328347501e-03
-1.069654078820478187e-02
-1.409296983404593334e-02
-1.631414100834792727e-02
-1.744328798878194350e-02
-1.765517483519443362e-02
-1.722674452420985824e-02
-1.653758444322409385e-02
-1.605219419530452135e-02
-1.627881794859016920e-02
-1.770436837768639068e-02
-2.071264415628665603e-02
-2.550195748459946690e-02
-3.202372328850058847e-02
-3.996121047606097931e-02
-4.875763315311268387e-02
-5.768965845109846891e-02
-6.597141685228467833e-02
-7.286775825104248316e-02
-7.779404158753060183e-02
-8.038302802124318303e-02
-8.050721159744143873e-02
-7.825553253152872646e-02
-7.387365186558508823e-02
-6.768400213574626845e-02
-6.000490001697579567e-02
-5.108737617532418951e-02
-4.108372466811536367e-02
-3.005301310008069715e-02
-1.799820120991687741e-02
-4.921452517801941720e-03
9.118312107533142058e-03
2.395960095704322695e-02
3.931504242206769473e-02
5.477813870459120882e-02
6.986240837171432683e-02
8.406623035709416547e-02
9.694670618130897533e-02
1.081813242352961946e-01
1.176010671295820015e-01
1.251899393486700651e-01
1.310568184539037673e-01
1.353914015062215592e-01
1.384167650320073384e-01
1.403486469495448252e-01
1.413672824081962376e-01
1.416022393466806195e-01
1.411259113741336613e-01
1.399497543494301888e-01
1.380201021004546780e-01
1.352149679405781069e-01
1.313453829745969692e-01
1.261631231602070857e-01
1.193741202823132841e-01
1.106568647501688513e-01
9.968714577213017014e-02
8.617098984347758284e-02
6.988470813622514599e-02
5.071627050419919014e-02
2.869893270884449690e-02
4.027871848705079014e-03
-2.294659371478360854e-02
-5.175052631839116568e-02
-8.183719578835167707e-02
-1.126447112686655011e-01
-1.436436635588985988e-01
-1.743597391511905736e-01
-2.043643449630974385e-01
-2.332370277816982751e-01
-2.605122929053289016e-01
-2.856281958391506670e-01
-3.078952039367183202e-01
-3.265016444596192113e-01
-3.405654828224364272e-01
-3.492307258674766657e-01
-3.517931780107367845e-01
-3.478296063665115012e-01
-3.373000581349777094e-01
-3.205952939345785291e-01
-2.985091586510311701e-01
-2.721294986026142060e-01
-2.426606378350971704e-01
-2.112110340559634480e-01
-1.785935551864215876e-01
-1.451862845695289228e-01
-1.108880492541164803e-01
-7.517988160716329582e-02
-3.727866534944265786e-02
3.651468818281992674e-03
4.827670971392172133e-02
9.690815878530673055e-02
1.493914515677080002e-01
2.050906775289349226e-01
2.629640586046588790e-01
3.217096409683878333e-01
3.799458875348176723e-01
4.363856840237972934e-01
4.899640649638192236e-01
5.398912572343722571e-01
5.856222402910580271e-01
6.267564327588572848e-01
6.628987845147562563e-01
6.935215177760994942e-01
7.178639315463992698e-01
7.348985844936282152e-01
7.433775733302474542e-01
7.419537677093112071e-01
7.293522490080773801e-01
7.045529917145246790e-01
6.669424856910043387e-01
6.164006894054204766e-01
5.533068866558401577e-01
4.784681911200034943e-01
3.929929046002402226e-01
2.981438286950466865e-01
1.952099710074026995e-01
8.542649720645827116e-02
-3.004509684280906590e-02
-1.500842656318161217e-01
-2.735478867744679521e-01
-3.992033901963162879e-01
-5.256844857618411249e-01
-6.514881925066635660e-01
-7.750195827412433847e-01
-8.946749120184371851e-01
-1.008938981920688871e+00
-1.116464438756303634e+00
-1.216102554543626368e+00
-1.306865814369805978e+00
-1.387819052984846424e+00
-1.457915172297392870e+00
-1.515811048479783762e+00
-1.559714366191236490e+00
-1.587315741320433959e+00
-1.595847473015890472e+00
-1.582282678006711629e+00
-1.543655597234587118e+00
-1.477455229253572533e+00
-1.382024688811773316e+00
-1.256888876180799697e+00
-1.102935613079494725e+00
-9.223940390357174834e-01
-7.185886499808339378e-01
-4.954913656073079431e-01
-2.571379337656217734e-01
-7.011162162825906874e-03
2.524836126446569073e-01
5.203219617814630604e-01
7.968364741241381610e-01
1.083309986026617766e+00
1.381202352398736233e+00
1.691106892530642281e+00
2.011605482470627759e+00
2.338244590879144269e+00
2.662876032631942280e+00
