BVP Signal
-3.305682404985681166e-03
-3.885018400482043860e-03
-4.406499850482198041e-03
-4.900680204917658503e-03
-5.346776958108827651e-03
-5.673257901636682976e-03
-5.778932431529493208e-03
-5.566262318336980680e-03
-4.977825821276380194e-03
-4.027401154302368523e-03
-2.815986373470726056e-03
-1.522787594319015281e-03
-3.666736371312831477e-04
4.545194220960807607e-04
8.273839010390846016e-04
7.655597571193176187e-04
4.147360738159244775e-04
1.634762025933683693e-05
-1.601144421932848561e-04
1.033853373840210033e-04
9.051998664960370089e-04
2.187216647848155837e-03
3.740659232144200042e-03
5.252430208357111718e-03
6.377638195104298746e-03
6.818511135698136945e-03
6.392487779084063404e-03
5.077691362555952770e-03
3.027251302238631592e-03
5.464965131944943266e-04
-1.966381880663503612e-03
-4.104737699167138043e-03
-5.542071142367099856e-03
-6.101849065020842344e-03
-5.791306974211200831e-03
-4.791648312473917315e-03
-3.407217636059257926e-03
-1.986155889057761303e-03
-8.335829797452565249e-04
-1.413509868379847489e-04
4.762691949984632078e-05
-1.648513595610273663e-04
-5.696088216647077207e-04
-9.079154344604073446e-04
-9.371869929144793776e-04
-4.926827997846841556e-04
4.674393998264150807e-04
1.845049678287274952e-03
3.418009971767874133e-03
4.885791279373611490e-03
5.934860388502043171e-03
6.309912196015793860e-03
5.874525889717957527e-03
4.645387298621746208e-03
2.790754514111440376e-03
5.955954476070113301e-04
-1.593615630853556508e-03
-3.428789839654056149e-03
-4.614417806220794116e-03
-4.952354703157808846e-03
-4.375485852864659242e-03
-2.966081416916514085e-03
-9.526833683416065235e-04
1.318509623455820651e-03
3.436659447384665667e-03
4.997202384764899696e-03
5.679162712837027005e-03
5.312734847342626132e-03
3.919273792993560601e-03
1.710628850511541899e-03
-9.543139692864202606e-04
-3.645659194368805218e-03
-5.951587309930783665e-03
-7.557492899594130814e-03
-8.296188964199938121e-03
-8.160354817951222250e-03
-7.279675809675922871e-03
-5.873155173023870967e-03
-4.191048171186088911e-03
-2.461205968992810633e-03
-8.510779021752359896e-04
5.498222508626676025e-04
1.728090027918221822e-03
2.728932771071248403e-03
3.627052758123295445e-03
4.491299513657242420e-03
5.351498609467975759e-03
6.177509698415852360e-03
6.877642536722208128e-03
7.316754529478351754e-03
7.347800119055968027e-03
6.847819234966683044e-03
5.750313465670280066e-03
4.067866862118744292e-03
1.899824560789627886e-03
-5.784109394500504264e-04
-3.142770168719211804e-03
-5.556219492708800237e-03
-7.601534693221650291e-03
-9.103040223893209271e-03
-9.935062848634356944e-03
-1.001963271403311616e-02
-9.319310085221138226e-03
-7.833389367778904183e-03
-5.604928903522796851e-03
-2.739607773862173801e-03
5.722550488483982289e-04
4.045400886392748474e-03
7.314187364183266649e-03
9.976611840807524112e-03
1.166157881622505686e-02
1.210423325767288026e-02
1.120940810086784589e-02
9.083345309164419373e-03
6.019859636361622052e-03
2.440474308304116380e-03
-1.194179670663184784e-03
-4.472250484979661128e-03
-7.090915825769233960e-03
-8.877424342399371088e-03
-9.776564733745420066e-03
-9.819681776323096328e-03
-9.090535757579114307e-03
-7.698746178089452274e-03
-5.766636890519307931e-03
-3.430500011918673903e-03
-8.516129702398223672e-04
1.773117069807999061e-03
4.213020399822985096e-03
6.226027525646573441e-03
7.599824701338447203e-03
8.199546547739494651e-03
8.003985080224207405e-03
7.114250254235099033e-03
5.727965917484735547e-03
4.085345700121961049e-03
2.405574572866053806e-03
8.367623724640227412e-04
-5.627076666705199681e-04
-1.806781132374701837e-03
-2.938193805778185896e-03
-3.978537081072822806e-03
-4.893297301800299606e-03
-5.586182034264346868e-03
-5.924010947922206394e-03
-5.780438464976112023e-03
-5.080479757490805048e-03
-3.830620040928364722e-03
-2.127598283120327172e-03
-1.468690966386909658e-04
1.884186722508993106e-03
3.721999378914639389e-03
5.143744433496830887e-03
5.976288128780701120e-03
6.110689660291809822e-03
5.503783860364097613e-03
4.175553476865240254e-03
2.210754707401313413e-03
-2.342394474392772707e-04
-2.927137051710090865e-03
-5.568950603846462011e-03
-7.822679702167933957e-03
-9.358094646311754944e-03
-9.903223574292449594e-03
-9.293056099333923958e-03
-7.507569493344551370e-03
-4.690708441758340008e-03
-1.142240069671382474e-03
2.719795402317842781e-03
6.419031752218834486e-03
9.490920281850469958e-03
1.155252086793398351e-02
1.236406365514667455e-02
1.187263809302036704e-02
1.022542558037730157e-02
7.743521385650688205e-03
4.859107612240957247e-03
2.031099467428965077e-03
-3.407081114071321137e-04
-1.986213249505041321e-03
-2.809624677016898421e-03
-2.902079942910109484e-03
-2.519476596499842236e-03
-2.026994566859091629e-03
-1.818157737390274642e-03
-2.223031100635163709e-03
-3.424212826695940265e-03
-5.399160096979238946e-03
-7.903457403017516078e-03
-1.050207053060089879e-02
-1.264482529389259272e-02
-1.377118170954477402e-02
-1.342241299917763114e-02
-1.133911252393909885e-02
-7.526743287032071524e-03
-2.277913908685539474e-03
3.853960134287903738e-03
1.012762211642057042e-02
1.572314980976652343e-02
1.986978484567225589e-02
2.197073338234040163e-02
2.170268428166796659e-02
1.907132648326970853e-02
1.441197582730839588e-02
8.335162226481951375e-03
1.627922377339233173e-03
-4.870299767032779115e-03
-1.039489008809807435e-02
-1.436585485563163234e-02
-1.646405587209504029e-02
-1.666252272297130688e-02
-1.520676775103377287e-02
-1.254643571169231780e-02
-9.232510929065174815e-03
-5.804720806140375999e-03
-2.695896091373051195e-03
-1.725723063173006944e-04
1.680424312521813790e-03
2.933727516447923178e-03
3.755849838182737099e-03
4.341669333775347028e-03
4.848126092731309955e-03
5.354599169273043316e-03
5.854774549984891920e-03
6.274949674602511157e-03
6.506606937579859085e-03
6.440918109101292574e-03
5.997518143017663977e-03
5.144527335333170387e-03
3.908070910422466182e-03
2.369594161821475531e-03
6.521650763287659136e-04
-1.098671347080696498e-03
-2.733494040903748645e-03
-4.115270094077850410e-03
-5.134683817545043077e-03
-5.724267249337881835e-03
-5.867456011420676965e-03
-5.598242186098049966e-03
-4.990712099441369648e-03
-4.141992117591926370e-03
-3.153677912483994743e-03
-2.115576169696396780e-03
-1.093710344108815569e-03
-1.236771709633641136e-04
7.898220523004997884e-04
1.667175469306305530e-03
2.542334358817354562e-03
3.445665194127684079e-03
4.381407389464124502e-03
5.303795902312273547e-03
6.102152158486189026e-03
6.607251233650347083e-03
6.624403413988916994e-03
5.986476086760676024e-03
4.610711738887449465e-03
2.541263472789139204e-03
-3.681664134570945823e-05
-2.820121076095164978e-03
-5.445254930612635630e-03
-7.570044966971849545e-03
-8.952617600209759885e-03
-9.500399319079930530e-03
-9.271788521973384212e-03
-8.432467645209842932e-03
-7.185494183642204477e-03
-5.701454380330723409e-03
-4.071306447775029091e-03
-2.295042407271536550e-03
-3.085795927917764012e-04
1.959668585075517028e-03
4.521255386896056924e-03
7.272829308110200300e-03
9.973386591695866665e-03
1.226210337947999593e-02
1.371404668296637500e-02
1.392380505995975334e-02
1.260197202444078915e-02
9.663739530528899641e-03
5.285148105999153828e-03
-9.310798140502304573e-05
-5.820420373539985162e-03
-1.113848930725599463e-02
-1.530827377685368626e-02
-1.773550787546891716e-02
-1.807048737067547609e-02
-1.626286745896182717e-02
-1.256195707808170810e-02
-7.467113283108009307e-03
-1.644939538046782251e-03
4.167007747816032538e-03
9.256104281067489836e-03
1.302341774991936513e-02
1.506025644593526717e-02
1.520347701286695573e-02
1.355744190127931154e-02
1.047421663335854937e-02
6.493151269797369299e-03
2.250506886531488619e-03
-1.624634967775223041e-03
-4.609914864614923606e-03
-6.367034112770095927e-03
-6.783339094020972640e-03
-5.972125445773342721e-03
-4.235620383276609939e-03
-2.001227062600698450e-03
2.567002194760843389e-04
2.097943199677185060e-03
3.188286198092892161e-03
3.349476266642032775e-03
2.577760468427840908e-03
1.029127481126781117e-03
-1.022245273807616955e-03
-3.240677527733041262e-03
-5.287944238186534883e-03
-6.872952109866763137e-03
-7.783936160328921126e-03
-7.901015196442602584e-03
-7.194022632519455653e-03
-5.714183943461743909e-03
-3.585798974035556488e-03
-9.985624044636792762e-04
1.802018864825388235e-03
4.528200003685552318e-03
6.869167239003342099e-03
8.518925505974720563e-03
9.216363686811113176e-03
8.795858023295896611e-03
7.237312164578936502e-03
4.697918081923650735e-03
1.510539980215136469e-03
-1.856297248794998300e-03
-4.871508801472638345e-03
-7.035224040046212518e-03
-7.975216042853724291e-03
-7.524068559596464728e-03
-5.756982943589613461e-03
-2.979633106014277846e-03
3.306266249663326884e-04
3.614507508844356717e-03
6.329960569363201478e-03
8.041522292892658644e-03
8.487530497422159093e-03
7.618750996485651461e-03
5.604165500264490785e-03
2.801155394216089944e-03
-3.081068024168021058e-04
-3.204888114424847556e-03
-5.430857203809091871e-03
-6.674226645456027285e-03
-6.825748335281600632e-03
-5.990556340532526836e-03
-4.452965349493250014e-03
-2.605037775158164370e-03
-8.591292068102496238e-04
4.351996479398934081e-04
1.056361918370107844e-03
9.512920756514775533e-04
2.471618522545127039e-04
-7.694542196667319978e-04
-1.706506173314428776e-03
-2.146918984700780381e-03
-1.741451525838974557e-03
-2.960993530649602690e-04
2.163257165046811314e-03
5.363939738633832777e-03
8.808870435727811365e-03
1.185207817855163381e-02
1.381703945527140709e-02
1.413273897263375711e-02
1.245614513789614075e-02
8.755305402673718707e-03
3.338524889549596142e-03
-3.174703234866134427e-03
-9.937567627484780730e-03
-1.600393736016342272e-02
-2.048205307895442639e-02
-2.268819109510400445e-02
-2.227087829063892355e-02
-1.927935068103892036e-02
-1.416013077444769341e-02
-7.679959784581302795e-03
-7.884448254494998923e-04
5.553095259131377026e-03
1.054160455936672958e-02
1.366491930987874526e-02
1.476905928693464376e-02
1.404872412021453132e-02
1.196866029646603824e-02
9.138545333869763088e-03
6.172490084324518816e-03
3.566322843779937656e-03
1.619767400304160734e-03
4.159012917994628356e-04
-1.474886693687352257e-04
-2.925500845735607564e-04
-2.835740028729787435e-04
-3.554907099396417691e-04
-6.621500827535195532e-04
-1.252346081927684790e-03
-2.075005561477367630e-03
-3.007284573355592863e-03
-3.893579789979385170e-03
-4.582892390331521314e-03
-4.955790523808988220e-03
-4.937132827869035803e-03
-4.495185233605027315e-03
-3.632340981934212287e-03
-2.376576903337049296e-03
-7.823355951601593250e-04
1.057790432272005809e-03
2.999418161787063136e-03
4.844600237621000255e-03
6.361293345515824788e-03
7.323070379801052687e-03
7.558760744632592871e-03
6.997698673214310799e-03
5.697040776079811963e-03
3.840990934289060035e-03
1.707492629506085838e-03
-3.931066034285612965e-04
-2.192246794308756047e-03
-3.527595914737009786e-03
-4.376360132331968446e-03
-4.847013391003334587e-03
-5.133934771583803514e-03
-5.450140942030060748e-03
-5.956335068441929309e-03
-6.702808240104839860e-03
-7.597755800980803692e-03
-8.411112811754512669e-03
-8.815898441231612842e-03
-8.460553803391675232e-03
-7.058568404336464791e-03
-4.476942653638224523e-03
-8.020559922712437728e-04
3.638485720205628104e-03
8.311913933972743529e-03
1.257110146091668448e-02
1.577708094210164558e-02
1.741960793659803886e-02
1.720717736827103578e-02
1.511309834991381336e-02
1.137747181189092266e-02
6.470100555584111165e-03
1.020505751579657561e-03
-4.275809710477751491e-03
-8.760987075284422387e-03
-1.191190128221835363e-02
-1.341560161889639169e-02
-1.321157586345975479e-02
-1.149372835334300236e-02
-8.670652958703848126e-03
-5.289919843966413814e-03
-1.938820260008120022e-03
8.618128016288726517e-04
2.752390965019462302e-03
3.599193579439313034e-03
3.512003560069027266e-03
2.805827810195009493e-03
1.912338151730880436e-03
1.262440566174823911e-03
1.170735049168626857e-03
1.751944742327555832e-03
2.890215984183832319e-03
4.268273306669815789e-03
5.448504180007742934e-03
5.985748082694176964e-03
5.544924885777393828e-03
3.996588231534417210e-03
1.468633665065842246e-03
-1.658972850486559528e-03
-4.818614695880178711e-03
-7.369102639023364376e-03
-8.739037195820621717e-03
-8.569404886380967840e-03
-6.819215629561857506e-03
-3.801381737103881782e-03
-1.327907668620988135e-04
3.392551084365258429e-03
5.976670934436007637e-03
6.995915946550287923e-03
6.144287561384676605e-03
3.510614531027165391e-03
-4.278924013189313496e-04
-4.895612868516401733e-03
-8.972692582535871098e-03
-1.177841159636853346e-02
-1.264266173322747822e-02
-1.123058767344122313e-02
-7.600661367041617461e-03
-2.193335627619065475e-03
4.240678935611841803e-03
1.075762265080765050e-02
1.636561082879796347e-02
2.017764794645713136e-02
2.155228657835486783e-02
2.020114566542188447e-02
1.624320430627983550e-02
1.019153032196590258e-02
2.871564684028701797e-03
-4.713033894554397724e-03
-1.153902518959494874e-02
-1.671686348991978377e-02
-1.961550055452267877e-02
-1.994465415869263458e-02
-1.778648851399735817e-02
-1.357254555634190667e-02
-8.008431358321443580e-03
-1.958857378015042491e-03
3.686444425534320113e-03
8.144140284757741058e-03
1.084764871172476559e-02
1.152193244645961095e-02
1.021233380665714438e-02
7.263677182271026031e-03
3.254837873100489484e-03
-1.098247530382224580e-03
-5.054885555612087002e-03
-7.961951372962518605e-03
-9.352631982148643802e-03
-9.017919263308081176e-03
-7.037563580729214001e-03
-3.762708483400889654e-03
2.468190481694173578e-04
4.318054853839626596e-03
7.777214078886188556e-03
1.006210472910727509e-02
1.081652668790717559e-02
9.948975929116988734e-03
7.644287604579076516e-03
4.327569634312701183e-03
5.897957425172438168e-04
-2.910316671937514341e-03
-5.553513794669560563e-03
-6.863442052112374292e-03
-6.593146002742964959e-03
-4.779766978035447297e-03
-1.753947598035623251e-03
1.902967875002577539e-03
5.451397895492112941e-03
8.123649099819827898e-03
9.271001170119964191e-03
8.500236552731292583e-03
5.770009796756066928e-03
1.422307808439063348e-03
-3.863805534823995524e-03
-9.191626075914945820e-03
-1.361658302642957535e-02
-1.633085603032583336e-02
-1.682443541740031440e-02
-1.498971529336497882e-02
-1.114741740536617440e-02
-5.986245070496613169e-03
-4.258787100240232770e-04
4.570819611091736512e-03
8.198916239612524803e-03
9.982774165598087140e-03
9.876249004375194790e-03
8.262332121150723838e-03
5.846639704273889904e-03
3.468630416878275280e-03
1.878820048344671811e-03
1.541356141455403617e-03
2.515822907150893489e-03
4.450346499456071109e-03
6.685401585566551515e-03
8.435509616679347233e-03
8.995983878720567595e-03
7.919696804526851763e-03
5.122990595461656554e-03
9.034628390574492296e-04
-4.124142238397070226e-03
-9.151946772966358667e-03
-1.333418849518234507e-02
-1.594381118546545420e-02
-1.650198015237354029e-02
-1.485729352678516468e-02
-1.120196527156010029e-02
-6.026394705090047134e-03
-2.665044359345929842e-05
6.012768251876908152e-03
1.133742623781498586e-02
1.532348786552283418e-02
1.754775787629386102e-02
1.782159830353871599e-02
1.619002254837055566e-02
1.290370759952027581e-02
8.374669471869440607e-03
3.124028432686684707e-03
-2.274059248808286623e-03
-7.249875539585230039e-03
-1.129383411811905186e-02
-1.400729320250632126e-02
-1.514600386912052371e-02
-1.465189250730401793e-02
-1.266523476041191837e-02
-9.508746961168643153e-03
-5.641170631481416675e-03
-1.588031724344081408e-03
2.135142403021453045e-03
5.091205064981512915e-03
6.970564431897422614e-03
7.617058145573743499e-03
7.031683194525569641e-03
5.358555003914163353e-03
2.859207268749837383e-03
-1.186153285252233847e-04
-3.174180179650237799e-03
-5.890087147625538977e-03
-7.875559972129490480e-03
-8.818574337228296534e-03
-8.542872360250163000e-03
-7.059669196023646287e-03
-4.599381597798407606e-03
-1.606224594010385864e-03
1.320284073227928623e-03
3.542475541503942171e-03
4.543549435584437468e-03
4.086419029661007146e-03
2.318620015268085810e-03
-2.196055022126164324e-04
-2.698247246902457652e-03
-4.191338083487095023e-03
-3.913029441364734851e-03
-1.432756413832780851e-03
3.190224465000168763e-03
9.391464869558649453e-03
1.621036075451571037e-02
2.249382857391329926e-02
2.713988881780304840e-02
2.931915188425687768e-02
2.862253620848553837e-02
2.510520285859002554e-02
1.922315211249076006e-02
1.168655027051651585e-02
3.277605387253301750e-03
-5.308978392090844822e-03
-1.355608384812302669e-02
-2.112726528143094029e-02
-2.779898147759407578e-02
-3.336097380092706288e-02
-3.752900435525061140e-02
-3.990531033932952221e-02
-4.000633398971107507e-02
-3.735845115731872140e-02
-3.164225189924703419e-02
-2.284848775769200355e-02
-1.140017921668811871e-02
1.800933674966937598e-03
1.543039819850752781e-02
2.790298807089885286e-02
3.761648969911055712e-02
4.322864978516911122e-02
4.390625934864304802e-02
3.949091799778597922e-02
3.054726836547356356e-02
1.828758742553059091e-02
4.391179554173634328e-03
-9.247936408886409110e-03
-2.080484898121499893e-02
-2.879639163010257186e-02
-3.230085254686272667e-02
-3.108989138532526619e-02
-2.565100420001902026e-02
-1.709522131716709192e-02
-6.961592255890724362e-03
3.052540863508729219e-03
1.138958350595092872e-02
1.690132597961954697e-02
1.903548294943836761e-02
1.790137884706029248e-02
1.420396838913398629e-02
9.063579539916030714e-03
3.761277395376870503e-03
-5.359101690682720881e-04
-3.010608597367459005e-03
-3.339835397544128892e-03
-1.719806668169752972e-03
1.225766034458113107e-03
4.620922894464035355e-03
7.547772496289729266e-03
9.243795191059007987e-03
9.248468968643119847e-03
7.475688166830321557e-03
4.204181679869356536e-03
-4.952130091384621124e-06
-4.439747174737364299e-03
-8.386776234547584780e-03
-1.126899414417997965e-02
-1.274879790681347075e-02
-1.277913068892742865e-02
-1.159218136457693116e-02
-9.626521473932100892e-03
-7.408627124852906753e-03
-5.417423786802350039e-03
-3.965163724137896195e-03
-3.123679978201468477e-03
-2.714487039596733681e-03
-2.367051331948789861e-03
-1.633041160415776155e-03
-1.279279985269346498e-04
2.338647465395971015e-03
5.679790011624198665e-03
9.517882084523643371e-03
1.324523476970909663e-02
1.614628246957593855e-02
1.755355096822780805e-02
1.699898142590002686e-02
1.432191354651425261e-02
9.708289597884341149e-03
3.657531129079856502e-03
-3.106516360460775950e-03
-9.754460014959241698e-03
-1.547503925720818130e-02
-1.958515352647544755e-02
-2.161437737516501423e-02
-2.135670837634539437e-02
-1.888595051404047542e-02
-1.453570032912933699e-02
-8.850056883018465881e-03
-2.513929423579218392e-03
3.729149665576747541e-03
9.165399425647396958e-03
1.319803843678773320e-02
1.542336783150525387e-02
1.568424422919060049e-02
1.409102955438405053e-02
1.100431266022841408e-02
6.979557778388540204e-03
2.680425488025120484e-03
-1.225931604989551060e-03
-4.173319515972162552e-03
-5.781563526938676700e-03
-5.907706016102159952e-03
-4.657127247089783151e-03
-2.356159594045455219e-03
5.074677855668417725e-04
3.367407624724601256e-03
5.673220840523740538e-03
6.982680828981874255e-03
7.037110518733874498e-03
5.806683036903070860e-03
3.496204846239553410e-03
5.073503774694343438e-04
-2.638588795605092963e-03
-5.403022374083646384e-03
-7.334359889289793211e-03
-8.150114210572878548e-03
-7.780503765616952894e-03
-6.368526773779997763e-03
-4.230374840361567079e-03
-1.786114821121037588e-03
5.244214727594259662e-04
2.322425627133938020e-03
3.350718380103350630e-03
3.503754785922665038e-03
2.825849888236905971e-03
1.484492138079773760e-03
-2.706507873645042084e-04
-2.153161822996407793e-03
-3.882528880446101116e-03
-5.219208370143758879e-03
-5.989425080974150606e-03
-6.099438370831363442e-03
-5.540624509763511854e-03
-4.385848852057307873e-03
-2.774929162279549805e-03
-8.865540630369796171e-04
1.100876862608460988e-03
3.048600583115053039e-03
4.881336100452520442e-03
6.584093361409394662e-03
8.171879156571016517e-03
9.644059641013946749e-03
1.094136790652216334e-02
1.192261896181074157e-02
1.237161990419743951e-02
1.203506924052559490e-02
1.068252024850929217e-02
8.173199393666199380e-03
4.513533645018195234e-03
-1.078880166032177777e-04
-5.317380835072377590e-03
-1.059017434058014129e-02
-1.531918542320314866e-02
-1.890725286499790256e-02
-2.086443758066411358e-02
-2.089095032236999022e-02
-1.893151088975031024e-02
-1.519427583903638218e-02
-1.013164000994963045e-02
-4.380978442651440458e-03
1.332681573255395033e-03
6.318198746781629287e-03
1.003685736127578332e-02
1.218822946927064152e-02
1.274535854602799195e-02
1.193751371999723573e-02
1.018901331767434540e-02
8.026026903753900182e-03
5.966102548213359294e-03
4.410693983081703101e-03
3.565063783725473667e-03
3.406398263030172013e-03
3.708433600567620503e-03
4.114220198205481571e-03
4.235343965893511795e-03
3.751168480796316859e-03
2.485348244697160175e-03
4.452475430076416330e-04
-2.180245424455943409e-03
-5.059533676594060031e-03
-7.782030903023611293e-03
-9.932848367832968275e-03
-1.116552309797148521e-02
-1.126145377265861877e-02
-1.016645169482789310e-02
-7.998084355296048581e-03
-5.022760246623837049e-03
-1.607647053085274266e-03
1.842229574118867813e-03
4.948685398482484399e-03
7.414301417515398868e-03
9.055637792687774856e-03
9.810232151985211202e-03
9.718499879039544515e-03
8.888765082318932781e-03
7.457559595259717275e-03
5.556693434066549767e-03
3.295615655769183749e-03
7.639275442891460544e-04
-1.946642363514716756e-03
-4.709674495349390477e-03
-7.337102829641749258e-03
-9.574954663014174916e-03
-1.113088839117284262e-02
-1.172900522028883993e-02
-1.117568655285488058e-02
-9.416943006991793097e-03
-6.572322903792296445e-03
-2.936409938539375625e-03
1.056749643629898566e-03
4.904530422761860936e-03
8.128728416543818530e-03
1.036601016915114984e-02
1.142852035955192053e-02
1.131747312626880594e-02
1.019066263663858524e-02
8.301257918668147884e-03
5.932031061379124809e-03
3.344706746613139610e-03
7.530506774360524666e-04
-1.682574250427485221e-03
-3.847606985754139716e-03
-5.661712650449950146e-03
-7.069045585146425600e-03
-8.031295248207129256e-03
-8.521017621718370016e-03
-8.513846735208305955e-03
-7.983260621758688641e-03
-6.904979378916769814e-03
-5.274880043068367469e-03
-3.136412906469552078e-03
-6.069176438070044560e-04
2.109471387407284987e-03
4.731738803402569388e-03
6.937890304302725755e-03
8.421575911453781094e-03
8.955972841391783915e-03
8.447602342166730949e-03
6.965907986547149877e-03
4.742498786643428721e-03
2.141360918616986436e-03
-3.953625424388713949e-04
-2.420088988121328610e-03
-3.561694230437586345e-03
-3.602122634945066279e-03
-2.530801485401433515e-03
-5.629691602356892699e-04
1.885214403904419966e-03
4.263929895698591321e-03
5.989828719487666486e-03
6.560889735257036115e-03
5.662058819237810597e-03
3.237780206298586719e-03
-4.856133736028025311e-04
-5.032283851807980296e-03
-9.754345807207569219e-03
-1.393451754042442092e-02
-1.689286831602211658e-02
-1.808262279435923769e-02
-1.716663286029066621e-02
-1.406912293128104174e-02
-8.997916878853005895e-03
-2.433452173142293049e-03
4.916639657264463767e-03
1.219526529626697997e-02
1.849965343104307061e-02
2.299992821728730208e-02
2.505665038645173495e-02
2.431969776816060580e-02
2.079269304435784477e-02
1.485113914980664557e-02
7.206902780401626407e-03
-1.182427518070128247e-03
-9.251180704723693804e-03
-1.598917510629417615e-02
-2.059938729125371237e-02
-2.261631846168643545e-02
-2.196124748293000473e-02
-1.892650864740812178e-02
-1.409682075176114935e-02
-8.228259840738424979e-03
-2.113585001158990728e-03
3.536095993718985087e-03
8.171595928744640469e-03
1.144181372286592890e-02
1.319447862131728488e-02
1.345576682197144325e-02
1.239924086060792408e-02
1.030806270627271370e-02
7.531733930324552295e-03
4.440405771508587618e-03
1.382428070966459921e-03
-1.348857903289743532e-03
-3.535477007891432710e-03
-5.042656534784112354e-03
-5.817908965931109511e-03
-5.886035979649500809e-03
-5.342730692993961222e-03
-4.346044637047061232e-03
-3.102262648721362814e-03
-1.842655726036993014e-03
-7.908114083384834569e-04
-1.247619689573962326e-04
5.903170508163996244e-05
-2.278863187375676502e-04
-8.569115848838376737e-04
-1.597659103011322967e-03
-2.160008800279597518e-03
-2.256324738821591236e-03
-1.668218683308270167e-03
-3.000049628713447047e-04
1.792286276536755874e-03
4.397585400571391023e-03
7.168434714253204762e-03
9.659801257432466814e-03
1.138917435454536026e-02
1.191597408119704493e-02
1.092884641059998357e-02
8.321152009642063252e-03
4.235040219301745845e-03
-9.378433515552994648e-04
-6.601223275442213989e-03
-1.203778205931325951e-02
-1.651641939442966001e-02
-1.940282820304038702e-02
-2.025373411642434479e-02
-1.888144097691066628e-02
-1.538266369224077293e-02
-1.012991199141385912e-02
-3.725399774486999604e-03
3.079387492883403632e-03
9.488544506089241493e-03
1.477364514100315551e-02
1.837227906576378161e-02
1.995627845890841218e-02
1.946059329850375469e-02
1.707223625366153380e-02
1.318495172862885895e-02
8.329097185100532708e-03
3.088884838030554747e-03
-1.979184029787826871e-03
-6.413426711372668954e-03
-9.889773362130462042e-03
-1.223529208465118367e-02
-1.341295253205743859e-02
-1.348493821948280880e-02
-1.256848865554206253e-02
-1.079964382710912017e-02
-8.314132404365718113e-03
-5.246027619549259446e-03
-1.740056829712058849e-03
2.027189115497806185e-03
5.823051245983387400e-03
9.341829704318023453e-03
1.220987828813175496e-02
1.402599451501271993e-02
1.443812887749301027e-02
1.323839181934782089e-02
1.044389627007326002e-02
6.331218877642444398e-03
1.407398760975092644e-03
-3.678021989424663796e-03
-8.256802606218440616e-03
-1.176835905473956438e-02
-1.385527690492334256e-02
-1.440423204671232270e-02
-1.352603569960700476e-02
-1.148899812204657450e-02
-8.635133596397519609e-03
-5.310618960919302051e-03
-1.828497131399275250e-03
1.538531144615308544e-03
4.551000133065009889e-03
6.997891274006171058e-03
8.703201752912495190e-03
9.544058555387594650e-03
9.474137579588612010e-03
8.542955845240205598e-03
6.901825363545191667e-03
4.790561975262734758e-03
2.504374917968344751e-03
3.462144550721345596e-04
-1.425465093154126665e-03
-2.641530478054823165e-03
-3.248845821035081273e-03
-3.312191920509044776e-03
-2.990468849960131389e-03
-2.491826715412322202e-03
-2.017207098828320555e-03
-1.705732096007618256e-03
-1.597171564440847888e-03
-1.623816088204682638e-03
-1.635519303506041688e-03
-1.450225651636221844e-03
-9.133760476870422806e-04
5.202408084371834551e-05
1.416547219644275629e-03
3.039258703178490673e-03
4.683622890960772306e-03
6.052130477501065781e-03
6.838683496765161039e-03
6.794409663290161897e-03
5.794858091958138974e-03
3.889441614817579218e-03
1.312996961753354341e-03
-1.552350716038583545e-03
-4.260519035870873050e-03
-6.407940926147985550e-03
-7.730773708164669078e-03
-8.161908006713351066e-03
-7.829587795309940132e-03
-6.999290465870321512e-03
-5.980335813209110979e-03
-5.030350308612149129e-03
-4.289104029292632736e-03
-3.759597971897718494e-03
-3.335831766202397575e-03
-2.861598073514534657e-03
-2.196788395522526055e-03
-1.267726827724484709e-03
-8.670363098382404161e-05
1.259189066928381208e-03
2.637228503067889571e-03
3.901477735233783994e-03
4.920970085802866753e-03
5.603861685237822993e-03
5.918493610409514966e-03
5.906990518931339723e-03
5.682997472895828794e-03
5.408296917030673556e-03
5.251640272569475798e-03
5.340518537163968515e-03
5.718855706289665761e-03
6.322134558666201928e-03
6.978484733264386786e-03
7.439123886503015703e-03
7.433084065026115961e-03
6.731879054022366082e-03
5.205381508774614696e-03
2.854545554484444470e-03
-1.828006736666054621e-04
-3.647966444363742733e-03
-7.192806071935425871e-03
-1.042379003755665445e-02
-1.295675396086186371e-02
-1.447540388403703582e-02
-1.478148703542148112e-02
-1.382501338143771186e-02
-1.170891822958702866e-02
-8.669937001851174552e-03
-5.042777887183547136e-03
-1.217038011090326721e-03
2.404142089980337155e-03
5.438527153346923992e-03
7.553761309241069366e-03
8.497068830568318965e-03
8.129772293209755474e-03
6.462673206309235696e-03
3.681316808165510657e-03
1.494392730168742078e-04
-3.617035530801962495e-03
-7.008455120163025603e-03
-9.410694378099510732e-03
-1.031598865637116391e-02
-9.435075746513154477e-03
-6.780847710319247434e-03
-2.693530162069870948e-03
2.209216254080617614e-03
7.150799873298044340e-03
1.135359116850490589e-02
1.419415440514439075e-02
1.531516531304242049e-02
1.466790048414275127e-02
1.248158427595658093e-02
9.178045738711747281e-03
5.264144329217089469e-03
1.235605220458624309e-03
-2.485456193161473398e-03
-5.574883204733586950e-03
-7.803135890623020751e-03
-9.020422826444576131e-03
-9.144280045542886592e-03
-8.158443524923314483e-03
-6.126332253755271962e-03
-3.215744960071521830e-03
2.765667577230325469e-04
3.918028517443980507e-03
7.168934164099610706e-03
9.455777166018834376e-03
1.028167951058712483e-02
9.349087838308890036e-03
6.660406802121170491e-03
2.563761901891397407e-03
-2.277757342486730861e-03
-6.996262469220016628e-03
-1.068895014937365148e-02
-1.260945328187767361e-02
-1.233554704693132567e-02
-9.874201142118430724e-03
-5.679272072135529287e-03
-5.746125398133376458e-04
4.405810514678603143e-03
8.230053092127074393e-03
1.008669035989013217e-02
9.559578060035323066e-03
6.718893774934142117e-03
2.108420605193406412e-03
-3.369100021769299777e-03
-8.646883637504798256e-03
-1.272973387490244218e-02
-1.491717383466786666e-02
-1.495797962445289189e-02
-1.309314611798494642e-02
-9.972080203871677706e-03
-6.461401722826554117e-03
-3.396406536578827629e-03
-1.342292855533819274e-03
-4.302364200965969054e-04
-3.131916650942478952e-04
-2.546172744683217193e-04
6.702324910504309924e-04
3.307114816831081827e-03
8.149706720476976307e-03
1.512124965022867973e-02
2.346404822653287703e-02
3.177651983292696658e-02
3.821514775976550538e-02
4.084492093560022907e-02
3.808131454455285225e-02
2.913097397954976520e-02
1.432025799910213726e-02
-4.788945111474096628e-03
-2.555540421249474781e-02
-4.468163246222361940e-02
-5.882830549591369640e-02
-6.528836621647186866e-02
-6.256546442377683426e-02
-5.071941722374646855e-02
-3.139695732876465750e-02
-7.541895110656171575e-03
1.714783714677720061e-02
3.889682956698392591e-02
5.452192405364170158e-02
6.196405290810613753e-02
6.058593588227559334e-02
5.119076086068572590e-02
3.577426240660056683e-02
1.707422864187820022e-02
-1.981265253536618198e-03
-1.880766417997745132e-02
-3.156664322195099071e-02
-3.935880526397300683e-02
-4.218577925577790544e-02
-4.072595605435860855e-02
-3.601504681825470899e-02
-2.913577080637562433e-02
-2.100097886385586532e-02
-1.227308928405006216e-02
-3.413157148429893373e-03
5.191951534438792037e-03
1.310171583268915363e-02
1.976580487806840411e-02
2.457522709170038150e-02
2.700349755071334429e-02
2.677644182116860339e-02
2.399438557805939898e-02
1.915008509819079996e-02
1.302879163832385001e-02
6.523123214739537379e-03
4.257779659015969997e-04
-4.732527846653761250e-03
-8.752280405077944581e-03
-1.172701461038269666e-02
-1.391672459074316803e-02
-1.557632897515398573e-02
-1.679454882326558707e-02
-1.739742948700065406e-02
-1.695621704501404370e-02
-1.491105053188828203e-02
-1.078418278873490010e-02
-4.420388651191986540e-03
3.827426479381029756e-03
1.304113539158588408e-02
2.184530009479263013e-02
2.866368848169173478e-02
3.206139485137997347e-02
3.108602230667019406e-02
2.552367825632008425e-02
1.600641932423253061e-02
3.939699687075946116e-03
-8.742868112793445584e-03
-1.994973558143762343e-02
-2.784690892630881792e-02
-3.122610597518021835e-02
-2.974333402012123428e-02
-2.397544855877281611e-02
-1.528359890562078910e-02
-5.515527174944747160e-03
3.387162000106018478e-03
9.792852605497393004e-03
1.271065852177843958e-02
1.197860795287948588e-02
8.267953769398081465e-03
2.901225051099617924e-03
-2.475523823399645648e-03
-6.290068377566952751e-03
-7.417148656893635117e-03
-5.440041476542326060e-03
-7.417166402414604454e-04
5.591826687018131015e-03
1.203025197310586547e-02
1.695804866652196943e-02
1.905090182832822401e-02
1.758334129400194318e-02
1.259953489881955602e-02
4.912238073183645970e-03
-4.066287034045369848e-03
-1.262205822985094927e-02
-1.910027677931282197e-02
-2.225099074948382050e-02
-2.148481698323202044e-02
-1.698433860432718712e-02
-9.650045054203425926e-03
-8.979674434440448882e-04
7.641000122404734141e-03
1.445171036075995619e-02
1.842578886221438172e-02
1.905609717248049617e-02
1.649917195121042290e-02
1.149816203332858222e-02
5.189606450390731041e-03
-1.156441308530223311e-03
-6.400196367798149932e-03
-9.741053509488895035e-03
-1.083194058333866727e-02
-9.785958017269197340e-03
-7.087440105798870071e-03
-3.438870566231377879e-03
4.133503282747197360e-04
3.830311276902947926e-03
6.377117059307086874e-03
7.852943383222107943e-03
8.261999517734430754e-03
7.743650287347678129e-03
6.483828013171807902e-03
4.630761271779942900e-03
2.237444757915485472e-03
-7.504902734802171294e-04
-4.452299856913310983e-03
-8.960993130738857670e-03
-1.422573265923778724e-02
-1.994106325299011689e-02
-2.547966194683582569e-02
-2.990177737616490569e-02
-3.206332291765538051e-02
-3.082327740549151152e-02
-2.532116848127992370e-02
-1.526568467519920369e-02
-1.157947293468186700e-03
1.562417550086201562e-02
3.293039594229476424e-02
4.814003111910643978e-02
5.862064643865694258e-02
6.225423499241275471e-02
5.791227938008403076e-02
4.576352647814452279e-02
2.733372832695626919e-02
5.292282861196012655e-03
-1.699972595888702559e-02
-3.609405403708804139e-02
-4.909118409177823383e-02
-5.417540982730537080e-02
-5.093581966382568216e-02
-4.040686245753827288e-02
-2.482526261624945496e-02
-7.161161420347589290e-03
9.473814630669624703e-03
2.241644103687176828e-02
2.991761503241015252e-02
3.139241436808430652e-02
2.741638352022612857e-02
1.949073321459589281e-02
9.648486199743053215e-03
-9.853864167963521936e-07
-7.691751067317183221e-03
-1.230734764891488336e-02
-1.352479268459255007e-02
-1.178320444386538740e-02
-8.099478820489919295e-03
-3.784012763935633294e-03
-1.265838110158616636e-04
1.878816930070239741e-03
1.719363426604173656e-03
-5.651548447498759564e-04
-4.423499295234389894e-03
-8.927641090858140505e-03
-1.297155277352413094e-02
-1.549883508014406053e-02
-1.572068260579587151e-02
-1.328575908158366459e-02
-8.367758547385070744e-03
-1.646934067923891409e-03
5.818292160824254169e-03
1.280598458098138742e-02
1.818223347196502859e-02
2.112826698214428922e-02
2.128968600196949612e-02
1.881830245961627068e-02
1.430639298733221709e-02
8.637543660180088678e-03
2.793361655387127662e-03
-2.338811087250688980e-03
-6.115959832875814128e-03
-8.220134946221091532e-03
-8.663326663066767130e-03
-7.729217730423454391e-03
-5.876010512652851681e-03
-3.626650953964638546e-03
-1.468115386047637305e-03
2.264789841760067590e-04
1.247059981198589407e-03
1.566047062233760778e-03
1.327517485509022155e-03
8.043298858796121831e-04
3.240815317821499342e-04
1.743711034266071103e-04
5.104739137605091015e-04
1.295077832678147300e-03
2.293142470349313067e-03
3.127040981940165665e-03
3.377752895992583437e-03
2.705765139989470269e-03
9.610757655668031307e-04
-1.747981410814419823e-03
-5.051085470606165445e-03
-8.385091178192818906e-03
-1.111981343026444656e-02
-1.270387824192509112e-02
-1.278794929293082007e-02
-1.129315176649533375e-02
-8.412901137146981678e-03
-4.556304456134571690e-03
-2.542796216684350963e-04
3.945243012742939703e-03
7.568233952589986657e-03
1.027493689489590231e-02
1.188566544682823078e-02
1.237902531607031065e-02
1.187267406276370368e-02
1.059161401863640412e-02
8.823235641646172411e-03
6.860311458704582144e-03
4.942082021652159651e-03
3.209689540053389106e-03
1.688722333022453503e-03
3.021386269155632714e-04
-1.090930256752969951e-03
-2.638364571240378598e-03
-4.430405070945411111e-03
-6.441757129448635183e-03
-8.499049811527308734e-03
-1.028989482663948858e-02
-1.141909095504087084e-02
-1.150288672889327943e-02
-1.027949322912798807e-02
-7.706282102634718495e-03
-4.012878273199012996e-03
3.129071269788374562e-04
4.611546718101576688e-03
8.192537517582313550e-03
1.049190973933608086e-02
1.120215901220985785e-02
1.033829761900854557e-02
8.222895789737888830e-03
5.396388038160998893e-03
2.479088765714820494e-03
2.261286335512868728e-05
-1.611330907599399509e-03
-2.316307432373092279e-03
-2.238516711247265367e-03
-1.712692774045725119e-03
-1.158656893584679437e-03
-9.683997211722694676e-04
-1.412210480368640379e-03
-2.584110757917177509e-03
-4.394851131720306503e-03
-6.607394766308061218e-03
-8.898264485056796291e-03
-1.092292060530484360e-02
-1.236674746490596527e-02
-1.297233058629279970e-02
-1.254373194838284689e-02
-1.093720476498316434e-02
-8.053996895570281894e-03
-3.851135539975160393e-03
1.622603888323796706e-03
8.173354603074493852e-03
1.541259946410655432e-02
2.273648225953803226e-02
2.935182349630303944e-02
3.435346985870919856e-02
3.684522498338811680e-02
3.608725184595637514e-02
3.164519358804161742e-02
2.351118121631401783e-02
1.216811529818957044e-02
-1.422059159187652466e-03
-1.591071970164505828e-02
-2.972526084599893398e-02
-4.127939896523610819e-02
-4.919807097007342089e-02
-5.251660621192186240e-02
-5.081519719831904813e-02
-4.426424758963480588e-02
-3.357925267446248280e-02
-1.990405491831947343e-02
-4.651222717088510095e-03
1.067074262273728924e-02
2.461763891449479311e-02
3.593940986560464207e-02
4.367297833112774447e-02
4.720180898679651044e-02
4.629017652187886189e-02
4.109654311828582485e-02
3.216353998878078435e-02
2.037923368597224782e-02
6.907931625437912365e-03
-6.906653766307987996e-03
-1.966218484141460388e-02
-3.003842105610977919e-02
-3.694827420534019247e-02
-3.967951802023850227e-02
-3.800093991697107987e-02
-3.220970676914250430e-02
-2.310706620670838554e-02
-1.190132572866336308e-02
-4.769247214116145717e-05
1.095500022178964861e-02
1.978013648465994090e-02
2.546376822084268909e-02
2.753258783044320798e-02
2.604485991323989696e-02
2.154152917282165652e-02
1.492671255741363084e-02
7.308738933559974504e-03
-1.680301802794437194e-04
-6.478383582012282871e-03
-1.084412057383705649e-02
-1.282489252447082534e-02
-1.236435374541319798e-02
-9.785512612340133143e-03
-5.732223891133203519e-03
-1.059915487569756953e-03
3.311107261230517018e-03
6.554713437786061081e-03
8.079161696072166554e-03
7.621950996618639777e-03
5.285477431614199473e-03
1.512553940219929505e-03
-2.991177063493277721e-03
-7.376600897177371108e-03
-1.079611825607640352e-02
-1.255174647206933058e-02
-1.221982511458334641e-02
-9.728867005022748260e-03
-5.376808231149534691e-03
2.147418958598074079e-04
6.201912557770208889e-03
1.165903859623436400e-02
1.573271325693387235e-02
1.778007751284109428e-02
1.746697717258213767e-02
1.481279495903426932e-02
1.017969266771453010e-02
4.211205264194588932e-03
-2.270149866032661334e-03
-8.392039167558595913e-03
-1.336942716265469150e-02
-1.662759651062350325e-02
-1.788875719406731596e-02
-1.720361073293112664e-02
-1.491778897784673888e-02
-1.157724465276029069e-02
-7.794561667895910650e-03
-4.112550678431893536e-03
-9.030523981624696828e-04
1.675078298320226144e-03
3.656445294901694565e-03
5.203520182377897180e-03
6.519003019836469917e-03
7.760957319941385636e-03
8.981497969542808629e-03
1.010216935908598603e-02
1.092966654223800904e-02
1.120679583044650179e-02
1.068645367691349948e-02
9.210687015731463395e-03
6.774072877218838273e-03
3.553104893428464528e-03
-1.091344710776216698e-04
-3.763018038250888486e-03
-6.944358767407787791e-03
-9.273179080323788737e-03
-1.052914971958414034e-02
-1.068182242248141844e-02
-9.871162514714050193e-03
-8.349625015447739718e-03
-6.404913497245399295e-03
-4.284523306903975474e-03
-2.142479590423702202e-03
-2.453044504773134460e-05
2.102361905779476237e-03
4.286431491094522955e-03
6.518567554518536408e-03
8.680722945354376469e-03
1.053657567353115214e-02
1.177001104815579569e-02
1.206220766006409900e-02
1.118653010725582236e-02
9.092074432580143917e-03
5.945908829119082167e-03
2.115751702681269858e-03
-1.903924676587460084e-03
-5.599157240551645015e-03
-8.544137586256040501e-03
-1.047901969395738375e-02
-1.133917717958142501e-02
-1.123250612749712718e-02
-1.037667189782864874e-02
-9.019644777515246903e-03
-7.370329150885680802e-03
-5.560038021562838106e-03
-3.642995878833935747e-03
-1.630476749781659129e-03
4.569415952175720497e-04
2.539631837092062860e-03
4.452507852993531356e-03
5.957329328846943522e-03
6.796632188140205172e-03
6.774694680659915091e-03
5.836048920968140222e-03
4.109043246358624196e-03
1.894154303877374976e-03
-4.019348267790823215e-04
-2.365807071478169890e-03
-3.679506534013608429e-03
-4.195631446262403780e-03
-3.965094949026705048e-03
-3.211822393351545374e-03
-2.263729281362927663e-03
-1.460195809548994967e-03
-1.060321452088560084e-03
-1.174498147530094426e-03
-1.735931995820195854e-03
-2.518757354204444795e-03
-3.196401390526521467e-03
-3.422303905835609450e-03
-2.910246899300533360e-03
-1.495410440548788607e-03
8.326832611266097792e-04
3.923748067548657112e-03
7.480400707509871766e-03
1.108768170305395734e-02
1.425858259068447931e-02
1.649595274838661085e-02
1.736596575359858341e-02
1.657216907925206095e-02
1.401658208483257118e-02
9.835522182370021183e-03
4.400670283252899190e-03
-1.719548971944137583e-03
-7.835287651970545067e-03
-1.323485023692726192e-02
-1.729020402147697297e-02
-1.955030795600465332e-02
-1.980766689184156742e-02
-1.812690706956030309e-02
-1.482794368269490549e-02
-1.042364341187897517e-02
-5.523376009676016912e-03
-7.247441243744164041e-04
3.480673325396407836e-03
6.768128690017761670e-03
8.999892740734262778e-03
1.020855230084495927e-02
1.055290163677658974e-02
1.025841088214855812e-02
9.555834817447997342e-03
8.631067908533920918e-03
7.595646263802935394e-03
6.481609740881660864e-03
5.258192869277353299e-03
3.861839944977761563e-03
2.227362862150215894e-03
3.094991354745460499e-04
-1.908577575673229415e-03
-4.413957587617492462e-03
-7.159825280251266508e-03
-1.005290466640690848e-02
-1.293654896537323185e-02
-1.558051322762849661e-02
-1.768883683022969000e-02
-1.893230594183112347e-02
-1.900478198093003002e-02
-1.769515175229874338e-02
-1.495978163820527174e-02
-1.097560312243804626e-02
-6.153766487023898391e-03
-1.100811059379092072e-03
3.471789859268670404e-03
6.873591492973268186e-03
8.571276707509074833e-03
8.309176675782889432e-03
6.193990390637567345e-03
2.729787045834644252e-03
-1.206364012983688477e-03
-4.454865220653844715e-03
-5.731847217056634802e-03
-3.846615043920469101e-03
2.045264250700579850e-03
1.219247902601608424e-02
2.605333226877190600e-02
4.221148966316412565e-02
5.845000668809163802e-02
7.200848273237114849e-02
8.001043780726768695e-02
8.000192851215681689e-02
7.049954179981465785e-02
5.142114463817054615e-02
2.427952223621435146e-02
-7.937941532017558921e-03
-4.120879382991288198e-02
-7.115788054847782540e-02
-9.383894792269653617e-02
-1.064416806004165883e-01
-1.077683011427746917e-01
-9.838307780520971768e-02
-8.041811396017883862e-02
-5.709677820319419839e-02
-3.209379115743890565e-02
-8.875543916070760542e-03
9.848575511757162726e-03
2.247489627405452328e-02
2.861855642750321671e-02
2.900367109937185273e-02
2.517900000122152981e-02
1.912987956501221998e-02
1.286631012527517104e-02
8.062303606661838651e-03
5.803812495297792570e-03
6.475561084814562829e-03
9.787224716754971965e-03
1.491424049211512171e-02
2.071305159858513600e-02
2.596472135644117829e-02
2.960253008361962701e-02
3.088714897564065476e-02
2.950611516668706635e-02
2.559083571618639419e-02
1.966080157227534375e-02
1.251531576547976199e-02
5.094346197921484354e-03
-1.673697588506467548e-03
-7.020473214098849057e-03
-1.046186489377193274e-02
-1.187421284898856899e-02
-1.150312019330886060e-02
-9.897413644343919237e-03
-7.778063631432886871e-03
-5.869809148789191175e-03
-4.735538365069975192e-03
-4.653978517614287824e-03
-5.569061396889077309e-03
-7.120174795520350930e-03
-8.743576316161266737e-03
-9.820192209642253367e-03
-9.834799724072695870e-03
-8.508038457227695694e-03
-5.868807702301109819e-03
-2.250864161691040755e-03
1.780951147220100061e-03
5.550883385141536230e-03
8.406535470114107067e-03
9.838083433769906350e-03
9.562878246459516340e-03
7.565763320865170893e-03
4.093439816032218292e-03
-3.915417259230391522e-04
-5.285285235552550365e-03
-9.931043305945963517e-03
-1.370935899819564208e-02
-1.612113784510965653e-02
-1.685587688143613816e-02
-1.583581958689772584e-02
-1.322723933424674314e-02
-9.415126965032993844e-03
-4.944741552889569958e-03
-4.383327943235787449e-04
3.502439985325640076e-03
6.394950606054938813e-03
7.957119146534352705e-03
8.152720114752903813e-03
7.187545351568236374e-03
5.457260565131738517e-03
3.461880359217350822e-03
1.708383039255967351e-03
6.215121454178351712e-04
4.786181974574255094e-04
1.379835169060150690e-03
3.256859692917890570e-03
5.911221552774237331e-03
9.062771240955780350e-03
1.238927749139617784e-02
1.554840814886171430e-02
1.818536132099857205e-02
1.993604777540847195e-02
2.043751558305695326e-02
1.935663622743222234e-02
1.644380457444682975e-02
1.160898957986999935e-02
5.004806642172621167e-03
-2.910332307422325293e-03
-1.136116648022195141e-02
-1.932162891018562867e-02
-2.566124254372231794e-02
-2.934682689810996781e-02
-2.965426381535476996e-02
-2.634138731668964062e-02
-1.974240078605005166e-02
-1.075955443369536191e-02
-7.468661324073755381e-04
8.697478171069361608e-03
1.599435963319961740e-02
1.985725891655554243e-02
1.953044866580355698e-02
1.495033365252063096e-02
6.795613311157300274e-03
-3.593804345818907287e-03
-1.442569471545396276e-02
-2.376121905994099670e-02
-2.986397918550309782e-02
-3.152726650304527034e-02
-2.831443130309518885e-02
-2.065976863765617288e-02
-9.802701980488270905e-03
2.437407455079698693e-03
1.400355886935278349e-02
2.299261271320607314e-02
2.801798698774060625e-02
2.847107979392249355e-02
2.462608144075240091e-02
1.755993710715531009e-02
8.897633512752523011e-03
4.377515918955743324e-04
-6.251256714478403698e-03
-1.016355632384458030e-02
-1.103644974580764160e-02
-9.339281399110554993e-03
-6.080140922868793041e-03
-2.485440638312352846e-03
3.595711430424142208e-04
1.810426161214850893e-03
1.822081694828669995e-03
9.278343057768090318e-04
5.064497545070878459e-05
2.019955015462038261e-04
2.150631919674683701e-03
6.152218308820511794e-03
1.181726964499407728e-02
1.815783237259616101e-02
2.380221614436672795e-02
2.731949849106829475e-02
2.756845883613978643e-02
2.398513490785436630e-02
1.674349369020955436e-02
6.754887954994792665e-03
-4.492781556289848766e-03
-1.522045958051831960e-02
-2.370420947034279635e-02
-2.860584481286476688e-02
-2.921852524261225881e-02
-2.558244606174120417e-02
-1.845843527422907915e-02
-9.176913808219083757e-03
6.011723590187423305e-04
9.166623137486284989e-03
1.504157661405103319e-02
1.721449355901505385e-02
1.529744559555767935e-02
9.584158807347531450e-03
9.985636991709512245e-04
-9.063581561910893925e-03
-1.897870981230198595e-02
