BVP Green Neck Signal
-1.153650475289605404e-03
-1.355063016419967483e-03
-1.501925092298142961e-03
-1.620756028085944267e-03
-1.707667826853654942e-03
-1.728498251324700821e-03
-1.632814163045178280e-03
-1.376332886608125101e-03
-9.428389506777644716e-04
-3.570461587932868656e-04
3.166602473097198701e-04
9.902215778322287932e-04
1.579186704196811107e-03
2.034173447846537430e-03
2.366759911878667591e-03
2.660104396135128980e-03
3.058244543830993586e-03
3.733949219214434661e-03
4.840848975741887487e-03
6.459993136652959593e-03
8.553785514072591301e-03
1.094101734559829731e-02
1.330409626350607596e-02
1.523264386035687312e-02
1.629774210416813293e-02
1.614167442332102576e-02
1.456242444884721030e-02
1.157207726822532395e-02
7.413461436238731432e-03
2.528796864456220837e-03
-2.514105960484934628e-03
-7.121516695164509768e-03
-1.077623709933756696e-02
-1.312026630599946037e-02
-1.400210625408408738e-02
-1.348318544396987992e-02
-1.180701207646254330e-02
-9.340834391315295387e-03
-6.503007932839200735e-03
-3.690541792658609196e-03
-1.219981830350135195e-03
7.095298437452121285e-04
2.028177749557715306e-03
2.784649117436296083e-03
3.117613922836885449e-03
3.215775395190120789e-03
3.273810959333346097e-03
3.452333183164375298e-03
3.849133090563790650e-03
4.485818006008663976e-03
5.310025716474145105e-03
6.210798882811439416e-03
7.043748184468745684e-03
7.661849026542400312e-03
7.946268998856677312e-03
7.830650204894006039e-03
7.313398182568324642e-03
6.455703783922107052e-03
5.366506057897790782e-03
4.178031513352961288e-03
3.017198000723633842e-03
1.979672131410006169e-03
1.113833427421621371e-03
4.195882996139029507e-04
-1.380748903299653177e-04
-6.060434954551271319e-04
-1.018258932742854058e-03
-1.376307271741886162e-03
-1.640785085811829070e-03
-1.736646595182198775e-03
-1.572654947936560563e-03
-1.070712238618296269e-03
-1.968317055233178951e-04
1.015723380909303074e-03
2.458363622748301579e-03
3.957298944132939950e-03
5.301023092343594770e-03
6.280821239024390358e-03
6.736423779293967094e-03
6.595856817691827211e-03
5.897945318375316485e-03
4.789515180736862374e-03
3.496403746080111244e-03
2.274899172833676122e-03
1.355314451315336273e-03
8.911847993075790522e-04
9.263989162690388756e-04
1.388541727123363120e-03
2.110065704999301937e-03
2.871270144152557931e-03
3.453359222359959901e-03
3.688270066595100531e-03
3.494331492589583098e-03
2.891115620014738860e-03
1.991361716702575411e-03
9.723160830623050598e-04
3.332100117900849839e-05
-6.501061445166027991e-04
-9.649223538583601503e-04
-8.838856073518433498e-04
-4.698061317640568266e-04
1.391706308391316756e-04
7.601148800389836285e-04
1.205645172323934399e-03
1.325385074107185771e-03
1.039253902042500989e-03
3.558256017437825582e-04
-6.265518952487817220e-04
-1.734507291528319430e-03
-2.747322821647681275e-03
-3.433929555111439949e-03
-3.594198716106365883e-03
-3.097548370458483649e-03
-1.911187707781207730e-03
-1.120778323758795172e-04
2.119927765925525443e-03
4.527084052857275644e-03
6.813717709609794920e-03
8.695193966933576976e-03
9.946652938357222057e-03
1.044061144030394850e-02
1.016482202796091180e-02
9.217481950321657763e-03
7.782740720132254840e-03
6.092948805293248692e-03
4.385398313711275260e-03
2.861709445336041522e-03
1.657653367190756351e-03
8.291556963395266613e-04
3.562876004456335885e-04
1.626031197568577388e-04
1.440195939118214200e-04
2.000931812511012962e-04
2.603429904718909151e-04
2.990201489023380441e-04
3.343192301895699017e-04
4.128762852158099090e-04
5.856830537053431610e-04
8.843116042640520279e-04
1.305190860963179565e-03
1.805897189913359012e-03
2.313465797410150723e-03
2.741935365417349189e-03
3.014409418354536355e-03
3.083541516181019775e-03
2.944421167464358804e-03
2.636219101673962627e-03
2.232693363757361042e-03
1.824637369996363889e-03
1.498515567430039764e-03
1.315676029228776515e-03
1.296809423646243416e-03
1.416430938647356879e-03
1.610430796767472247e-03
1.795480494612314987e-03
1.894337341743253982e-03
1.858990341713069334e-03
1.685017376596402092e-03
1.413587788999231404e-03
1.120417946455116824e-03
8.937765507798188774e-04
8.069322310246401786e-04
8.932476460087753443e-04
1.132333194467281595e-03
1.452352016531681042e-03
1.748189815957084271e-03
1.910358068756564699e-03
1.856750544276394464e-03
1.558718429356855360e-03
1.054058550655824402e-03
4.426325019922727148e-04
-1.347417638504549639e-04
-5.284075812915212632e-04
-6.143388871776441461e-04
-3.225216351208396934e-04
3.467752022780329867e-04
1.321896876478001210e-03
2.474057804908955452e-03
3.643998044489031671e-03
4.674832777267682801e-03
5.442986122241295563e-03
5.879938252132554770e-03
5.980643261822329339e-03
5.797938889467725045e-03
5.424787817254281969e-03
4.968235632122579640e-03
4.521235575153675738e-03
4.140060020030989982e-03
3.833994411274264068e-03
3.569932305203638891e-03
3.289413236817879255e-03
2.932252436070860620e-03
2.459965339939048853e-03
1.872656438045918652e-03
1.214375311536766179e-03
5.648149539566101746e-04
1.965957765837338805e-05
-3.340509193899342082e-04
-4.398878613049673689e-04
-2.856819241751494716e-04
9.330479838433759082e-05
6.211138035465120586e-04
1.195822639925539672e-03
1.709397841926376576e-03
2.068607090544203730e-03
2.212459911693211330e-03
2.122826309444620502e-03
1.826988405162846725e-03
1.392399002451232253e-03
9.145411589240805446e-04
4.995000018847750491e-04
2.442440761328901547e-04
2.187913781148715254e-04
4.540664537250088846e-04
9.372407774975804150e-04
1.614160048730679331e-03
2.397551906606299951e-03
3.179809975716200131e-03
3.848855339739830003e-03
4.304610866428817961e-03
4.473359352233871079e-03
4.318438746459181757e-03
3.847016040837444081e-03
3.112486420815590953e-03
2.210871835192722810e-03
1.269464436678089834e-03
4.279557579173695354e-04
-1.846678200601377558e-04
-4.723003718093547222e-04
-3.882925852406616390e-04
5.625940052828622834e-05
7.934997655595840693e-04
1.709104739873582241e-03
2.660672942912337829e-03
3.501030271074346591e-03
4.101848878242531603e-03
4.373516261722908138e-03
4.279004916333041010e-03
3.840586963898874780e-03
3.138022980257274084e-03
2.296870334458325953e-03
1.467306135814679851e-03
7.968474413995521588e-04
4.026242101008358984e-04
3.491064276121931195e-04
6.358500507458902159e-04
1.198017077740586109e-03
1.920268034586797767e-03
2.661524481617108355e-03
3.284569081971500538e-03
3.682643772359619171e-03
3.796852806644515806e-03
3.622281590603551073e-03
3.204240572233798233e-03
2.627053691530920922e-03
1.997447994915879134e-03
1.424986647911907333e-03
1.003215068460705864e-03
7.954030029381738750e-04
8.270260637285222621e-04
1.084851162642680965e-03
1.521502034611052620e-03
2.064557635635875382e-03
2.628998252494942501e-03
3.130637216509544150e-03
3.497496704419224018e-03
3.677266696299567698e-03
3.641174619088034369e-03
3.385627306364437719e-03
2.932168593686990381e-03
2.325167789766398492e-03
1.626851346119327548e-03
9.104980107813109933e-04
2.531894817541157847e-04
-2.712790054965235134e-04
-5.997019552796568204e-04
-6.870346188113077464e-04
-5.129501469962960761e-04
-8.554072407397726036e-05
5.585581312633988195e-04
1.356821156202869241e-03
2.225361887251791487e-03
3.065607283484868099e-03
3.773985680164263553e-03
4.254585460597983329e-03
4.433384333529491635e-03
4.272010236263020996e-03
3.778777604784305626e-03
3.014186147502372591e-03
2.087620864644935612e-03
1.143096571193358583e-03
3.351481397757003020e-04
-2.000970769796780492e-04
-3.715402851729608311e-04
-1.511879044644101611e-04
4.199491253429241643e-04
1.239303616301305755e-03
2.162696830023596705e-03
3.033391275895524174e-03
3.713828225948423781e-03
4.112041185830495396e-03
4.196451140908186508e-03
3.996957689241097123e-03
3.594064655420915570e-03
3.099450328127030443e-03
2.631748976253676583e-03
2.291869379646324992e-03
2.142824106681564394e-03
2.198384193936791815e-03
2.422356817974966915e-03
2.737248709621007640e-03
3.039449734147985950e-03
3.218190444901826430e-03
3.175921807223173673e-03
2.847345206070908425e-03
2.213876830249998130e-03
1.311081898480939787e-03
2.281613249812575617e-04
-9.005211755873736811e-04
-1.911868850186145170e-03
-2.637895089144750953e-03
-2.934280301591453248e-03
-2.708175790843355378e-03
-1.938671815917861370e-03
-6.849618738639087420e-04
9.195720262884601350e-04
2.686267579302114520e-03
4.400072119615582728e-03
5.853651644514967084e-03
6.880194474940684070e-03
7.378021034257854598e-03
7.322448110400476586e-03
6.764397767217955083e-03
5.818276962722428516e-03
4.642175562926467713e-03
3.412713211719855567e-03
2.297156997651358945e-03
1.427013541014057968e-03
8.782403152404409229e-04
6.620649657167424363e-04
7.279313333614489262e-04
9.778870675214432814e-04
1.290058084276990294e-03
1.546954443980789974e-03
1.662292686414043770e-03
1.599333954367516313e-03
1.375809798277530423e-03
1.054708864630462834e-03
7.242499684356022704e-04
4.725931680595687502e-04
3.634286306988237375e-04
4.184065794646334678e-04
6.113334676602511647e-04
8.763958130755000221e-04
1.128543375525713904e-03
1.290165199802948944e-03
1.316179902589491649e-03
1.210269846949832678e-03
1.027463864303108845e-03
8.616372015024867381e-04
8.203516639886752199e-04
9.933787661931224588e-04
1.423922184994331260e-03
2.091316730751847670e-03
2.910464626348557848e-03
3.748142629990828048e-03
4.451886950734564377e-03
4.884464109511510790e-03
4.955706286788210194e-03
4.643766697906705210e-03
4.000367195595553108e-03
3.139257221649073993e-03
2.211939591363431754e-03
1.377364780911591747e-03
7.721413583360260593e-04
4.863474197325497531e-04
5.489125886923623601e-04
9.256225810933744504e-04
1.530557167845021617e-03
2.247804061920868554e-03
2.956658641098394887e-03
3.552937643143145880e-03
3.961912214195183884e-03
4.142332425930929721e-03
4.083563482462738287e-03
3.798705199938132333e-03
3.316852183402244254e-03
2.677592965595298070e-03
1.929510263574847227e-03
1.131701841932974441e-03
3.549511540361280880e-04
-3.208312042614559940e-04
-8.140201166969337349e-04
-1.052318987357339121e-03
-9.853836756179672196e-04
-5.971053175224333778e-04
8.475463754301255925e-05
9.848301425041906462e-04
1.985490316211930249e-03
2.942261625987444007e-03
3.707132812473203001e-03
4.155307204274972382e-03
4.210436526033462142e-03
3.863544908573267409e-03
3.180879069506950714e-03
2.296697945036235353e-03
1.390041911793396057e-03
6.493748508591137229e-04
2.330871759860830058e-04
2.350297367815839741e-04
6.627617194902570789e-04
1.433604741736110898e-03
2.390493218921172901e-03
3.335424754040332805e-03
4.073319958272962442e-03
4.455459521872001498e-03
4.411623741742593495e-03
3.963562788932955758e-03
3.217347795739425049e-03
2.336709480759150120e-03
1.503486161273970582e-03
8.748444163480851871e-04
5.486473910762466703e-04
5.462543478295094762e-04
8.161295372809593794e-04
1.254780551516539730e-03
1.737158590249478132e-03
2.147846850502049994e-03
2.405849603146459261e-03
2.478099624021421442e-03
2.379639037196871251e-03
2.161902276615731023e-03
1.893811206077777691e-03
1.641889773004147346e-03
1.454591243679273678e-03
1.353638057309347695e-03
1.333174797270303934e-03
1.366359227927778147e-03
1.417764084138869660e-03
1.458212649744342060e-03
1.477388376774018287e-03
1.489993115781352174e-03
1.533375498204410901e-03
1.657097915961217201e-03
1.906744777959786148e-03
2.305574074655357755e-03
2.838980733521450240e-03
3.447598982516325745e-03
4.033557141326753366e-03
4.480175340164899156e-03
4.680013180447090658e-03
4.562767415476639762e-03
4.114788544702464856e-03
3.384978684918066565e-03
2.475641724855580286e-03
1.520566540846214707e-03
6.560459145642442806e-04
-7.174368282251899348e-06
-4.033423906709084940e-04
-5.182728890139967105e-04
-3.835609148770974947e-04
-6.238526845577917895e-05
3.683406843087702262e-04
8.354695161331500333e-04
1.283497523698962214e-03
1.682102273465870598e-03
2.025943080656729227e-03
2.327590708719082593e-03
2.606506700220862817e-03
2.877666774737608346e-03
3.142825449414933352e-03
3.386537064955578470e-03
3.578244489791473394e-03
3.680361607616412963e-03
3.660017978087174405e-03
3.500210742818819602e-03
3.206243692262932855e-03
2.805723730625905681e-03
2.343221711870813965e-03
1.871998282726752318e-03
1.444790537096841011e-03
1.105055144895099361e-03
8.802951363292097625e-04
7.793390634689588078e-04
7.942800815632718343e-04
9.054943293740566352e-04
1.086803959052202572e-03
1.308779140566701440e-03
1.540296309128305662e-03
1.749749525159430361e-03
1.907203101177302974e-03
1.988174022893930346e-03
1.979106869907015787e-03
1.883491953440557132e-03
1.726024602095774111e-03
1.551588793767020875e-03
1.417498407905425691e-03
1.380654157312545842e-03
1.483659906902533559e-03
1.743890082142839516e-03
2.147819104790967167e-03
2.651464960393840053e-03
3.187066528992164860e-03
3.675068725726847625e-03
4.038644366796406704e-03
4.216659206361957242e-03
4.171808123154097103e-03
3.893318602960218859e-03
3.396019083078705494e-03
2.718000394907484248e-03
1.917866468199414627e-03
1.071284164016547561e-03
2.661389499300352048e-04
-4.043735106778051369e-04
-8.514506483736569709e-04
-1.003406097054126977e-03
-8.197375070566354643e-04
-3.024445684239413998e-04
5.000978390258233389e-04
1.498967452348939043e-03
2.578582929387084922e-03
3.614544611982649369e-03
4.491530977339367944e-03
5.118875006368377341e-03
5.442227804373413365e-03
5.449511183585703696e-03
5.169692790546066147e-03
4.664633458211291453e-03
4.016146364687227417e-03
3.310979642690518344e-03
2.626043082741547768e-03
2.016205467626373468e-03
1.507447521559294101e-03
1.097663874235302230e-03
7.651571620856817153e-04
4.819451533852722649e-04
2.273573307606934369e-04
-2.193507667096888936e-06
-1.898688882963112286e-04
-3.025914020751210853e-04
-3.022238912286953454e-04
-1.608584287077254038e-04
1.250768864586838079e-04
5.278053500964918418e-04
9.917768983616756170e-04
1.446808749450942877e-03
1.825840198925887496e-03
2.081126145507780287e-03
2.194066535672323064e-03
2.176404935001853558e-03
2.063267797343495621e-03
1.901077516238446020e-03
1.734924767583939653e-03
1.599425292462644619e-03
1.514581207547640836e-03
1.485658546253318998e-03
1.505450083744993119e-03
1.558226159599575972e-03
1.625268155341724752e-03
1.691130369354222444e-03
1.748783160180635097e-03
1.802094735876947230e-03
1.865547395549860613e-03
1.962020336652289462e-03
2.119039015781786547e-03
2.363179817609873008e-03
2.712861357386495836e-03
3.171295200239275872e-03
3.721998697546176002e-03
4.327976515115627976e-03
4.933914189178966077e-03
5.470638857405433000e-03
5.862572718311106698e-03
6.039518289112395279e-03
5.952180075024091598e-03
5.587540695402371319e-03
4.978404690702356063e-03
4.202642193851933126e-03
3.370905294992504377e-03
2.604864605725413108e-03
2.010520467672416434e-03
1.653185821520051580e-03
1.541795885232983805e-03
1.628517781818268010e-03
1.824551264916889634e-03
2.026862957552800874e-03
2.147051263889814161e-03
2.134082581639072228e-03
1.985600620824678683e-03
1.745592412903629060e-03
1.488898837506755788e-03
1.296125742742628654e-03
1.225698711524191237e-03
1.291266748175451829e-03
1.450948389597754530e-03
1.610946744776598286e-03
1.642315836867228387e-03
1.407558256817891765e-03
7.925709489130378094e-04
-2.619067726687173206e-04
-1.736308857894248471e-03
-3.521975519980086004e-03
-5.427857433825400424e-03
-7.203726803753818415e-03
-8.576832850910213329e-03
-9.297560189214303800e-03
-9.188193234275755794e-03
-8.186862654306993614e-03
-6.377506589910116215e-03
-3.997739234084831533e-03
-1.419488109159675222e-03
8.994520850901964112e-04
2.491422651825772258e-03
2.975919018930135718e-03
2.163808850777469012e-03
1.477727607897905485e-04
-2.645231603272787252e-03
-5.460850338591854806e-03
-7.296602718300865091e-03
-7.054227314152471985e-03
-3.750380733344564101e-03
3.245980537316567847e-03
1.399572314982184401e-02
2.784342576630884081e-02
4.338841544367445097e-02
5.859899151827090841e-02
7.106881447328575185e-02
7.838485187646669627e-02
7.854841308759577534e-02
7.037023318417882922e-02
5.375520024117467349e-02
2.980860956793852934e-02
7.328823591956365804e-04
-3.046870758444648192e-02
-6.042175324461753622e-02
-8.585876391745751735e-02
-1.040577885237510131e-01
-1.131717071833073657e-01
-1.124087442075620003e-01
-1.020577103794744755e-01
-8.337755534999762019e-02
-5.838459176703078568e-02
-2.957347970610513938e-02
3.933275110763198926e-04
2.899160689987905631e-02
5.409634376439016040e-02
7.415681782946988154e-02
8.825726321647066330e-02
9.606127255339526327e-02
9.767101821197872458e-02
9.345730617480400848e-02
8.392145424082105010e-02
6.963229003771642667e-02
5.124922818239861094e-02
2.960877426054466660e-02
5.828093678901692144e-03
-1.862905174390496604e-02
-4.197084486057192643e-02
-6.220546029892220358e-02
-7.737283832093726221e-02
-8.584204715868373747e-02
-8.661093477611697677e-02
-7.953497491616930148e-02
-6.542256588570419251e-02
-4.596319498691334854e-02
-2.349482524997149879e-02
-6.555425435912356699e-04
2.000956631217323811e-02
3.640877801031446731e-02
4.716658292822363541e-02
5.175083224139331167e-02
5.045805447495601420e-02
4.427964462095326098e-02
3.469011532920768942e-02
2.340359140164034735e-02
1.213827806229408890e-02
2.416153763195178807e-03
-4.588132886934778200e-03
-8.146010078861599946e-03
-8.024804925393858729e-03
-4.493375805902062939e-03
1.715173685628883921e-03
9.487383019993439470e-03
1.746462889310741728e-02
2.422713713907025460e-02
2.850951268251893794e-02
2.941403439879893000e-02
2.657785221385233071e-02
2.025229982177090271e-02
1.126829072652082639e-02
8.878790741961789870e-04
-9.429007520400111558e-03
-1.829151008996059494e-02
-2.461965726252897738e-02
-2.781120166621152065e-02
-2.780473281718086331e-02
-2.503566765024954621e-02
-2.030416543309417413e-02
-1.458968339916048851e-02
-8.854382136675484349e-03
-3.876148927136949078e-03
-1.415470965483679386e-04
2.188034688890268774e-03
3.241935535815050791e-03
3.356016232933848285e-03
2.963758379560029604e-03
2.488071750594207134e-03
2.255234207544029763e-03
2.445015695675099160e-03
3.081176976727058314e-03
4.056669866195542970e-03
5.181267630587832636e-03
6.237512572870440065e-03
7.032525614540157018e-03
7.436283748592511025e-03
7.400702250620457001e-03
6.958574481592883117e-03
6.206524275639404252e-03
5.279566026150074587e-03
4.324913292686900432e-03
3.479825490596820305e-03
2.855011581124722309e-03
2.523502341849176087e-03
2.514792527668009182e-03
2.813990929331424903e-03
3.365271571172192850e-03
4.078961213605486469e-03
4.842362340319946931e-03
5.534567281760884375e-03
6.043914414065649880e-03
6.284459130397215647e-03
6.207398244450609316e-03
5.805624835463559126e-03
5.112352745413179661e-03
4.195486235482016706e-03
3.148279898444147993e-03
2.076239653489680460e-03
1.081540326874974329e-03
2.481317752139676307e-04
-3.690030222051358597e-04
-7.485431785114638088e-04
-9.013897819431914565e-04
-8.639134709079007886e-04
-6.872768662447739478e-04
-4.253162613024009595e-04
-1.246079507778441453e-04
1.800461986893129446e-04
4.640495039973386703e-04
7.078855335756967584e-04
8.923404127117813469e-04
9.968054693703955454e-04
1.001259495992959164e-03
8.911776579472302767e-04
6.641047301760743312e-04
3.360852152751057573e-04
-5.446492789974678381e-05
-4.475749277273051961e-04
-7.678646130965258512e-04
-9.351136328447605395e-04
-8.778478811221949139e-04
-5.484530663513631672e-04
6.276803628753454753e-05
9.190410860419166456e-04
1.938830287097037010e-03
3.009599498925377530e-03
4.010441696285040047e-03
4.836790642823537989e-03
5.420266393152699605e-03
5.739083519381800447e-03
5.817185523642848591e-03
5.712481062091818822e-03
5.496901112512758009e-03
5.233661404110274452e-03
4.958691825313363104e-03
4.672114733971241204e-03
4.342171990309786136e-03
3.920018188631571240e-03
3.360959666054536780e-03
2.646292887949121958e-03
1.799460951734338163e-03
8.909401904759707211e-04
2.885936903216160254e-05
-6.631697278605200307e-04
-1.075015240707350665e-03
-1.137680765830198591e-03
-8.425320464855198636e-04
-2.475215436020471692e-04
5.316134543558225043e-04
1.344539098425607572e-03
2.039675741475946956e-03
2.499650601559646676e-03
2.668997132075450179e-03
2.566179432059921724e-03
2.276898952433643528e-03
1.930924321229160120e-03
1.668424005608045661e-03
1.603824766535322417e-03
1.796002495394081544e-03
2.232580654877872484e-03
2.832361017326314248e-03
3.464260613513780833e-03
3.976464406526317684e-03
4.228306043100048088e-03
4.119177187002021415e-03
3.610773474347934477e-03
2.739466663056288991e-03
1.615617481969972794e-03
4.082555331633664839e-04
-6.830316799514672688e-04
-1.463786600467336784e-03
-1.781085746544826785e-03
-1.553793095249869118e-03
-7.905573285527881661e-04
4.089086702895590279e-04
1.870365935264692216e-03
3.375792020946954530e-03
4.700889361489463125e-03
5.651204831325565628e-03
6.090939616107086431e-03
5.961357680982179962e-03
5.287340350283182416e-03
4.171636049173009682e-03
2.778037388357838637e-03
1.306773724074469442e-03
-3.372691846651810002e-05
-1.055277022555910563e-03
-1.615939007047486990e-03
-1.640547478746120016e-03
-1.131952778412077722e-03
-1.701421751432300768e-04
1.100733724096639426e-03
2.494608550338819376e-03
3.811216475072078114e-03
4.865743288632639121e-03
5.516650824868304416e-03
5.686851634807164012e-03
5.373339304555687507e-03
4.642998054328979426e-03
3.616625105751478803e-03
2.446188773724008655e-03
1.290361897922039525e-03
2.917984506032146944e-04
-4.412891018051334248e-04
-8.467300271014742419e-04
-9.113947347347672173e-04
-6.659441758723443766e-04
-1.738069695442082466e-04
4.825660461963521101e-04
1.215789418943573948e-03
1.946050455431049594e-03
2.609974362635211938e-03
3.164187179781135888e-03
3.583698873292789390e-03
3.857402230571879524e-03
3.983613489496721366e-03
3.967094989063351188e-03
3.817058855848147036e-03
3.545320335358070115e-03
3.165078064358598300e-03
2.691758561230796903e-03
2.146504015058408980e-03
1.560985462581820915e-03
9.810635944935237537e-04
4.669624110277274982e-04
8.831796227544213770e-05
-8.668105235321368895e-05
-7.204389008872227884e-06
3.428292043886017534e-04
9.318564137974980066e-04
1.678153451048579933e-03
2.460363809888182693e-03
3.139166966976193653e-03
3.584803580759923780e-03
3.704053966551695137e-03
3.460792711432424118e-03
2.885609499704553695e-03
2.072162213670950513e-03
1.160973049682310172e-03
3.144697386467103662e-04
-3.112254156451073513e-04
-5.926184623443039520e-04
-4.595616338333046759e-04
9.244281710328854790e-05
1.000775427349203956e-03
2.146087623676786078e-03
3.372650770568749474e-03
4.514112903398828647e-03
5.419534266676264561e-03
5.975719070367529508e-03
6.122972143802614745e-03
5.861749892062225603e-03
5.248360634550391056e-03
4.380207832661930402e-03
3.374484479289078121e-03
2.346395928821838270e-03
1.392270820778927602e-03
5.801502692873426216e-04
-5.216276799103287606e-05
-4.929107940500618637e-04
-7.479947251929452805e-04
-8.312231882121809412e-04
-7.567484195194649696e-04
-5.364658550905312268e-04
-1.826300434538165318e-04
2.866884055643637800e-04
8.425833954214855329e-04
1.443173236781477523e-03
2.035566765417599466e-03
2.562309781438376274e-03
2.971588980501285900e-03
3.228579636829830707e-03
3.323686508660742174e-03
3.273993028522196973e-03
3.117331431646947447e-03
2.901731808176431001e-03
2.674065465012452798e-03
2.470517970610529648e-03
2.310240799498575713e-03
2.193328465572692409e-03
2.104100642189219144e-03
2.019217350218653791e-03
1.918015003613940004e-03
1.791495482946951247e-03
1.647382625678050138e-03
1.510313275485028993e-03
1.417045037377753260e-03
1.406850078025171681e-03
1.508509112090702063e-03
1.727623794211889576e-03
2.039295130999449999e-03
2.389738292983613257e-03
2.706864163114239795e-03
2.916775863809862972e-03
2.961945763551158180e-03
2.816865943603241544e-03
2.497156373041269691e-03
2.058786651294766332e-03
1.586299264956251816e-03
1.172677517464749009e-03
8.969350039158190211e-04
8.064231463626289533e-04
9.087582551728348636e-04
1.174658186494309227e-03
1.549688189977824941e-03
1.970671829280469176e-03
2.381365929355609701e-03
2.742414879045486885e-03
3.033176542699149349e-03
3.246902622997059618e-03
3.383522994213454538e-03
3.444091875161212849e-03
3.428563913159043963e-03
3.336400077467719522e-03
3.168924661307575153e-03
2.932622121643528330e-03
2.642391581727534643e-03
2.323195499729765502e-03
2.008655136391560622e-03
1.736332718929721247e-03
1.540648997694354146e-03
1.444680993608833718e-03
1.452051658743987086e-03
1.540882225097061145e-03
1.662986924162693399e-03
1.751234935461682893e-03
1.735094959939999411e-03
1.560308574036671329e-03
1.206434160170891676e-03
6.970588050118965186e-04
1.003190486065809722e-04
-4.802757906293116455e-04
-9.234451276601204905e-04
-1.113627252542501514e-03
-9.659654890338230382e-04
-4.469925274454052827e-04
4.142838800502918542e-04
1.527815630722694634e-03
2.756542541145822443e-03
3.940671815773711360e-03
4.927551681024312097e-03
5.600213987478452893e-03
5.896944797667556457e-03
5.816759992042858790e-03
5.410800878726239674e-03
4.764430609582143497e-03
3.976546829619519857e-03
3.141346782700530412e-03
2.335570462748013006e-03
1.612681141662226795e-03
1.004196561848209402e-03
5.265169148985333284e-04
1.895482095876758772e-04
2.887747263498503802e-06
-2.286657384137965460e-05
1.206440094367168623e-04
4.336790892520245733e-04
9.017828974194220387e-04
1.489967185753951527e-03
2.139792619093036988e-03
2.771951890852664135e-03
3.295829764875396646e-03
3.624862766027166575e-03
3.694245535092399724e-03
3.477003745582154821e-03
2.994988345065500122e-03
2.321604785164851220e-03
1.573402502072553458e-03
8.896991043514097634e-04
4.035626480463861895e-04
2.115123713579826308e-04
3.504244810747369088e-04
7.877762446308069454e-04
1.427500823641161517e-03
2.130381899199764763e-03
2.745178607367750739e-03
3.143844479990325069e-03
3.252040990515509336e-03
3.066551045677335004e-03
2.654908811317364947e-03
2.137974196801542461e-03
1.660611912264316811e-03
1.357636553113876921e-03
1.322380585514683999e-03
1.584724197444501749e-03
2.103959188109944152e-03
2.778539195363899546e-03
3.470048756428093656e-03
4.034675983495660499e-03
4.353953199160718116e-03
4.357669258109008771e-03
4.034486163527460992e-03
3.428956241767979266e-03
2.627105698270167187e-03
1.735946801551697775e-03
8.636494523180649179e-04
1.054145535368394837e-04
-4.638301236017492064e-04
-7.922551981891382336e-04
-8.525671508083781935e-04
-6.434494720254932756e-04
-1.905075121493380458e-04
4.542630776762964905e-04
1.215069646333426711e-03
1.997559956469271286e-03
2.697595430465776420e-03
3.213907079321328374e-03
3.463318690679549096e-03
3.395726392823451671e-03
3.005892031299868972e-03
2.339893796108453473e-03
1.494476814476722835e-03
6.074947902633470384e-04
-1.613777548467205947e-04
-6.576181875958689652e-04
-7.612111334987757549e-04
-4.117923205606871702e-04
3.757759653250981359e-04
1.508531633617452364e-03
2.826591186750217113e-03
4.128035823353621778e-03
5.204439626084526177e-03
5.880503978996622083e-03
6.049036104022438923e-03
5.693150396435199025e-03
4.890644154977624031e-03
3.799387511463495244e-03
2.626307430741530585e-03
1.586025434702309327e-03
8.580338276864458730e-04
5.522829273853953336e-04
6.910698348922730393e-04
1.210480973440144353e-03
1.979483138874173209e-03
2.831345289579689957e-03
3.600640999556755512e-03
4.158260388597721270e-03
4.436292971313926525e-03
4.435934144793521675e-03
4.216069299239118100e-03
3.866609160639011659e-03
3.475703122655372096e-03
3.101306186673626931e-03
2.755457068501561413e-03
2.405590883425500273e-03
1.992301968334832599e-03
1.457832274855601438e-03
7.756203280772711647e-04
-2.944959830442506893e-05
-8.770783049944540569e-04
-1.645023818289390038e-03
-2.195916836727945624e-03
-2.410450975277926740e-03
-2.219046074502500215e-03
-1.624026264900174914e-03
-7.055865070919589352e-04
3.914262186273912043e-04
1.487063171591842571e-03
2.404104346768909817e-03
3.004149468492374464e-03
3.213421224785299908e-03
3.032987438013040778e-03
2.531817308529438551e-03
1.825104908426915208e-03
1.044382053591294112e-03
3.085258461354241279e-04
-2.960792574225315152e-04
-7.221790937086249376e-04
-9.560987575952428937e-04
-1.004315029339164760e-03
-8.776333991864782025e-04
-5.786359387438743881e-04
-9.754517088662525981e-05
5.807165583648142386e-04
1.460198219179740121e-03
2.515301857592733541e-03
3.678871718471250600e-03
4.843418930644036169e-03
5.876660140893772040e-03
6.647869387038787131e-03
7.058896398333032625e-03
7.072457336685879573e-03
6.729938036979439889e-03
6.152305446016141828e-03
5.521641099394757057e-03
5.046209555229147666e-03
4.916254642896486157e-03
5.259292691608227766e-03
6.103338889100207339e-03
7.355822424659644830e-03
8.804897068213654240e-03
1.014690366305068953e-02
1.103825757058431861e-02
1.116380126646208254e-02
1.030936628313075878e-02
8.424901344957276550e-03
5.664978866021625273e-03
2.394928928105828463e-03
-8.457588994830620918e-04
-3.424368465602132053e-03
-4.732457339093974931e-03
-4.323106090554913565e-03
-2.044758836177217563e-03
1.854865811997820357e-03
6.682026852127692824e-03
1.133142251530127112e-02
1.441635551367891413e-02
1.449220267113514315e-02
1.034908445156862075e-02
1.328200924075020363e-03
-1.239979660384889215e-02
-2.966287440876459042e-02
-4.828462201294649037e-02
-6.529078427784032468e-02
-7.732796547500418727e-02
-8.124870871746159295e-02
-7.476905503575140277e-02
-5.706953167352480510e-02
-2.919886537245153929e-02
5.841657662306765954e-03
4.340431313100284044e-02
7.788456290984392683e-02
1.036966443808466642e-01
1.163566938142395757e-01
1.134464010359468589e-01
9.523041691758155070e-02
6.475673977359538980e-02
2.737597565964477314e-02
-1.024828053347453388e-02
-4.143591906474290015e-02
-6.080892642763160300e-02
-6.533884609116691333e-02
-5.489660942971150842e-02
-3.219756643280367175e-02
-2.171848952214608906e-03
2.908739858131231121e-02
5.556202950014359904e-02
7.246707771033546186e-02
7.709049232209870539e-02
6.915457970907125385e-02
5.065161857975792464e-02
2.522577227817839052e-02
-2.727169186596447269e-03
-2.901392414478720649e-02
-5.042310826927403483e-02
-6.515978556205886951e-02
-7.286930859557809448e-02
-7.430477325585295445e-02
-7.079051432931809940e-02
-6.367832707703950657e-02
-5.397089313175366249e-02
-4.220925613599036536e-02
-2.861775888188671998e-02
-1.340723286690776936e-02
2.913588451962081417e-03
1.936157695860445116e-02
3.452039251340924264e-02
4.679220277083356166e-02
5.476947124686235707e-02
5.759255328713079602e-02
5.516897535780989487e-02
4.818503766176122916e-02
3.791490641041043302e-02
2.589910773457394788e-02
1.360214138856007809e-02
2.157377452754236265e-03
-7.731258525076420245e-03
-1.572253055650476433e-02
-2.165895206714376145e-02
-2.536727049099100212e-02
-2.653342437321936156e-02
-2.471616497649908872e-02
-1.951025186954787397e-02
-1.081137441588376352e-02
9.112656721979280408e-04
1.444651557475771023e-02
2.786907678987479361e-02
3.880163587747321313e-02
4.487707102922938729e-02
4.429902930946429118e-02
3.635781691777310171e-02
2.175557326516036616e-02
2.631657346108787383e-03
-1.775169541794632821e-02
-3.561787583901102061e-02
-4.745321615078206684e-02
-5.077687052757932917e-02
-4.472072255791752909e-02
-3.027712347491504780e-02
-1.014767989926092587e-02
1.178279906397789595e-02
3.123781505861902841e-02
4.443555500656273805e-02
4.887596224158400476e-02
4.385474148052683624e-02
3.059118029438894631e-02
1.194352625367228402e-02
-8.221821437558896051e-03
-2.586405032919581945e-02
-3.761702993447051113e-02
-4.146504028699286165e-02
-3.709986705989568728e-02
-2.589214374129504212e-02
-1.050217212173316234e-02
5.762951047439964815e-03
1.968850201752352091e-02
2.881969464723820734e-02
3.191704543327851529e-02
2.911458037263082305e-02
2.176663855429677649e-02
1.203922350153715029e-02
2.355691865739142736e-03
-5.167982610952818502e-03
-9.170350388736325103e-03
-9.281597505474293436e-03
-6.111890862898420283e-03
-1.011306690052651749e-03
4.326692089208283160e-03
8.313377096739720667e-03
9.852974457475044412e-03
8.580441541828904076e-03
4.900836654568157917e-03
-1.654260803661466647e-04
-5.279238404299992256e-03
-9.137387713340876239e-03
-1.079228111854475466e-02
-9.859425591166856573e-03
-6.570196235089057098e-03
-1.671172077978130312e-03
3.789933674191222485e-03
8.728949181663926693e-03
1.227406205913093851e-02
1.394381640625483310e-02
1.371997965770975839e-02
1.200614450806926012e-02
9.488636514874099898e-03
6.937491430410318120e-03
4.996902770418086212e-03
4.014511163468028297e-03
3.948882640853634829e-03
4.377563516867587906e-03
4.606665276489537234e-03
3.859898926065359007e-03
1.505205970137142839e-03
-2.733671566069733640e-03
-8.631897121623401808e-03
-1.542313568654361811e-02
-2.188276995550641688e-02
-2.652990732777767147e-02
-2.791871497890105469e-02
-2.496721336146775355e-02
-1.725650306217466415e-02
-5.230820178964884319e-03
9.758383862327246749e-03
2.559431689854575059e-02
3.971628313407962740e-02
4.957431672141099366e-02
5.313473478595893279e-02
4.933219608363844516e-02
3.836429121335987319e-02
2.175070153312633203e-02
2.125542585276065689e-03
-1.721202645809277038e-02
-3.290975215924765718e-02
-4.221722349466147661e-02
-4.354712655288540957e-02
-3.681873402229902253e-02
-2.350185605479743894e-02
-6.342981239453856189e-03
1.117529916710848295e-02
2.553208768618794172e-02
3.387936007888057294e-02
3.461918135886799669e-02
2.772707360700738324e-02
1.475426156157694582e-02
-1.491591895577816344e-03
-1.752078699527708644e-02
-2.987288568292637697e-02
-3.582049449635395233e-02
-3.392459296313948131e-02
-2.433121930755060419e-02
-8.750979663465999897e-03
9.873769965894972633e-03
2.794619977098463520e-02
4.191988098810826846e-02
4.899051724885932629e-02
4.763926853921882781e-02
3.792402682014657522e-02
2.146502764988204165e-02
1.130446236969011482e-03
-1.951383850634295231e-02
-3.687956274799727291e-02
-4.802180152708691863e-02
-5.116492954408471266e-02
-4.598985469131116471e-02
-3.363377357132400769e-02
-1.641266300392155153e-02
2.666916604484916194e-03
2.049851610966203774e-02
3.444434980170225924e-02
4.276975358546689088e-02
4.486841926920112633e-02
4.125275580327186081e-02
3.333334860885974610e-02
2.305148161573569721e-02
1.245242564477096539e-02
3.290742720377736776e-03
-3.257725231956350338e-03
-6.733680406471080453e-03
-7.374680083518883426e-03
-5.962368129478460947e-03
-3.582716912904778360e-03
-1.355412931549677090e-03
-1.876960901419891421e-04
-5.977472743417672207e-04
-2.635339208982027427e-03
-5.906392221697893442e-03
-9.687667722655387420e-03
-1.310193691650658396e-02
-1.531467597098367522e-02
-1.571134573271533094e-02
-1.402002968103206390e-02
-1.035743097855737829e-02
-5.194444249669877972e-03
7.444659709803696027e-04
6.621469103908836883e-03
1.163435300260952029e-02
1.514637009950293642e-02
1.677631339686591963e-02
1.643784497836362629e-02
1.432758581377255314e-02
1.087068285274293139e-02
6.638338626836045447e-03
2.253514259397429616e-03
-1.700114452373446827e-03
-4.753360108082849839e-03
-6.601693397543792648e-03
-7.125882321647787447e-03
-6.384328691731245946e-03
-4.583168473343199149e-03
-2.032090100781177092e-03
9.069499705169211615e-04
3.871906790611372856e-03
6.547152882801117457e-03
8.697436921797637582e-03
1.018454482981577189e-02
1.096642852989194658e-02
1.108268967254941173e-02
1.063171699079939331e-02
9.744157479754319423e-03
8.557004140790830382e-03
7.192943543892624768e-03
5.748921996601791262e-03
4.294864376946221432e-03
2.879680983244486611e-03
1.540016119591485974e-03
3.083891222695348336e-04
-7.806444008108476620e-04
-1.687104275517352890e-03
-2.366360346255191698e-03
-2.775359577652238355e-03
-2.883864218812278064e-03
-2.687990811203542184e-03
-2.222101354507110930e-03
-1.565056649147561225e-03
-8.372278024696947103e-04
-1.856551164954997266e-04
2.424660839956938561e-04
3.331920433755982021e-04
3.727323322795170202e-05
-6.099569821567140705e-04
-1.486704819845094741e-03
-2.402400886739269534e-03
-3.132157936338228303e-03
-3.462034853583443629e-03
-3.236653176840235090e-03
-2.399180731276383087e-03
-1.014322173890395366e-03
7.317089801028115945e-04
2.555463697949920954e-03
4.121803855618278757e-03
5.104937450503513330e-03
5.256760549088863865e-03
4.471498396647208100e-03
2.833398261983829155e-03
6.346535011084817463e-04
-1.645249456613248618e-03
-3.401078895271632957e-03
-3.999377406730077709e-03
-2.899765275860484957e-03
2.192255018251499862e-04
5.354394976722285683e-03
1.211763843793235707e-02
1.974110574110114757e-02
2.715640822095463647e-02
3.314233816278435579e-02
3.652126440781987976e-02
3.637205032869644805e-02
3.221921681935971393e-02
2.415743305033389576e-02
1.288016968311610916e-02
-3.992164977393462474e-04
-1.412203210935591632e-02
-2.662191886379891917e-02
-3.638077931858819253e-02
-4.225558709032206650e-02
-4.363577348986123067e-02
-4.050639848968116269e-02
-3.341326069104163382e-02
-2.334669904003474489e-02
-1.157466541473068170e-02
5.405717764448538312e-04
1.171244124583538729e-02
2.086617274253992071e-02
2.723040941053863490e-02
3.038324426376285553e-02
3.025902318009568437e-02
2.712553594627167830e-02
2.153955234237980507e-02
1.428415303149961277e-02
6.287920426023738650e-03
-1.473261751142336713e-03
-8.086459913341552397e-03
-1.281281983487818008e-02
-1.518400477158041509e-02
-1.506669009425345984e-02
-1.267969667267193970e-02
-8.554912929230447383e-03
-3.444606409936343781e-03
1.808964398322701790e-03
6.415960101618814124e-03
9.765486078155492800e-03
1.151346841101575508e-02
1.161846891220156414e-02
1.032264991248691907e-02
8.085442112929193750e-03
5.485949208448904352e-03
3.114424957948298996e-03
1.472067624300790398e-03
8.933913899969950917e-04
1.499520228660939421e-03
3.185824662943103919e-03
5.643372129614905412e-03
8.409919372226504902e-03
1.094267730088094304e-02
1.270284957198388603e-02
1.324155849535678386e-02
1.227713643905042201e-02
9.753221896043861791e-03
5.865994292547853373e-03
1.050165749513601830e-03
-4.080208910663705134e-03
-8.829232058479144496e-03
-1.253727848387051896e-02
-1.469571418774638649e-02
-1.503422068601823966e-02
-1.356249261695094757e-02
-1.055821232834400908e-02
-6.505667431828209175e-03
-2.000737604925331876e-03
2.355570645806973409e-03
6.052946064967044786e-03
8.740036815014107924e-03
1.025590914397453077e-02
1.062378566733521504e-02
1.001399821113676050e-02
8.688927088928313433e-03
6.944684119563399559e-03
5.061738958071302502e-03
3.271109251326146869e-03
1.737004650900253726e-03
5.531600731785752019e-04
-2.510719510105834974e-04
-6.984612005900281417e-04
-8.482947549053403667e-04
-7.794095330134393797e-04
-5.730824930946665924e-04
-2.969839202522661127e-04
7.408683833446012834e-06
3.302527066858106271e-04
6.886831273609274068e-04
1.112511741895935800e-03
1.624918956013650991e-03
2.224953628989307687e-03
2.877751236415689983e-03
3.515579174096746147e-03
4.049871345507065692e-03
4.391842949356515244e-03
4.476709286918583233e-03
4.284445082032405615e-03
3.850067032535149474e-03
3.259592402404801279e-03
2.632840299772534060e-03
2.098368453346411387e-03
1.767271863272196729e-03
1.711689357167570005e-03
1.952149803983316799e-03
2.456015105659879912e-03
3.146790220467822821e-03
3.920969433385029096e-03
4.666882692532388008e-03
5.280383755355572833e-03
5.674877892170930929e-03
5.785950683312468881e-03
5.572207221944255537e-03
5.014383924780381474e-03
4.115335163437693414e-03
2.903578575748118860e-03
1.441193077454053055e-03
-1.670843675706688500e-04
-1.770246819456241637e-03
-3.179590840754767389e-03
-4.192164851511586028e-03
-4.626279273605211038e-03
-4.361973505821767176e-03
-3.376977613298466456e-03
-1.768076254526694795e-03
2.506004119889231399e-04
2.376171010683165996e-03
4.269176499546828776e-03
5.618916637354622046e-03
6.207280298345275484e-03
5.956273569672842529e-03
4.947774930538110377e-03
3.409641800846257946e-03
1.669513799479246333e-03
8.557624754068713507e-05
-1.030123463439197584e-03
-1.478133209622011120e-03
-1.213049659227197034e-03
-3.511922662092527292e-04
8.575835901049218279e-04
2.089369117511756611e-03
3.025434590123363826e-03
3.433258107825555572e-03
3.228556269974858922e-03
2.501042914059470237e-03
1.496066611003215793e-03
5.558088479994565453e-04
3.342720949384148099e-05
1.997783096225800269e-04
1.164877201004885622e-03
2.834207817926746344e-03
4.912555677881589276e-03
6.956593627904260335e-03
8.465937719079970683e-03
8.994365147247610631e-03
8.258893302755553056e-03
6.223125707358083923e-03
3.132843118542330638e-03
-5.112524543731079493e-04
-4.044792051149459847e-03
-6.777907458517864851e-03
-8.147552255264166321e-03
-7.844985121367279574e-03
-5.885326432304507048e-03
-2.601787161425667474e-03
1.432549241070888053e-03
5.533455254836853500e-03
9.050496349222090370e-03
1.149207054531766609e-02
1.260346541800396597e-02
1.238658337777283000e-02
1.106595185072366261e-02
9.016663896184967664e-03
6.674612371456494810e-03
4.449305619528725816e-03
2.656171476687731528e-03
1.478857147779305808e-03
9.634212595931949258e-04
1.038225121610706573e-03
1.548869328464541834e-03
2.297456923013621501e-03
3.077963511105507276e-03
3.702631221429266914e-03
4.017869848812160617e-03
3.912301030258180483e-03
3.322577113609503485e-03
2.241692868859447921e-03
7.294456770122867331e-04
-1.080961769446375613e-03
-2.988145790261743408e-03
-4.744564724359442813e-03
-6.094577137321710754e-03
-6.822388896600350798e-03
-6.800256011742003386e-03
-6.025738698936528547e-03
-4.637279270941419701e-03
-2.900809994912714566e-03
-1.166682642230275953e-03
1.960453398929824093e-04
8.750636708107851006e-04
6.846121928898293504e-04
-3.853713632340563522e-04
-2.153183746267658266e-03
-4.269519020853770365e-03
-6.280471553878379069e-03
-7.717692229485903326e-03
-8.195741039376956000e-03
-7.493902017264619624e-03
-5.603193159379821209e-03
-2.727402551551300590e-03
7.624753370840879445e-04
4.410061775610466320e-03
7.772276263171291021e-03
1.051108897786531479e-02
1.245667344126658374e-02
1.362820283222625217e-02
1.420908937190813737e-02
1.448328674019467091e-02
1.474678732276000007e-02
1.521371805015578685e-02
1.593925965825058327e-02
1.678033882275074135e-02
1.740803661780170389e-02
1.737376964892399858e-02
1.621799510520405621e-02
1.359909317610788135e-02
9.413258237002675166e-03
3.874923179490479506e-03
-2.467103028244832692e-03
-8.789417006787168807e-03
-1.412308575654628098e-02
-1.752737534075956422e-02
-1.827125886695795190e-02
-1.598228435569916395e-02
-1.072817014806992306e-02
-3.011095280686246038e-03
6.323504795320321510e-03
1.623766678979580297e-02
2.566831152131598612e-02
3.366843259987081088e-02
3.949658579820943677e-02
4.265351321993430395e-02
4.288216318446705366e-02
4.015126307198231548e-02
3.463594536569658544e-02
2.669903419629448410e-02
1.686897080941876514e-02
5.806986252590480742e-03
-5.742609543204729543e-03
-1.701951694329122827e-02
-2.732449489355719477e-02
-3.609291792118504011e-02
-4.295067015861417370e-02
-4.774250449275883185e-02
-5.052902535235044568e-02
-5.155355874201092425e-02
-5.118429720650279069e-02
-4.984112086799041136e-02
-4.791983815540612479e-02
-4.572745743448250466e-02
-4.343955615617015736e-02
-4.108589373955286866e-02
-3.856503967406091360e-02
-3.568402236341970679e-02
-3.221475243494610619e-02
-2.795544717494694367e-02
-2.278398232307424220e-02
-1.669239920466297419e-02
-9.796967771762008642e-03
-2.323847240163815463e-03
5.425339432740911190e-03
1.312093214875784467e-02
2.045672188671717254e-02
2.719575838833354978e-02
3.320190124167156365e-02
3.845195286869288603e-02
4.302759611907229498e-02
4.708995001529411167e-02
5.084188422347122455e-02
5.448506325987857724e-02
5.818010320389047085e-02
6.201771890278318100e-02
6.600515263397933874e-02
7.006695441401838975e-02
7.405554139522363410e-02
7.776660514754235587e-02
8.095612803842180960e-02
8.335739900081419462e-02
8.469747451293643814e-02
8.471387091544820003e-02
8.317390013040733276e-02
7.989917006231898877e-02
7.479471916914595675e-02
6.787710373799477059e-02
5.929190500200483271e-02
4.931122199543341855e-02
3.830560716679522887e-02
2.669065288145773887e-02
1.485455105941593454e-02
3.078946918495887360e-03
-8.529502329961160395e-03
-2.007735549996604585e-02
-3.187595782158032104e-02
-4.437829571072479662e-02
-5.806464951739764152e-02
-7.329266003966544707e-02
-9.013834573544307616e-02
-1.082629343047879916e-01
-1.268434302640440714e-01
-1.445990973559599380e-01
-1.599299766477101370e-01
-1.711598606404865774e-01
-1.768505180424974621e-01
-1.761322316723202830e-01
-1.689823007399731403e-01
-1.563816725232564375e-01
-1.402933299388420540e-01
-1.234351442941729327e-01
-1.088606280004408844e-01
-9.940482725589716573e-02
-9.708945895189305397e-02
-1.026032006102480937e-01
-1.149742965712612919e-01
-1.315296175009750823e-01
-1.481859606702047583e-01
-1.600511204669494703e-01
-1.622391410585919680e-01
-1.507478709167718034e-01
-1.232257105884978499e-01
-7.947380396093933763e-02
-2.158246372056673440e-02
4.632751158784485096e-02
1.187120757921723418e-01
1.894484953067824551e-01
2.527656543303745673e-01
3.040993068876718941e-01
3.407314182345522746e-01
3.621139288639184106e-01
3.698311087211130777e-01
3.672140497159505634e-01
3.586784089351916505e-01
3.489030804958310750e-01
3.419938761697814966e-01
3.407770925258945538e-01
3.463431722811995406e-01
3.579148805964729174e-01
3.730540046415963817e-01
3.881544845254334408e-01
3.991112933113274974e-01
4.020196070406178990e-01
3.937606836374450969e-01
3.723705744400939155e-01
3.371521478399762128e-01
2.885583505619460087e-01
2.279252113132808344e-01
1.571552076541003207e-01
7.844323363426998486e-02
-5.895649778804925266e-03
-9.348389337426439571e-02
-1.818577090648146877e-01
-2.684278055628370185e-01
-3.505013110682854705e-01
-4.254264093115228684e-01
-4.908812460395745592e-01
-5.452714228079202918e-01
-5.881413709345403307e-01
-6.204660780835831169e-01
-6.446921208313595164e-01
-6.644491633264065777e-01
-6.839415425362641576e-01
-7.071218321854104705e-01
-7.368105464977612318e-01
-7.739423023341625019e-01
-8.170937292076664304e-01
-8.623964245550793661e-01
-9.038718390394006041e-01
-9.341533023928009216e-01
-9.454921823846486051e-01
-9.308903622484679952e-01
-8.851702977206320488e-01
-8.057954463509147125e-01
-6.932910538111946019e-01
-5.511831763844329268e-01
-3.854595935289641950e-01
-2.036430518211126695e-01
-1.363893428268823232e-02
1.774366414984332174e-01
3.642343831291006695e-01
5.437721813873778176e-01
7.155413911448073039e-01
8.810916826254916456e-01
1.043164070771281704e+00
1.204529513695228982e+00
1.366754846290131109e+00
1.529147518944444117e+00
