BVP Green Neck Signal
1.843383186359626863e-02
2.601945299983856458e-02
3.322731079620616645e-02
3.982968721205206591e-02
4.559886420672925461e-02
5.030714001928372758e-02
5.375132200890381240e-02
5.580200946160678716e-02
5.634853083071855728e-02
5.534227463615036535e-02
5.277737112278819975e-02
4.867905397111883109e-02
4.314181769099078440e-02
3.627536111504262029e-02
2.823962610086401537e-02
1.922142027254236663e-02
9.423879213508198557e-03
-9.215876032577932989e-04
-1.157976085691122051e-02
-2.230919285521926546e-02
-3.286611909552746708e-02
-4.301619254392248515e-02
-5.253790424778475437e-02
-6.121718849703655652e-02
-6.887221089207375135e-02
-7.533225717138525290e-02
-8.045690924589865567e-02
-8.413787439455566730e-02
-8.628154288584587162e-02
-8.684301182117952489e-02
-8.579097284095416054e-02
-8.313260707555703011e-02
-7.890692183897879408e-02
-7.316965437191168264e-02
-6.602066645555608460e-02
-5.757027607927570068e-02
-4.796114293529594313e-02
-3.735675841820593202e-02
-2.593275141460188796e-02
-1.388990142700752967e-02
-1.433695329161654985e-03
1.121809734517053084e-02
2.384164297524980075e-02
3.621454850742856363e-02
4.811685828798392683e-02
5.933202906617953548e-02
6.966303546090545085e-02
7.892085488507889768e-02
8.693938572194437331e-02
9.358172188194645302e-02
9.872351989445971032e-02
1.022892795132500365e-01
1.042192232752645747e-01
1.044933327518270116e-01
1.031310655294578604e-01
1.001689072007011239e-01
9.569607836913653076e-02
8.981537745394135852e-02
8.266350164944896717e-02
7.440338302974897067e-02
6.520759548288837526e-02
5.527201434455954882e-02
4.479646721656665304e-02
3.398303070835485828e-02
2.303506932837354540e-02
1.214786140201209313e-02
1.500572357254793820e-03
-8.733415235281125760e-03
-1.841039446214239039e-02
-2.740072237728141333e-02
-3.559569582280180250e-02
-4.291863945316758827e-02
-4.930164312071499966e-02
-5.471106429123669124e-02
-5.912585836646079562e-02
-6.254246659476052350e-02
-6.497817216022988562e-02
-6.645525968786401838e-02
-6.701206007753060523e-02
-6.669139138150118051e-02
-6.554074085927359683e-02
-6.361193606707776782e-02
-6.095693392907154673e-02
-5.762757817961162987e-02
-5.367557462874011920e-02
-4.915105339992005551e-02
-4.410300512781108184e-02
-3.858059170141804606e-02
-3.263345087690362051e-02
-2.631178015004547940e-02
-1.967050561034862019e-02
-1.276724986283410412e-02
-5.664474709760304420e-03
1.566434792377223526e-03
8.851534926361665639e-03
1.610566596335349585e-02
2.323872949707040877e-02
3.015508316363594427e-02
3.675115458269093832e-02
4.292230156205892322e-02
4.856148559898735423e-02
5.356108935850278224e-02
5.781927809636287080e-02
6.124067450204231933e-02
6.373565404867601036e-02
6.523589076071269199e-02
6.567968308801544475e-02
6.503047088156195532e-02
6.327358299129039187e-02
6.040820025900515977e-02
5.647238037378105036e-02
5.151399815718490927e-02
4.561384178681616997e-02
3.887503058993931060e-02
3.141389620485019601e-02
2.337559238339747755e-02
1.491086090714756340e-02
6.185031154889036181e-03
-2.628943994503298194e-03
-1.135864446313085419e-02
-1.983268864974012044e-02
-2.788235037282453879e-02
-3.535553135913182404e-02
-4.210722005215412206e-02
-4.801028018560164756e-02
-5.296155049464700698e-02
-5.686685147024604647e-02
-5.966747644528891392e-02
-6.131650096049368059e-02
-6.179247667838769220e-02
-6.110058540962549911e-02
-5.925602650036758401e-02
-5.630597443087216603e-02
-5.230608749400241647e-02
-4.733151404675974699e-02
-4.147328626735328344e-02
-3.482855203460776677e-02
-2.751002295672031264e-02
-1.963360438328056595e-02
-1.132130042989636445e-02
-2.698970839087755196e-03
6.107924527451014107e-03
1.497489351615815048e-02
2.377843251264386004e-02
3.240210867074204415e-02
4.073303730417889013e-02
4.866497248420869476e-02
5.610237385728707865e-02
6.295311292616563581e-02
6.913973381451686551e-02
7.459053794915532221e-02
7.924432195745731433e-02
8.305305570694079820e-02
8.597339035084611281e-02
8.797929285110908659e-02
8.905019102218836302e-02
8.917852883083414450e-02
8.836949035539012898e-02
8.663408766611095657e-02
8.400124915308482265e-02
8.050462028122058744e-02
7.619158233153429383e-02
7.111999922100785410e-02
6.535328206720797395e-02
5.896836784013403249e-02
5.204507122186254747e-02
4.467090869950915422e-02
3.693795562824141177e-02
2.893906842553956721e-02
2.076851712332734856e-02
1.251997320396230559e-02
4.281375672034020037e-03
-3.862063703922777487e-03
-1.183187903607893152e-02
-1.955978861115943712e-02
-2.698083196331149333e-02
-3.404383532233106607e-02
-4.070264691008871477e-02
-4.691889935398035893e-02
-5.266337292935896475e-02
-5.790892795390796544e-02
-6.263492260716002624e-02
-6.682243613892153988e-02
-7.045305281220741456e-02
-7.350881924423333103e-02
-7.597084366888022522e-02
-7.781723430928021157e-02
-7.902533023733179784e-02
-7.957003831053598153e-02
-7.942453259479889671e-02
-7.856244880570896483e-02
-7.695861139657989014e-02
-7.458881921031236539e-02
-7.143647127325576662e-02
-6.748924681365747746e-02
-6.274312523591900337e-02
-5.720917477398940187e-02
-5.090332800782468997e-02
-4.386409442267054370e-02
-3.613988300967713868e-02
-2.779498281799757178e-02
-1.891609697377856850e-02
-9.596376113665622265e-03
4.651897169331582066e-05
9.886623808438587541e-03
1.978637771112963517e-02
2.959545990106798169e-02
3.916174720517188318e-02
4.832867735958663175e-02
5.693907940989127725e-02
6.484402104372334608e-02
7.190164500981346962e-02
7.797896632805445538e-02
8.296820034900599661e-02
8.676874937581346980e-02
8.931187933445930427e-02
9.055019604052461091e-02
9.045516510144800681e-02
8.903924053446644893e-02
8.632479910706139514e-02
8.237265217184261412e-02
7.726363401590567725e-02
7.109598251559089144e-02
6.399735744945375671e-02
5.610124381849088820e-02
4.756002068597953852e-02
3.853358574303971523e-02
2.918460898263041878e-02
1.967940497772309102e-02
1.018271416988600006e-02
8.505553303337258855e-04
-8.164188116874342843e-03
-1.672156408686268150e-02
-2.469494637481386284e-02
-3.196490246976538274e-02
-3.843562215137955040e-02
-4.401787423371881364e-02
-4.864288300225935724e-02
-5.225831144495876601e-02
-5.482155924108522010e-02
-5.631515218896229746e-02
-5.672777088313810806e-02
-5.606963676109164713e-02
-5.436446836666363608e-02
-5.164662158765319366e-02
-4.797203020696767101e-02
-4.340171398837210787e-02
-3.801603228960469261e-02
-3.190477973971710818e-02
-2.516693272976496670e-02
-1.791601492402536064e-02
-1.026860718808244796e-02
-2.351694947410552447e-03
5.703872710265424188e-03
1.376556148192279241e-02
2.169875741664706315e-02
2.937018864568353982e-02
3.665310132142474836e-02
4.342307598553676179e-02
4.956713205316302245e-02
5.498332688701108861e-02
5.957718448464533606e-02
6.327758707706435115e-02
6.601990455448319972e-02
6.776307777267782939e-02
6.848378700015669840e-02
6.817092393731723210e-02
6.684306695466823989e-02
6.452586369189797222e-02
6.127000257759444846e-02
5.714084316408928749e-02
5.221401991179515367e-02
4.658463792827544775e-02
4.035144706084566046e-02
3.362372922737842662e-02
2.651548550011349412e-02
1.914082323812666200e-02
1.161397516190920687e-02
4.047563497474307090e-03
-3.454670987320441512e-03
-1.079232599972409015e-02
-1.787450729114405806e-02
-2.462133803859954673e-02
-3.095721129776691713e-02
-3.682152474290522476e-02
-4.215800004592429318e-02
-4.691947327219869041e-02
-5.106701477557221147e-02
-5.456446554341713023e-02
-5.738331221630735279e-02
-5.949680711589055981e-02
-6.088204985583883788e-02
-6.151885114238668517e-02
-6.138896800446728974e-02
-6.047859103717541374e-02
-5.877534794429732645e-02
-5.627433535535113912e-02
-5.297478794293573184e-02
-4.888304730747537047e-02
-4.401817798755707639e-02
-3.840338629573809837e-02
-3.208103272137358131e-02
-2.510177261068888277e-02
-1.753024050665146980e-02
-9.450522760724701377e-03
-9.525711210536785128e-04
7.851218688372997578e-03
1.684091908993782041e-02
2.588509708785304356e-02
3.483983865615664782e-02
4.355908877780351879e-02
5.189102376525846910e-02
5.968283281953508379e-02
6.678837828120146036e-02
7.306717355022107618e-02
7.838700644167403975e-02
8.263889733277375582e-02
8.572060088354381546e-02
8.756079202926815575e-02
8.810856386811535823e-02
8.733192231943621986e-02
8.523942029339731663e-02
8.184955085375747452e-02
7.722001949601757509e-02
7.142867548254493160e-02
6.457172300944108434e-02
5.677596899396399055e-02
4.817440424008904293e-02
3.892048251250313645e-02
2.917568506267534043e-02
1.910480252773369414e-02
8.876919066530382374e-03
-1.340500359280525147e-03
-1.138896112720912471e-02
-2.111317427022648893e-02
-3.037137984439662250e-02
-3.903556176639729619e-02
-4.698499362290964321e-02
-5.412251421045478905e-02
-6.035738675592305924e-02
-6.561801869456174163e-02
-6.984798293775788813e-02
-7.299931897474778997e-02
-7.504554132523916232e-02
-7.596530550536505222e-02
-7.575468097762365349e-02
-7.442049354946563000e-02
-7.197821542119048344e-02
-6.846061377807355353e-02
-6.390473845975207234e-02
-5.836478933172477290e-02
-5.190324651155982932e-02
-4.459276630863424906e-02
-3.652191938871291593e-02
-2.778366071074756319e-02
-1.848835249186234556e-02
-8.752930037957604853e-03
1.295824091447616948e-03
1.151911803743696505e-02
2.177521275652639920e-02
3.191270483042883688e-02
4.177753362300373058e-02
5.121510474634247828e-02
6.007031702319274441e-02
6.819135498443344712e-02
7.543722984319477243e-02
8.167052966108082068e-02
8.677310750263315942e-02
9.064112019317938085e-02
9.318456322249263346e-02
9.434693079878871125e-02
9.408061324145980397e-02
9.237576339663194913e-02
8.924439495364926145e-02
8.471996233856228520e-02
7.887617286817512341e-02
7.179632642347409666e-02
6.360065456228264358e-02
5.442598047606022477e-02
4.442493766522372795e-02
3.377328164848749509e-02
2.265076019995192202e-02
1.124868019424379514e-02
-2.378756148362932282e-04
-1.161679992118691551e-02
-2.269938822018042340e-02
-3.330157682297600619e-02
-4.325729846096441206e-02
-5.240612830458560301e-02
-6.060832545044125830e-02
-6.774257307310249665e-02
-7.369862953416930762e-02
-7.839796568046539238e-02
-8.177026070493677301e-02
-8.377347114225068558e-02
-8.438519587248302645e-02
-8.359706658913730604e-02
-8.143221825827993976e-02
-7.792132927225020600e-02
-7.312350029887076941e-02
-6.711322196734800793e-02
-5.997944211877163923e-02
-5.183649700570051866e-02
-4.280472513910092702e-02
-3.302720797811499465e-02
-2.265659188782721822e-02
-1.185547109738408628e-02
-8.000694388168470492e-04
1.033114794737758496e-02
2.135346969560349487e-02
3.208041562499341220e-02
4.233008764398795559e-02
5.192548949440788097e-02
6.069539784525046500e-02
6.848931171554144270e-02
7.516314776347832183e-02
8.059933800752193400e-02
8.470243338640867647e-02
8.739281650385816169e-02
8.863367009487878312e-02
8.839919095524469139e-02
8.670462855422307602e-02
8.359192938595035038e-02
7.912296076027834635e-02
7.340149169765219916e-02
6.654047666306098230e-02
5.868435115704156296e-02
4.999341983262342581e-02
4.063752623734595559e-02
3.080212564839062209e-02
2.067402601440470819e-02
1.043932155009955065e-02
2.835520878760270508e-04
-9.618440674723113121e-03
-1.910556788760298108e-02
-2.802365323213809947e-02
-3.624630357015869164e-02
-4.365613984751817028e-02
-5.015857123599173906e-02
-5.568182777262586924e-02
-6.016359151140805717e-02
-6.357091697122035923e-02
-6.587846580617431891e-02
-6.707974935616926870e-02
-6.718299553210710373e-02
-6.620296231376908425e-02
-6.417052755714183765e-02
-6.112012592769314190e-02
-5.709626459245950580e-02
-5.214958019771313846e-02
-4.633521470748974691e-02
-3.971717840962676882e-02
-3.236186509945370576e-02
-2.434590671497320613e-02
-1.575083616857463412e-02
-6.665898290050486195e-03
2.807761706397720464e-03
1.256527197767330455e-02
2.248627880080557653e-02
3.244464547144942229e-02
4.230490977576007589e-02
5.192039716874063959e-02
6.114194444547504242e-02
6.981257468780971420e-02
7.777335737021991158e-02
8.486822894679553475e-02
9.094381578466989580e-02
9.585279559209129718e-02
9.946701064660617986e-02
1.016642783162333558e-01
1.023517657443453605e-01
1.014581198599808221e-01
9.893166466250893909e-02
9.476759325547515211e-02
8.897316019832070266e-02
8.160488991264504277e-02
7.274740278818722650e-02
6.251090576036155699e-02
5.105291007640146844e-02
3.854147015710834151e-02
2.518277492031062437e-02
1.119982775891918692e-02
-3.171640547742778961e-03
-1.767756959700856820e-02
-3.206231785441936849e-02
-4.606946780577043932e-02
-5.944280412952857029e-02
-7.193930168597569008e-02
-8.333079118148745135e-02
-9.339913561343687887e-02
-1.019629131382707582e-01
-1.088518692659200676e-01
-1.139334206019068652e-01
-1.171080629780154453e-01
-1.182960259819553633e-01
-1.174732133191967870e-01
-1.146297912221357906e-01
-1.098048988140511023e-01
-1.030712050744355540e-01
-9.452451505507954155e-02
-8.431178029956305775e-02
-7.259153468315911184e-02
-5.956276866451243324e-02
-4.544600632316266736e-02
-3.047717888062588185e-02
-1.491880735313226222e-02
9.622878665718455696e-04
1.688861833466274998e-02
3.257852439073064682e-02
4.775642337659109088e-02
6.215497902616137771e-02
7.551373448315716608e-02
8.760312390125694904e-02
9.820440373084414476e-02
1.071332918245303800e-01
1.142418402409606931e-01
1.194006042165676879e-01
1.225419169027867627e-01
1.236155092370429809e-01
1.226236107093849337e-01
1.196116138900830406e-01
1.146482117104533627e-01
1.078633013270733770e-01
9.940103349300402624e-02
8.944801964967004360e-02
7.821804561699424729e-02
6.593779174556914369e-02
5.286033417267270440e-02
3.924249848560962262e-02
2.534428250702711743e-02
1.142709049190484757e-02
-2.258452359591523427e-03
-1.547933696515635393e-02
-2.801020559205227509e-02
-3.966237229851406892e-02
-5.026174170476446074e-02
-5.966355772953646497e-02
-6.776021118077235617e-02
-7.445662553776657977e-02
-7.970385722084480373e-02
-8.346733856730792489e-02
-8.574094512811779312e-02
-8.654663166396042717e-02
-8.591600852664284249e-02
-8.390960174582993980e-02
-8.059512764510930183e-02
-7.605553630176427327e-02
-7.038550030572900129e-02
-6.368418002387528365e-02
-5.606155633252361825e-02
-4.762990073418101739e-02
-3.850741273395661551e-02
-2.881584428215059820e-02
-1.867915232375384066e-02
-8.225557906555554244e-03
2.415837175996505670e-03
1.311304091254269534e-02
2.373273164671782509e-02
3.414141784655923273e-02
4.420535937865940901e-02
5.379161184869162698e-02
6.277182813885015533e-02
7.101951093249413149e-02
7.841591259412303283e-02
8.485147464816511498e-02
9.022195593209104969e-02
9.444328664577759935e-02
9.743776393183802009e-02
9.914875525296243386e-02
9.953910638639924813e-02
9.858299644976528664e-02
9.628821678281609953e-02
9.267136504212655779e-02
8.777829486998305064e-02
8.167594665991863290e-02
7.444415232843948349e-02
6.619263098949232371e-02
5.703755707536546649e-02
4.711481586661549203e-02
3.657131894839281416e-02
2.555876391795162961e-02
1.423745519785450317e-02
2.768211644860373889e-03
-8.691044710661784828e-03
-1.998378601143859304e-02
-3.096102031206199659e-02
-4.148450216366217358e-02
-5.142028865581729780e-02
-6.065256617212430590e-02
-6.907188800263187878e-02
-7.658223662973646928e-02
-8.310250059775466103e-02
-8.855714262420769090e-02
-9.288937761609758481e-02
-9.604776361752077884e-02
-9.799454382116511153e-02
-9.870380760140813614e-02
-9.815626830024162808e-02
-9.635098897597284273e-02
-9.329188171099124516e-02
-8.900119840777608038e-02
-8.351357951211228758e-02
-7.687460333354700914e-02
-6.915382800370818706e-02
-6.042692989478057330e-02
-5.079477530059149648e-02
-4.037149306740139137e-02
-2.928469644320704293e-02
-1.768502456350600979e-02
-5.728252632886138111e-03
6.411337321464242837e-03
1.855198855583613943e-02
3.050746973801807607e-02
4.208560202653112425e-02
5.309553990571432708e-02
6.335487357746327763e-02
7.268446721131267829e-02
8.092324116886247254e-02
8.792888355628808439e-02
9.357117849801041554e-02
9.776058082807863314e-02
1.004192209497641181e-01
1.015090888666261432e-01
1.010244836766939075e-01
9.897918378855033450e-02
9.543771359770018836e-02
9.047665978975617807e-02
8.421151681616580176e-02
7.678233568768583206e-02
6.834315136151107584e-02
5.907639042292875398e-02
4.916941372144056216e-02
3.882075530750654646e-02
2.823431563789325499e-02
1.761052933884592678e-02
7.144197868235825817e-03
-2.973891022640523345e-03
-1.257391319905725585e-02
-2.149436057015935084e-02
-2.959350958053854133e-02
-3.675433295570933873e-02
-4.286914763502060188e-02
-4.786512309181289310e-02
-5.168031534848908232e-02
-5.427782208328731095e-02
-5.564511166093859262e-02
-5.577990584438540650e-02
-5.471100307003299440e-02
-5.247522061479999861e-02
-4.913124524572227286e-02
-4.475435810191958491e-02
-3.942857786010678378e-02
-3.325910326247696891e-02
-2.635583689735463211e-02
-1.884291404509615478e-02
-1.085286956934884695e-02
-2.522655250020817801e-03
6.002387415974480209e-03
1.457580682661072102e-02
2.305008007206909432e-02
3.127727783812762202e-02
3.911378293129182809e-02
4.642246636056851505e-02
5.306966268188577363e-02
5.893791461849571395e-02
6.391586397453273560e-02
6.790835904685661728e-02
7.083918896923122044e-02
7.264053283846487463e-02
7.327491191067729559e-02
7.271397206541198310e-02
7.095399271264242469e-02
6.801370144225225844e-02
6.392251869054942082e-02
5.874066316728102088e-02
5.253596509248587010e-02
4.539777306886534636e-02
3.743071867805171371e-02
2.874717719130643473e-02
1.947709093188765284e-02
9.753960368317068572e-03
-2.791480073946169330e-04
-1.047389879479881242e-02
-2.068007303086015145e-02
-3.074412809417109357e-02
-4.051248960857402326e-02
-4.983378624728755646e-02
-5.855767988269353075e-02
-6.653877495042848089e-02
-7.363862221902879590e-02
-7.972234040120314280e-02
-8.467066214898866239e-02
-8.836994712141088559e-02
-9.072391858694800471e-02
-9.165530067017559068e-02
-9.109719945901946503e-02
-8.901892321408906572e-02
-8.540050601126647489e-02
-8.025753679977540300e-02
-7.363594605156632833e-02
-6.559987812627483816e-02
-5.626342841362682451e-02
-4.575305349049412634e-02
-3.423585009463749745e-02
-2.190593516887440195e-02
-8.972871075004586194e-03
4.320784180012369850e-03
1.772659673457636573e-02
3.098341295994057679e-02
4.382364821965161611e-02
5.598616940745471809e-02
6.722087854478424329e-02
7.728470721277613809e-02
8.597249460668447696e-02
9.309487472669424057e-02
9.850011935212366065e-02
1.020859728878535377e-01
1.037688122760846571e-01
1.035374908391558380e-01
1.014044699634887442e-01
9.743311223337960958e-02
9.173893295148324856e-02
8.445584130327536687e-02
7.577488186692404870e-02
6.590147155771845788e-02
5.506703773223342591e-02
4.352377412473456414e-02
3.152580037726530893e-02
1.933086324720593649e-02
7.195502036540633688e-03
-4.643698402853260222e-03
-1.596264598320703762e-02
-2.655626438641521189e-02
-3.625818622053538637e-02
-4.491262968767237296e-02
-5.241016433496714644e-02
-5.866390566475779278e-02
-6.361293528795061714e-02
-6.723728064392826831e-02
-6.952678842745366183e-02
-7.050770387394654504e-02
-7.021998346712006456e-02
-6.871906336050125075e-02
-6.607941456357027676e-02
-6.237936661491512436e-02
-5.770907329288195442e-02
-5.216205159010906672e-02
-4.583419659246671524e-02
-3.882368460020506340e-02
-3.122850345395177321e-02
-2.314571369919590088e-02
-1.467210196378336898e-02
-5.903274766133810060e-03
3.066042835311644666e-03
1.214111591050924879e-02
2.122713178013111227e-02
3.022911469797324654e-02
3.905056623729077914e-02
4.759409963326699522e-02
5.576154739041894876e-02
6.345326565149807252e-02
7.056963776426836144e-02
7.701247129364262312e-02
8.268429205122602987e-02
8.749211962821550059e-02
9.134962915246176707e-02
9.417397245542802331e-02
9.589829626444325295e-02
9.646170416826321814e-02
9.581960332459082963e-02
9.394618452176371759e-02
9.082405993847410264e-02
8.646595277311255878e-02
8.089352301503936749e-02
7.415247082362134978e-02
6.631009280531605099e-02
5.744389075791166838e-02
4.766033681649147619e-02
3.707296887884611869e-02
2.581513984352116001e-02
1.403407394054059440e-02
1.883841678173208811e-03
-1.046618790855418507e-02
-2.284375034969529303e-02
-3.506992932785507611e-02
-4.696222453376498740e-02
-5.833923413232232347e-02
-6.902158539657582415e-02
-7.883194963627801477e-02
-8.760540584538231701e-02
-9.518250365689771841e-02
-1.014185741648737787e-01
-1.061894135488121310e-01
-1.093795459406361470e-01
-1.109099056782109766e-01
-1.107141007069326194e-01
-1.087582132533786716e-01
-1.050433562601958831e-01
-9.958633318457875416e-02
-9.245671463096924447e-02
-8.373889929428339485e-02
-7.355766975001340469e-02
-6.207177716460973715e-02
-4.945583553040334285e-02
-3.592667357346590595e-02
-2.171054016902108919e-02
-7.056703933281434880e-03
7.770513137187150254e-03
2.250424116650799264e-02
3.687264040452916530e-02
5.060524721202371706e-02
6.344881910600487507e-02
7.515909489596883652e-02
8.551363911016429675e-02
9.432639003772602670e-02
1.014238194033314638e-01
1.066891347407654261e-01
1.100285070653634484e-01
1.113898696927059229e-01
1.107752523639119191e-01
1.082041501805009742e-01
1.037607913856139763e-01
9.754990643236227665e-02
8.971412552720839373e-02
8.043435885195608648e-02
6.990283419306698998e-02
5.834553044845507824e-02
4.599643484084384171e-02
3.309901686168664064e-02
1.990420151684378983e-02
6.659947847273605705e-03
-6.394179524843823618e-03
-1.902196690783556840e-02
-3.100854445848301791e-02
-4.215218779485919304e-02
-5.226700141912542924e-02
-6.119875942914621003e-02
-6.880171395750660224e-02
-7.496648504963807080e-02
-7.960116458270521944e-02
-8.263616620003252922e-02
-8.403661830714483083e-02
-8.377745164639623099e-02
-8.187283170044366842e-02
-7.835174977776201977e-02
-7.326848857158298201e-02
-6.670800255622048869e-02
-5.876551234525460854e-02
-4.957268913456534115e-02
-3.927217209662181574e-02
-2.802966400855332399e-02
-1.603268020835793561e-02
-3.476359163613628768e-03
9.422140914977075732e-03
2.244066377202464865e-02
3.534967149633574252e-02
4.791419996921675306e-02
5.990217596157394742e-02
7.108896464292460693e-02
8.125342536368554414e-02
9.019783411571007103e-02
9.773801783493586692e-02
1.037110073242979019e-01
1.079935897797132671e-01
1.104744114602404792e-01
1.110957602251458065e-01
1.098241312618161436e-01
1.066617117853919938e-01
1.016626729908257087e-01
9.489586140383421409e-02
8.648662927630031139e-02
7.658016864073219354e-02
6.535130255920935938e-02
5.300850036868740012e-02
3.976822699130294625e-02
2.587172585396710703e-02
1.156659782446105983e-02
-2.896900984189767873e-03
-1.726616697721157501e-02
-3.129368639151210857e-02
-4.474756460756604270e-02
-5.740085559905051815e-02
-6.905220208540814586e-02
-7.951793619499400445e-02
-8.863097885360748940e-02
-9.626152902353299345e-02
-1.022893001285207631e-01
-1.066330580825485402e-01
-1.092326186806954619e-01
-1.100498293099327618e-01
-1.090850449466427563e-01
-1.063484651683820337e-01
-1.018896724556804106e-01
-9.577483894175183032e-02
-8.809267842709031515e-02
-7.896263409601977923e-02
-6.851272766179490603e-02
-5.690254117883932622e-02
-4.430206421762949986e-02
-3.089790108457538334e-02
-1.689432302651186144e-02
-2.500004812595835353e-03
1.206317980947143806e-02
2.657027979751886218e-02
4.079620613506158844e-02
5.451576162482717897e-02
6.750877267074244237e-02
7.956917140490722684e-02
9.049551077818790423e-02
1.001114474452834829e-01
1.082569072173549113e-01
1.147905545303238434e-01
1.196105563021210294e-01
1.226258329609301589e-01
1.237925342799077594e-01
1.230906823578643422e-01
1.205291019304269989e-01
1.161637799270886368e-01
1.100628652185396128e-01
1.023422189450013259e-01
9.313644859969760770e-02
8.260377968468002319e-02
7.093258179585279488e-02
5.831781862046039877e-02
4.497571619116952357e-02
3.112872042767847805e-02
1.700196554967060500e-02
2.823261673493611661e-03
-1.118292237781418758e-02
-2.480404497285475587e-02
-3.783139190177780414e-02
-5.007526936846959376e-02
-6.136075920642738990e-02
-7.152474765513444632e-02
-8.043390830611427122e-02
-8.796254977992158663e-02
-9.401505356406271441e-02
-9.851402166389776338e-02
-1.013988456641957830e-01
-1.026419036646792626e-01
-1.022239535460488374e-01
-1.001600529159758224e-01
-9.648149717937688774e-02
-9.124007469783632085e-02
-8.451898787361021570e-02
-7.641013462818628532e-02
-6.703963544480262549e-02
-5.654629649492452087e-02
-4.508863298390627244e-02
-3.284872116499421013e-02
-2.001507887745825401e-02
-6.797750711001156361e-03
6.587162017632361422e-03
1.991689287888398149e-02
3.296246275448877494e-02
4.549676814796497354e-02
5.729946978539297159e-02
6.815304058210362725e-02
7.785999229682549760e-02
8.623742860133677690e-02
9.311896974335616417e-02
9.837753335511691122e-02
1.018968660359002576e-01
1.036090551987218500e-01
1.034736407781835510e-01
1.014798262426953174e-01
9.767144794521599727e-02
9.210607888599153803e-02
8.489638845005272050e-02
7.617937691446506621e-02
6.611933461064882500e-02
5.491969888400780736e-02
4.279224053210818612e-02
2.997660130390901456e-02
1.672170450389734789e-02
3.280549723649663421e-03
-1.008930469259947810e-02
-2.313404252784836274e-02
-3.561557158200168854e-02
-4.730107674865167283e-02
-5.798319880273868077e-02
-6.747680573863298892e-02
-7.561219061282159482e-02
-8.226327784740694593e-02
-8.731536890762557623e-02
-9.069499719887708089e-02
-9.235676984702077819e-02
-9.227591186508148080e-02
-9.047304450693027800e-02
-8.697948320173931602e-02
-8.186626604218504022e-02
-7.522549818658730292e-02
-6.716828271249698779e-02
-5.783840808962309454e-02
-4.738703039454621874e-02
-3.599210879368636151e-02
-2.384261616074505319e-02
-1.113783060196446573e-02
1.909133490385664725e-03
1.508335714898087140e-02
2.816587818553634506e-02
4.093678619260925078e-02
5.318325173101359771e-02
6.469986942314469303e-02
7.528828005745316632e-02
8.477462920775027944e-02
9.299247916729715124e-02
9.980508996203150962e-02
1.051000051207975766e-01
1.087822494467226148e-01
1.108031628872639535e-01
1.111259363135884415e-01
1.097583525977570140e-01
1.067366197533603511e-01
1.021189786893409029e-01
9.600912789334245523e-02
8.852089143541064242e-02
7.980389867495965572e-02
7.002548429983199152e-02
5.936540321988586361e-02
4.802337452423183911e-02
3.620167333972473811e-02
2.410698186071710478e-02
1.194740734348937773e-02
-7.701146270601075261e-05
-1.177640494351561012e-02
-2.296722782680238675e-02
-3.349158189900697247e-02
-4.319987269471610436e-02
-5.196614965067371250e-02
-5.968767104739780560e-02
-6.627250748149723925e-02
-7.166212057076171149e-02
-7.580671248837640708e-02
-7.868109812921895985e-02
-8.027893023103224723e-02
-8.060402481133480124e-02
-7.968507301422100841e-02
-7.755653288340605411e-02
-7.427187268799126385e-02
-6.989590123918651421e-02
-6.450226807635014992e-02
-5.818169762458254290e-02
-5.102892196798359398e-02
-4.315390209244140268e-02
-3.467367670200518365e-02
-2.571264864061673094e-02
-1.640633878874856941e-02
-6.892586452634570475e-03
2.682998523992730956e-03
1.217210121562541103e-02
2.142622652648082729e-02
3.029667007945153687e-02
3.863703263749836830e-02
4.631062104827643466e-02
5.318407039400956104e-02
5.913964033899503370e-02
6.407395308442885573e-02
6.789395007798711135e-02
7.053739757607842276e-02
7.195045970667976465e-02
7.211077128218318366e-02
7.101852821171682206e-02
6.869006010940498230e-02
6.517908594316608462e-02
6.054799837578796196e-02
5.488972060971666206e-02
4.831419908988521944e-02
4.094315930470418530e-02
3.291958989785403328e-02
2.439018633379112441e-02
1.551160593853923714e-02
6.444710508880905492e-03
-2.651026837590427475e-03
-1.161812500523647096e-02
-2.030166524909386705e-02
-2.855921010743669650e-02
-3.625282417271780133e-02
-4.325772101386118201e-02
-4.946362694446743147e-02
-5.476687305226771857e-02
-5.908652920058955760e-02
-6.234824474812400430e-02
-6.449654630393450438e-02
-6.549220804124639139e-02
-6.530524210575142097e-02
-6.393113263002711544e-02
-6.137191014598313010e-02
-5.765298232504990905e-02
-5.281545086430355224e-02
-4.691279731865713454e-02
-4.002541839161581627e-02
-3.224019974712710734e-02
-2.366901137485261444e-02
-1.443678160752761425e-02
-4.680142681376010284e-03
5.444424454358827263e-03
1.577649473327843652e-02
2.614280890009278158e-02
3.636502187810958936e-02
4.626441364786135907e-02
5.566178328289764915e-02
6.438083756434226368e-02
7.225938797759831611e-02
7.914030213237897848e-02
8.488678452383338624e-02
8.938305705682071667e-02
9.252553505996306826e-02
9.425104732857568501e-02
9.450782988430879439e-02
9.328122161404835133e-02
9.058646336585780834e-02
8.645614267406367959e-02
8.096769189770373909e-02
7.420905735576913131e-02
6.630124809916905504e-02
5.738601768156783439e-02
4.761655624102777845e-02
3.716912221602597377e-02
2.622390516976029484e-02
1.496964680293285874e-02
3.599165229913912217e-03
-7.697720516859084088e-03
-1.873603032797501941e-02
-2.933404440357023982e-02
-3.932683536689433879e-02
-4.855610531015825543e-02
-5.687946810409805903e-02
-6.417428623958090772e-02
-7.032568997300794877e-02
-7.524785913651749203e-02
-7.886408947296250083e-02
-8.112040167213661890e-02
-8.198480663391274903e-02
-8.143577419737080270e-02
-7.948369625148667128e-02
-7.614744187923093433e-02
-7.147227454085877674e-02
-6.552337581358376462e-02
-5.837838372484238647e-02
-5.014519338425783845e-02
-4.093881279744143037e-02
-3.089876525175716190e-02
-2.017897695973069547e-02
-8.943218201949074825e-03
2.626041735282006254e-03
1.434297691303110939e-02
2.601273363698551264e-02
3.743644469235438144e-02
4.841755343208584833e-02
5.876298655328436593e-02
6.828335876771934876e-02
7.680799495797700771e-02
8.417333371609739268e-02
9.023780745255026436e-02
9.488540756887176020e-02
9.801225268230180643e-02
9.955851151365839591e-02
9.947762108642026202e-02
9.776030385836516345e-02
9.443106642895811309e-02
8.953092743384244434e-02
8.314830035875725445e-02
7.538325593712374983e-02
6.636877446872926911e-02
5.626107238781623276e-02
4.522731787366559425e-02
3.345930548723675957e-02
2.115334260267207750e-02
8.514837098263196985e-03
-4.245863354153539722e-03
-1.692070264567779175e-02
-2.930585348689924638e-02
-4.120023538250442569e-02
-5.241851499082879340e-02
-6.278226679557816214e-02
-7.212777322981173134e-02
-8.031185004037569297e-02
-8.719875215816991210e-02
-9.268282543796681205e-02
-9.666885798779173422e-02
-9.908558169692122108e-02
-9.988777922041680579e-02
-9.904169079416280663e-02
-9.655230873372391831e-02
-9.243574013897844222e-02
-8.674049243277943966e-02
-7.954256365806476603e-02
-7.093314286152538339e-02
-6.104464243830734493e-02
-5.001951378481506866e-02
-3.803213004783679435e-02
-2.527796464675689803e-02
-1.196431415933659967e-02
1.676425676087258711e-03
1.540745196802549913e-02
2.898269031963978531e-02
4.215141854435109497e-02
5.466839042199572729e-02
6.629765841157020390e-02
7.680909561561614918e-02
8.600369409050064029e-02
9.369536342050556466e-02
9.972960303258011916e-02
1.039931984595322267e-01
1.063890429341351473e-01
1.068828621430275710e-01
1.054608547946286889e-01
1.021559205064641734e-01
9.704853551064125672e-02
9.023748770219620907e-02
8.187884915930573881e-02
7.214342352924661694e-02
6.123422341258630275e-02
4.937983758422438696e-02
3.681623312178508578e-02
2.379723468281910032e-02
1.057930849579170884e-02
-2.584502267612872640e-03
-1.544333354484241430e-02
-2.775660749665949042e-02
-3.930469899496723263e-02
-4.987475869394869532e-02
-5.928725748024937792e-02
-6.737886320886606051e-02
-7.401002601676781589e-02
-7.907852587392757981e-02
-8.249316191261121811e-02
-8.420792176424829467e-02
-8.419402968645900431e-02
-8.245256906658346430e-02
-7.902114700027314254e-02
-7.394968425148322477e-02
-6.733219562711419137e-02
-5.927611422331072188e-02
-4.991787431192622887e-02
-3.942157477059225756e-02
-2.796184061131342866e-02
-1.574425855250546208e-02
-2.981837589412208479e-03
1.009719585764076548e-02
2.325331159180175564e-02
3.624597719183943190e-02
4.883283265396452799e-02
6.077278171789196604e-02
7.184016282037623824e-02
8.181835263975142936e-02
9.050826259702474119e-02
9.774402130213041828e-02
1.033702467669685016e-01
1.072807815036689039e-01
1.093919107393663548e-01
1.096548853932137607e-01
1.080723317775930115e-01
1.046619848035632433e-01
9.950098752722909279e-02
9.268759452169564317e-02
8.435356761702104966e-02
7.466904491160655799e-02
6.381418035055780313e-02
5.200118329909701742e-02
3.945080180552994892e-02
2.639170164361823168e-02
1.305961723403516010e-02
-3.126560378798725476e-04
-1.350204408477453585e-02
-2.628894587582079542e-02
-3.847471048323499593e-02
-4.987529560038677506e-02
-6.032067857508355280e-02
-6.967263593221609264e-02
-7.780098700811616252e-02
-8.460813434338053385e-02
-9.001418554400289485e-02
-9.395684783030959497e-02
-9.640484178518796132e-02
-9.733462272625062472e-02
-9.675314929864152480e-02
-9.468033913215330444e-02
-9.115360868685322415e-02
-8.623443466270250268e-02
-7.999138645549122573e-02
-7.251976391722679549e-02
-6.392386309777180198e-02
-5.432491587809185757e-02
-4.386231811521403012e-02
-3.268169793156232988e-02
-2.094874517430531796e-02
-8.834442322370284623e-03
3.480346336276262092e-03
1.580649533979422774e-02
2.795399898085030796e-02
3.973107724076007513e-02
5.094649253353744633e-02
6.141903324205955084e-02
7.097406235402002606e-02
7.944838263030554182e-02
8.670324963200663759e-02
9.260735343831341670e-02
9.706521272897343511e-02
9.999965545770625464e-02
1.013586348126851860e-01
1.011316333927650413e-01
9.931967470980790358e-02
9.597111082322994091e-02
9.115312810734552129e-02
8.495939136069582953e-02
7.751765671387718382e-02
6.896414226394093072e-02
5.946387637522829867e-02
4.919060090606952595e-02
3.832648787489340708e-02
2.706217475276029294e-02
1.558726005644268248e-02
4.086429708741399700e-03
-7.257619570442395453e-03
-1.827629590229488260e-02
-2.881205969759994753e-02
-3.871671220699005045e-02
-4.786587879804123091e-02
-5.614120637387683133e-02
-6.344734175551207389e-02
-6.970297726800632476e-02
-7.483832576305617101e-02
-7.880638834135135495e-02
-8.156558405669893375e-02
-8.309517207449325371e-02
-8.338434839772866647e-02
-8.243396838476287070e-02
-8.026290885235445871e-02
-7.689523413025933785e-02
-7.237587836991329904e-02
-6.675765373541620029e-02
-6.010796689568727313e-02
-5.251182387758483033e-02
-4.406050277445713870e-02
-3.486774076463437788e-02
-2.505401167157668071e-02
-1.475424235127362205e-02
-4.116950638862586394e-03
6.704968947425904609e-03
1.754617841351146026e-02
2.823872916737297720e-02
3.861327351079495845e-02
4.849945325353260950e-02
5.773150532581221295e-02
6.615498242982323363e-02
7.361948844611709841e-02
7.999768896343782687e-02
8.517549767812060413e-02
8.905719871307303526e-02
9.158128617872020316e-02
9.269592676968443912e-02
9.239151632539142900e-02
9.067735358099821008e-02
8.758838857627751495e-02
8.319670835348952354e-02
7.758402783196034769e-02
7.086773585523983843e-02
6.317754868243266597e-02
5.465815046915667441e-02
4.547112306640681278e-02
3.578039055658309431e-02
2.575560265535397839e-02
1.556745622129972889e-02
5.379636316136672536e-03
-4.650348707193665936e-03
-1.437157424900982125e-02
-2.365224168996202594e-02
-3.236570780536238146e-02
-4.040529869987240924e-02
-4.767805351410450698e-02
-5.410081824482638330e-02
-5.961220328206383312e-02
-6.415581801219673308e-02
-6.769308939204252140e-02
-7.019497451744551031e-02
-7.164083829884264343e-02
-7.202463269908856991e-02
-7.134398637756168837e-02
-6.961107106942632239e-02
-6.684418399465698324e-02
-6.307139735008694681e-02
-5.833403693223929154e-02
-5.267802259681995253e-02
-4.616723939383270831e-02
-3.887161616156530747e-02
-3.087440029549530854e-02
-2.227292120412633150e-02
-1.316987470096168608e-02
-3.685295026176703924e-03
6.056207423118881161e-03
1.592053501296887205e-02
2.576577122530148908e-02
3.544861010729891820e-02
4.482252188338068516e-02
5.374101281239373334e-02
6.206441560909683325e-02
6.965748304351579434e-02
7.639365967443628724e-02
8.216471403667557905e-02
8.686802828478824845e-02
9.042805127726319392e-02
9.278286547893975500e-02
9.388914957409667805e-02
9.373387783297947029e-02
9.231231410335183352e-02
8.965320981506659515e-02
8.579844486049797991e-02
8.080815791271138415e-02
7.476566219005292835e-02
6.776009981577101049e-02
5.990037777508832456e-02
5.130135114904988552e-02
4.208494043444576532e-02
3.238006072226513182e-02
2.231637432414545347e-02
1.202508120827460239e-02
1.637535529345248916e-03
-8.717534327342332801e-03
-1.891342865901801326e-02
-2.882531264995090783e-02
-3.833305029535113290e-02
-4.731770012125253999e-02
-5.566497847966823259e-02
-6.326341438761903802e-02
-7.000500555089822496e-02
-7.578855068600656719e-02
-8.051526554872176500e-02
-8.409868782074184090e-02
-8.645824555222179908e-02
-8.752594537279514975e-02
-8.725299855673122884e-02
-8.559797995968110307e-02
-8.255188498266008423e-02
-7.811792463986623469e-02
-7.232646156170981222e-02
-6.524013843029201343e-02
-5.693388333564742415e-02
-4.752663392994117830e-02
-3.715038793490074709e-02
-2.596582934112269883e-02
-1.416023432656201772e-02
-1.929487785465267176e-03
1.050633795003981172e-02
2.292214040423095830e-02
3.508966307496769882e-02
4.677839855848551359e-02
5.776544323477122989e-02
6.784635645143662075e-02
7.682312951105095544e-02
8.453342233863096744e-02
9.083507752851033290e-02
9.561205772084926946e-02
9.879623483830937691e-02
1.003322439624203949e-01
1.002180138244563312e-01
9.847491832458589445e-02
9.515290676141177628e-02
9.034269674808505235e-02
8.414451457499935727e-02
7.669189531592725262e-02
6.812960119005082027e-02
5.861297712604256194e-02
4.830914445374532434e-02
3.738570223204553539e-02
2.600970469230302548e-02
1.434761887560759633e-02
2.557725612605538188e-03
-9.208801330222952247e-03
-2.080552242340696564e-02
-3.209928352126011769e-02
-4.296011779401744113e-02
-5.326729053284087051e-02
-6.290630960454025866e-02
-7.176566935103347034e-02
-7.974031020524728619e-02
-8.672661226267426582e-02
-9.262591231565527050e-02
-9.734219062930708766e-02
-1.007842333705992049e-01
-1.028690880104502492e-01
-1.035173727157341350e-01
-1.026675683847454584e-01
-1.002657431013079248e-01
-9.627689630355031059e-02
-9.069134564470453241e-02
-8.351002665956212823e-02
-7.477673564177539367e-02
-6.454967368102303149e-02
-5.292289505098599772e-02
-4.002782485058420381e-02
-2.601162880243721234e-02
-1.107234757711013373e-02
4.578419816350113615e-03
2.069660915609386823e-02
3.701177637467124859e-02
5.324510614763320465e-02
6.909690442848298586e-02
8.426436385185739897e-02
9.844959836691734301e-02
1.113579247894060376e-01
1.227105894448017182e-01
1.322620844264488782e-01
1.397782687597313722e-01
1.450834544319363761e-01
1.480310495062711340e-01
1.485188678612898439e-01
1.465160663540493180e-01
1.420125856569368350e-01
1.350842432036635510e-01
1.258401675950809318e-01
1.144403280347220386e-01
1.011083135320695464e-01
8.608479351968371940e-02
6.966905380153202987e-02
5.217778158417969020e-02
3.394881140670019670e-02
1.534061564414892012e-02
-3.288457471195536420e-03
-2.158337356262695142e-02
-3.919162812305336530e-02
-5.578761145354303036e-02
-7.106620619536098415e-02
-8.474425263987234169e-02
-9.659331998372405748e-02
-1.063997272783977349e-01
-1.140131694256443506e-01
-1.193209916589276914e-01
-1.222474281220228276e-01
-1.227877956940187365e-01
-1.209549309268735384e-01
-1.168313331900283497e-01
-1.105317174680135045e-01
-1.022058666019773771e-01
-9.205621653367720980e-02
-8.029711444781063856e-02
-6.718483086917258207e-02
-5.299051241384634958e-02
-3.799795679021189532e-02
-2.250577846798676798e-02
-6.812086180236838658e-03
8.790629123476490642e-03
2.401241528395484451e-02
3.858450392437359766e-02
5.225748903693069186e-02
6.479710978003404287e-02
7.601427833992360772e-02
8.573220674479825609e-02
9.382053362861735024e-02
1.001819916756068740e-01
1.047433752231818754e-01
1.074869475051053735e-01
1.084080853871530192e-01
1.075499745896872639e-01
1.049823328436962355e-01
1.007961023198538919e-01
9.512040041386893297e-02
8.809222355129382731e-02
7.987499701413713904e-02
7.064344735627307859e-02
6.057886012036187845e-02
4.987171598632986202e-02
3.871219032798092069e-02
2.728532237390741619e-02
1.577404892899027591e-02
4.348828065217495362e-03
-6.833577626634471276e-03
-1.762374310425954965e-02
-2.789784859353584487e-02
-3.753940818876331381e-02
-4.645239297973428882e-02
-5.455827914690276198e-02
-6.178656078363137238e-02
-6.808839540597177997e-02
-7.341993169511575046e-02
-7.775037511588442363e-02
-8.105763397953877347e-02
-8.332393464012165241e-02
-8.454070816445752312e-02
-8.470144704836513050e-02
-8.380683255679557964e-02
-8.186130746561670612e-02
-7.887470019565691326e-02
-7.486595191953133999e-02
-6.985729567848246446e-02
-6.388631354417007024e-02
-5.699695573974193630e-02
-4.924665313327266508e-02
-4.071060484382099665e-02
-3.147045423357109489e-02
-2.163275611296056403e-02
-1.131214770559317226e-02
-6.394951556064698908e-04
1.023765998853552912e-02
2.116696421264016234e-02
3.198157408518233907e-02
4.251136329966510863e-02
5.258550031410184206e-02
6.203259808914463047e-02
7.068687366032881669e-02
7.839772332467380422e-02
8.501956791664923296e-02
9.043433012066687260e-02
9.454115747716902718e-02
9.725915059080519898e-02
9.854801957810235824e-02
9.837818235531563260e-02
9.676553999215491142e-02
9.374816907712206493e-02
8.938890661911522151e-02
8.378973977562788333e-02
7.706160916076974787e-02
6.934772648935701167e-02
6.080338440178009729e-02
5.159375742292419964e-02
4.189620010615102003e-02
3.188808473136806043e-02
2.174353592965775836e-02
1.163516093315516628e-02
1.722224624614839515e-03
-7.848846082261135004e-03
-1.694009446066127231e-02
-2.543994174319831950e-02
-3.324385461874082570e-02
-4.027002846041322776e-02
-4.645370994226811351e-02
-5.173981339454892386e-02
-5.609650522603254474e-02
-5.949716882809751028e-02
-6.193161369084752843e-02
-6.339924593422716081e-02
-6.390626817010335026e-02
-6.347172808786975817e-02
-6.211772502874648993e-02
-5.987808430025301498e-02
-5.679200803934392888e-02
-5.290627621844076062e-02
-4.827889598494815304e-02
-4.297141885811648493e-02
-3.705977505007083950e-02
-3.062508848663303071e-02
-2.375786341189296824e-02
-1.655944061042013277e-02
-9.134189794437998916e-03
-1.596409339167001798e-03
5.936991820587280387e-03
1.334775164135774614e-02
2.051639087396585348e-02
2.732633914413806417e-02
3.367011806222842962e-02
3.944332187308596110e-02
4.455886619701553836e-02
4.894185132161989193e-02
5.252973699190170709e-02
5.528829832516158477e-02
5.719058780858755214e-02
5.823967973640224033e-02
5.845508638412137692e-02
5.787107678504595232e-02
5.654812119686861149e-02
5.455194016248722522e-02
5.196536320400991366e-02
4.887836286297450594e-02
4.538221193497419398e-02
4.156995833506388349e-02
3.753220516263033879e-02
3.334652717841059960e-02
2.908579608837867994e-02
2.480707680631080020e-02
2.055033367930626798e-02
1.634841763835744380e-02
1.221042386924842647e-02
8.139116479787385228e-03
4.125250494290346077e-03
1.494549830272579385e-04
-3.808243152511857528e-03
-7.768632974824606595e-03
-1.175158061484149821e-02
-1.576427057848463209e-02
-1.980551861284425216e-02
-2.386289886354501719e-02
-2.789981231434733241e-02
-3.187351030653725464e-02
-3.571595007530985882e-02
-3.934615739674336005e-02
-4.267319007495572192e-02
-4.558955996590100673e-02
-4.798594503967759661e-02
-4.975143071914633897e-02
-5.077479330260302459e-02
-5.095677918994970246e-02
-5.021370408028953680e-02
-4.847105421004423847e-02
-4.569240598541618459e-02
-4.185400230104736885e-02
-3.696783436313351434e-02
-3.108210491197163985e-02
-2.426112197798150488e-02
-1.662019562785596941e-02
-8.287932688864876191e-03
5.746725251993397773e-04
9.781053961169659111e-03
1.913662621007301487e-02
2.842733069894561385e-02
3.743637545435728881e-02
4.595203107630271844e-02
5.376576789870875228e-02
6.068323499208180816e-02
6.653878402728742592e-02
7.117618764599072112e-02
7.448582609055567905e-02
7.638059576244478344e-02
7.680580862450619994e-02
7.575736087778142669e-02
7.324507074320830979e-02
6.933392212536508559e-02
6.410961357356845247e-02
5.768707252218067960e-02
5.021676909714702097e-02
4.185788262863016779e-02
3.279808547208570152e-02
2.323314276182391475e-02
1.336633584047856177e-02
3.408073710338827868e-03
-6.433079001662496930e-03
-1.595549630261725027e-02
-2.496022402596006357e-02
-3.326600571715435106e-02
-4.070468915557381995e-02
-4.712134610157676928e-02
-5.239299715992081635e-02
-5.640527434641748328e-02
-5.908111427706291829e-02
-6.036500239729129802e-02
-6.022422460789826626e-02
-5.866878670558750564e-02
-5.571965693481940873e-02
-5.144264327323701258e-02
-4.592373796114945089e-02
-3.927320661944979502e-02
-3.163674624668368074e-02
-2.316851026644201408e-02
-1.405292921483716415e-02
-4.484883650978888255e-03
5.331052714388514677e-03
1.517927123029724767e-02
2.484476367071649858e-02
3.411735587252332641e-02
4.278907899916557095e-02
5.067049212244766759e-02
5.758861337172097028e-02
6.338440521544841388e-02
6.793935294906758293e-02
7.114600287677776136e-02
7.294052402545901648e-02
7.328930663300664561e-02
7.218187496175770823e-02
6.965963797234893395e-02
6.577610282085184779e-02
6.062868176802436310e-02
5.433843819334456537e-02
4.704397435743251643e-02
3.891452141964930889e-02
3.012464332435148620e-02
2.086358750543789234e-02
1.132655563205910848e-02
1.706234588884987264e-03
-7.808158965141064230e-03
-1.703164985243690172e-02
-2.579911323756786320e-02
-3.395237076256357733e-02
-4.135360889043043081e-02
-4.788673251624486760e-02
-5.344517733698520706e-02
-5.795400887013339719e-02
-6.134702507008425731e-02
-6.358081751758670741e-02
-6.463093269265017538e-02
-6.448217035928337226e-02
-6.314375781342983218e-02
-6.063081267138796526e-02
-5.697735011266328448e-02
-5.222964144047283902e-02
-4.644348218490139402e-02
-3.969466189884640617e-02
-3.206398276234503908e-02
-2.365256113716378630e-02
-1.457179873310813015e-02
-4.944646702084402358e-03
5.086986488815575629e-03
1.537662613202145021e-02
2.576058453273158064e-02
3.606846939229645804e-02
4.612429865980176985e-02
5.574494129244820378e-02
6.474784159797809802e-02
7.295525433012252370e-02
8.019150011642874054e-02
8.629651762916469571e-02
9.112584220037331373e-02
9.454679842997348871e-02
9.646518060393080574e-02
9.679783185434286119e-02
9.550309529609654624e-02
9.257163701218758256e-02
8.801614097563319195e-02
8.190468637612137448e-02
7.431867298165807656e-02
6.538597998437059577e-02
5.526267265279227042e-02
4.412329640572489053e-02
3.217858506644737104e-02
1.964582200434066353e-02
6.759561733531887877e-03
-6.237662676291844295e-03
-1.910611542404679758e-02
-3.161044810743327688e-02
-4.352021037538844617e-02
-5.463075644638949735e-02
-6.474739620619936187e-02
-7.370221321076078635e-02
-8.135939920951194837e-02
-8.759609319048747289e-02
-9.233664107233585661e-02
-9.551964392314440944e-02
-9.711743188962609907e-02
-9.713387240880906603e-02
-9.558584119403421009e-02
-9.252810550014943514e-02
-8.802475459818685788e-02
-8.216369905553370934e-02
-7.505021008956680451e-02
-6.679783160434531186e-02
-5.753929603210244936e-02
-4.741136802192227190e-02
-3.656218191395073369e-02
-2.514631310009859955e-02
-1.332172301493523767e-02
-1.252558100850825924e-03
1.089616265194293457e-02
2.295802897792594000e-02
3.476607957147288819e-02
4.615591329522908404e-02
5.696682844050143107e-02
6.704057501672666675e-02
7.623032940520935163e-02
8.439350283853810919e-02
9.140113785137038427e-02
9.713958294152703898e-02
1.015033850929504960e-01
1.044163428000707550e-01
1.058110431252252126e-01
1.056483946917554650e-01
1.039141042416728139e-01
1.006083113927920825e-01
9.577169717906859614e-02
8.945516209564471910e-02
8.174335603352500534e-02
7.274396241265669583e-02
6.257894423519941296e-02
5.140163986961194392e-02
3.937194535450816435e-02
2.666972583135904587e-02
1.348540783516119848e-02
1.393642298410605745e-05
-1.354203343109948443e-02
-2.697969053360913319e-02
-4.010027563677422136e-02
-5.270687701608701980e-02
-6.461168843068003376e-02
-7.563919329543428161e-02
-8.561944611606168987e-02
-9.440550087150717529e-02
-1.018582450485708141e-01
-1.078590127808780885e-01
-1.123106340673376558e-01
-1.151262036908808351e-01
-1.162527597347149527e-01
-1.156469509874756413e-01
-1.132954152805861203e-01
-1.092093788856752928e-01
-1.034152636164418076e-01
-9.597958416628932232e-02
-8.697887637866302812e-02
-7.652545321654830035e-02
-6.475449524317226924e-02
-5.181820212119738617e-02
-3.790395718933770031e-02
-2.320683781596758616e-02
-7.948427496887087995e-03
7.636567795040800043e-03
2.330581664752705284e-02
3.880472117880743449e-02
5.387836195517154564e-02
6.827670291505018307e-02
8.175199441466382555e-02
9.407313848273571311e-02
1.050300731318554309e-01
1.144243083356690366e-01
1.221037074871909184e-01
1.279312522267322672e-01
1.318143837793820661e-01
1.337043100068335544e-01
1.335737927782720547e-01
1.314627005263496462e-01
1.274285825450552356e-01
1.215796735775363652e-01
1.140631083952562408e-01
1.050449876462353216e-01
9.473771706954391136e-02
8.336326038004324146e-02
7.116656435502148603e-02
5.840625046433923356e-02
4.534202894292817948e-02
3.223539866366309514e-02
1.934559019121609436e-02
6.913079204359944691e-03
-4.830598976608602331e-03
-1.567433377775740225e-02
-2.543802348266151550e-02
-3.395215458249612600e-02
-4.109202636480985965e-02
-4.674955869219874632e-02
-5.084854352610392730e-02
-5.335044590698166667e-02
-5.422991320489559813e-02
-5.350784544679782623e-02
-5.121881486259396293e-02
-4.742778179310320336e-02
-4.222771651780681673e-02
-3.572287955476704385e-02
-2.804990414591773326e-02
-1.935320974278900014e-02
-9.796185712289483261e-03
4.441562178867375366e-04
1.118587885468914217e-02
2.223594977982445986e-02
3.339975862310556876e-02
4.448317412301202450e-02
5.529239273355235351e-02
6.563977799828904502e-02
7.534902679352256660e-02
8.424822411696814006e-02
9.218759662160681823e-02
9.902719173514432094e-02
1.046454412246103499e-01
1.089468838002129597e-01
1.118447615645411369e-01
1.132871704753583841e-01
1.132343250109652394e-01
1.116697346201307173e-01
1.086026911418986191e-01
1.040509737200574769e-01
9.806021835963310562e-02
9.068360611189306419e-02
8.198793940676828151e-02
7.205177462423739687e-02
6.095624889824881321e-02
4.878894111316729731e-02
3.563847502522772548e-02
2.159187212900872538e-02
6.735069873248869694e-03
-8.847970219843639961e-03
-2.507765356681115193e-02
-4.187504733162773080e-02
-5.916183697976797051e-02
-7.685997489410469063e-02
-9.488710560648234982e-02
-1.131534732270136068e-01
-1.315658036959161392e-01
-1.500128343943590847e-01
-1.683757834983494739e-01
-1.865202019708040448e-01
-2.042908122463338305e-01
-2.215256828601583905e-01
-2.380378096393042375e-01
-2.536321919959553250e-01
-2.681024296645239668e-01
-2.812303087623370668e-01
-2.927971154427914668e-01
-3.025843070384151567e-01
-3.103743566261090714e-01
-3.159654672447474999e-01
-3.191685653446030280e-01
-3.198085381577737141e-01
-3.177473513345728806e-01
-3.128571303044491159e-01
-3.050536177715178487e-01
-2.942800627863522145e-01
-2.805043151510961397e-01
-2.637445346953144476e-01
-2.440308345649118416e-01
-2.214391491072998097e-01
-1.960678872889526636e-01
-1.680366006369657661e-01
-1.374985226432599295e-01
-1.046144045578406429e-01
-6.957172905937711316e-02
-3.256822170748806256e-02
6.185009148065904148e-03
4.646020688309504543e-02
8.802337199554143010e-02
1.306173176958996818e-01
1.739772566372971285e-01
2.178135627051631107e-01
2.618125045146391106e-01
3.056450057413211407e-01
3.489339007785527969e-01
3.912887571893132188e-01
4.322724704074830671e-01
4.714126182865799319e-01
5.082162792141994290e-01
5.421407536602887989e-01
5.726335210845079349e-01
5.991210940143761876e-01
6.210178092967094665e-01
6.377510838238258373e-01
6.487740206392672571e-01
6.535551215878523390e-01
6.516554902353633993e-01
6.426797579730750831e-01
6.263312988970421991e-01
6.024612418428177962e-01
5.709749506063582780e-01
5.320099940501596958e-01
4.857892885428614638e-01
4.327118281150912904e-01
3.733817838216016427e-01
3.084745755577695814e-01
2.389122745624780719e-01
1.656873807333725246e-01
8.992285629183562057e-02
1.286019581429504420e-02
-6.423766588275357792e-02
-1.400545192671820427e-01
-2.132694616261590626e-01
-2.826359590666593369e-01
-3.469603785719465039e-01
-4.051406857742173018e-01
-4.562884244023627800e-01
-4.995765026145873033e-01
-5.344645379668920837e-01
-5.605708469818150297e-01
-5.776887453054512234e-01
-5.859256245747008762e-01
-5.854654168996255015e-01
-5.767901049928066959e-01
-5.605095664692366642e-01
-5.373635121814418492e-01
-5.082731095074951577e-01
-4.741910906289406036e-01
-4.361621126699395390e-01
-3.952592019890621144e-01
-3.525308178420356597e-01
-3.089985958134314759e-01
-2.656458562401858847e-01
-2.233142843721507009e-01
-1.828024371365877809e-01
-1.447480971826591578e-01
-1.096522392724263162e-01
-7.793452731081494667e-02
-4.979239628881281660e-02
-2.536910685410044206e-02
-4.636081090751270443e-03
1.254917166633445248e-02
2.639278995640863615e-02
3.723639786098511401e-02
4.544698505949783945e-02
5.145480086752633048e-02
5.572234834224559785e-02
5.870860979937159163e-02
6.086617383022432243e-02
6.263628305758267567e-02
6.439217103971028866e-02
6.647878889990317675e-02
6.917285268273640209e-02
7.266164369587191363e-02
7.710060000761784216e-02
8.252315684960956355e-02
8.892347871654808500e-02
9.621891177112389115e-02
1.042483205423269943e-01
1.128266733205483680e-01
1.216966213725697021e-01
1.305834898105706077e-01
1.391926120921865018e-01
1.472134228800773825e-01
1.543435418414287885e-01
1.603037396007768733e-01
1.648237508075038604e-01
1.676894859541088190e-01
1.687218428020016425e-01
1.677827643926558532e-01
1.648172565649773103e-01
1.597916923999876671e-01
1.527611572332531475e-01
1.438236884763697820e-01
1.331221963758363880e-01
1.208701093697249346e-01
1.072959397748746296e-01
9.268010860922834548e-02
7.732221781845466380e-02
6.153305780409582676e-02
4.563712177827121408e-02
2.995565234951104439e-02
1.479194911850272715e-02
4.427868140464115768e-04
-1.282921296398659844e-02
-2.479410314190082579e-02
-3.524270395609668122e-02
-4.402997601854614917e-02
-5.102816164384810227e-02
-5.616768781603675292e-02
-5.942238895986048930e-02
-6.079309541269889428e-02
-6.034544986554521429e-02
-5.815992642400559520e-02
-5.436603473360877847e-02
-4.912174966460317038e-02
-4.260327248957303248e-02
-3.502099270001587938e-02
-2.659135116413943387e-02
-1.754685393782388567e-02
-8.127095369744114645e-03
1.430498003495575890e-03
1.089175050688019619e-02
2.002690735084961676e-02
2.862877701728474417e-02
3.649863837375656034e-02
4.346338656819546953e-02
4.937934613901702463e-02
5.411636708528640149e-02
5.759269861245205901e-02
5.974094759836623414e-02
6.053281704244370398e-02
5.997503157516714117e-02
5.809083400650880830e-02
5.495022194838430213e-02
5.063444960776905535e-02
4.525510599380089954e-02
3.894494804865746701e-02
3.184548805597997578e-02
2.411758632798392116e-02
1.592513658148059924e-02
7.434715790176942701e-03
-1.185720770052414545e-03
-9.774380842351906157e-03
-1.818049490954586414e-02
-2.625763313568480264e-02
-3.388094357807178159e-02
-4.093484367881705666e-02
-4.731955899092440965e-02
-5.295712360519810868e-02
-5.777601995833323012e-02
-6.172910394682044888e-02
-6.477738095512340644e-02
-6.689532476862776467e-02
-6.807189523516368745e-02
-6.830045507077311950e-02
-6.758826678891698136e-02
-6.594633690190028485e-02
-6.339368034078410319e-02
-5.995602939467148396e-02
-5.566260518787476824e-02
-5.055195403124182474e-02
-4.466508580135369194e-02
-3.805264856830478659e-02
-3.077160265911290868e-02
-2.288514597254150823e-02
-1.446974818856811354e-02
-5.605399877075346003e-03
3.612794296158780560e-03
1.308201135833274298e-02
2.269082132283942524e-02
3.231354476967061157e-02
4.182126862219340963e-02
5.107334317868280488e-02
5.992454690246398069e-02
6.822739462199479965e-02
7.583148634611827643e-02
8.258805810841017558e-02
8.835686264052339256e-02
9.300082172472338982e-02
9.639899553331299220e-02
9.844669911401628115e-02
9.905016205067675161e-02
9.815126692451756063e-02
9.570204832877654555e-02
9.169097505573482743e-02
8.613513655230228827e-02
7.907048032097092893e-02
7.058074675659638253e-02
6.076118930644636151e-02
4.974699904940988598e-02
3.769779993213007163e-02
2.478957775741496422e-02
1.123064795507336920e-02
-2.764490129854291038e-03
-1.696347799880394691e-02
-3.112557572918063856e-02
-4.500967627974231111e-02
-5.837417580343577661e-02
-7.098050147120621434e-02
-8.260779824095326740e-02
-9.304222755583338444e-02
-1.020926855029489072e-01
-1.095955701695598278e-01
-1.154001923066858976e-01
-1.194044681653366330e-01
-1.215214621168664577e-01
-1.217065776814184597e-01
-1.199551482457409113e-01
-1.162821764252618267e-01
-1.107614039560192581e-01
-1.034816097127290863e-01
-9.457550297231540060e-02
-8.420808935503237835e-02
-7.256081967658507825e-02
-5.985373400007522326e-02
-4.631459249909034709e-02
-3.218985918454257689e-02
-1.773662992536135033e-02
-3.211382289063666705e-03
1.113080202146714617e-02
2.503816132018601634e-02
3.828166499790901928e-02
5.064270133694092485e-02
6.192744282767078529e-02
7.197809461827671396e-02
8.064984547284900773e-02
8.785198159155223341e-02
9.351309674354499335e-02
9.760079946012076291e-02
1.001268786460275118e-01
1.011183721834852112e-01
1.006537926749040690e-01
9.882602507629581479e-02
9.575586382194038737e-02
9.158874559557250716e-02
8.647624278030129064e-02
8.058585294152699474e-02
7.408767492612684802e-02
6.714694520855013504e-02
5.992551923117626217e-02
5.257512723773556662e-02
4.522448020467657176e-02
3.799558623689214959e-02
3.097884512523790476e-02
2.424766855291695181e-02
1.785769918937908998e-02
1.183361199061205675e-02
6.193366734894031542e-03
9.312484636059808335e-04
-3.968209327415477862e-03
-8.525647938101912904e-03
-1.276871938171879328e-02
-1.672399276524910369e-02
-2.041020202892316129e-02
-2.384314538861626032e-02
-2.702529809344164993e-02
-2.994500743596056544e-02
-3.258412462801464626e-02
-3.490293669499575785e-02
-3.685604292487353051e-02
-3.838652637654023370e-02
-3.942795328960640999e-02
-3.991343411823287946e-02
-3.977560325446265199e-02
-3.894826291042522565e-02
-3.737965530782669937e-02
-3.502737381265881578e-02
-3.186315303687307920e-02
-2.788855354105555448e-02
-2.311343057301187137e-02
-1.758474114532551300e-02
-1.136811655796838780e-02
-4.549985654083815202e-03
2.749283173601538462e-03
1.040176553853397294e-02
1.825257134225647879e-02
2.613643994484851629e-02
3.388200624125856097e-02
4.131014936284749944e-02
4.824368925521401591e-02
5.451663867560173349e-02
5.996716995519407040e-02
6.445520425787594487e-02
6.786225756497038519e-02
7.008319680350424963e-02
7.105561734126228379e-02
7.072880757631630488e-02
6.908994350677807872e-02
6.615553524490785930e-02
6.195872605818512902e-02
5.657393303627987480e-02
5.008487968719829014e-02
4.260360556209317334e-02
3.425920814459370439e-02
2.519010070076486627e-02
1.555275859627817947e-02
5.506766352882117369e-03
-4.780835942764035014e-03
-1.513957835611037112e-02
-2.539978042376036041e-02
-3.539300194837202013e-02
-4.495246500889830271e-02
-5.392021567335862631e-02
-6.214172783412916234e-02
-6.947292234615895512e-02
-7.578217755159764868e-02
-8.094409761306819995e-02
-8.485661407870757900e-02
-8.742499161936198582e-02
-8.857767277054838517e-02
-8.826464954607932123e-02
-8.644862587266803622e-02
-8.313025886754185634e-02
-7.832036173319785466e-02
-7.206527756054377509e-02
-6.443711167076913993e-02
-5.552562310603587070e-02
-4.546190074465622510e-02
-3.438660235285236760e-02
-2.247364660602835587e-02
-9.915707230469677363e-03
3.082384375873339476e-03
1.629362362268066758e-02
2.948773455403501040e-02
4.242835048995283881e-02
5.487665723445364629e-02
6.660235729989028020e-02
7.738739145198582359e-02
8.702126272766223802e-02
9.532818657175896881e-02
1.021449590822569309e-01
1.073433476860566893e-01
1.108341622442430147e-01
1.125456343978021717e-01
1.124664623909019112e-01
1.106027382454694979e-01
1.070063135430965734e-01
1.017688737936395804e-01
9.499959958674736304e-02
8.685556766517124605e-02
7.750470062658519621e-02
6.713996579747581739e-02
5.597129206340306640e-02
4.421181692243160433e-02
3.208118607601052885e-02
1.979847186773140560e-02
7.569757006954811601e-03
-4.405853223483390153e-03
-1.594439879058213647e-02
-2.688805078832982517e-02
-3.708696633602324988e-02
-4.642637766042397723e-02
-5.480608445515144922e-02
-6.214761050324001113e-02
-6.840159544646449985e-02
-7.352669424592124525e-02
-7.751058388302195512e-02
-8.035032189733395946e-02
-8.205734703664974150e-02
-8.265813001853788977e-02
-8.218325864176384554e-02
-8.067576078964361352e-02
-7.818184763803022463e-02
-7.475339791202843809e-02
-7.044690947111055535e-02
-6.532083559847443044e-02
-5.943864272251025982e-02
-5.286508144460458358e-02
-4.566975896669758783e-02
-3.792537491862959381e-02
-2.970791811514162176e-02
-2.110018218945996366e-02
-1.218680639902483195e-02
-3.060487490472067230e-03
6.182079709759531576e-03
1.543969181882967959e-02
2.460389237074351795e-02
3.356475408659567033e-02
4.220747274532246629e-02
5.041545763881107728e-02
5.807321997487390614e-02
6.506665914151592289e-02
7.128425725549226988e-02
7.662573177788770118e-02
8.099467191550054068e-02
8.431038313205271861e-02
8.650755436282492328e-02
8.753040366161458918e-02
8.735321406408300127e-02
8.595851967172965513e-02
8.335685018324043294e-02
7.958010459897418842e-02
7.467329856908841434e-02
6.871365045539845617e-02
6.178574757273530560e-02
5.399787198655488230e-02
4.547237697327231182e-02
3.633972591994802381e-02
2.674590770565213674e-02
1.683946545828253830e-02
6.774598341762260584e-03
-3.291960183330403834e-03
-1.320562484001889386e-02
-2.281507937936434749e-02
-3.197134379143306421e-02
-4.053694169610368853e-02
-4.837875705785379260e-02
-5.537550535739855367e-02
-6.141980932187346420e-02
-6.641067666277611359e-02
-7.027044846337916761e-02
-7.292862777380139383e-02
-7.433592103701586185e-02
-7.446246853586432901e-02
-7.328928768558522211e-02
-7.082929366524995385e-02
-6.710375199495971499e-02
-6.216209277804717048e-02
-5.607387555228818266e-02
-4.892196064957111956e-02
-4.081986517439177564e-02
-3.188805155409599884e-02
-2.227048916536213466e-02
-1.212420670982069376e-02
-1.614340261029292498e-03
9.079406203894167110e-03
1.977535916238535793e-02
3.028895657855785670e-02
4.043455774805962410e-02
5.003340615690939769e-02
5.891648941742159279e-02
6.692048709016862329e-02
7.390764092050626510e-02
7.974933242619958174e-02
8.434223661631040647e-02
8.761086532818987416e-02
8.949227400904344321e-02
8.996653286803520111e-02
8.902598167486666658e-02
8.669598098544008258e-02
8.303022843050046620e-02
7.809557883500678477e-02
7.199457104882156511e-02
6.483796224367720240e-02
5.675780188027620965e-02
4.790036339727723330e-02
3.841707609300631932e-02
2.847023584606542257e-02
1.822347241929487410e-02
7.839308055319535104e-03
-2.520375760856895762e-03
-1.269923622039147854e-02
-2.255037507723036891e-02
-3.193022319353800570e-02
-4.071062220567132905e-02
-4.876976529148633471e-02
-5.599698636689503378e-02
-6.229634218601096118e-02
-6.757690763651910681e-02
-7.176690977254493453e-02
-7.480091340761120533e-02
-7.662858485142290399e-02
-7.721515214704341434e-02
-7.653348260604347919e-02
-7.458129681554481749e-02
-7.136333212386757052e-02
-6.690736126422161534e-02
-6.125967053395760253e-02
-5.447849200471056863e-02
-4.665301108868221552e-02
-3.788004154825995451e-02
-2.828344591715862763e-02
-1.800402460137077998e-02
-7.194337866121231460e-03
3.969262363212714556e-03
1.530577154138222998e-02
2.662051674284564642e-02
3.771226244686681078e-02
4.838014800146834410e-02
5.842397710825435880e-02
6.764666441800044894e-02
7.586919528602570351e-02
8.291982939102138239e-02
8.864948684475319751e-02
9.293713591490572468e-02
9.567431552943927997e-02
9.680053668639149178e-02
9.627041338725603192e-02
9.407790099343904533e-02
9.025491537392052455e-02
8.485021788902426254e-02
7.796349812108523125e-02
6.970733718996455219e-02
6.022761923176256360e-02
4.969527427822668236e-02
3.829142198600355568e-02
2.622132512943286739e-02
1.369462983174892998e-02
9.274769505417147786e-04
-1.186024452548498087e-02
-2.445271905261974660e-02
-3.664207962142448927e-02
-4.822402560393734827e-02
-5.901390636410494550e-02
-6.883617560434081295e-02
-7.753170737643251542e-02
-8.496579168320625430e-02
-9.101176337407632100e-02
-9.557613364676655066e-02
-9.857752770465874614e-02
-9.995921236063778914e-02
-9.969300444881608325e-02
-9.776190048881985839e-02
-9.418825123018499668e-02
-8.900607581537141322e-02
-8.227961083481975801e-02
-7.410039446520759465e-02
-6.457307257005878709e-02
-5.383975605684285237e-02
-4.205178976940265878e-02
-2.938699020492653233e-02
-1.604181090068617505e-02
-2.221553114279188786e-03
1.184863514980631291e-02
2.594021598184368532e-02
3.981955230198790108e-02
5.325029939131747936e-02
6.600223127659984867e-02
7.785618872855266936e-02
8.859844669179620102e-02
9.804442278192340710e-02
1.060222843323769260e-01
1.123873898724526976e-01
1.170329496969869376e-01
1.198657127187095356e-01
1.208468856804017499e-01
1.199563630668483843e-01
1.172129981818429978e-01
1.126779096400747776e-01
1.064274442406837468e-01
9.858785809022727054e-02
8.929892475464680512e-02
7.872883134072435063e-02
6.706979805114347826e-02
5.452144134540640175e-02
4.130242986272855688e-02
2.763498167313646267e-02
1.374314554212907255e-02
-1.478535829870343890e-04
-1.381798993152502306e-02
-2.705864399775202364e-02
-3.966506514519039378e-02
-5.145270859341136843e-02
-6.224747945865556631e-02
-7.189002726375794128e-02
-8.024566011070215221e-02
-8.718695103360989129e-02
-9.261732992634316708e-02
-9.645276419474808904e-02
-9.863118129175971194e-02
-9.911911660460386020e-02
-9.789326415247580349e-02
-9.496903677107530750e-02
-9.037446591459760703e-02
-8.416715405974597997e-02
-7.643474333996935766e-02
-6.727788571375950544e-02
-5.683841971682963151e-02
-4.526913894040424796e-02
-3.275203045882995462e-02
-1.949220263791909616e-02
-5.704891613820932579e-03
8.369341241764496203e-03
2.248498415199553027e-02
3.638809761984491270e-02
4.981960018758958830e-02
6.252544240495667982e-02
7.426197805474428482e-02
8.479081814264341488e-02
9.390499703944930887e-02
1.014128950064006052e-01
1.071523913275920087e-01
1.110075795218115335e-01
1.128777790543920578e-01
1.127273814292209936e-01
1.105455887928051828e-01
1.063665265108860447e-01
1.002791149677976501e-01
9.238964040484759499e-02
8.286556152230387107e-02
7.189249462499612553e-02
5.968760597472543700e-02
4.649807057851290670e-02
3.257775998294762387e-02
1.819857963170012569e-02
3.635695393460665076e-03
-1.084173901038237159e-02
-2.496905248190184681e-02
-3.849269092576613344e-02
-5.118642005362869507e-02
-6.283190144646819131e-02
-7.324797700125970645e-02
-8.227502741015196852e-02
-8.977622260544233790e-02
-9.565755541051192135e-02
-9.983582280867249470e-02
-1.022714592078321633e-01
-1.029446074522314125e-01
-1.018595266878444400e-01
-9.905578134338047236e-02
-9.458241885012245997e-02
-8.852438950623073288e-02
-8.097938387980420372e-02
-7.206583118909756780e-02
-6.192584539693188339e-02
-5.070905473846636785e-02
-3.859021471494552408e-02
-2.575115502243890617e-02
-1.238744884725006407e-02
1.293091152449004494e-03
1.507936554928123590e-02
2.875158295264043304e-02
4.208852863064459215e-02
5.487183962027033374e-02
6.688515839256749251e-02
7.791965237474290928e-02
8.778377702900658219e-02
9.629179013216741800e-02
1.032887427144178055e-01
1.086364571436543996e-01
1.122211031081031818e-01
1.139717610143328591e-01
1.138300906923499917e-01
1.117924981636468779e-01
1.078786708977292896e-01
1.021436184652140672e-01
9.469079028916475849e-02
8.563741707002031633e-02
7.515195401959752497e-02
6.341977713986804432e-02
5.065158361637252249e-02
3.708514930902385986e-02
2.296380405780039380e-02
8.546715927851349440e-03
-5.903521238587116325e-03
-2.012907295083533193e-02
-3.387608196396175303e-02
-4.689955811449914719e-02
-5.897920878463722150e-02
-6.990192189358787611e-02
-7.948791562224306884e-02
-8.757910735820972903e-02
-9.403795500109607408e-02
-9.877033288854493442e-02
-1.016931091931926601e-01
-1.027681720617267397e-01
-1.019802676792485596e-01
-9.933965290853957741e-02
-9.489857692646698484e-02
-8.872019486491622420e-02
-8.091072355739815924e-02
-7.159346788789137939e-02
-6.091580900382348451e-02
-4.905603818669671684e-02
-3.620080558092792639e-02
-2.256601299130954821e-02
-8.376529911014941182e-03
6.130837722555851181e-03
2.070733124385773505e-02
3.510356915606228922e-02
4.906981638081147484e-02
6.235722264059175013e-02
7.473161640212831747e-02
8.597030375308715999e-02
9.586456197522606748e-02
1.042415489892867531e-01
1.109385576376181876e-01
1.158389797997106674e-01
1.188543200925187976e-01
1.199248651828450779e-01
1.190478657183668132e-01
1.162348722943002122e-01
1.115553870912498746e-01
1.051064111284519265e-01
9.701408912069564572e-02
8.744945998201203441e-02
7.659328362908074395e-02
6.465989237906538678e-02
5.187577521115856877e-02
3.847501029746275281e-02
2.470078979353850304e-02
1.079433766596976131e-02
-3.013878584650153160e-03
-1.649729174199367904e-02
-2.945025666445918663e-02
-4.168674811421629878e-02
-5.303310278411223211e-02
-6.335305052859735442e-02
-7.252015515406456947e-02
-8.044001780525654455e-02
-8.704166345757045897e-02
-9.226799853859050937e-02
-9.609453424680741707e-02
-9.850409010984845226e-02
-9.950317964016754113e-02
-9.911180348796058692e-02
-9.735968639507015798e-02
-9.429447132748902671e-02
-8.996783975226468888e-02
-8.444623806452111747e-02
-7.780268748759032460e-02
-7.011838383640274508e-02
-6.148632064710103651e-02
-5.200303741259005436e-02
-4.177897164879181696e-02
-3.092947373820720616e-02
-1.957929249905879590e-02
-7.863758678810662400e-03
4.078280359165265337e-03
1.609624730667571363e-02
2.803639405529954887e-02
3.974023672503194937e-02
5.104513528900671282e-02
6.178931278498578372e-02
7.181399638744984104e-02
8.096198441609657459e-02
8.908879169050987201e-02
9.605866426085714338e-02
1.017475833520573580e-01
1.060578365596147460e-01
1.088992403716128182e-01
1.102165204175111768e-01
1.099730938071848962e-01
1.081550647358034273e-01
1.047878963234191996e-01
9.990736188914284277e-02
9.359100472946341176e-02
8.593376671056054961e-02
7.705240575341426590e-02
6.709316066249194910e-02
5.620908161357643373e-02
4.457636486399962211e-02
3.237853525270998484e-02
1.980515559472205075e-02
7.052153250134605977e-03
-5.685557674290958076e-03
-1.821791545102031951e-02
-3.035669347269132415e-02
-4.192553847711969622e-02
-5.275786276978463446e-02
-6.269506318786151333e-02
-7.159992403971730812e-02
-7.934090070984867182e-02
-8.580919415913203230e-02
-9.091060092896922906e-02
-9.456437940420003851e-02
-9.671781763235053064e-02
-9.732552903130149702e-02
-9.637307900451207165e-02
-9.386155417193205175e-02
-8.981152462817430793e-02
-8.427519581728287745e-02
-7.731359807738059919e-02
-6.902370739714991377e-02
-5.951660702705971473e-02
-4.892498662917512536e-02
-3.740888434192188999e-02
-2.513595764270045926e-02
-1.230051593077111094e-02
8.950970794264325250e-04
1.423819486958944128e-02
2.750588113461956141e-02
4.047543574271441486e-02
5.292622227573085675e-02
6.463914380353938394e-02
7.541145694128267851e-02
8.505302299525324683e-02
9.338796929895566701e-02
1.002764551506421103e-01
1.055885886136228441e-01
1.092385230132836144e-01
1.111668849919103808e-01
1.113408091286124113e-01
1.097791204741176696e-01
1.065134257759698111e-01
1.016263605510295404e-01
9.522441544825455129e-02
8.743891023730386569e-02
7.843886562566662612e-02
6.840113459198728096e-02
5.752878895432343015e-02
4.603417220995173476e-02
3.413298973780858753e-02
2.204492268514977524e-02
9.985955203277791653e-03
-1.844489717576489919e-03
-1.325261008453401668e-02
-2.406979091081258570e-02
-3.415070144537935004e-02
-4.336426989375660040e-02
-5.162185899531696737e-02
-5.884581979013263353e-02
-6.499368555303659811e-02
-7.004834290998060431e-02
-7.400670009900897628e-02
-7.689804468700942031e-02
-7.875831365012013474e-02
-7.964149635693214269e-02
-7.961166557754266460e-02
-7.873574574388611524e-02
-7.708571945238897050e-02
-7.473334115270634237e-02
-7.174494572478458398e-02
-6.818441500973948521e-02
-6.410905977433696556e-02
-5.956682684770260583e-02
-5.460295042336464622e-02
-4.925226906900243007e-02
-4.354612037322451445e-02
-3.751233617438243934e-02
-3.117485809434232188e-02
-2.455801992798763850e-02
-1.768848087547335649e-02
-1.059386208830579920e-02
-3.308858744203041664e-03
4.125709546267211127e-03
1.166439093553028362e-02
1.924869157071540035e-02
2.681682943946294209e-02
3.429593660360882867e-02
4.160567049731010020e-02
4.866207635493460804e-02
5.537342117434492644e-02
6.164696543028608255e-02
6.739041336590387288e-02
7.251177043438312986e-02
7.692476190599750741e-02
8.055295866438973162e-02
8.332401719606472024e-02
8.518573417740712972e-02
8.609432662808182146e-02
8.602270528698204022e-02
8.496603651780017252e-02
8.292690579520389793e-02
7.993623950098520392e-02
7.603419766216733267e-02
7.127801991934357151e-02
6.574269708707200510e-02
5.950836671962025232e-02
5.267082331298787723e-02
4.532967674074245279e-02
3.758889603867981294e-02
2.955597900036815301e-02
2.133741210182004897e-02
1.303663772561639012e-02
4.755975144064021089e-03
-3.409078112329165348e-03
-1.136733851346908436e-02
-1.903142370802320474e-02
-2.632174549903600405e-02
-3.316041856367596408e-02
-3.947544672666567639e-02
-4.519772769490287834e-02
-5.026067773600181171e-02
-5.460173459606255941e-02
-5.815962042656154518e-02
-6.087856539340495698e-02
-6.270502345278546052e-02
-6.359203083925067668e-02
-6.350084129456709525e-02
-6.239719833112698788e-02
-6.026461938807013696e-02
-5.709245335347973294e-02
-5.288894580462322192e-02
-4.768073321147549282e-02
-4.150468958667677399e-02
-3.442954408166763736e-02
-2.653257252476515574e-02
-1.791824740504310495e-02
-8.711678936253845762e-03
9.506775384483193841e-04
1.090480830390304356e-02
2.098093521334528852e-02
3.099441783353559798e-02
4.075188280791167128e-02
5.006000735089809889e-02
5.872578433007908522e-02
6.655877524290636227e-02
7.338744240240002714e-02
7.904918742600282322e-02
8.340330824185065994e-02
8.634196776483646363e-02
8.776930106615847549e-02
8.764070030827547653e-02
8.593041773196090360e-02
8.265068524090699031e-02
7.785811738458994768e-02
7.162449833633821594e-02
6.407408842764222845e-02
5.534620587079568804e-02
4.560863000230545861e-02
3.505507356941831715e-02
2.388549714557965456e-02
1.231639560340066358e-02
5.671047245053208868e-04
-1.114800187866329603e-02
-2.261810463208996369e-02
-3.364256421730411201e-02
-4.404466689924981665e-02
-5.365471932199255417e-02
-6.233652946365679515e-02
-6.997250336748730981e-02
-7.646565643272873469e-02
-8.175610119073065118e-02
-8.579315567859918668e-02
-8.856249933986895528e-02
-9.006550148794592592e-02
-9.032133216243409812e-02
-8.937411999950845010e-02
-8.727367568992185076e-02
-8.408932655479810225e-02
-7.989688321972572560e-02
-7.477888778832178507e-02
-6.882524648320582916e-02
-6.212681925743593347e-02
-5.477669262885104251e-02
-4.686839508645152669e-02
-3.849382126498526041e-02
-2.974347119302351086e-02
-2.070666814383288756e-02
-1.146945565929797378e-02
-2.117118035642155324e-03
7.267096733890927862e-03
1.660129219465744654e-02
2.580387766843827632e-02
3.479388342449878102e-02
4.349039201369513802e-02
5.181222120386006630e-02
5.967805943729324880e-02
6.700708216245622462e-02
7.371929293633947000e-02
7.973554318095074644e-02
8.498156672978467163e-02
8.938518985603653710e-02
9.288141118045886713e-02
9.541465977542498700e-02
9.693398628192174959e-02
9.740733704810895788e-02
9.680899400088190110e-02
9.513085123999583115e-02
9.238284847007831313e-02
8.858328803362307269e-02
8.377736557253827321e-02
7.801749886911332754e-02
7.137557842494511584e-02
6.393905057931759117e-02
5.580228341956874200e-02
4.707711479829658485e-02
3.787902290172334707e-02
2.833152625439977826e-02
1.856312842898438092e-02
8.702692569760171054e-03
-1.120331872962377316e-03
-1.077714291739557614e-02
-2.014466462507185501e-02
-2.910264693362552349e-02
-3.753664090659534353e-02
-4.534136711330152836e-02
-5.241459404158847757e-02
-5.866723482656724387e-02
-6.401529228298243057e-02
-6.838513371718603351e-02
-7.171587862008287073e-02
-7.395186283634141988e-02
-7.505692462201611626e-02
-7.500107058352475931e-02
-7.377150358736749014e-02
-7.137192488226354325e-02
-6.781470257408690749e-02
-6.313866870362322414e-02
-5.738969298832709287e-02
-5.063617027678955079e-02
-4.296334707214362336e-02
-3.446658061806642109e-02
-2.526553607340085647e-02
-1.548531996692092266e-02
-5.268149282208722285e-03
5.233810228906425263e-03
1.586349655073046594e-02
2.645469135529296412e-02
3.684034690126872930e-02
4.685492843641520661e-02
5.633372726243703055e-02
6.512017009166726211e-02
7.306973584493024754e-02
8.004359140747359380e-02
8.592855942158328375e-02
9.062092886999663366e-02
9.404047447347749222e-02
9.613402847417333585e-02
9.685973988662596734e-02
9.621581076077534433e-02
9.421221665059842376e-02
9.088873327522475898e-02
8.631190664768303988e-02
8.055976896179864455e-02
7.374269052835075167e-02
6.597856184685801928e-02
5.740262567815770239e-02
4.816225893874506031e-02
3.840740136106633035e-02
2.829338806838008549e-02
1.797545660421467906e-02
7.600851541848720888e-03
-2.687608077070608760e-03
-1.275667930993782534e-02
-2.249018268826522352e-02
-3.177692609707524068e-02
-4.052747903360336135e-02
-4.866170080059173397e-02
-5.611159399055950375e-02
-6.282595231705245808e-02
-6.875760734326849533e-02
-7.387352028740221122e-02
-7.814530403008489168e-02
-8.155011639180258232e-02
-8.407109565685180752e-02
-8.569286279847092291e-02
-8.640452356604141904e-02
-8.619647745679792639e-02
-8.506313049368852131e-02
-8.300226079114653155e-02
-8.001510212841059233e-02
-7.611244189608046273e-02
-7.130795217750973691e-02
-6.562941899533641932e-02
-5.911390253208020917e-02
-5.180840934598321401e-02
-4.378120069283764071e-02
-3.510607908990529685e-02
-2.588022919559357718e-02
-1.621279409618649192e-02
-6.225032295731868816e-03
3.941696097848722789e-03
1.414189079813947536e-02
2.421611999388046874e-02
3.399956320807343696e-02
4.332682763326028974e-02
5.203179309090934235e-02
5.995158905305014024e-02
6.693874957149260896e-02
7.285126885279774589e-02
7.756977278251633856e-02
8.099774728700606663e-02
8.305221389130754139e-02
8.369411848126775966e-02
8.289658824662267389e-02
8.067230202916439441e-02
7.706509186506056708e-02
7.213642901653405382e-02
6.599230427594833526e-02
5.874873270041735401e-02
5.055124531725067177e-02
4.156345108029595170e-02
3.195662647350647201e-02
2.191704956993750786e-02
1.163254192725921531e-02
1.288826054483855656e-03
-8.929519225545572148e-03
-1.884749296241998093e-02
-2.830504749663273825e-02
-3.714792295724843318e-02
-4.524781306018826887e-02
-5.248628985841687078e-02
-5.876404011823223306e-02
-6.400493378678950851e-02
-6.814067002271931295e-02
-7.113080026895449159e-02
-7.294326805425911664e-02
-7.356387634183808588e-02
-7.299531907075393344e-02
-7.124727374590976436e-02
-6.834998488210328182e-02
-6.433896564263018314e-02
-5.926503183944849262e-02
-5.319028564454823804e-02
-4.618395087292687107e-02
-3.833216396807851561e-02
-2.972509244548851223e-02
-2.046744818355564210e-02
-1.067229916752099328e-02
-4.592438179883131730e-04
1.003996729413891842e-02
2.069119569039452183e-02
3.135282020962889410e-02
4.187994169426761948e-02
5.212775770174275791e-02
6.195162743459288468e-02
7.120881061649121657e-02
7.976667176552164340e-02
8.749642229752073452e-02
9.428332668027078478e-02
1.000286110673404977e-01
1.046418788173173325e-01
1.080628851151735209e-01
1.102404052967003584e-01
1.111503921386641225e-01
1.107928673490882893e-01
1.091803535585509216e-01
1.063606217294705558e-01
1.023900412266928739e-01
9.735003828670195369e-02
9.133932792285483215e-02
8.446489512759552953e-02
7.685192503179101575e-02
6.862881181015954846e-02
5.992998746947589966e-02
5.089307336564031364e-02
4.165340713864130323e-02
3.234224667517144464e-02
2.308869923029608501e-02
1.401033181787961560e-02
5.219795430665841694e-03
-3.179256662392475168e-03
-1.109544401667136512e-02
-1.844112675739726509e-02
-2.514282866719551313e-02
-3.113178990778739039e-02
-3.634788422366485444e-02
-4.074016593801810249e-02
-4.426128001634250381e-02
-4.687557586563255441e-02
-4.855076068266847567e-02
-4.926520773318766866e-02
-4.900613732430496305e-02
-4.776722397387736518e-02
-4.555950364908454425e-02
-4.239868825294400984e-02
-3.831966110378819818e-02
-3.336971198293218338e-02
-2.760725108290067523e-02
-2.111403371943888080e-02
-1.397746363071400433e-02
-6.306963102215860408e-03
1.776968224244371199e-03
1.014410269779855364e-02
1.864831974455650326e-02
2.714072497512411142e-02
3.546448823553225577e-02
4.345984319099417681e-02
5.096991318111569746e-02
5.784152254541512911e-02
6.392561946425689978e-02
6.909098860470454240e-02
7.321244895834531918e-02
7.618571218764427777e-02
7.792729371601569976e-02
7.836490944509355572e-02
7.746182473179416550e-02
7.519091962357951631e-02
7.155462972931267429e-02
6.657833852652195183e-02
6.030000768281253143e-02
5.278884717562006001e-02
4.412107005733254678e-02
3.439377547132305146e-02
2.371667951844577682e-02
1.220615930013428142e-02
-8.468492822240672457e-06
-1.279561206023143924e-02
-2.601799574907327425e-02
-3.953569237976947010e-02
-5.320769160445929652e-02
-6.689133773895729329e-02
-8.044357437989500814e-02
-9.371986382730158882e-02
-1.065750981381936441e-01
-1.188626281628683695e-01
-1.304339617512814964e-01
-1.411403328990944728e-01
-1.508322712389082165e-01
-1.593603611188455504e-01
-1.665801117710614121e-01
-1.723516257086434578e-01
-1.765415470939307174e-01
-1.790369013241944474e-01
-1.797311419642873831e-01
-1.785500568658701659e-01
-1.754429692457873946e-01
-1.703826848349972445e-01
-1.633977286402372442e-01
-1.545315455820358563e-01
-1.438919080567591102e-01
-1.316230939425207525e-01
-1.179061684396215254e-01
-1.029898989457344177e-01
-8.713883821437713728e-02
-7.067705379103354779e-02
-5.395470260482559260e-02
-3.734187364357987454e-02
-2.123720070726772824e-02
-6.039892002926609306e-03
7.859485707072294200e-03
2.007462310705922584e-02
3.025973885904610985e-02
3.811443398567826435e-02
4.336863675272887436e-02
4.586252600247581190e-02
4.546976887562510783e-02
4.217853757627265665e-02
3.607697820000653477e-02
2.731186882640194644e-02
1.619428876102195491e-02
3.076152576484261335e-03
-1.156037719212769932e-02
-2.714453732012786155e-02
-4.305880512947467265e-02
-5.858377621469500196e-02
-7.298290041783671300e-02
-8.549152773705537278e-02
-9.533066761290281965e-02
-1.017547832211998654e-01
-1.040766837751853913e-01
-1.016392814502785485e-01
-9.394416352815768145e-02
-8.056024590280926045e-02
-6.120720311134573988e-02
-3.580746771515144061e-02
-4.358082807337880678e-03
3.284978915250010012e-02
7.542717730802776799e-02
1.227770926100486687e-01
1.740844829629020485e-01
2.284578510223709558e-01
2.847636331154262956e-01
3.418063276973090647e-01
3.982827153018146937e-01
4.528015848463990412e-01
5.039720175807242963e-01
5.504110192816505931e-01
5.907498582340041660e-01
6.237664987853557275e-01
6.483328427989102360e-01
6.634637382195457400e-01
6.684719908784575448e-01
6.627563294076626033e-01
6.461103084006067920e-01
6.185243809462851461e-01
5.802391897810508237e-01
5.318993024977145545e-01
4.742531165414797245e-01
4.084531560317576915e-01
3.358079511638974446e-01
2.578063338151931894e-01
1.761639690708310668e-01
9.263105406046069634e-02
9.048437777875076304e-03
-7.272160194751488282e-02
-1.509094486603390906e-01
-2.238364534480553614e-01
-2.899233138594851655e-01
-3.479149816300716180e-01
-3.966503450037753287e-01
-4.353414405285916944e-01
-4.634859997752444616e-01
-4.807795106560626697e-01
-4.874067376647285288e-01
-4.836684851400066543e-01
-4.702665853429194853e-01
-4.481418428360187667e-01
-4.183886840165870202e-01
-3.823971585234651194e-01
-3.416088852655165264e-01
-2.975947443579719520e-01
-2.519839748756850795e-01
-2.063710908656914145e-01
-1.622974691952922821e-01
-1.212577482378820182e-01
-8.451004624064648030e-02
-5.322262547766876128e-02
-2.832085170916906133e-02
-1.044376172432901970e-02
-1.120074718452849713e-04
2.580669418533443858e-03
-2.332321354351661775e-03
-1.451213608024358101e-02
-3.333920555815741982e-02
-5.808389537251255896e-02
-8.770271952676877980e-02
-1.210800112283707264e-01
-1.569585911884366913e-01
-1.939800758049370355e-01
-2.307860142130985781e-01
-2.660230375684595749e-01
-2.983553556528787953e-01
-3.266074867068000653e-01
-3.496942847824074385e-01
-3.666866359393195496e-01
-3.769397180544001302e-01
-3.798921760004749237e-01
-3.753517826081108621e-01
-3.632878607962780060e-01
-3.438934269309181224e-01
-3.176780253164535606e-01
-2.852314641440896192e-01
-2.474344752759322641e-01
-2.052654142444780561e-01
-1.598067411131920412e-01
-1.122557841768374587e-01
-6.381268291187240649e-02
-1.566546927837910233e-02
3.100779490757115536e-02
7.515417599288652661e-02
1.158284654557855259e-01
1.521787635565546304e-01
1.836158308474434286e-01
2.096196701634948367e-01
2.299325680023050211e-01
2.444728217915698165e-01
2.532827895336321467e-01
2.566737856200636547e-01
2.550152072031475758e-01
2.488670081235587750e-01
2.388882819439452354e-01
2.257909789191682448e-01
2.103761132212053631e-01
1.934515706662997270e-01
1.758132488972421192e-01
1.582506860205704635e-01
1.414874116151104422e-01
1.261593696565708189e-01
1.128613755693765319e-01
1.020199757302087812e-01
9.400580045216187786e-02
8.905440685808999057e-02
8.726176425511095180e-02
8.866859541954834334e-02
9.313987904940636275e-02
1.004944402621248817e-01
1.104450889021044990e-01
1.226192256078635079e-01
1.366144573542276142e-01
1.519539968597474755e-01
1.681472831376336075e-01
1.846897868518667385e-01
2.010683519561638211e-01
2.167863509758431173e-01
2.313817205404299082e-01
2.444055852387979066e-01
2.554805843700446721e-01
2.642646617740772585e-01
2.704702411752643032e-01
2.738965224871732773e-01
2.743679217082647392e-01
2.718124198400682645e-01
2.661978779881006285e-01
2.575548580794725928e-01
2.459917155369768793e-01
2.316394754210362450e-01
2.147083510165341269e-01
1.954323722180129619e-01
1.740851070069263373e-01
1.509783811870059889e-01
1.264333975594383319e-01
1.007974432253602726e-01
7.442317446535522130e-02
4.766224022278974654e-02
2.086550599092719741e-02
-5.626037288036949725e-03
-3.149631389549575888e-02
-5.643707590633992299e-02
-8.018035132085471473e-02
-1.024819287033982007e-01
-1.231254835526283953e-01
-1.419480769695961597e-01
-1.588008998533580185e-01
-1.735946141842937829e-01
-1.862672167928197398e-01
-1.967903238830410462e-01
-2.051856238066538385e-01
-2.114872973073161910e-01
-2.157756743869606586e-01
-2.181474996039937664e-01
-2.187190659556363104e-01
-2.176293734581256911e-01
-2.150211640272855496e-01
-2.110473397536468954e-01
-2.058631480660718105e-01
-1.996185841258297788e-01
-1.924588821475294864e-01
-1.845231046918878737e-01
-1.759317185591690869e-01
-1.668000947104367748e-01
-1.572238268241125669e-01
-1.472845355542168888e-01
-1.370547802786704628e-01
-1.265864863614346025e-01
-1.159272690193711847e-01
-1.051121750657867671e-01
-9.416937949391140927e-02
-8.312554165126795347e-02
-7.200470881380170718e-02
-6.083182252218991004e-02
-4.963981578867578126e-02
-3.846518007157282565e-02
-2.735430753656476269e-02
-1.636741757907588662e-02
-5.569532193227700635e-03
4.955117117976960001e-03
1.511581011603419997e-02
2.481131629357243018e-02
3.392897085963617054e-02
4.235432186675511246e-02
4.996829144351781771e-02
5.665116936447713025e-02
6.229145294258823379e-02
6.678460890632782754e-02
7.003554916289118915e-02
7.197573955899387588e-02
7.254430062614643238e-02
7.171513808426889514e-02
6.948519186880607046e-02
6.587235326250673317e-02
6.093954612463256537e-02
5.476059913859766121e-02
4.745171052845046505e-02
3.915089409969654821e-02
3.001502411498569237e-02
2.023249559885702611e-02
9.997673419295822345e-03
-4.765263103477107576e-04
-1.096996134484510069e-02
-2.126239485272787486e-02
-3.113348757745532450e-02
-4.036670844926319029e-02
-4.876352336426442724e-02
-5.613169186757112350e-02
-6.230256995021551947e-02
-6.713155334295524412e-02
-7.048744083865821075e-02
-7.228267670448818016e-02
-7.244187436447896422e-02
-7.092900042905667113e-02
-6.773928788872100870e-02
-6.288690745335327736e-02
-5.643439638090962107e-02
-4.845589267525417937e-02
-3.906485229177439344e-02
-2.839906732540701043e-02
-1.661296939618587057e-02
-3.894260403784116469e-03
9.562593731211339182e-03
2.354178276534759154e-02
3.781730102988716674e-02
5.215921159695245668e-02
6.633147851496433434e-02
8.009921170947689739e-02
9.323735022936516237e-02
1.055248928052015533e-01
1.167579340549633332e-01
1.267534901357659227e-01
1.353390581604332066e-01
1.423823784376067325e-01
1.477639095744751607e-01
1.514005613169510378e-01
1.532440157196795216e-01
1.532633776785300439e-01
1.514804432820318625e-01
1.479307002383230818e-01
1.426905734004676740e-01
1.358669333169695015e-01
1.275829376230697421e-01
1.180004834551292431e-01
1.072895684791971560e-01
9.564194700464818955e-02
8.326191672463693905e-02
7.035621609239540997e-02
5.713594930210249417e-02
4.381075081448054104e-02
3.057598238710031169e-02
1.762035449692989433e-02
5.114874852707490711e-03
-6.795490521431172930e-03
-1.797494693631437185e-02
-2.832599349551884541e-02
-3.776486453464816817e-02
-4.623317564622456133e-02
-5.370161382712863168e-02
-6.014966920428044261e-02
-6.558604258406289245e-02
-7.002747699466559117e-02
-7.350287329720983642e-02
-7.605198978432901880e-02
-7.771585703558196723e-02
-7.853822239844344966e-02
-7.856292308798609736e-02
-7.782830602069040760e-02
-7.636888874833754060e-02
-7.421527441338213182e-02
-7.138917588343528242e-02
-6.791051354651529703e-02
-6.379428218889507396e-02
-5.905284765190269014e-02
-5.370018670817278128e-02
-4.775318744977448404e-02
-4.123095706371270736e-02
-3.416550093485418854e-02
-2.659442992759673483e-02
-1.856836086724205498e-02
-1.015581056093458126e-02
-1.431552890714627921e-03
7.504842563440900990e-03
1.654548897394989004e-02
2.556751758492084581e-02
3.443199140370033218e-02
4.299621992112610813e-02
5.110637761654453215e-02
5.860625145250619034e-02
6.534349221826206422e-02
7.116898983206604301e-02
7.594187078493908061e-02
7.954431397333890097e-02
8.186550158701944024e-02
8.282922287892806323e-02
8.238186863408523963e-02
8.049240821602467177e-02
7.717772056112449930e-02
7.246666375390600767e-02
6.643648394092516174e-02
5.918900694514232785e-02
5.084920910990108761e-02
4.158023612380497974e-02
3.155282778306237046e-02
2.096251055700044247e-02
1.001436184536091262e-02
-1.084634541397969110e-03
-1.212506185700208336e-02
-2.290134862241488892e-02
-3.322651094315923204e-02
-4.292001975360890120e-02
-5.182609572374641954e-02
-5.981381625451763495e-02
-6.676529303452710673e-02
-7.260425993489186269e-02
-7.726562569251674284e-02
-8.071672848816588419e-02
-8.295030078351349478e-02
-8.397180244175767028e-02
-8.381842914384673993e-02
-8.253431718072799794e-02
-8.018265927007797722e-02
-7.683825294901240610e-02
-7.258095634713995770e-02
-6.750048388932231025e-02
-6.168794314359395126e-02
-5.523608080097232309e-02
-4.823837574717592530e-02
-4.078624660583121675e-02
-3.296790558919262398e-02
-2.487033977908290408e-02
-1.657508738234157383e-02
-8.161655636126072255e-03
2.934011205112272910e-04
8.717088770258587388e-03
1.703710867012297320e-02
2.518323984060035978e-02
3.308581245969715451e-02
4.067500691221623277e-02
4.788086265133056213e-02
5.463315314179587739e-02
6.086080965355870204e-02
6.649266401052880693e-02
7.145852602763196060e-02
7.568892871479426798e-02
7.911688880863877726e-02
8.168146812212484509e-02
8.332389695488252868e-02
8.399776754986847116e-02
8.366378154501055708e-02
8.229333746975543706e-02
7.987776694263408472e-02
7.641430286529557470e-02
7.192668262901884269e-02
6.645052636896527087e-02
6.003849690883528850e-02
5.276793489962849221e-02
4.472280823058979310e-02
3.601201037365203000e-02
2.675307731621067581e-02
1.707485068183173943e-02
7.118935842802704209e-03
-2.970815796596874316e-03
-1.304432695165052766e-02
-2.295013055548309269e-02
-3.253974432250446996e-02
-4.166731615397008953e-02
-5.019108896555740662e-02
-5.798132599868943693e-02
-6.491176519337207851e-02
-7.087165576366119546e-02
-7.576090804807497636e-02
-7.948927215916989919e-02
-8.198847320877825084e-02
-8.319604239509335863e-02
-8.307433309229762808e-02
-8.159902381337283406e-02
-7.876165821955341539e-02
-7.458137951535281918e-02
-6.908498561250636660e-02
-6.233140302919491782e-02
-5.439305769858395617e-02
-4.536254849373751868e-02
-3.535982284444210560e-02
-2.451265462985264404e-02
-1.297774598057603590e-02
-9.212461530848647939e-04
1.147650889247123218e-02
2.402018418516700324e-02
3.651175020869875526e-02
4.874587755029930608e-02
6.051594602717228627e-02
7.162190538678712970e-02
8.186913006170579155e-02
9.107179365204547128e-02
9.906815290448282851e-02
1.057035583731432832e-01
1.108570564015138316e-01
1.144293895264953537e-01
1.163433473959197550e-01
1.165678355540692296e-01
1.150835935163267015e-01
1.119204892537895013e-01
1.071330314970409120e-01
1.008021123153702986e-01
9.305154415232355647e-02
8.401504314444485644e-02
7.386253175863068121e-02
6.277792549622285279e-02
5.095742837113501067e-02
3.861282922090308878e-02
2.595672879448195428e-02
1.320083518342007184e-02
5.559772553609841281e-04
-1.178112853707571558e-02
-2.362773851741213973e-02
-3.481114189883426774e-02
-4.519097491530587457e-02
-5.463581226644639854e-02
-6.304442686495817516e-02
-7.033890609914381087e-02
-7.645487739747076905e-02
-8.136150922601373403e-02
-8.503557300335064240e-02
-8.747737707429889542e-02
-8.870137266118496844e-02
-8.873040115715631615e-02
-8.760355846228951027e-02
-8.536317928662685850e-02
-8.206169800832181782e-02
-7.775627383566707795e-02
-7.250839025019258088e-02
-6.638611094710646088e-02
-5.945946142678956714e-02
-5.180640569890981872e-02
-4.350790005644577380e-02
-3.465158652517285470e-02
-2.533305569441364480e-02
-1.565112330660445306e-02
-5.716288086096970623e-03
4.357475976597085729e-03
1.444841296065857081e-02
2.442755325771364325e-02
3.416404993255374445e-02
4.352195138785872053e-02
5.236454860457053634e-02
6.055860283734381538e-02
6.797339969706722718e-02
7.448470223723939465e-02
7.998376440376736562e-02
8.436675573411556162e-02
8.755514080375118025e-02
8.948469542108061781e-02
9.010954884799467213e-02
8.941749155705251695e-02
8.740544551636028614e-02
8.410893059212601330e-02
7.958046582908166744e-02
7.389419508577492468e-02
6.715511826313870503e-02
5.947565163086472595e-02
5.099456997617946713e-02
4.185953514061430125e-02
3.222665617203220034e-02
2.226144218441985026e-02
1.212932759931838016e-02
1.993523549761182408e-03
-7.983892124294126452e-03
-1.765145844552016771e-02
-2.686693254067090350e-02
-3.549522515450333204e-02
-4.342147083625712278e-02
-5.053608157633303344e-02
-5.674878452024297026e-02
-6.198238340391978851e-02
-6.616944384233219845e-02
-6.926391049897120955e-02
-7.122493828975701158e-02
-7.203197133257494000e-02
-7.167517827524118312e-02
-7.015654125462883473e-02
-6.749828653513445520e-02
-6.372821252475549536e-02
-5.889725560876339638e-02
-5.306595125247096784e-02
-4.630983341887270205e-02
-3.872448203758767360e-02
-3.041155347217880736e-02
-2.149535115841810090e-02
-1.210752347562155801e-02
-2.392053393714539157e-03
7.494220020891907350e-03
1.739158193998480151e-02
2.713204868924751559e-02
3.654597093703713939e-02
4.546716184354229057e-02
5.373225654240040838e-02
6.118464795772243781e-02
6.768605024017952665e-02
7.310377217383731696e-02
7.733308644675437882e-02
8.028702168285485608e-02
8.189761862518826763e-02
8.213614014766233706e-02
8.098399863403769883e-02
7.846505417664791093e-02
7.462415449172388193e-02
6.952890742588568873e-02
6.328342216136177700e-02
5.600015209045179632e-02
4.782174508014816472e-02
3.890233346022867883e-02
2.940575159971575356e-02
1.950796394253623625e-02
9.385341219886569192e-03
-7.873652437784426847e-04
-1.083637375160831362e-02
-2.059925325722286593e-02
-2.992465151243264496e-02
-3.866877829299453923e-02
-4.671179174828460345e-02
-5.394036911445738991e-02
-6.026285413352093501e-02
-6.560408114435409277e-02
-6.989885718512754698e-02
-7.310638778889298750e-02
-7.519162451301682204e-02
-7.613921812347589080e-02
-7.594550624758837631e-02
-7.461631360490911247e-02
-7.217569553740732502e-02
-6.865217184326530275e-02
-6.409191288348103921e-02
-5.854927851775056091e-02
-5.208901956709757058e-02
-4.479149867019795173e-02
-3.674144187846310056e-02
-2.804062490365391222e-02
-1.879701511773619604e-02
-9.128148606672752824e-03
8.372262070622804586e-04
1.096760036363642055e-02
2.112263623997428716e-02
3.115968602631456058e-02
4.093582529643252643e-02
5.030787826561348985e-02
5.913580440665823501e-02
6.728940450560405573e-02
7.464167313695195538e-02
8.108256586335318983e-02
8.651413940888193210e-02
9.085037693009059834e-02
9.403297377470232199e-02
9.601089671403439940e-02
9.676380122011402074e-02
9.628841013270129923e-02
9.459860119208296503e-02
9.173919066942040623e-02
8.776231863232018815e-02
8.274802828315336312e-02
7.678839129903841654e-02
6.998696463396562872e-02
6.246344542222204838e-02
5.434007291627137443e-02
4.574590017762635019e-02
3.681204014013155640e-02
2.766620358487512435e-02
1.843236608624667164e-02
9.230959882644816997e-03
1.694846460310681785e-04
-8.648351148826494833e-03
-1.713070604930364005e-02
-2.519589327608252535e-02
-3.276692008974856768e-02
-3.977948524089486987e-02
-4.617216014825688275e-02
-5.189054272472531926e-02
-5.688491306785099788e-02
-6.110762156632537634e-02
-6.451541146302358642e-02
-6.706611271107502936e-02
-6.872187931130706307e-02
-6.944714856550918136e-02
-6.921122141267185834e-02
-6.799164381792185963e-02
-6.576938642579580052e-02
-6.254215579053269691e-02
-5.831463373666360972e-02
-5.310747810146672354e-02
-4.696240580888179361e-02
-3.992918106158904745e-02
-3.208904437168758061e-02
-2.353352675136844568e-02
-1.437655342589073265e-02
-4.755060139244318522e-03
5.186145126946091304e-03
1.527785226290815507e-02
2.534485448533215987e-02
3.520332230877202401e-02
4.466252698521569475e-02
5.353407849984619105e-02
6.163642667891550131e-02
6.879120189322537882e-02
7.484256071633345331e-02
7.964878678558884317e-02
8.308731896038276665e-02
8.507465652982962312e-02
8.553817840539224004e-02
8.445364582696378297e-02
8.182045176625857286e-02
7.766707499359816469e-02
7.206800767139297237e-02
6.510927319180584427e-02
5.692077338199941217e-02
4.764899537708801314e-02
3.745939567895636979e-02
2.654082379297574915e-02
1.508602426116211273e-02
3.298552862371849012e-03
-8.615283865235533883e-03
-2.045416892277503174e-02
-3.202158695533292854e-02
-4.312722693067497226e-02
-5.360071800763720890e-02
-6.327739236109231058e-02
-7.201518144182919579e-02
-7.968897734221637441e-02
-8.618578538705609637e-02
-9.142201248469512820e-02
-9.532127648003031750e-02
-9.783417908795294382e-02
-9.892711257281333603e-02
-9.858064195405190355e-02
-9.680221821529573500e-02
-9.360602227343373105e-02
-8.903329948549075501e-02
-8.313767634604689316e-02
-7.598871140834341509e-02
-6.767956043402405253e-02
-5.830993294418038153e-02
-4.800486710951155922e-02
-3.689846590831476897e-02
-2.513880629048000082e-02
-1.289010726924759084e-02
-3.206178855001346265e-04
1.238859547328360899e-02
2.505312965109901882e-02
3.748747402373851789e-02
4.950512247883707972e-02
6.092336870475560662e-02
7.157131762534302277e-02
8.128198207377508588e-02
8.990978520956216524e-02
9.732421189719282772e-02
1.034102037417299336e-01
1.080881220710175339e-01
1.112876912942651064e-01
1.129786001933807960e-01
1.131524509044802979e-01
1.118234003490716361e-01
1.090457094419494399e-01
1.048831717628238569e-01
9.943593137244556568e-02
9.281958198848555552e-02
8.516491275384628634e-02
7.662376709705606692e-02
6.735150525925309717e-02
5.751341026286029695e-02
4.727777774961578611e-02
3.680978543041110024e-02
2.627123625695200471e-02
1.581978281753065180e-02
5.597967037691581327e-03
-4.256173123281089578e-03
-1.362045458314297894e-02
-2.238607009826679151e-02
-3.045179616624330357e-02
-3.773690372298268980e-02
-4.416565563709183573e-02
-4.967836146246544515e-02
-5.422588403812390878e-02
-5.776642734941504764e-02
-6.027378865315380363e-02
-6.172557192010377780e-02
-6.211433205082995956e-02
-6.144031608116755361e-02
-5.971329970004629617e-02
-5.695893604037498975e-02
-5.320758542966173843e-02
-4.850962983687135549e-02
-4.292355359848142732e-02
-3.652167593192195277e-02
-2.939428698003852466e-02
-2.163733421541559968e-02
-1.336763832139247626e-02
-4.708608398334097021e-03
4.205061180568294213e-03
1.322724505140531262e-02
2.220942462345468216e-02
3.099644967883351601e-02
3.943200191870907534e-02
4.736426579280499094e-02
5.464499173878592519e-02
6.113303100362883075e-02
6.670585608517971832e-02
7.124651496675267481e-02
7.466532908552124537e-02
7.688944921311788305e-02
7.786401725320706013e-02
7.757022114761891185e-02
7.599841939812600200e-02
7.317663048129433023e-02
6.915095546064338461e-02
6.398683266068214137e-02
5.777983307355187559e-02
5.063225774564925064e-02
4.267019870425813044e-02
3.402852706073515587e-02
2.484951135047339457e-02
1.528440979095970279e-02
5.484886499513602805e-03
-4.397992370262928698e-03
-1.421365716710159405e-02
-2.381853854775421372e-02
-3.307570739115705399e-02
-4.185295044017006694e-02
-5.003259395707740365e-02
-5.750092361376495098e-02
-6.415825376653752632e-02
-6.991527802163856331e-02
-7.469023143361015749e-02
-7.841940096520520764e-02
-8.104372175598849315e-02
-8.252304828624225375e-02
-8.282816787816400794e-02
-8.194189361215188649e-02
-7.986958018954663785e-02
-7.662279553668852050e-02
-7.223986828797157589e-02
-6.677122578985214552e-02
-6.028450379439292961e-02
-5.287247081029997769e-02
-4.463497285997252567e-02
-3.569912814541967988e-02
-2.620164803834119580e-02
-1.629328395071214658e-02
-6.140775312389832978e-03
4.085885744006357428e-03
1.420711144598536466e-02
2.404110755582514539e-02
3.340998274782495947e-02
4.213931532552778886e-02
5.006166778457381977e-02
5.703040159683654686e-02
6.290512725921232340e-02
6.757515041453934779e-02
7.095036216596668777e-02
7.295961425707267467e-02
7.357447477805564851e-02
7.277726279827077815e-02
7.059364304949983238e-02
6.707268139039808397e-02
6.228528934608581341e-02
5.634062925668444077e-02
4.935620588825798821e-02
4.147909247669624710e-02
3.286866467327095864e-02
2.369295658659825721e-02
1.413181513885718513e-02
4.365362718276076873e-03
-5.429157313778771622e-03
-1.507585299574475124e-02
-2.441069466959118819e-02
-3.328230435468360754e-02
-4.154676876984750300e-02
-4.908573992477545389e-02
-5.578814107386847326e-02
-6.156490778890542914e-02
-6.634528173095605164e-02
-7.006820723044979160e-02
-7.269837665467950016e-02
-7.420664761213531524e-02
-7.458329049859152571e-02
-7.383115901878470333e-02
-7.196164758423206909e-02
-6.900402284052709057e-02
-6.499170546797546077e-02
-5.997354074569344329e-02
-5.400617546967321353e-02
-4.715444016165011576e-02
-3.949659193659174616e-02
-3.111435763312746586e-02
-2.210310891131493649e-02
-1.256361322566154279e-02
-2.604126785476693247e-03
7.657507461523223313e-03
1.810107581240689989e-02
2.859833149823498566e-02
3.901865082865163536e-02
4.922994300623465685e-02
5.909865260108033980e-02
6.849283686758711465e-02
7.728635558640463421e-02
8.535509342767777508e-02
9.258664147200133809e-02
9.887771351683412313e-02
1.041337204154585278e-01
1.082822052413538738e-01
1.112566961764928641e-01
1.130163433626917013e-01
1.135358714227731880e-01
1.128051565178149473e-01
1.108439534016764094e-01
1.076793986780261864e-01
1.033681023730547155e-01
9.798061660635930259e-02
9.160211037590287875e-02
8.434020349051254972e-02
7.630744460162193488e-02
6.763354395514452333e-02
5.845444195028914186e-02
4.891109030076343928e-02
3.915044440284966981e-02
2.931954913898405374e-02
1.956431550825121768e-02
1.003006929955210617e-02
8.563639837389979900e-04
-7.822644811725339847e-03
-1.587690968684163720e-02
-2.318891260758372888e-02
-2.964466765256737121e-02
-3.514425762382680091e-02
-3.959803092387362972e-02
-4.292530547486998749e-02
-4.506667491087404387e-02
-4.596848880139588894e-02
-4.560221957636072243e-02
-4.395365761518586767e-02
-4.102508003207239878e-02
-3.684923626657456153e-02
-3.146713673092681185e-02
-2.495479988542437591e-02
-1.740381897779797946e-02
-8.926657108765202742e-03
3.341819962400681063e-04
1.022841731941543861e-02
2.057705808881806278e-02
3.119127686556516857e-02
4.187100029192317163e-02
5.240353178084707769e-02
6.257555977151450788e-02
7.217399265258406249e-02
8.098658214015273804e-02
8.881551688935726552e-02
9.547563008935371076e-02
1.007941503550773277e-01
1.046339958205779463e-01
1.068680384681985479e-01
1.074108446269783218e-01
1.062054639505014830e-01
1.032188571405781713e-01
9.847096125466506256e-02
9.199455234635942058e-02
8.387191452480272091e-02
7.421165410616274716e-02
6.314519929517511954e-02
5.084333963449782362e-02
3.748477398060431898e-02
2.327417303464415083e-02
8.426765044282625433e-03
-6.838425097090160103e-03
-2.229728464540903926e-02
-3.772807949216858830e-02
-5.292247516693365794e-02
-6.767700565498106779e-02
-8.180779805057696030e-02
-9.515157867699472471e-02
-1.075555963811013899e-01
-1.189021461530248569e-01
-1.290832503531483266e-01
-1.380186745357816491e-01
-1.456509278053106926e-01
-1.519339959424076680e-01
-1.568518048562045630e-01
-1.603952587068179503e-01
-1.625762134027140815e-01
-1.634199075833543957e-01
-1.629600461834307679e-01
-1.612477684581647697e-01
-1.583381366429118808e-01
-1.543002548732912427e-01
-1.492102262145316161e-01
-1.431514347232040463e-01
-1.362190390900837877e-01
-1.285112432082954337e-01
-1.201381582611500409e-01
-1.112145278358235428e-01
-1.018612350302922631e-01
-9.220691048910517607e-02
-8.238171454205724109e-02
-7.252049196300797140e-02
-6.275932024779815044e-02
-5.323217086694580213e-02
-4.407094161314197706e-02
-3.540384991913097384e-02
-2.734687770221483002e-02
-2.001220937257747190e-02
-1.349425473538764034e-02
-7.873770874963333111e-03
-3.219852189572352218e-03
4.275555969498823564e-04
3.036072388956090762e-03
4.603943510844923752e-03
5.147752077363987842e-03
4.700318310171414798e-03
3.325977650279518093e-03
1.096274569978357427e-03
-1.890562908056251865e-03
-5.523914359864213509e-03
-9.682801853584721563e-03
-1.423058459691700639e-02
-1.902811966983372280e-02
-2.392959630064026358e-02
-2.878695012460754168e-02
-3.345434481232827106e-02
-3.778858173067112941e-02
-4.164912152325630362e-02
-4.490596021475731781e-02
-4.743241144799093673e-02
-4.911276669951660651e-02
-4.984143683816625453e-02
-4.951863143732059686e-02
-4.806169054458769851e-02
-4.539257992373112172e-02
-4.145012008358325839e-02
-3.618525465234050109e-02
-2.955921937756013709e-02
-2.155728945783467326e-02
-1.217123669962803106e-02
-1.421211467873081773e-03
1.065668826774310123e-02
2.400757321086671725e-02
3.854231536795684615e-02
5.416249494192016539e-02
7.073048741492012070e-02
8.809148623271390033e-02
1.060680939990981397e-01
1.244508599121296188e-01
1.430225897302302984e-01
1.615385802616418343e-01
1.797449927527391134e-01
1.973815447446529148e-01
2.141808252831140236e-01
2.298788921102657978e-01
2.442267574584399692e-01
2.569808828298379977e-01
2.679300503623167629e-01
2.768909463509666713e-01
2.837035795666729143e-01
2.882737121293426075e-01
2.905249270175075949e-01
2.904522130201301344e-01
2.880986367249052105e-01
2.835457049830436005e-01
2.769587672280711121e-01
2.685226241080262422e-01
2.584931493489976972e-01
2.471633886094021237e-01
2.348530655713547133e-01
2.219271693629134012e-01
2.087570086765764277e-01
1.957259006182075212e-01
1.832214545933559813e-01
1.716118653597875632e-01
1.612394714811819785e-01
1.524295188357588926e-01
1.454336259028802536e-01
1.404782019718421038e-01
1.377137715716039712e-01
1.372122120804406542e-01
1.390068205643033850e-01
1.430046935547469589e-01
1.490781875988466398e-01
1.569989842902629884e-01
1.664574062067594173e-01
1.771028062427485172e-01
1.884791561555742290e-01
2.001071927625190650e-01
2.114467942517557764e-01
2.219196261333494236e-01
2.309392374434897366e-01
2.379035134828510201e-01
2.422136732534350134e-01
2.433136239457966421e-01
2.406688157365206582e-01
2.338042860889902042e-01
2.223404369614562226e-01
2.059331814985994324e-01
1.843989343655622892e-01
1.576169635729832430e-01
1.255948224705532856e-01
8.849972200124159305e-02
4.655612380033011949e-02
1.991780386470546824e-04
-5.007089401848537763e-02
-1.036151745659148748e-01
-1.596601528600887221e-01
-2.173860156060247184e-01
-2.758363735269383499e-01
-3.340231164062547053e-01
-3.909122912877011080e-01
-4.454353428420457228e-01
-4.965396106708994672e-01
-5.432149091324840473e-01
-5.844706602088248770e-01
-6.194490673208614684e-01
-6.473710900998409512e-01
-6.675738248178755274e-01
-6.796178405806291289e-01
-6.831283722183508766e-01
-6.780208259221010003e-01
-6.643447495075320841e-01
-6.423351958749570212e-01
-6.125044207117728012e-01
-5.754393788788245701e-01
-5.320134280920802983e-01
-4.832025825037077338e-01
-4.301194818894004124e-01
-3.740359330121867942e-01
-3.162527428363816617e-01
-2.581534551686003875e-01
-2.011407211164214504e-01
-1.465730154422811016e-01
-9.576864958974519448e-02
-4.998263906965397241e-02
-1.027771737406276212e-02
2.233967405176220250e-02
4.711435306611008733e-02
6.346929226876307784e-02
7.097760111865894506e-02
6.955791052773482863e-02
5.921390366366202640e-02
4.027968867187697172e-02
1.327180182374743458e-02
-2.113612288771876332e-02
-6.198924181867675187e-02
-1.082740358750071408e-01
-1.587777568050099952e-01
-2.122031204378944380e-01
-2.672103896875872020e-01
-3.224007004726749948e-01
-3.763853656685370308e-01
-4.278502765292254706e-01
-4.755102552455739984e-01
-5.182202764473116119e-01
-5.549882518571004342e-01
-5.849058210973780980e-01
-6.073558282465475466e-01
-6.218051841954448378e-01
-6.279708969040866950e-01
-6.257827712711131474e-01
-6.152780346909866305e-01
-5.967845596432966859e-01
-5.706980378000805487e-01
-5.376024414613390645e-01
-4.982064644895504157e-01
-4.532705360404006290e-01
-4.036639565406144325e-01
-3.502708817846226785e-01
-2.939786723880279951e-01
-2.356756898781522114e-01
-1.762014367778482193e-01
-1.163127454958183399e-01
-5.673423513827709208e-02
1.963055092032772904e-03
5.927093301048468044e-02
1.147947103776509464e-01
1.682884193130658734e-01
2.195514703801400569e-01
2.685503071285632593e-01
3.153043116294373394e-01
3.599182676306139084e-01
4.025842078843316907e-01
4.435132617880599981e-01
4.829704125955012750e-01
5.212318677418810164e-01
5.585622960465173037e-01
5.952171383608324540e-01
6.314260912632857492e-01
6.673504384772122044e-01
7.031319664623874033e-01
7.388231693576186032e-01
7.744210389784066395e-01
8.098736838888078715e-01
8.450307077436647329e-01
8.797198299218754736e-01
9.136909626509306381e-01
9.466566029174441343e-01
9.783061480419342759e-01
1.008292842118180488e+00
1.036268032898654878e+00
1.061890670763852684e+00
1.084823472555192847e+00
1.104763677615419937e+00
1.121450902295583196e+00
1.134646974388489049e+00
1.144199761167718155e+00
1.149984143731421327e+00
1.151947901760070003e+00
1.150108554040814246e+00
1.144514089092715903e+00
1.135303721551246703e+00
1.122639309100271765e+00
1.106737877570628248e+00
1.087857577998394332e+00
1.066270209560901350e+00
1.042279195643907919e+00
1.016192403101467301e+00
9.883135818219074276e-01
9.589439443969282051e-01
9.283663174117305905e-01
8.968284341921913816e-01
8.645657989939941057e-01
8.317534507105113217e-01
7.985387492205358040e-01
7.650242620706564356e-01
7.312465462880539668e-01
6.972224605915515738e-01
6.628908428808494291e-01
6.281626910000093211e-01
5.929038492144143024e-01
5.569282983610877036e-01
5.200361896584844157e-01
4.819830701090991321e-01
4.425126198916880527e-01
4.013584334520098329e-01
3.582450768262360752e-01
3.129038661350235784e-01
2.650877472256344403e-01
2.145573931243162369e-01
1.611201013069100130e-01
1.046157854875556514e-01
4.491868944554795740e-02
-1.801869774393986476e-02
-8.422329361540549508e-02
-1.536345035375904222e-01
-2.261440298571582019e-01
-3.015949882860623488e-01
-3.797446097254419395e-01
-4.603298979225999843e-01
-5.430113597848529317e-01
-6.274171941906443450e-01
-7.131443833339948801e-01
-7.997469047804816045e-01
-8.867720239685669137e-01
-9.737491066568498832e-01
-1.060202325822890757e+00
-1.145666820876266367e+00
-1.229689530784243923e+00
-1.311829752027237950e+00
-1.391691169489087221e+00
-1.468890857782985337e+00
-1.543095938087741148e+00
-1.614015515383315558e+00
-1.681385358447621048e+00
-1.745013326960263678e+00
-1.804725273022271814e+00
-1.860409156120447660e+00
-1.911993543151234043e+00
-1.959434568896194051e+00
-2.002746553956410658e+00
-2.041956191107748175e+00
-2.077130511219884124e+00
-2.108356977983180336e+00
-2.135733764791632350e+00
-2.159376638719516350e+00
-2.179402023763027607e+00
-2.195920048081493103e+00
-2.209037900694752032e+00
-2.218842831295834817e+00
-2.225396313619377953e+00
-2.228746979003291884e+00
-2.228891637720171737e+00
-2.225810115364233344e+00
-2.219437579345079126e+00
-2.209664218358148968e+00
-2.196361153101565211e+00
-2.179339770298925671e+00
-2.158396130256980072e+00
-2.133291162908751648e+00
-2.103758223529728077e+00
-2.069524048595550614e+00
-2.030299843130666915e+00
-1.985795799714070498e+00
-1.935738494397482024e+00
-1.879864652698171046e+00
-1.817935371705919900e+00
-1.749760656131359449e+00
-1.675165819279947010e+00
-1.594049562862114078e+00
-1.506345817439848966e+00
-1.412037880297581705e+00
-1.311185633795356464e+00
-1.203869503523266715e+00
-1.090250096154429027e+00
-9.705178460553086639e-01
-8.449019210432596738e-01
-7.136783174385772366e-01
-5.771323668000358786e-01
-4.355775731798532946e-01
-2.893348799062918086e-01
-1.387219617265296467e-01
1.594659150932567493e-02
1.743654484947844141e-01
3.362589155275556574e-01
5.013597177102682156e-01
6.694343435187004587e-01
8.402741065221245309e-01
1.013684077459535926e+00
1.189501733063075939e+00
1.367570039662147519e+00
1.547737883891950883e+00
1.729857364881898674e+00
1.913763804613591413e+00
2.099260857473426611e+00
2.286136828302869350e+00
2.474094960574326318e+00
2.662799944111909234e+00
2.851845892073668676e+00
3.040724363602565372e+00
3.228879536772998549e+00
3.415545987495908875e+00
3.599888674789763154e+00
3.781072511431922578e+00
3.958262410199234083e+00
