BVP Green Neck Signal
1.777227901625071799e-02
3.564033305434217286e-02
4.924799897572677831e-02
5.551282806524288072e-02
5.272627938041964807e-02
4.080952199299271721e-02
2.123296285456635624e-02
-3.334517913294273925e-03
-2.953073558252138769e-02
-5.383903554487297349e-02
-7.306863733568680352e-02
-8.472512264062244391e-02
-8.725398365152021996e-02
-8.016056515080684231e-02
-6.401917803067301571e-02
-4.038750625194227617e-02
-1.164120715746174740e-02
1.926129397735111548e-02
4.907737158272997002e-02
7.463049615869195297e-02
9.318458453892519699e-02
1.027950596394445332e-01
1.025771953858982954e-01
9.283482708995956234e-02
7.501052313817531403e-02
5.145033901407140842e-02
2.501881075666702314e-02
-1.357698312726708309e-03
-2.511716168534006838e-02
-4.436482197549539153e-02
-5.800125395478096524e-02
-6.567809436184803007e-02
-6.762891036067934791e-02
-6.444564819128675848e-02
-5.687148714210675526e-02
-4.566401802756030193e-02
-3.155415513648160419e-02
-1.529251208763235566e-02
2.254584864005934955e-03
2.001301970985416845e-02
3.666404798703054579e-02
5.069719432183149993e-02
6.056279960257340139e-02
6.490647756682420277e-02
6.284012940498191757e-02
5.418269376320399705e-02
3.959881982493098501e-02
2.058345628550800610e-02
-7.179992261066563825e-04
-2.181708469577405690e-02
-4.024727121491349091e-02
-5.390854232571905269e-02
-6.132800836175010539e-02
-6.180073655691158130e-02
-5.540600730414139280e-02
-4.291992745049333369e-02
-2.565931592544649920e-02
-5.292702238297216852e-03
1.635272350283396153e-02
3.746714197773275828e-02
5.640194336770432831e-02
7.177291231267605986e-02
8.252399691926907976e-02
8.796231574002665032e-02
8.777790027386089822e-02
8.205534215674016585e-02
7.127313832875979693e-02
5.627736832587211524e-02
3.821465216701054601e-02
1.841715578977072554e-02
-1.750601529094604134e-03
-2.105200721923257412e-02
-3.850038280436025168e-02
-5.340334598516088827e-02
-6.531818768305894252e-02
-7.394403327149477734e-02
-7.900273851505444644e-02
-8.016319859469742126e-02
-7.704460182158613668e-02
-6.930473871204988201e-02
-5.679179429570233029e-02
-3.971825765613831022e-02
-1.880552512991801734e-02
4.650517961507257339e-03
2.882726880968378841e-02
5.154445961801203124e-02
7.053317436199513235e-02
8.375985456902179660e-02
8.974589981596305110e-02
8.781876473446478815e-02
7.823785072147722286e-02
6.216229720816644072e-02
4.146682045606940592e-02
1.845311099966120277e-02
-4.471378400063721545e-03
-2.507930574951317687e-02
-4.153227695242289047e-02
-5.250319783195189771e-02
-5.722689771207171983e-02
-5.550411601826156505e-02
-4.768081994524536738e-02
-3.461230345179826251e-02
-1.760680086787735216e-02
1.664850705305519554e-03
2.130329177167309546e-02
3.935525324440401762e-02
5.401172216461457704e-02
6.380493417943694512e-02
6.777766433941222191e-02
6.559871396913768971e-02
5.760053289695743484e-02
4.472279812868677762e-02
2.836342727468216252e-02
1.016336636049195059e-02
-8.226481002540106044e-03
-2.534041812022387596e-02
-4.001221618729024904e-02
-5.139418722998325556e-02
-5.890056192227115239e-02
-6.212103597092183405e-02
-6.075876725665800560e-02
-5.463276866331832904e-02
-4.375291964196528077e-02
-2.844158200649633816e-02
-9.454361219140049524e-03
1.195037422020029695e-02
3.403234020914321090e-02
5.470031847713457962e-02
7.174810076579801743e-02
8.316201759873111110e-02
8.744203921462177787e-02
8.386676260440713293e-02
7.263957670554893609e-02
5.487805269694076560e-02
3.244553717555969524e-02
7.664075238021527195e-03
-1.702141500518786210e-02
-3.934924477363357931e-02
-5.745781389557896857e-02
-6.999219000204338903e-02
-7.611914776924270931e-02
-7.549243287505676137e-02
-6.820941813283902533e-02
-5.478322482619368827e-02
-3.613380155452414200e-02
-1.358559928962613413e-02
1.115051576722923994e-02
3.603759789253744433e-02
5.883713784870849006e-02
7.730444530196753372e-02
8.943945179841265858e-02
9.375678766814903031e-02
8.952633991189705431e-02
7.693278290301508449e-02
5.711042384179999126e-02
3.203085569831960744e-02
4.255552966695408737e-03
-2.339673947180521962e-02
-4.819595842545219833e-02
-6.779420533203228683e-02
-8.042982428847016141e-02
-8.503898181078770047e-02
-8.129427755936015354e-02
-6.959555616960703961e-02
-5.103016400630482063e-02
-2.730551489217460104e-02
-6.433437767683052727e-04
2.638068848168674541e-02
5.106155556470242524e-02
7.084480421509199710e-02
8.363111952468565979e-02
8.805856608183321166e-02
8.370989050197870374e-02
7.119717163925112779e-02
5.209192465484077661e-02
2.869781291224531711e-02
3.703169323295731410e-03
-2.021206411530306057e-02
-4.072547254348390933e-02
-5.610573149568294504e-02
-6.530080381187984562e-02
-6.789664490536202746e-02
-6.399485962776506331e-02
-5.407043760625608597e-02
-3.886395289467663855e-02
-1.933983896321560952e-02
3.290310778657610027e-03
2.751259770299527979e-02
5.147643873692958616e-02
7.303301653037999608e-02
8.987965445533702136e-02
9.981304553635654553e-02
1.010601092245766858e-01
9.262351812125814432e-02
7.455890319377518616e-02
4.810428687411266724e-02
1.561506652519111145e-02
-1.969034973307415282e-02
-5.412167022079591994e-02
-8.396871141471672073e-02
-1.059417760594706936e-01
-1.175462558451977613e-01
-1.173575931485891094e-01
-1.051789243243433369e-01
-8.207487446290408217e-02
-5.028166421282036919e-02
-1.299778858535078317e-02
2.593486866675601132e-02
6.243834186670822739e-02
9.265658367753780433e-02
1.134107863797448046e-01
1.225911946598222946e-01
1.194276748245992753e-01
1.045926028884740649e-01
8.010767987209387042e-02
4.905370885059161246e-02
1.512101313725964548e-02
-1.791990399570422832e-02
-4.672160415499924946e-02
-6.873765024224942621e-02
-8.241577483530826420e-02
-8.720199175430665139e-02
-8.339971316208140417e-02
-7.195492955094361098e-02
-5.423971667529596530e-02
-3.188497932284202474e-02
-6.678891742245342614e-03
1.948607050680127573e-02
4.465404100445956315e-02
6.687081828391473748e-02
8.429370928453970568e-02
9.534581952948655015e-02
9.889541810754894080e-02
9.442631232701177713e-02
8.215646740243684465e-02
6.306409561376762063e-02
3.879794030520303250e-02
1.147977556225204289e-02
-1.655896825216894575e-02
-4.304393994691414760e-02
-6.596888316447588330e-02
-8.371793062655959183e-02
-9.510282925219828987e-02
-9.935017635256730706e-02
-9.608668101659653682e-02
-8.535900830783521576e-02
-6.769440400839933647e-02
-4.417469128577828502e-02
-1.647616598444802405e-02
1.317096914067270898e-02
4.213153144977704878e-02
6.762354462900231622e-02
8.705774075391821409e-02
9.840410422683668057e-02
1.005134340598546061e-01
9.332081380260907888e-02
7.787826520050303292e-02
5.620236963632606331e-02
3.096783588952417565e-02
5.114732836480785985e-03
-1.854718757016401987e-02
-3.766345798495010500e-02
-5.054551763440337520e-02
-5.626102528389820973e-02
-5.462843848467599517e-02
-4.615266547558871668e-02
-3.193117789485551417e-02
-1.354272476193966492e-02
7.082719934554027388e-03
2.781709101397029926e-02
4.650997786267222628e-02
6.117977274982582675e-02
7.020622992474599700e-02
7.250292443472307335e-02
6.764208685584659209e-02
5.590578924161297703e-02
3.825085100705722524e-02
1.619718396920726000e-02
-8.330185876696481403e-03
-3.316875428551251115e-02
-5.607115590343252076e-02
-7.484115795512921721e-02
-8.747216229339975502e-02
-9.231415948035590069e-02
-8.828202742437865624e-02
-7.508724499531482799e-02
-5.343922790856907301e-02
-2.514141545741604977e-02
6.984282019677283751e-03
3.937383931539524540e-02
6.817621866540551911e-02
8.981755206554767335e-02
1.015721659494306650e-01
1.020256909325029243e-01
9.132654539637412305e-02
7.115990675400089838e-02
4.444006766791087915e-02
1.478784099564788880e-02
-1.408501443938986984e-02
-3.894383678152054523e-02
-5.743502613859277628e-02
-6.826442241310208547e-02
-7.115432053970165149e-02
-6.663907883123258713e-02
-5.578907483119165123e-02
-3.995002792380140944e-02
-2.055567976006641290e-02
9.673544316550018035e-04
2.321688871650967601e-02
4.478856372002499447e-02
6.424654644467416020e-02
8.013044867042759534e-02
9.102503238038202327e-02
9.569616002417459522e-02
9.326815656712039715e-02
8.339667461494343348e-02
6.638867892590188946e-02
4.323870653165239747e-02
1.557771742187027443e-02
-1.444744759447592029e-02
-4.433916874575803690e-02
-7.144083481050443607e-02
-9.314976265079197293e-02
-1.071534183633357645e-01
-1.116866977183395698e-01
-1.057903196652806715e-01
-8.952779086600499980e-02
-6.410543897123374690e-02
-3.184712612717791047e-02
3.999015333288101839e-03
3.961096199062977274e-02
7.105866540251763730e-02
9.482001825337832424e-02
1.082658010503947110e-01
1.100284931643275149e-01
1.001837881714383038e-01
8.020806946886187283e-02
5.272355460498987650e-02
2.109060301986474817e-02
-1.106287131993900601e-02
-4.028235942759371413e-02
-6.363035914072383281e-02
-7.890611959573809453e-02
-8.475555486173273756e-02
-8.070841857714762535e-02
-6.717754302308877323e-02
-4.543357940449610499e-02
-1.754426165957738426e-02
1.374595657321579963e-02
4.521741956240207805e-02
7.346478891801443145e-02
9.526015431498961739e-02
1.079512176634062209e-01
1.098335128841042563e-01
1.004231100253050873e-01
8.056366166816958385e-02
5.233286391071655108e-02
1.876070436831208527e-02
-1.658212188366177398e-02
-5.004048161675297979e-02
-7.829169194119016406e-02
-9.866390848825337678e-02
-1.093334749873732803e-01
-1.094124578619148358e-01
-9.895635299212357516e-02
-7.892062834850062381e-02
-5.107900529175990467e-02
-1.789952329016871596e-02
1.763210719982008512e-02
5.224677912398412172e-02
8.267716231601711374e-02
1.059749845464380003e-01
1.198299328646109801e-01
1.228482135663157698e-01
1.147417793534595692e-01
9.638400838982301433e-02
6.970862510630852771e-02
3.746265200116011274e-02
2.859824473792351232e-03
-3.079659167222675853e-02
-6.045313385974473985e-02
-8.356176294854439357e-02
-9.823994156584973936e-02
-1.033538091594285169e-01
-9.855663565566295803e-02
-8.430633905349883828e-02
-6.186319263081944964e-02
-3.324798406669371431e-02
-1.134382172293757138e-03
3.134203978738388241e-02
6.085927057051061795e-02
8.425220155689842894e-02
9.888927354140295001e-02
1.030303724537809940e-01
9.610233876604919179e-02
7.883089054938202667e-02
5.318827249621771447e-02
2.215143776233859108e-02
-1.069268413547091144e-02
-4.162253251154762745e-02
-6.724871205276643227e-02
-8.489271476201015743e-02
-9.283072430751335147e-02
-9.039680788999045202e-02
-7.797077808898941753e-02
-5.688516167208296226e-02
-2.927588951971950987e-02
2.113711491631727404e-03
3.417378502052621780e-02
6.370942126042973552e-02
8.774999606932869234e-02
1.038627429330835628e-01
1.104352138446761805e-01
1.068820392095675836e-01
9.373123032280351874e-02
7.255972488896200723e-02
4.577637851224737597e-02
1.628577152626829033e-02
-1.290353688119380386e-02
-3.904897684171730610e-02
-5.995423725744343513e-02
-7.412207009131531465e-02
-8.078196117181477010e-02
-7.982969643318631181e-02
-7.173104889251556704e-02
-5.743200100591822066e-02
-3.829093330883796831e-02
-1.602077725884611809e-02
7.385071131015929005e-03
2.976766286691213265e-02
4.897071368068577762e-02
6.305706623328623250e-02
7.054781230454879037e-02
7.063941524173693309e-02
6.334546769456037008e-02
4.951976582263643845e-02
3.074631164765551095e-02
9.119062291806397449e-03
-1.303638066477026507e-02
-3.343763930032017662e-02
-5.006813314095717726e-02
-6.132558979262352217e-02
-6.610431710024318452e-02
-6.383875564534198521e-02
-5.453650977091466234e-02
-3.881071658700926269e-02
-1.789600450343237226e-02
6.383903373165330034e-03
3.172618441771184183e-02
5.554757040168223359e-02
7.525940508817165198e-02
8.858602724097187908e-02
9.387757317761048770e-02
9.035968947341416202e-02
7.826624717573975321e-02
5.882117263892321785e-02
3.406958179076744614e-02
6.595571591091831457e-03
-2.081069709445591831e-02
-4.547069926952690411e-02
-6.507188231697158542e-02
-7.783945179637642708e-02
-8.263422138180843979e-02
-7.900133953533038100e-02
-6.719331829048508231e-02
-4.817411912323629058e-02
-2.359064358613802842e-02
4.312390484381501202e-03
3.285259636207842754e-02
5.914671928099987652e-02
8.040676400877913577e-02
9.426231866572060136e-02
9.906409047444793281e-02
9.411701262604228735e-02
7.979456848889264486e-02
5.750422136012015017e-02
2.950603804498826838e-02
-1.377415632500834583e-03
-3.209749059222287426e-02
-5.969827071360286896e-02
-8.157469393852838369e-02
-9.565868712462492762e-02
-1.005494389784949150e-01
-9.561413768434547100e-02
-8.107379711822727819e-02
-5.806254587193651617e-02
-2.862471582483333554e-02
4.391978386043176100e-03
3.757242586626095837e-02
6.729360356219128703e-02
9.016892288614847262e-02
1.035122047818004681e-01
1.057398285393101184e-01
9.662848187133292466e-02
7.736635960395292499e-02
5.037902081799776333e-02
1.896640930379224488e-02
-1.316685744921298161e-02
-4.238950948884860626e-02
-6.554874567748210368e-02
-8.025939410181313904e-02
-8.507386133886131463e-02
-7.955562583057580739e-02
-6.428417764506146048e-02
-4.080616224601318898e-02
-1.152724824362402582e-02
2.047360289578141479e-02
5.172167917438395823e-02
7.870966615729144134e-02
9.831258341834614445e-02
1.081967221330734363e-01
1.071515742256450715e-01
9.527509166227229875e-02
7.396224533853096306e-02
4.568667974812297417e-02
1.361782005997670165e-02
-1.883908893984799493e-02
-4.847738795718312121e-02
-7.261767572834926243e-02
-8.929704191059648077e-02
-9.733209300304883349e-02
-9.629840544148295101e-02
-8.647471083925452329e-02
-6.878548506658831163e-02
-4.474995437077309429e-02
-1.642087973111038685e-02
1.371625479898913071e-02
4.290871576056422276e-02
6.837347168105993578e-02
8.758882691469323245e-02
9.860279305029868990e-02
1.003052482154285496e-01
9.260467230600152866e-02
7.645846604997011409e-02
5.373441061883807435e-02
2.692600715468269901e-02
-1.211499179459748707e-03
-2.801697678587528745e-02
-5.119690692013067340e-02
-6.898057556451231420e-02
-8.016480425715315217e-02
-8.408796054075988458e-02
-8.058390020281984423e-02
-6.995533470558974731e-02
-5.297894921367130028e-02
-3.092388739994054309e-02
-5.545482566135800581e-03
2.098408339665521621e-02
4.622956557167445107e-02
6.772783698393661234e-02
8.327798910767086893e-02
9.124091334425325772e-02
9.079036275030537284e-02
8.205598413757757281e-02
6.611453108497368503e-02
4.481996143977179381e-02
2.050774507846409023e-02
-4.354271401449996345e-03
-2.748401484814317480e-02
-4.700634660188482417e-02
-6.155096460545642079e-02
-7.024470212263596303e-02
-7.264722855501172527e-02
-6.868663484513400086e-02
-5.863339761487740276e-02
-4.311814358958628024e-02
-2.316800009903580149e-02
-2.219164538869219244e-04
2.391041775978402367e-02
4.716515652161519523e-02
6.741454201623682529e-02
8.270739392642786902e-02
9.151776834215459566e-02
9.294990630064893511e-02
8.685250551361854698e-02
7.381600657457663972e-02
5.505749986223629211e-02
3.222909593071521250e-02
7.205901283162808105e-03
-1.809014460202666708e-02
-4.179722660541484308e-02
-6.215643572344123347e-02
-7.753181410350024061e-02
-8.646388365597970638e-02
-8.779601757597844947e-02
-8.087189156936656909e-02
-6.575756037614559346e-02
-4.341414328758031599e-02
-1.574665625350494397e-02
1.452031611918699373e-02
4.414657783402650693e-02
6.981679726294132138e-02
8.863171127177577047e-02
9.854292882172516199e-02
9.863347238745240331e-02
8.918457319233497049e-02
7.152514408202244323e-02
4.771766504090627081e-02
2.017632775903882569e-02
-8.674605417624338052e-03
-3.661968942451497566e-02
-6.172174099386182333e-02
-8.227887530254096582e-02
-9.674965448710974580e-02
-1.037318249222195787e-01
-1.020482216644625628e-01
-9.094303869097340731e-02
-7.034436345660470546e-02
-4.111806591038712905e-02
-5.228044997394333190e-03
3.427124133577778842e-02
7.345317472034437745e-02
1.079455993560634736e-01
1.335125160048341031e-01
1.466955449243952658e-01
1.453958808107738143e-01
1.292773999082850456e-01
9.989909638236309231e-02
6.053950568857354581e-02
1.574516389233235336e-02
-2.930443046000527629e-02
-6.949381554086393742e-02
-1.004167068127177764e-01
-1.188867567336540504e-01
-1.232666794201943278e-01
-1.135956105018641055e-01
-9.151367826123614491e-02
-6.000019834137296226e-02
-2.296127011129645706e-02
1.527834574068307090e-02
5.051024180655711016e-02
7.913104397352274666e-02
9.851967046819187779e-02
1.072591389410829932e-01
1.051882322491590888e-01
9.329643500732497097e-02
7.349366588085455565e-02
4.829388308003618180e-02
2.045647683298684738e-02
-7.362171957853746659e-03
-3.288790812508670530e-02
-5.438894513128399860e-02
-7.069920929182790803e-02
-8.113141292488021405e-02
-8.534125577570755850e-02
-8.321348377452746081e-02
-7.482210337244336873e-02
-6.048010814000097379e-02
-4.085297643219240604e-02
-1.707928975592482024e-02
9.168223421614886751e-03
3.573345439813366275e-02
6.015851925329204070e-02
7.997630701057795166e-02
9.306230585601671379e-02
9.797565603178383375e-02
9.421496030025021395e-02
8.232466030318770500e-02
6.381567012793606941e-02
4.090905266833733123e-02
1.616258607032997063e-02
-7.924338207218861382e-03
-2.923071037058866395e-02
-4.619649198441003191e-02
-5.785868293030942133e-02
-6.378014186671709940e-02
-6.393661479987057528e-02
-5.862445213887021445e-02
-4.842312035553036215e-02
-3.420655647810150884e-02
-1.716466366580731567e-02
1.214535469055305975e-03
1.923806715024448111e-02
3.518383886086517282e-02
4.753501932687506648e-02
5.522321638975921654e-02
5.781606885911796945e-02
5.558658622182222758e-02
4.942519427313902397e-02
4.060072547871683424e-02
3.043091322902007068e-02
1.996312997330462052e-02
9.770946396329463143e-03
-6.387192099609369234e-05
-9.777819906405979880e-03
-1.962196754455560604e-02
-2.953750360188165530e-02
-3.893127820302369479e-02
-4.664170502034574450e-02
-5.112346238831521478e-02
-5.080888210732491250e-02
-4.454926097053232836e-02
-3.201543935554194281e-02
-1.394597953053118046e-02
7.832619924932381419e-03
3.063456714948489118e-02
5.135109714678866288e-02
6.699904693232838770e-02
7.525641448974677850e-02
7.486520094236642775e-02
6.582198527420740630e-02
4.933689641458398334e-02
2.759918395505157884e-02
3.422849090624050308e-03
-2.014843720213958106e-02
-4.021591061682695811e-02
-5.434668621078134199e-02
-6.083050406484137584e-02
-5.886802961746252782e-02
-4.867852863000292352e-02
-3.150495947173961170e-02
-9.495996241186381234e-03
1.453921583173294931e-02
3.748334650067900592e-02
5.632694628097061756e-02
6.858888448099244306e-02
7.267407771792593063e-02
6.810426347871019470e-02
5.557432214537057213e-02
3.681797207784275744e-02
1.430730190967916503e-02
-9.149822885106640921e-03
-3.082501316329810254e-02
-4.840831503949518527e-02
-6.021204716267246349e-02
-6.523061263026118384e-02
-6.309628978072019667e-02
-5.399712643295073722e-02
-3.861530710880839434e-02
-1.810903336299187621e-02
5.881561974092933479e-03
3.125185702239080543e-02
5.552363942537012764e-02
7.604001203579605073e-02
9.026250792352516483e-02
9.613296936453523400e-02
9.243266986208001357e-02
7.905601412674813366e-02
5.712352788928325847e-02
2.888984947736256831e-02
-2.550398360016489438e-03
-3.370589789187773688e-02
-6.118979161505762321e-02
-8.217348792988217465e-02
-9.470504767821300018e-02
-9.784797555181870554e-02
-9.165046257401070207e-02
-7.699768002854287530e-02
-5.541471056444134680e-02
-2.887427670202550450e-02
3.652061101227944279e-04
2.989284245032278187e-02
5.726732656819746858e-02
8.014951212463200525e-02
9.646133905332622549e-02
1.045723716681751375e-01
1.034942214219954221e-01
9.304348598792724911e-02
7.392656563867371078e-02
4.771181831017490271e-02
1.668296290231888884e-02
-1.640000602577135203e-02
-4.858454551603780258e-02
-7.700350407626371796e-02
-9.911153254767048060e-02
-1.128674885287874324e-01
-1.168711974455387825e-01
-1.104715703158571927e-01
-9.385527724386773241e-02
-6.810615049157232870e-02
-3.520771732181288138e-02
2.044191030293776926e-03
4.024229806682443067e-02
7.568570971288754445e-02
1.047928352448839473e-01
1.245601103080795913e-01
1.329925972870009687e-01
1.294201910829783364e-01
1.146237411356488961e-01
9.073228538324822068e-02
6.090633967400217036e-02
2.887349578477275969e-02
-1.587470077447554126e-03
-2.711775452647312984e-02
-4.513442951930331931e-02
-5.403962431516409065e-02
-5.328905827419350150e-02
-4.334933713217845735e-02
-2.557742935079090896e-02
-2.046119584472925676e-03
2.467167305767128949e-02
5.174999810743744627e-02
7.637421581440236029e-02
9.600174075458976775e-02
1.085932330631336346e-01
1.127851486843116646e-01
1.079745800163877806e-01
9.429503012672359186e-02
7.248197909600236077e-02
4.365846958876495876e-02
9.102263433563054576e-03
-2.992957091779092221e-02
-7.225746770354368742e-02
-1.166981207771415757e-01
-1.618792314235953378e-01
-2.060290318566112833e-01
-2.468375998349807698e-01
-2.814695572684936531e-01
-3.067590693426578419e-01
-3.195564691220618703e-01
-3.171454130221951773e-01
-2.976277423787708210e-01
-2.601843589442456861e-01
-2.051581227010080832e-01
-1.339589239640622265e-01
-4.884956608733054262e-02
4.728322971768798844e-02
1.510570351393503152e-01
2.585440357473459683e-01
3.650504653323947135e-01
4.648328142052804424e-01
5.509339037606130196e-01
6.153387657675031264e-01
6.495972217758572143e-01
6.459459239148732657e-01
5.988093626469594977e-01
5.064017548933985591e-01
3.720365645651181330e-01
2.047242571645382925e-01
1.873161408435490560e-02
-1.680106077469218917e-01
-3.364674320762886528e-01
-4.695435327903377254e-01
-5.549367827293081312e-01
-5.871300148568192601e-01
-5.680590150954885065e-01
-5.063391035364708248e-01
-4.152924835342731158e-01
-3.102822588114051983e-01
-2.059637279708785296e-01
-1.140064665756330836e-01
-4.166607105164342462e-02
8.642142765156056797e-03
3.883252161485255260e-02
5.393271140057749602e-02
6.048744784992135526e-02
6.492948098321109363e-02
7.222256350016134641e-02
8.499366566914023924e-02
1.032575836405324049e-01
1.247168977198769985e-01
1.455145606495910626e-01
1.612440819731165154e-01
1.679940862830262005e-01
1.632191729143000480e-01
1.462790120296552088e-01
1.185627578859691916e-01
8.320536689297507171e-02
4.448879708381846265e-02
7.080415268934272047e-03
-2.472481026193350945e-02
-4.762167939847289366e-02
-5.969014768110639246e-02
-6.054420865429462062e-02
-5.125378256246625880e-02
-3.408611463674950798e-02
-1.212522610628779911e-02
1.117120691744551662e-02
3.242399788568146174e-02
4.874710693526104754e-02
5.808280882077702240e-02
5.941874511535782943e-02
5.285635318901739377e-02
3.951820834600647953e-02
2.130940614497018465e-02
5.786038429775337139e-04
-2.025234811770180304e-02
-3.901455611780568766e-02
-5.401308021957157424e-02
-6.411516755280448343e-02
-6.871938308708559762e-02
-6.765303480114796819e-02
-6.105808805421490681e-02
-4.931420669042524407e-02
-3.302044519993654892e-02
-1.302851036948223830e-02
9.500010907255414597e-03
3.305040860883721315e-02
5.576446368582721469e-02
7.553263205734579711e-02
9.017899941392382157e-02
9.772346523101965721e-02
9.668157560452871058e-02
8.634678766382317128e-02
6.699560331939370672e-02
3.996466915501712541e-02
7.572077165159287263e-03
-2.711126768549973476e-02
-6.060272802168553685e-02
-8.940762751404461584e-02
-1.104251042105075381e-01
-1.213170586550426783e-01
-1.208030488615928627e-01
-1.088442347055588871e-01
-8.668205468916374834e-02
-5.671113878820280285e-02
-2.219142634789609408e-02
1.316659279064490325e-02
4.568610371424326744e-02
7.220615684973326343e-02
9.048625374931561216e-02
9.946532579868196111e-02
9.932850299930914839e-02
9.136851369006414314e-02
7.766705358765921274e-02
6.065742872131098251e-02
4.265810418091906669e-02
2.548123550551125577e-02
1.021040574833108859e-02
-2.799949472217439991e-03
-1.371727059460962732e-02
-2.289624506176496377e-02
-3.053617572816793441e-02
-3.644602323589761494e-02
-3.999193706541261800e-02
-4.024233142896441878e-02
-3.626608464158773137e-02
-2.749447465250377115e-02
-1.403735201412037621e-02
3.144802440023448595e-03
2.227089000732757756e-02
4.097256002453678742e-02
5.667799168863513898e-02
6.705641259119353437e-02
7.042118111389077117e-02
6.600246014259503191e-02
5.403808537664838568e-02
3.568483333365585902e-02
1.280247739364946159e-02
-1.231291835314535059e-02
-3.718156556735512791e-02
-5.934890912721015044e-02
-7.655720858861531086e-02
-8.690341887378995323e-02
-8.900231459593142824e-02
-8.215479245889269200e-02
-6.649916420801997574e-02
-4.310683803209552217e-02
-1.397907393308024486e-02
1.808795384675773027e-02
4.977768622736175597e-02
7.764304421170312165e-02
9.855801798758286048e-02
1.101582685223772007e-01
1.111917804726576114e-01
1.017080493761453458e-01
8.303791929241818859e-02
5.755771909437575745e-02
2.828409425956774498e-02
-1.608462011197358751e-03
-2.923776915584440361e-02
-5.234067079663991956e-02
-6.942956097266445026e-02
-7.978317115760620581e-02
-8.331742961990021290e-02
-8.040360244146678437e-02
-7.169856239565108869e-02
-5.802985430827946323e-02
-4.034776563118006032e-02
-1.973098387856864200e-02
2.581792164703196682e-03
2.516654979333363129e-02
4.642634665734950844e-02
6.466622939011540394e-02
7.823998926828450162e-02
8.575366115899685227e-02
8.628517920083317305e-02
7.956487359722060060e-02
6.606601867263475758e-02
4.697835724526516765e-02
2.407143357252411464e-02
-5.154521267566377490e-04
-2.450645786218804550e-02
-4.570321949789062088e-02
-6.216020402933168654e-02
-7.232560804414153721e-02
-7.516222561782785749e-02
-7.025470235091969828e-02
-5.789167605368544800e-02
-3.909787992645948063e-02
-1.559122712490224917e-02
1.034850322241652638e-02
3.609664253527637701e-02
5.896759212631367403e-02
7.653202777269554891e-02
8.692088789903532065e-02
8.906432266479445692e-02
8.282088412172554370e-02
6.897190777085419888e-02
4.908334714832844614e-02
2.526593560326657190e-02
-1.122980969902997311e-04
-2.469798103383907817e-02
-4.635796972982201419e-02
-6.330011693897123759e-02
-7.412877447692509114e-02
-7.787751067328181620e-02
-7.405723697286385743e-02
-6.273162513905954085e-02
-4.460072832428551431e-02
-2.105388066388363955e-02
5.850277462038208989e-03
3.350782191123823084e-02
5.900733732868166520e-02
7.946287581191918692e-02
9.239469297453434260e-02
9.609034587817170958e-02
8.987477139279496929e-02
7.423190749456973214e-02
5.074964429617053602e-02
2.189888612506916965e-02
-9.303411392956454848e-03
-3.967232935070118260e-02
-6.620046955874335504e-02
-8.632458693779661296e-02
-9.810584203167874162e-02
-1.003448416528973514e-01
-9.265800934690605895e-02
-7.552641737066502492e-02
-5.030633581877512472e-02
-1.917687151318975963e-02
1.499977130257205450e-02
4.891736671298201056e-02
7.915531161343677957e-02
1.025656102128734981e-01
1.166621596807762423e-01
1.199460360589348212e-01
1.121051982002234798e-01
9.404786803155834596e-02
6.776174010806934600e-02
3.602920809412789305e-02
2.061364779218513923e-03
-3.087227912516783690e-02
-5.975373407028465589e-02
-8.203606335785822157e-02
-9.578232495851518591e-02
-9.975839377612318037e-02
-9.351217119848952153e-02
-7.744815299621865545e-02
-5.287792252253546710e-02
-2.200954966446943412e-02
1.216202558187745759e-02
4.608809738107390308e-02
7.602328702547270223e-02
9.847578300226396408e-02
1.106873412608050250e-01
1.110566713238663877e-01
9.941673309935140923e-02
7.709724352048928642e-02
4.674543891740395168e-02
1.193287811649760589e-02
-2.337032084949244859e-02
-5.533973240702927399e-02
-8.074965644895382155e-02
-9.726629555082276501e-02
-1.035706410746820849e-01
-9.934867183461104645e-02
-8.520575367804690547e-02
-6.255213858696311024e-02
-3.348119646292405799e-02
-6.376109833445466751e-04
3.294205239927969209e-02
6.403727859811424172e-02
8.951208585352149472e-02
1.066356666137484727e-01
1.134201788188390903e-01
1.089184234978698290e-01
9.341622069876176493e-02
6.846501346757251361e-02
3.672830986928403429e-02
1.656066283510221684e-03
-3.295604922696834804e-02
-6.343654469346504676e-02
-8.665068591948524301e-02
-1.002985358742343180e-01
-1.030842690996056493e-01
-9.477674817113639072e-02
-7.619210009842572462e-02
-4.911797193839245040e-02
-1.618015112112165116e-02
1.935984946717173028e-02
5.388593834971709684e-02
8.378285739795773845e-02
1.058395008736967013e-01
1.176501139500645693e-01
1.179459273748150461e-01
1.067873564150641635e-01
8.556458138738634589e-02
5.679074129674796523e-02
2.371925371267812749e-02
-1.013822278921727542e-02
-4.148986305759568005e-02
-6.763843682068915175e-02
-8.668956897459190181e-02
-9.758570217172987671e-02
-1.000101835636958286e-01
-9.423400031378358077e-02
-8.097332768736582864e-02
-6.129746906595275047e-02
-3.659158029972090637e-02
-8.551332732774028986e-03
2.082731153911459437e-02
4.930128460228266896e-02
7.450415747142179190e-02
9.414706774069515893e-02
1.062764908556900062e-01
1.095440490627405533e-01
1.034302343366656912e-01
8.836641836503249248e-02
6.571835199559716845e-02
3.762702850145594607e-02
6.741248246212349152e-03
-2.409494810728950165e-02
-5.213298011470342275e-02
-7.494527567632759679e-02
-9.057918978751998418e-02
-9.766118040609345075e-02
-9.547925824203316869e-02
-8.405711360977835556e-02
-6.421054888742784572e-02
-3.755925522889033696e-02
-6.461715424541545835e-03
2.615076225058043935e-02
5.704522271527441568e-02
8.304143679427970770e-02
1.014022353724155223e-01
1.101971199996920198e-01
1.085754286260494222e-01
9.689727231318602529e-02
7.669095402437946241e-02
5.043198496098949546e-02
2.117071729707374617e-02
-7.929796800513413610e-03
-3.405636121229172614e-02
-5.511211703531750106e-02
-6.991228742793578754e-02
-7.818013530329427641e-02
-8.036733808298107684e-02
-7.736656320600486525e-02
-7.020583726209181363e-02
-5.980877100350484588e-02
-4.687432011305810164e-02
-3.188620496315787423e-02
-1.522204851861236156e-02
2.691316224415827088e-03
2.123408419530103952e-02
3.950913993578870909e-02
5.634772806982877441e-02
7.041358286408064271e-02
8.038811005279435096e-02
8.519467367529645618e-02
8.420554964003150455e-02
7.737690488148497858e-02
6.527504186722248025e-02
4.898649433515710888e-02
2.993869070120769998e-02
9.686596770031254480e-03
-1.026944121026405858e-02
-2.858722942552981844e-02
-4.410003416468996629e-02
-5.578223566779118292e-02
-6.272041797756554293e-02
-6.413955303907518946e-02
-5.950346056319488763e-02
-4.867232677939652835e-02
-3.207254050903476233e-02
-1.082153907301943753e-02
1.324685049091124146e-02
3.769350773637567681e-02
5.972824409147213520e-02
7.657789531180833609e-02
8.590781544110771828e-02
8.621776198019334703e-02
7.712969455984028389e-02
5.949753367664585568e-02
3.530038947605995681e-02
7.330804404177939174e-03
-2.125474639400863619e-02
-4.741823873949609081e-02
-6.864928731041426702e-02
-8.322822824906273009e-02
-9.031837761203433124e-02
-8.990551572603618091e-02
-8.263019307245782208e-02
-6.957026530829753252e-02
-5.202912110642072402e-02
-3.137137849364463049e-02
-8.926452010274433732e-03
1.404200951641639168e-02
3.632026919913582119e-02
5.671202703086038882e-02
7.402260801899915310e-02
8.708866616693640428e-02
9.486751674118003297e-02
9.657632619908916582e-02
9.184650378271988491e-02
8.084461701430288583e-02
6.431629111565778656e-02
4.353320664102868637e-02
2.015544113995170611e-02
-3.952597366329134096e-03
-2.690582549242499788e-02
-4.694623473496990773e-02
-6.254390846725717268e-02
-7.246572578118941343e-02
-7.583802032441901153e-02
-7.222103840676456776e-02
-6.169085962040855853e-02
-4.490413105093313262e-02
-2.311482495891437755e-02
1.879178664778347399e-03
2.786675101641886143e-02
5.242422600341387073e-02
7.316698393560580604e-02
8.802182087109804154e-02
9.548175421056229184e-02
9.480271180766210171e-02
8.610631328577858512e-02
7.036322265399094777e-02
4.924798920759512755e-02
2.488197845055593882e-02
-4.861692637872557649e-04
-2.478692126716752070e-02
-4.634679725576430070e-02
-6.397156599625154760e-02
-7.690211654206169367e-02
-8.469379778229405020e-02
-8.708930950613423538e-02
-8.394604656948941035e-02
-7.524966008793641803e-02
-6.120896730856983936e-02
-4.239465623185035420e-02
-1.986464138260242429e-02
4.782026247340519579e-03
2.946365962324030280e-02
5.179938034875317121e-02
6.939908608217111585e-02
8.021407398285029799e-02
8.288171680983880130e-02
7.698768128599051130e-02
6.317693615603382773e-02
4.307551382820262731e-02
1.903460105692762055e-02
-6.240021508314983964e-03
-3.007980671314564730e-02
-5.017762212967603885e-02
-6.478985619590997558e-02
-7.280844989898591080e-02
-7.373439404740038394e-02
-6.760437546630447547e-02
-5.491826054876831897e-02
-3.659155797178521852e-02
-1.392747333560160304e-02
1.141690597166356187e-02
3.749889692645828887e-02
6.221122506993496254e-02
8.345815705767460624e-02
9.937275658699359915e-02
1.085452715650090799e-01
1.102192158615820511e-01
1.044071235187029184e-01
9.188926269767488941e-02
7.408677344288157329e-02
5.283713016212070873e-02
3.012937025500520699e-02
7.865543819107459825e-03
-1.230097465218140361e-02
-2.903334121923984573e-02
-4.130574721348087563e-02
-4.837096292563023564e-02
-4.975036636056611589e-02
-4.527448784931735470e-02
-3.516734311379204891e-02
-2.013812871256510234e-02
-1.432764931981347564e-03
1.919354972160932510e-02
3.960080996517915952e-02
5.747886142398488107e-02
7.062139745265011426e-02
7.720989058850276365e-02
7.605103528080998931e-02
6.671982884263322200e-02
4.958248836973511153e-02
2.570265369414653778e-02
-3.335753688153029681e-03
-3.563245287037645342e-02
-6.913927411061866757e-02
-1.017519437037943397e-01
-1.313281587090661118e-01
-1.556826537628553941e-01
-1.726354850704112098e-01
-1.801775163926084833e-01
-1.767712488657953163e-01
-1.617457676626443130e-01
-1.356943068211039216e-01
-1.007558393099840938e-01
-6.066319362154524997e-02
-2.047062379216750549e-02
1.406823301828988466e-02
3.742391990227364462e-02
4.538785550788383000e-02
3.614861316091784460e-02
1.111864194124017637e-02
-2.471382022269783679e-02
-6.308118383436361887e-02
-9.345100125113542378e-02
-1.046825308728052684e-01
-8.709351414549316994e-02
-3.458238444524722177e-02
5.360509257671501604e-02
1.718531832385126468e-01
3.081898912060450635e-01
4.454725225957573143e-01
5.636806452227693942e-01
6.430344964563570187e-01
6.674577241414423323e-01
6.277649257919932779e-01
5.239180929390907515e-01
3.657927682603108188e-01
1.721344678636470560e-01
-3.225577223536858773e-02
-2.206600249422847049e-01
-3.691097387528174401e-01
-4.606079927236562122e-01
-4.880124914561084215e-01
-4.550003296302347899e-01
-3.749851364879454585e-01
-2.682947835280961590e-01
-1.582340841237553086e-01
-6.680946797337065923e-02
-1.088865358740977000e-02
5.620563252205657695e-04
-3.226202022697156890e-02
-1.004072451799092741e-01
-1.881166564711706513e-01
-2.759735603526510817e-01
-3.446675233937723237e-01
-3.786896805440518876e-01
-3.692457220013544705e-01
-3.157952434593325752e-01
-2.258942592078887757e-01
-1.133934340831292548e-01
4.569706727671667482e-03
1.110723422096831642e-01
1.926122452626628234e-01
2.413571709215333871e-01
2.560533669335685047e-01
2.415441776093244508e-01
2.071554484873767144e-01
1.644127306322235305e-01
1.246322015142234535e-01
9.687544246087598232e-02
8.660865943570300596e-02
9.520756169022724646e-02
1.202544672756715033e-01
1.564312489645548754e-01
1.967440252677501444e-01
2.338178291171819911e-01
2.610482938989561741e-01
2.734671718633546744e-01
2.682515112152739079e-01
2.448723012708124147e-01
2.049300165450688438e-01
1.517560128225043103e-01
8.986891242023856141e-02
2.436901635544415357e-02
-3.965997745113984674e-02
-9.768637790193145098e-02
-1.461571646285727277e-01
-1.827768439017659063e-01
-2.066089894323670517e-01
-2.179897799801542024e-01
-2.182723426980185122e-01
-2.094542239660334426e-01
-1.937656518456094823e-01
-1.733022635034051628e-01
-1.497695761059187614e-01
-1.243750459284137660e-01
-9.786908851144439370e-02
-7.070692773851823543e-02
-4.328058290803987740e-02
-1.615577541627753744e-02
9.754140735981702351e-03
3.313223906325654666e-02
5.234783564203374095e-02
6.568468207652085333e-02
7.166502382286678297e-02
6.939859573895651446e-02
5.887081540621340314e-02
4.109122431434449052e-02
1.805573831912327815e-02
-7.473564475049118347e-03
-3.232024643857681762e-02
-5.330203998299912899e-02
-6.762494760777761071e-02
-7.321158766653380889e-02
-6.893371173671655749e-02
-5.473451760706107838e-02
-3.163707749958943882e-02
-1.643129934340783679e-03
3.246733177103264950e-02
6.741966346160042922e-02
9.978822925333001581e-02
1.263674258144923679e-01
1.445284346089759087e-01
1.525171395540148578e-01
1.496541997204342000e-01
1.364091018378316700e-01
1.143317708862092857e-01
8.583885822037083668e-02
5.387263984449355142e-02
2.148033144949015177e-02
-8.608586527713684919e-03
-3.431695868451282994e-02
-5.439371335580653333e-02
-6.839798525891835346e-02
-7.651858972067618336e-02
-7.929850163525728468e-02
-7.735621834967092159e-02
-7.118954773689777082e-02
-6.111457833527604577e-02
-4.734497571649090575e-02
-3.017176732365664527e-02
-1.017585915227452349e-02
1.160079202406539590e-02
3.358810926910996142e-02
5.376415960325245380e-02
6.988128119287732865e-02
7.981032869677066877e-02
8.193546482673796927e-02
7.550941615428463649e-02
6.087828104467016971e-02
3.950846680505551434e-02
1.379320113870662577e-02
-1.332674193240005085e-02
-3.884069473558401236e-02
-6.012916177628942205e-02
-7.530422160915320462e-02
-8.336980066184035421e-02
-8.419980363187745676e-02
-7.837855212581111564e-02
-6.697015134480512055e-02
-5.128220870003930010e-02
-3.267363576681325821e-02
-1.243440864917048395e-02
8.257966782200825209e-03
2.832112452138033087e-02
4.671936093028422610e-02
6.241852815855167269e-02
7.437559759943628002e-02
8.158509227279012177e-02
8.318951103691400728e-02
7.863888033518277865e-02
6.785978812970673568e-02
5.137853835679372788e-02
3.034931442430807702e-02
6.468411815072802953e-03
-1.820469979609615208e-02
-4.147136488735649745e-02
-6.121253347985754212e-02
-7.557097410199746512e-02
-8.309066708612272700e-02
-8.282484954509024278e-02
-7.442738729621097005e-02
-5.823093589603341169e-02
-3.529680618872545195e-02
-7.407359466252606481e-03
2.302795505968627948e-02
5.316590546849940535e-02
8.001145899500763936e-02
1.007566124480555048e-01
1.131308122361981555e-01
1.157112467952848417e-01
1.081402968596983788e-01
9.120399380210313101e-02
6.674336124637167411e-02
3.740056357239226331e-02
6.238606065883023702e-03
-2.369299825963711026e-02
-4.975585942038228404e-02
-7.000036759641224682e-02
-8.327564013532659515e-02
-8.917704961695642474e-02
-8.788611393681654282e-02
-7.998220061250556345e-02
-6.629620973325565936e-02
-4.784158574825895377e-02
-2.581693834437943924e-02
-1.644229259137193130e-03
2.300612097650613086e-02
4.624772212644070318e-02
6.609523290851837540e-02
8.066564940198273082e-02
8.843328832645767912e-02
8.848381292789854469e-02
8.070324092131983540e-02
6.584702562207762899e-02
4.546113516004818278e-02
2.166624827532953601e-02
-3.143663179714135600e-03
-2.661254931367565413e-02
-4.667197456251047372e-02
-6.169110698553438576e-02
-7.053378402000724801e-02
-7.256236202098008403e-02
-6.763321589628502883e-02
-5.610827157009461164e-02
-3.887728476435099029e-02
-1.736399154109567050e-02
6.516915632322305488e-03
3.047778876642588675e-02
5.206039541004148924e-02
6.890967495111556540e-02
7.908204382056112369e-02
8.133331576625078829e-02
7.532580197553472023e-02
6.170394964594941301e-02
4.201179032540956759e-02
1.846053710706257317e-02
-6.405751421221564032e-03
-3.006831128152452626e-02
-5.033316530554526186e-02
-6.551706911346154294e-02
-7.451189997358485806e-02
-7.676170771327024689e-02
-7.220468146898136041e-02
-6.122246361064656583e-02
-4.461303718068999891e-02
-2.357704223430482499e-02
3.083398379119962202e-04
2.515590331730541140e-02
4.889347181542726128e-02
6.944751717018665671e-02
8.496480058941516256e-02
9.403587226172628599e-02
9.587885297312367938e-02
9.044634788562767869e-02
7.842900019342397000e-02
6.114540632225740069e-02
4.033264229690342040e-02
1.788234418195523007e-02
-4.409444224046888891e-03
-2.501232560939477961e-02
-4.271745412691226040e-02
-5.659322577549404099e-02
-6.589429950491228205e-02
-6.999166894257742577e-02
-6.837719977542980332e-02
-6.076109330354985405e-02
-4.723849285781764329e-02
-2.846694737880040016e-02
-5.782425540511835702e-03
1.880654440178369108e-02
4.277442603642353514e-02
6.337151160364386249e-02
7.800684703422955391e-02
8.465126731952464512e-02
8.218092847082260344e-02
7.058664712327542001e-02
5.099754998086576674e-02
2.550950823204876927e-02
-3.140273056359400503e-03
-3.197106101419686791e-02
-5.813657829659002463e-02
-7.921342009274683071e-02
-9.337249496093194545e-02
-9.944768196528584736e-02
-9.694083030510741716e-02
-8.600399405828369759e-02
-6.742150894478163292e-02
-4.258773302189813870e-02
-1.345607728851813505e-02
1.756860449018014803e-02
4.780968278333498633e-02
7.456568951188050076e-02
9.540017315816494425e-02
1.084347406761238808e-01
1.125952847420236963e-01
1.077593033834434444e-01
9.476403884261329347e-02
7.526377513043640277e-02
5.146392216217737792e-02
2.579446043771634750e-02
5.998927290424369702e-04
-2.208998904715930162e-02
-4.067853134949014904e-02
-5.402104272522299799e-02
-6.138705459116984564e-02
-6.241917187984001580e-02
-5.712657723744597044e-02
-4.591972823105024137e-02
-2.966191802677853318e-02
-9.697676005981504047e-03
1.217918844574985594e-02
3.384005544349855815e-02
5.302073903701208513e-02
6.758607205067500290e-02
7.581863860514038989e-02
7.667427730038203770e-02
6.994504230262989231e-02
5.628798931358972024e-02
3.711231730487047492e-02
1.435637122765624600e-02
-9.785605182662490339e-03
-3.312106129609165839e-02
-5.365356851232352259e-02
-6.970052995144450370e-02
-7.995435354428391539e-02
-8.352492643191430921e-02
-7.999473493830437654e-02
-6.949262311141954362e-02
-5.276384460293763456e-02
-3.119817820042929818e-02
-6.779893922339531517e-03
1.806105046767992467e-02
4.069501475834214066e-02
5.861029786136658093e-02
6.975480716540476134e-02
7.284002481041355892e-02
6.754520225356309970e-02
5.457519978079638373e-02
3.555351432995628586e-02
1.276745411639579851e-02
-1.118173916684555950e-02
-3.374568713172119983e-02
-5.273258634166647779e-02
-6.649446779037265776e-02
-7.398911371763226830e-02
-7.474847064266432195e-02
-6.880408088541031808e-02
-5.661288787989882804e-02
-3.900427380234307295e-02
-1.714624556436753627e-02
7.485782138376939968e-03
3.315901712883902869e-02
5.797032641867406327e-02
7.997825514998786745e-02
9.737332486695493561e-02
1.086660708131391012e-01
1.128641393662454390e-01
1.096080591435773938e-01
9.923812946119668632e-02
8.277281660156227128e-02
6.179576901444597953e-02
3.827328352098313680e-02
1.434521195899162750e-02
-7.865677915009047436e-03
-2.640197375620518400e-02
-3.958396177142509825e-02
-4.611141364196347930e-02
-4.517677066930041174e-02
-3.659085977921710392e-02
-2.089774995578552036e-02
5.609123531760910192e-04
2.567374817765365885e-02
5.170776903301667338e-02
7.557859304503872222e-02
9.421334394561041436e-02
1.049514943554056418e-01
1.059175275169585151e-01
9.630220567452979497e-02
7.650126074081591010e-02
4.807848033686109440e-02
1.354743597232147857e-02
-2.399534674087199643e-02
-6.131222783720378933e-02
-9.544468761503233090e-02
-1.240256715793470604e-01
-1.454384956332799295e-01
-1.588280054734748648e-01
-1.640094749918814543e-01
-1.613369125975091523e-01
-1.515841855767539603e-01
-1.358665761078550749e-01
-1.155987597273665651e-01
-9.246112728459217334e-02
-6.833944525960064520e-02
-4.521376281450823625e-02
-2.499326921379344674e-02
-9.314265454314877776e-03
6.670237380578276226e-04
4.446753382924462442e-03
2.269469337114140076e-03
-4.883483185349547437e-03
-1.541949262673190761e-02
-2.734663081763988313e-02
-3.851790706494925831e-02
-4.685020792260926464e-02
-5.048248538962299414e-02
-4.787279132163096973e-02
-3.786307834998817873e-02
-1.975095005937017867e-02
6.605000803053867955e-03
4.064948697613562922e-02
8.100196700772087366e-02
1.253956146312060482e-01
1.707444261007737829e-01
2.133761661045354419e-01
2.494319200554369897e-01
2.753931684004492508e-01
2.886614051467195075e-01
2.880873741844857672e-01
2.743336002231605009e-01
2.499650529722723946e-01
2.192048571650651589e-01
1.873591411984275867e-01
1.599883158696317476e-01
1.419582381251626169e-01
1.365298018734006913e-01
1.446395318071984903e-01
1.644950512869105819e-01
1.915667161524929885e-01
2.190068735763720242e-01
2.384753069278648940e-01
2.412948988678439710e-01
2.198063565623111226e-01
1.687411753887873012e-01
8.640148678816690631e-02
-2.456205304517244947e-02
-1.569439462082739822e-01
-2.994506999038515915e-01
-4.378558539680372230e-01
-5.567581760009748804e-01
-6.417484953127405856e-01
-6.816847813804149947e-01
-6.706995541852529552e-01
-6.095511071253117974e-01
-5.060027211789364099e-01
-3.740699748318980777e-01
-2.321856504577639035e-01
-1.005462089505791551e-01
1.928555608370951038e-03
6.051022664202025669e-02
6.695969436156072596e-02
2.082662553500007341e-02
-7.046662206402427853e-02
-1.927844639427768736e-01
-3.275106172291074591e-01
-4.544909031100292651e-01
-5.551714983377700197e-01
-6.153583930694774828e-01
-6.270945558320699664e-01
-5.893441614907309889e-01
-5.074338336400530114e-01
-3.914563076151390542e-01
-2.540318044490458282e-01
-1.079129392037095347e-01
3.609760220307926815e-02
1.705567911507719081e-01
2.919288342972340966e-01
4.002711621302412204e-01
4.982299523895086790e-01
5.896367978574991175e-01
6.780500344547650826e-01
7.655622922691325272e-01
8.521083356834162625e-01
9.353760335372831580e-01
1.011280822043308047e+00
1.074844590888972107e+00
1.121247947420075164e+00
1.146809193594330312e+00
1.149680898662072570e+00
1.130135063358649328e+00
1.090411575956523604e+00
1.034203627943286907e+00
9.659193714155676069e-01
8.898781903246382186e-01
8.095812926651666519e-01
7.271604345573652317e-01
6.430716015636182004e-01
5.560669686123871358e-01
4.634458658758475735e-01
3.615516228483178218e-01
2.464474911113201383e-01
1.146752743991325402e-01
-3.602023988586965098e-02
-2.061232847958669456e-01
-3.940408967931127715e-01
-5.961206943506444089e-01
-8.069908132173826409e-01
-1.020152535475215450e+00
-1.228707774916134143e+00
-1.426089305662564977e+00
-1.606679793701523584e+00
-1.766242567440494682e+00
-1.902127670614570665e+00
-2.013251130597006000e+00
-2.099869268054912030e+00
-2.163184566929463593e+00
-2.204831238333743393e+00
-2.226303626853221473e+00
-2.228409100729869863e+00
-2.210840276633236012e+00
-2.171957615469648051e+00
-2.108846684192259069e+00
-2.017667243942399047e+00
-1.894250897586614801e+00
-1.734840521301356686e+00
-1.536815080613713302e+00
-1.299230011137917806e+00
-1.023040616633400290e+00
-7.109567306502347916e-01
-3.669737697429256706e-01
4.293343690342692545e-03
3.983009459833164456e-01
8.111131255194403700e-01
1.239633219569951539e+00
1.681436876372764511e+00
2.134193352968071444e+00
2.594753765966342662e+00
3.058072967137447140e+00
3.516199275579316996e+00
3.957600857351888823e+00
