BVP Signal
-2.363289417672143067e-02
-4.931205535438993454e-02
-7.958369250785886362e-02
-1.082336599418120965e-01
-1.318576745600579248e-01
-1.500889649012938643e-01
-1.650767778619675052e-01
-1.763689225551601791e-01
-1.826358642554973544e-01
-1.827614688991161251e-01
-1.764826467044661451e-01
-1.651676117644413078e-01
-1.488247849996590655e-01
-1.274720934549638252e-01
-1.012226224314310419e-01
-7.063606653004611546e-02
-3.689906887299684857e-02
-7.315307929312564461e-04
3.731891324668595855e-02
7.644968073018459931e-02
1.157092012506438783e-01
1.542829359605590311e-01
1.910137250399578934e-01
2.256103166562587470e-01
2.570166660730411334e-01
2.845330361603503611e-01
3.078410286524090322e-01
3.258500300157793350e-01
3.389861064424016801e-01
3.461639495563879620e-01
3.475174354572869717e-01
3.430293470707808656e-01
3.321977617734777066e-01
3.159844232783906026e-01
2.937534110858885383e-01
2.663368613512567817e-01
2.339985371585291407e-01
1.969986168874248988e-01
1.563957060899842655e-01
1.123387806777190467e-01
6.583299040882045761e-02
1.753478500198410450e-02
-3.182899614804142463e-02
-8.136412253535410533e-02
-1.301799820455916412e-01
-1.777162608699452417e-01
-2.228195989601141902e-01
-2.648868180911253534e-01
-3.032600412785750876e-01
-3.367515374060797706e-01
-3.656694748471477352e-01
-3.885115199472763958e-01
-4.053634990564096707e-01
-4.158636728885677369e-01
-4.192264850265909337e-01
-4.164728934850635556e-01
-4.064261169378883265e-01
-3.899857111819010624e-01
-3.672029446910458073e-01
-3.381196655024372721e-01
-3.040714143418516979e-01
-2.647470517657524725e-01
-2.214740266398446678e-01
-1.747727348961789495e-01
-1.253075811501572212e-01
-7.434884499795224588e-02
-2.237620943658369388e-02
2.956045349895319863e-02
8.055805480102395943e-02
1.299833302376133259e-01
1.769429780757436621e-01
2.206179781368610149e-01
2.608705151499983721e-01
2.965438994759881375e-01
3.276385735380830111e-01
3.537075511948848394e-01
3.740324418666487460e-01
3.895442283912558534e-01
3.989284061632926148e-01
4.029755588012484124e-01
4.015412729755301058e-01
3.943296437589653980e-01
3.826436709065192399e-01
3.655076917432125705e-01
3.440841818118731132e-01
3.184063506002067223e-01
2.885687058036189301e-01
2.557625195643292715e-01
2.195570438070512664e-01
1.809947002971740160e-01
1.403533193051451633e-01
9.791324565110365308e-02
5.458081857743385390e-02
1.053429572731984232e-02
-3.367121970843373058e-02
-7.730913275477013791e-02
-1.201653313476957474e-01
-1.615247547251519311e-01
-2.007223834072511537e-01
-2.378529749143053762e-01
-2.716489197899887298e-01
-3.022065483077367998e-01
-3.288980815134326940e-01
-3.509361741738247775e-01
-3.689749376975201556e-01
-3.815373967147976386e-01
-3.891824613093991525e-01
-3.914533538475004626e-01
-3.879349204711431409e-01
-3.795379615347853619e-01
-3.652792522908713813e-01
-3.461237789788422226e-01
-3.220034684208385456e-01
-2.930849652830502805e-01
-2.604371741031787368e-01
-2.238551124372186452e-01
-1.844538168501313469e-01
-1.426641395528621958e-01
-9.900690526718830542e-02
-5.453547657059480691e-02
-9.648331238024811241e-03
3.488114731669565011e-02
7.822194963000639323e-02
1.200237096701329831e-01
1.594580458154208902e-01
1.959438441595375280e-01
2.294858193322364404e-01
2.590096903989768107e-01
2.847607516202140254e-01
3.062105930097905326e-01
3.229828710834968808e-01
3.357688368398684120e-01
3.435277048633044727e-01
3.470927656222989044e-01
3.461571684691617246e-01
3.406864438532630768e-01
3.316252125796433359e-01
3.182108135505862800e-01
3.015142499882584870e-01
2.813773063335996416e-01
2.579922710983738599e-01
2.322307558014652662e-01
2.037051974992465375e-01
1.733290538767578437e-01
1.411752615820763557e-01
1.074715785049940309e-01
7.293182738173387136e-02
3.758488195625853817e-02
1.921135183376734834e-03
-3.355979409773666988e-02
-6.876445015936430427e-02
-1.030357939017679525e-01
-1.359829169287624928e-01
-1.676355632457465772e-01
-1.969658589910116830e-01
-2.241532604652096139e-01
-2.485183914846164632e-01
-2.695856409695217559e-01
-2.876864954189521373e-01
-3.016580636189170050e-01
-3.119980857574295996e-01
-3.181049694646422288e-01
-3.197440421611323913e-01
-3.174573304422259601e-01
-3.104008223154037238e-01
-2.993953119887171610e-01
-2.841342754667904313e-01
-2.647981362554538975e-01
-2.421104131632807188e-01
-2.157987356874641882e-01
-1.868319765350443806e-01
-1.553381118403125427e-01
-1.217693565524639310e-01
-8.692853466601452306e-02
-5.103563617038622824e-02
-1.482889429608867833e-02
2.114636186518194585e-02
5.655715644336059555e-02
9.067283941902054556e-02
1.230787938032347761e-01
1.536105211145600558e-01
1.814187593169745427e-01
2.066382908459142298e-01
2.286790984933200488e-01
2.472558173450793706e-01
2.627059712268648983e-01
2.741458491306131284e-01
2.822111510726978967e-01
2.864217872164261380e-01
2.867629994265803450e-01
2.838252063958220939e-01
2.768940025941319383e-01
2.668960902964598869e-01
2.534585143279032282e-01
2.367993533167674636e-01
2.175399738991588283e-01
1.952767163183705690e-01
1.709139880139096956e-01
1.443127783700151046e-01
1.157805988010738446e-01
8.590559413351182838e-02
5.467537368445588020e-02
2.269377672903651749e-02
-9.724771498032030656e-03
-4.236507341565994705e-02
-7.460379221331214783e-02
-1.061112505016595098e-01
-1.367027092130768395e-01
-1.655407752757529216e-01
-1.926783287303201198e-01
-2.174122738689216461e-01
-2.393264431073233167e-01
-2.585501151278233878e-01
-2.740437728208489632e-01
-2.862345487040176550e-01
-2.944349244028680035e-01
-2.984518538061495807e-01
-2.986711066850051832e-01
-2.942594764369229066e-01
-2.860376034665133571e-01
-2.735336899368886465e-01
-2.569520369317090380e-01
-2.368962573977156094e-01
-2.130114518552517211e-01
-1.863233729795968074e-01
-1.567474919871099659e-01
-1.247630633576023995e-01
-9.109147841050503625e-02
-5.585623935171610266e-02
-1.988009214492127141e-02
1.645018250804169968e-02
5.275033470672903235e-02
8.829235082825365177e-02
1.226991423729555941e-01
1.556641335481936950e-01
1.863810498516589864e-01
2.148967857620789346e-01
2.405029583372980118e-01
2.628782952743741741e-01
2.821643154212400972e-01
2.974106114695536096e-01
3.091761235514519646e-01
3.167680541549378614e-01
3.201337215954593862e-01
3.196743738467032747e-01
3.145890366342583011e-01
3.058088437601852450e-01
2.927549788055590074e-01
2.756966493903302284e-01
2.551499853383608629e-01
2.307190611579724437e-01
2.034148516183766353e-01
1.730231214624644298e-01
1.400111255358939266e-01
1.049986429006216915e-01
6.812161593842153140e-02
3.011378908845777080e-02
-8.575195849908318069e-03
-4.756257391056034622e-02
-8.606858825994007089e-02
-1.235957513875702851e-01
-1.598030735252897183e-01
-1.936726611822143229e-01
-2.251940213882495656e-01
-2.534534759751223554e-01
-2.779983738488674971e-01
-2.988479177627344496e-01
-3.148760740961523141e-01
-3.266354139193897166e-01
-3.332634011225480419e-01
-3.347444739335929675e-01
-3.314329507411428177e-01
-3.225808599685159317e-01
-3.092666951779975970e-01
-2.909380967573738652e-01
-2.681135421358128990e-01
-2.414035370752100063e-01
-2.106737548664443793e-01
-1.771481288865343895e-01
-1.407862975456604659e-01
-1.023245623136149196e-01
-6.249455857083763277e-02
-2.168762149173536491e-02
1.932056817184346631e-02
5.991025941340533123e-02
9.966398023484218660e-02
1.378043359964271075e-01
1.737873933197506826e-01
2.074381276610526292e-01
2.377060900223849638e-01
2.648127178243636637e-01
2.879180045295291479e-01
3.066988596682970747e-01
3.214198445629236622e-01
3.309622599918498609e-01
3.361857209818093217e-01
3.362188457466672720e-01
3.311683231643265390e-01
3.215014134979209404e-01
3.064197698885378074e-01
2.871441840086911834e-01
2.630161449663135365e-01
2.345553522859763762e-01
2.023352546540847785e-01
1.661879901203534848e-01
1.272612759623717449e-01
8.554221286210306197e-02
4.170614088268415065e-02
-3.494785220684359928e-03
-4.955884113834518878e-02
-9.579491882346491405e-02
-1.412962396618903660e-01
-1.856495851968925637e-01
-2.278570215559787560e-01
-2.671600712725066273e-01
-3.033108550992860697e-01
-3.349129657664579041e-01
-3.621588223381461136e-01
-3.839419571699208555e-01
-3.998386114323104756e-01
-4.100460527013168877e-01
-4.133528006313645919e-01
-4.107356916009823333e-01
-4.013154439216792824e-01
-3.853987507277378821e-01
-3.636168273512173643e-01
-3.354575069654517905e-01
-3.024613802190453393e-01
-2.642943641259041243e-01
-2.218583181051417552e-01
-1.760838455171892525e-01
-1.272237724271037262e-01
-7.667723293464415169e-02
-2.485697445398482586e-02
2.739145696117656348e-02
7.904827691283705660e-02
1.295117144306603407e-01
1.780760432972621210e-01
2.237501878991839943e-01
2.663844270965715078e-01
3.049777915307098075e-01
3.391228485568411610e-01
3.688248906097122415e-01
3.929191509589560205e-01
4.121445163637449394e-01
4.255002900637381291e-01
4.330648578702299689e-01
4.352613173390726953e-01
4.311039818066212392e-01
4.219501836662062910e-01
4.068740590540265156e-01
3.864138952877911315e-01
3.611310659130270162e-01
3.305165530800552309e-01
2.960216021584463064e-01
2.571475923241433592e-01
2.146368201035428747e-01
1.691727598737197691e-01
1.209260996304887259e-01
7.087666345862420059e-02
1.950871256093011930e-02
-3.262567407021033095e-02
-8.454379433498659946e-02
-1.355903563510709731e-01
-1.852460567728004825e-01
-2.321739828801673289e-01
-2.763094178627500952e-01
-3.163321133144925135e-01
-3.516297735819580161e-01
-3.820384385136390559e-01
-4.060329983658633735e-01
-4.242632698150675674e-01
-4.353956515162354934e-01
-4.394437807010177499e-01
-4.366263164084031034e-01
-4.260248288548804108e-01
-4.089857144110174980e-01
-3.847002058143043079e-01
-3.540058669946353209e-01
-3.175482023135801080e-01
-2.754338803421987336e-01
-2.292328526241054210e-01
-1.790744890080522289e-01
-1.261673896123806093e-01
-7.148804834108751782e-02
-1.592155388114296910e-02
3.946975185557866084e-02
9.361211185664231049e-02
1.457642167580621706e-01
1.948136725603443198e-01
2.398865894248766728e-01
2.806364262704689749e-01
3.157081762480267173e-01
3.453513285343156047e-01
3.684934502944719470e-01
3.849427689536258912e-01
3.949513585943241201e-01
3.975295249272106091e-01
3.938853445324377311e-01
3.831739359975904202e-01
3.660597231979386690e-01
3.431263269849606501e-01
3.141234327143520022e-01
2.806733314364552867e-01
2.424256718265361543e-01
2.005269382791518840e-01
1.557092937006233080e-01
1.084626890286826406e-01
6.003882491071835248e-02
1.089358836777615247e-02
-3.804074886263507371e-02
-8.591959892434762602e-02
-1.319470783170687278e-01
-1.755774495511676081e-01
-2.157253018592964477e-01
-2.522115674728142576e-01
-2.841032721309918463e-01
-3.109093656197114419e-01
-3.326823990008676568e-01
-3.483038388623935222e-01
-3.584942793982195397e-01
-3.623882745203470535e-01
-3.601892007349926095e-01
-3.523569410361245824e-01
-3.382738933224429534e-01
-3.193041892127835846e-01
-2.949161504704814196e-01
-2.659437600890717790e-01
-2.330780891354335416e-01
-1.963903344632129677e-01
-1.573046888238602004e-01
-1.158514769411009282e-01
-7.298980985391506637e-02
-2.949118231889616415e-02
1.409624163695410992e-02
5.696538645144688662e-02
9.842424661263271535e-02
1.380360887912915890e-01
1.750307293340487291e-01
2.088794686207482432e-01
2.394821121407488818e-01
2.658323783835027099e-01
2.882875054616163002e-01
3.060740603714411368e-01
3.190518816347485132e-01
3.275748542938889951e-01
3.307195515104708328e-01
3.294881436419495602e-01
3.231485941630030112e-01
3.120353217098201792e-01
2.966609620611553311e-01
2.765058637353170479e-01
2.527954397791358776e-01
2.250733938646775623e-01
1.939762271099325641e-01
1.600639465043925402e-01
1.234030817849264272e-01
8.495583203848167120e-02
4.492114672578328971e-02
3.900364298612846170e-03
-3.741382125378378554e-02
-7.845255117187432958e-02
-1.187659569464527554e-01
-1.573747241273333319e-01
-1.940600993531453877e-01
-2.279246494993865113e-01
-2.583204800329490514e-01
-2.851987819506049959e-01
-3.072815221372395822e-01
-3.249444821797418115e-01
-3.372427924683436551e-01
-3.439531854025645874e-01
-3.453717349846018303e-01
-3.405659489170873577e-01
-3.305369265141023805e-01
-3.146464558431003034e-01
-2.933500496297891114e-01
-2.672627505172269213e-01
-2.362146827771783031e-01
-2.015176297733029809e-01
-1.631473628672981957e-01
-1.219883662389110168e-01
-7.886090638204401593e-02
-3.429649891847585952e-02
1.072503718476169876e-02
5.550516889350898264e-02
9.937827371839114132e-02
1.414869146603000560e-01
1.811054721988096805e-01
2.179313076685127637e-01
2.508616940126933148e-01
2.799551019721957523e-01
3.044067452410070818e-01
3.238326515420434371e-01
3.385089306018574939e-01
3.473991257780973951e-01
3.513389537325127820e-01
3.496207760725165148e-01
3.424374537770887295e-01
3.303527903995100989e-01
3.127627806613046402e-01
2.909234458889168318e-01
2.643865417209891877e-01
2.337989219957465059e-01
1.998071898231731369e-01
1.624293693043787623e-01
1.228069203250067298e-01
8.106426923890122649e-02
3.792749718666310610e-02
-5.870291854183973257e-03
-4.975837742565675237e-02
-9.313506825375375553e-02
-1.350970662623374730e-01
-1.752886422591991011e-01
-2.128299477870398970e-01
-2.470345450099919460e-01
-2.777942396181017903e-01
-3.038519418652809168e-01
-3.254866664914368157e-01
-3.417799918202711340e-01
-3.524524732659906068e-01
-3.577886532153949917e-01
-3.568142245333512097e-01
-3.504795663984543452e-01
-3.381314322695171404e-01
-3.201754501760829541e-01
-2.972244745689744949e-01
-2.690273497200352804e-01
-2.369150927132277484e-01
-2.007943300140083986e-01
-1.615487970167741039e-01
-1.200042483165574547e-01
-7.660085131220310817e-02
-3.245163250260857390e-02
1.188619849092562020e-02
5.566846080360346449e-02
9.803796111605828090e-02
1.383293546290222942e-01
1.761118901438444295e-01
2.104122021633211270e-01
2.411864786267794436e-01
2.676716596540435478e-01
2.895216868289444689e-01
3.069453115740889415e-01
3.190108058095637578e-01
3.264760802452815192e-01
3.287053022219939558e-01
3.258990121558962283e-01
3.186228417513431999e-01
3.062826698116834501e-01
2.901125070764271063e-01
2.696547969759680585e-01
2.455101554465984603e-01
2.183204758407408241e-01
1.879347813988693494e-01
1.555334904351140524e-01
1.210096466883770899e-01
8.500116233623578044e-02
4.813674304178824914e-02
1.066940347925182664e-02
-2.673694147666455523e-02
-6.359684007929050642e-02
-9.961066951852021178e-02
-1.340910851630004452e-01
-1.666162038449998106e-01
-1.970430918654888508e-01
-2.244280514548542826e-01
-2.489807712805606754e-01
-2.699121091323129495e-01
-2.869457437348693629e-01
-3.002712899286032466e-01
-3.088955909980070080e-01
-3.135331048348306004e-01
-3.134301622875731441e-01
-3.086985821060814761e-01
-2.997558005648886525e-01
-2.859797427914690937e-01
-2.684374387779689952e-01
-2.466843912173993791e-01
-2.212359270304786740e-01
-1.926931446562573091e-01
-1.610052358458473609e-01
-1.272367547848400338e-01
-9.147595318541240639e-02
-5.434033380872650004e-02
-1.654104916538441661e-02
2.152264939642464792e-02
5.924673900380733604e-02
9.593762028364191674e-02
1.313280813745640874e-01
1.646631114437625554e-01
1.954752820267487423e-01
2.236766468200833136e-01
2.482770910732333136e-01
2.695873653819639837e-01
2.868344799772405973e-01
2.998215968802725451e-01
3.088141788784952713e-01
3.128996734485971487e-01
3.129086855365730280e-01
3.081356389093400372e-01
2.988030284483376153e-01
2.853381502541045833e-01
2.672421671950387934e-01
2.455706289731687808e-01
2.199357037611506804e-01
1.908922782309453448e-01
1.589681313012671349e-01
1.242770271074651045e-01
8.768358972017670228e-02
4.946971330188694449e-02
1.021530294409444400e-02
-2.939093168292323394e-02
-6.873347877760407898e-02
-1.073908111980553526e-01
-1.443554829553770902e-01
-1.793980652461127367e-01
-2.116465884643953799e-01
-2.404377547269569426e-01
-2.657372892917421181e-01
-2.863030963561824516e-01
-3.024973180342495072e-01
-3.134311358978842943e-01
-3.188992464812916428e-01
-3.191961073585729558e-01
-3.134715173134104971e-01
-3.026821202512828268e-01
-2.862571924218956232e-01
-2.646726155731058405e-01
-2.384916944064229272e-01
-2.076574555206601169e-01
-1.733540411159378847e-01
-1.356467197911789269e-01
-9.541365472597546082e-02
-5.338450468035732532e-02
-1.023719103459187763e-02
3.323830865514533495e-02
7.619801240319772073e-02
1.179942331413236511e-01
1.578313716924337196e-01
1.948162448335844510e-01
2.287920829083498475e-01
2.584959767237067774e-01
2.839823366104522462e-01
3.044616806785058749e-01
3.194236016670892742e-01
3.292078581918241875e-01
3.327209514724470685e-01
3.307734006191220821e-01
3.227263118084922056e-01
3.087744187623507330e-01
2.895146872624895229e-01
2.645255268906113733e-01
2.350225170775412931e-01
2.008200891590676274e-01
1.627071926680263014e-01
1.214052564955188651e-01
7.735578152810590469e-02
3.160264778093241356e-02
-1.526178229292242394e-02
-6.236057697131744404e-02
-1.088682825002395965e-01
-1.537764466879810998e-01
-1.966570804253977567e-01
-2.361959390553315385e-01
-2.720448243336403005e-01
-3.033367023795437989e-01
-3.292035707343814455e-01
-3.498215758245171725e-01
-3.638450801550311420e-01
-3.717770058276319012e-01
-3.729262087482643206e-01
-3.671763392852843144e-01
-3.551704678696290252e-01
-3.362359468001672735e-01
-3.115998826831918311e-01
-2.810499793566814675e-01
-2.453114206840630862e-01
-2.052873987066979877e-01
-1.612540235835461244e-01
-1.145584851502209067e-01
-6.566975830486593280e-02
-1.562093242586576336e-02
3.465531036237212703e-02
8.422143145602026260e-02
1.323747509422065760e-01
1.779731968727037150e-01
2.204673091344944713e-01
2.590444779161210631e-01
2.927844147399611408e-01
3.218271540903826500e-01
3.448288364519377369e-01
3.621478587249228331e-01
3.731465991431711648e-01
3.775059650316706650e-01
3.759207977762047403e-01
3.674418419165993432e-01
3.531935104681284132e-01
3.328059760094138064e-01
3.067148634220696612e-01
2.758016382128809507e-01
2.398918358520225058e-01
2.003339774738375767e-01
1.572491143956046833e-01
1.115200048461180427e-01
6.401836633197874327e-02
1.535910386162314678e-02
-3.353142912621279170e-02
-8.182502419679943406e-02
-1.287884858463010929e-01
-1.735956392195565912e-01
-2.152515683398614488e-01
-2.536349649692683506e-01
-2.873509877884616870e-01
-3.163639370351487012e-01
-3.399384359878581119e-01
-3.573809317215361769e-01
-3.692127078967961662e-01
-3.741706872894851044e-01
-3.730571024576930239e-01
-3.653873610458853727e-01
-3.512216141586763096e-01
-3.314652728375878099e-01
-3.055653632723336899e-01
-2.748733888933617697e-01
-2.393606346304889554e-01
-1.997663275046012710e-01
-1.571040424731091345e-01
-1.116586907495296932e-01
-6.468535722021717671e-02
-1.672090319862093444e-02
3.138240779964155541e-02
7.873166889796481827e-02
1.245252355662772037e-01
1.682757168116074120e-01
2.089005905264501584e-01
2.460996814291548651e-01
2.791900168705162000e-01
3.074117264149930917e-01
3.311412705939877910e-01
3.491086865915205006e-01
3.618344904587028066e-01
3.688260301455822954e-01
3.698070512511258956e-01
3.656325315580237767e-01
3.553494095913179995e-01
3.400763837765973796e-01
3.195364574355775700e-01
2.940250691507030334e-01
2.644919059005838013e-01
2.306184055575523084e-01
1.936292524459972131e-01
1.536315006616155721e-01
1.112492118616414255e-01
6.734427821607698317e-02
2.228368591566344536e-02
-2.312589012833675406e-02
-6.818209247513074001e-02
-1.123696922474264337e-01
-1.549126149399918939e-01
-1.950114107290926158e-01
-2.326070673766373609e-01
-2.664004696880711842e-01
-2.964040460383791098e-01
-3.219117114475863461e-01
-3.422298345161661204e-01
-3.578520241062695950e-01
-3.674653689667365386e-01
-3.717289648995265039e-01
-3.701196966036250924e-01
-3.624923540971147773e-01
-3.496650845715944533e-01
-3.308859387389269657e-01
-3.072955694700322260e-01
-2.787651031249471778e-01
-2.457720163175558525e-01
-2.092578700440465012e-01
-1.692745247468446790e-01
-1.269774760877499520e-01
-8.278633207515884163e-02
-3.742602119885890533e-02
8.218655206283953518e-03
5.347963100257874247e-02
9.776789798890028749e-02
1.400991509962948856e-01
1.800829574505692088e-01
2.169904783798197734e-01
2.500115336700427515e-01
2.793670578248951264e-01
3.037519435490951825e-01
3.234779927394627053e-01
3.379830584816562178e-01
3.468250255683667516e-01
3.507160823706300112e-01
3.485856491195431506e-01
3.413554553458980068e-01
3.286678861609994562e-01
3.106676676770026013e-01
2.882103746219076834e-01
2.608590339469689101e-01
2.297630920352329853e-01
1.949399371959773530e-01
1.569947353524953071e-01
1.167388700634031662e-01
7.450103285958253885e-02
3.116762413845847179e-02
-1.264920944710931638e-02
-5.628965227664581294e-02
-9.900713937121335961e-02
-1.399300479665906705e-01
-1.788464913477529894e-01
-2.145172344504968909e-01
-2.467299093534551513e-01
-2.748127390138846438e-01
-2.979292896740552976e-01
-3.164968587987884163e-01
-3.291871091938815552e-01
-3.364905903719524471e-01
-3.379317899991732266e-01
-3.332618188416172633e-01
-3.232880554911043980e-01
-3.072467601335420739e-01
-2.862153763092660785e-01
-2.601040036910151620e-01
-2.293845678767125196e-01
-1.950024172707259529e-01
-1.570328218273864262e-01
-1.166508370047751736e-01
-7.427111486527393502e-02
-3.070140364920081327e-02
1.321725056838873348e-02
5.675967493839446237e-02
9.929343157601384917e-02
1.398966144474221018e-01
1.780537209611660343e-01
2.131481598656457255e-01
2.442704531675224944e-01
2.716897575835282019e-01
2.941289048447037202e-01
3.118009857232913462e-01
3.242978904174135812e-01
3.310688076958104853e-01
3.329313255652849302e-01
3.288197354330660849e-01
3.195949383130184396e-01
3.050481490553753616e-01
2.852357948672282761e-01
2.611186497159214137e-01
2.322568607512714434e-01
1.997665982043263511e-01
1.637671383122603630e-01
1.248133155347257439e-01
8.376397211525349329e-02
4.095594431365520705e-02
-2.755837327457336117e-03
-4.672095175156251723e-02
-9.028754492839369261e-02
-1.327470411456564414e-01
-1.731853544946821422e-01
-2.114431504465669742e-01
-2.462816903129103063e-01
-2.774571870402156026e-01
-3.044043279398694346e-01
-3.261642707852280276e-01
-3.433161346798964120e-01
-3.544451088333926414e-01
-3.600126873180330422e-01
-3.596721416295505236e-01
-3.530079473371777743e-01
-3.410000008912440483e-01
-3.227690123762835261e-01
-2.993571026813735547e-01
-2.707787479541874376e-01
-2.373422020045650727e-01
-2.001234284764004112e-01
-1.591001303618517493e-01
-1.154160193368474752e-01
-6.956166809234295978e-02
-2.224908251513791138e-02
2.560747017472225773e-02
7.328494707106750217e-02
1.201663750499417649e-01
1.652334374789739546e-01
2.079558362217654721e-01
2.476769686684733851e-01
2.833353831354152863e-01
3.152485797216342256e-01
3.419390462970483546e-01
3.635377064695725635e-01
3.796092190674298927e-01
3.893511202264831605e-01
3.936869746230583500e-01
3.912900495470815199e-01
3.829640105330799349e-01
3.685038771300837013e-01
3.477679148984423874e-01
3.218560317039766971e-01
2.901725544797242873e-01
2.538709925655130428e-01
2.131470626259740764e-01
1.685248173109388792e-01
1.210387141009603429e-01
7.105667492526852869e-02
1.957283935783722673e-02
-3.260328171654840179e-02
-8.469339264826132585e-02
-1.358055436285548756e-01
-1.848556937584204529e-01
-2.315192090223261168e-01
-2.743727874257964050e-01
-3.130142500203378364e-01
-3.467422583618255394e-01
-3.744082338611272043e-01
-3.965842964615942656e-01
-4.116588180746439951e-01
-4.200719860300644592e-01
-4.214437142595059416e-01
-4.153196011076629723e-01
-4.027921888607785550e-01
-3.829446137493681679e-01
-3.569628016082583843e-01
-3.249498502494709284e-01
-2.873556392378732727e-01
-2.454599769200511705e-01
-1.993465807613071239e-01
-1.504061183783177158e-01
-9.927028858537598199e-02
-4.684972233717082934e-02
5.743140459521178798e-03
5.769735206605636213e-02
1.081852130417354507e-01
1.561533718466782128e-01
2.010001860194879919e-01
2.420036794466338126e-01
2.782073933145607914e-01
3.098597562458602628e-01
3.356678749728354560e-01
3.558854238072358678e-01
3.701770917285607254e-01
3.779914986605131810e-01
3.804073139764929667e-01
3.762968258737693361e-01
3.666895946570490894e-01
3.515165364181289664e-01
3.308589595442551490e-01
3.059403595373476614e-01
2.762477036282585119e-01
2.430349027334196554e-01
2.064826938282825486e-01
1.671149762418777385e-01
1.259158451754103791e-01
8.308373960488074639e-02
3.952423214781580763e-02
-4.194471913336883517e-03
-4.750703796938476886e-02
-8.972683752804222479e-02
-1.301154491469418972e-01
-1.684891968807324392e-01
-2.037905207875946867e-01
-2.358262249221925733e-01
-2.641046760261593906e-01
-2.877408594011999221e-01
-3.073575508913924392e-01
-3.215717815443374650e-01
-3.308184002759012587e-01
-3.347783502229561559e-01
-3.329736636098570846e-01
-3.263851751583464189e-01
-3.140321547663241231e-01
-2.968507749301283472e-01
-2.748153989048454093e-01
-2.481070754124221900e-01
-2.177508550045440250e-01
-1.835813008654982315e-01
-1.466632535927869518e-01
-1.073910442669921000e-01
-6.639752463748568867e-02
-2.453960684489272376e-02
1.759961282468784638e-02
5.935105528478016451e-02
9.988471106696747426e-02
1.386356281946555247e-01
1.750298592877521098e-01
2.081387754401411438e-01
2.380861613001948596e-01
2.637119477559379810e-01
2.849957896651874045e-01
3.016318940168357110e-01
3.128466293467821457e-01
3.195067725754907051e-01
3.204311829849648685e-01
3.162624366480529803e-01
3.069114069826245350e-01
2.921795193143115199e-01
2.730987412368923728e-01
2.490868254297955442e-01
2.211205481677179230e-01
1.893820855097407829e-01
1.542744712515494443e-01
1.166958612479773172e-01
7.687906454884210761e-02
3.568897874169689455e-02
-6.276374959702099403e-03
-4.833079857395734813e-02
-8.980131862239505713e-02
-1.298007376132248314e-01
-1.680034429738540280e-01
-2.033529011947094733e-01
-2.353914823215325081e-01
-2.636646696124812506e-01
-2.871291747110684689e-01
-3.062337167172044516e-01
-3.197030556866021778e-01
-3.277393769292943349e-01
-3.301478487295564923e-01
-3.263713713735962862e-01
-3.173949000008099985e-01
-3.023677566818519513e-01
-2.821565565855486679e-01
-2.569217057908633750e-01
-2.269111088979270663e-01
-1.932013063530669261e-01
-1.558321846999947691e-01
-1.158822477771641879e-01
-7.391037252922641465e-02
-3.068888703813962490e-02
1.292452560276161413e-02
5.614610956203906766e-02
9.830959751388078371e-02
1.385111035271876789e-01
1.760786017072403231e-01
2.105300239904100701e-01
2.408273155067987559e-01
2.671520448462810782e-01
2.883997988199455409e-01
3.045318706686835353e-01
3.154106782169145418e-01
3.202805530917419152e-01
3.201412310622513413e-01
3.139596677662535029e-01
3.024448053486599175e-01
2.857170711459440238e-01
2.637161258609065362e-01
2.375851329609596219e-01
2.069825147840683444e-01
1.729417365912720161e-01
1.358498756174270627e-01
9.627931621858069888e-02
5.513492828264933421e-02
1.290916576730674614e-02
-2.958100641177827117e-02
-7.160340223324229703e-02
-1.123923588205099078e-01
-1.513947175205201112e-01
-1.875747278046440703e-01
-2.207818477790957634e-01
-2.499674538859729123e-01
-2.747380209091320191e-01
-2.948733972488883914e-01
-3.093599045924789182e-01
-3.188833562992699489e-01
-3.223459574153580975e-01
-3.200943068213347176e-01
-3.122258360768648267e-01
-2.983061941670302475e-01
-2.795783726311115713e-01
-2.553893939270402424e-01
-2.267129225003922666e-01
-1.939619288284263610e-01
-1.574846591388485151e-01
-1.184370942159975737e-01
-7.703785113583530575e-02
-3.429179184892634791e-02
9.113543661246864547e-03
5.243411368736079770e-02
9.492774649418440902e-02
1.357366926949666874e-01
1.744294915671164015e-01
2.101095167704994104e-01
2.422340509269818032e-01
2.705546326701325777e-01
2.940418040019540102e-01
3.131434848906824997e-01
3.268492971686567938e-01
3.352307311115730326e-01
3.383996243907760326e-01
3.356104827112221800e-01
3.280306077691060307e-01
3.147500577941691469e-01
2.964683216858944870e-01
2.735097039468968316e-01
2.457408492619007623e-01
2.144112273749832487e-01
1.792183700669240376e-01
1.410880359506046511e-01
1.005545287640574603e-01
5.807117530457261978e-02
1.453824601726050325e-02
-2.951454100014472282e-02
-7.343308610701754224e-02
-1.163895329834888637e-01
-1.577300816032983222e-01
-1.969590346069184927e-01
-2.330001132190564483e-01
-2.658402975759625031e-01
-2.943870447877275920e-01
-3.182986457639391809e-01
-3.374375708842679011e-01
-3.507344480376225482e-01
-3.589547456549526117e-01
-3.610049290747390782e-01
-3.572093119743536827e-01
-3.477655958954822268e-01
-3.321427845871026685e-01
-3.116840260207693891e-01
-2.857045122163690554e-01
-2.551291680498958270e-01
-2.204734961129781734e-01
-1.819831677425683969e-01
-1.408828173080926005e-01
-9.737111841107914945e-02
-5.239321549964104374e-02
-6.717734106425732321e-03
3.898424110981307811e-02
8.394981696204195654e-02
1.273036135870788677e-01
1.686589330257194652e-01
2.070622992313594368e-01
2.419838640723261658e-01
2.731834886538870855e-01
2.995617667180107135e-01
3.215790067044705380e-01
3.381723334927452251e-01
3.493651027867260561e-01
3.552827736990178953e-01
3.550698741236856804e-01
3.498873249205551872e-01
3.387686526853301294e-01
3.223505258049799704e-01
3.009662410534141297e-01
2.743657478648142689e-01
2.438709140535139652e-01
2.090721541597286848e-01
1.708999754751367450e-01
1.298976466292736109e-01
8.650024097701136672e-02
4.164481331073255355e-02
-4.136278474141760753e-03
-5.013725250044544918e-02
-9.551203762678232845e-02
-1.395124216121327865e-01
-1.816427066540358681e-01
-2.207145505845934386e-01
-2.566423768629861324e-01
-2.883012629105146662e-01
-3.151964894476611545e-01
-3.372174817037141836e-01
-3.531363048039659613e-01
-3.636656889174020302e-01
-3.676795086138825996e-01
-3.653801180463862597e-01
-3.570034943531426030e-01
-3.419161543260118563e-01
-3.214476413698540425e-01
-2.949250070364055620e-01
-2.632500350004867151e-01
-2.269823267054760230e-01
-1.863906831750778981e-01
-1.427591712472665586e-01
-9.634710712473651406e-02
-4.819404492209650170e-02
8.752456633572547329e-04
5.000736358533905412e-02
9.842455048713133481e-02
1.450592755379378485e-01
1.894050645987480075e-01
2.304533849950988200e-01
2.674388936060266286e-01
3.001617981550300240e-01
3.273211563514222266e-01
3.493058684446091466e-01
3.650585591781087547e-01
3.744596116742595071e-01
3.777327204303400077e-01
3.739745742276928131e-01
3.643451707224293346e-01
3.480277903834334552e-01
3.256826032051932662e-01
2.977921561848881349e-01
2.642763972019515073e-01
2.265348153267119913e-01
1.844302830045239650e-01
1.390458243239554026e-01
9.109617946200210259e-02
4.134572987180670789e-02
-9.251340165132071469e-03
-5.979690772347473482e-02
-1.094673156388916713e-01
-1.572929982438909802e-01
-2.022426711129057808e-01
-2.439212324806524501e-01
-2.808851825299809035e-01
-3.130826498902513078e-01
-3.394211830638129146e-01
-3.593595860719274171e-01
-3.730093098717616185e-01
-3.791941024465145249e-01
-3.787943262886021567e-01
-3.709590002023005484e-01
-3.560921576443696335e-01
-3.347172792421888032e-01
-3.065730597445683880e-01
-2.731198962329258739e-01
-2.341793098217296865e-01
-1.909002378369322739e-01
-1.440858346374352394e-01
-9.446898760171487663e-02
-4.329908769620451070e-02
8.676512659700763574e-03
6.035399114251760455e-02
1.108098410464163630e-01
1.588996833780174089e-01
2.041238677637551568e-01
2.451187365347282654e-01
2.815884757414823247e-01
3.126232906206757867e-01
3.374859703107250808e-01
3.563862506574453359e-01
3.680727805800782515e-01
3.732821675146583140e-01
3.712769058613915041e-01
3.622111130219391462e-01
3.467210091678829542e-01
3.242767222045890296e-01
2.962873845675151330e-01
2.624583455766229534e-01
2.237328353931089531e-01
1.809202557558383662e-01
1.344289414597135690e-01
8.561954667362764448e-02
3.494615916663069283e-02
-1.647106012118541851e-02
-6.775660089051072088e-02
-1.178635749719074144e-01
-1.661387411075225529e-01
-2.113414946455861587e-01
-2.529355174481052737e-01
-2.900408067672065604e-01
-3.217143683346735950e-01
-3.480647466456443517e-01
-3.677021930784277193e-01
-3.810654656046779110e-01
-3.874254505245616764e-01
-3.865926164628867845e-01
-3.792335651460826407e-01
-3.645299826827361755e-01
-3.437665580407645027e-01
-3.166166077974641446e-01
-2.837701305296037035e-01
-2.461762716851797483e-01
-2.039239568337770925e-01
-1.585210539992453760e-01
-1.102529287728895163e-01
-6.018874215759797974e-02
-9.293507874611597885e-03
4.164442324211507784e-02
9.171623428722971982e-02
1.399683388835438191e-01
1.857499313111018457e-01
2.282371651371170040e-01
2.665360799654332147e-01
3.006738326589293853e-01
3.293368134632038147e-01
3.527773936248650988e-01
3.703280966274023478e-01
3.815614760571983677e-01
3.871441683887397733e-01
3.859628018718420095e-01
3.790740974375946815e-01
3.659918625102959178e-01
3.469609544857796823e-01
3.228692774622634598e-01
2.932255241458963102e-01
2.593963793993871447e-01
2.212679024243706660e-01
1.795615141453498209e-01
1.351516132654264069e-01
8.832208399929175613e-02
4.014422679670501259e-02
-8.831040020321520578e-03
-5.787349371541407328e-02
-1.061292134528580011e-01
-1.527467809626644468e-01
-1.973823037433892202e-01
-2.387453486202797681e-01
-2.766168392115018193e-01
-3.101472899683329065e-01
-3.385089666467085978e-01
-3.619962320168169656e-01
-3.791654159533470736e-01
-3.905588927705124225e-01
-3.954749125913196162e-01
-3.936764568404794162e-01
-3.859060022895531850e-01
-3.712519489097612091e-01
-3.509314212037004110e-01
-3.246534003843770666e-01
-2.929364830722662738e-01
-2.567796762853931658e-01
-2.161296264073490903e-01
-1.724058888748088436e-01
-1.259056331322849220e-01
-7.751290151001800910e-02
-2.825331663678589192e-02
2.126688625366868202e-02
7.011966481636355830e-02
1.174344937503907921e-01
1.626560584657240627e-01
2.049217726975053055e-01
2.434935338247921077e-01
2.783348969180111654e-01
3.082460791472663164e-01
3.334757653499928476e-01
3.533752805572660249e-01
3.675851099239038633e-01
3.767318266465421450e-01
3.797606209563241242e-01
3.776651954110294973e-01
3.699938223271215243e-01
3.569292825481504838e-01
3.393658326145744253e-01
3.166999003882519648e-01
2.902432910520615916e-01
2.598005939095773265e-01
2.259132400820815234e-01
1.894550612909920162e-01
1.503727313785470643e-01
1.097611374881783675e-01
6.785952244013618295e-02
2.519907560015884063e-02
-1.742694225963214993e-02
-5.961740018781847700e-02
-1.008946803469201875e-01
-1.404228241255463527e-01
-1.780487961216629667e-01
-2.130001580269221262e-01
-2.447425226994795755e-01
-2.733847973965926603e-01
-2.977442378549804980e-01
-3.182125636380910838e-01
-3.340509696881125423e-01
-3.449755772270802212e-01
-3.514635491552449142e-01
-3.524898579773830809e-01
-3.489495723241623493e-01
-3.403025501925704965e-01
-3.267334087466394199e-01
-3.089459205103542994e-01
-2.864499432332575091e-01
-2.604084338176013147e-01
-2.306853141027269127e-01
-1.978322892100216612e-01
-1.626592877660944514e-01
-1.252655227625180112e-01
-8.664638189017387360e-02
-4.716939641229911384e-02
-7.354569035198085802e-03
3.201191972497992311e-02
7.047963125072087553e-02
1.076581639082452857e-01
1.426975129716440693e-01
1.755390694565968079e-01
2.054805553334344836e-01
2.320962323632488056e-01
2.555894301233763155e-01
2.749182880044658828e-01
2.906122444851125253e-01
3.020353739837002283e-01
3.090463686044944702e-01
3.121781594673838089e-01
3.105236360199730705e-01
3.050324264081987757e-01
2.951677849943641907e-01
2.811363466659408394e-01
2.635516721556948605e-01
2.419125210804167203e-01
2.172571613311162775e-01
1.893435217114774471e-01
1.586146860538601433e-01
1.256852584540848472e-01
9.061702988015918336e-02
5.417521908544087328e-02
1.670252978360364793e-02
-2.137372593162689682e-02
-5.937554749147816446e-02
-9.675409740868481934e-02
-1.332434425728038774e-01
-1.678227614225578090e-01
-2.003837195806264515e-01
-2.301416249814499659e-01
-2.564457354168113712e-01
-2.794348410059452337e-01
-2.978416983787590122e-01
-3.120661734046319968e-01
-3.213403012034580786e-01
-3.253701168636586871e-01
-3.246066470989116270e-01
-3.181119083322043184e-01
-3.068071223660119307e-01
-2.902120408444683886e-01
-2.686281067338460726e-01
-2.427402394531037455e-01
-2.123238383979914046e-01
-1.785287993807802565e-01
-1.414201693017292927e-01
-1.017039460438641241e-01
-6.018453999369038909e-02
-1.733827460947279242e-02
2.599644594701505662e-02
6.908891376301956599e-02
1.113593897024848234e-01
1.519991196445577009e-01
1.902313467565451555e-01
2.258698890528544334e-01
2.577260117371115711e-01
2.858217643996380231e-01
3.094117438340186488e-01
3.279570907512828759e-01
3.418183190965641272e-01
3.498577036670633689e-01
3.528004768944486003e-01
3.500416982895738771e-01
3.416080116187641957e-01
3.281570663182972192e-01
3.090495171422312226e-01
2.854493209131134246e-01
2.570789315766047745e-01
2.245008968155712270e-01
1.884785402848076497e-01
1.490910389864715246e-01
1.074469739134949753e-01
6.385731868905966668e-02
1.905253652525627783e-02
-2.615517944105153619e-02
-7.108845738812154258e-02
-1.151767993766427411e-01
-1.573967315799797706e-01
-1.973680124975192296e-01
-2.342426789423632250e-01
-2.672389516119719199e-01
-2.963876183658884500e-01
-3.203747111534024916e-01
-3.395089935079373955e-01
-3.530211882481270047e-01
-3.605795578805405244e-01
-3.626982174852660945e-01
-3.583908760066662480e-01
-3.486802548778253907e-01
-3.330962083993566081e-01
-3.120010096941026601e-01
-2.862194647888702259e-01
-2.554684568486329521e-01
-2.211104189388088392e-01
-1.831574583178214310e-01
-1.424044290796173673e-01
-9.975683219721964701e-02
-5.558196018617911349e-02
-1.092201793331798454e-02
3.365598678940828758e-02
7.752820583412450839e-02
1.198926940619637893e-01
1.600968576651095876e-01
1.979136635697411328e-01
2.322892263694276704e-01
2.632722225891295786e-01
2.901813181399630071e-01
3.125216308993955527e-01
3.307319529186151241e-01
3.436312145994058209e-01
3.519746995717359384e-01
3.551304917255227456e-01
3.530000242981682357e-01
3.463035714180410785e-01
3.341045071205127059e-01
3.175608839585212229e-01
2.961743900456176304e-01
2.702591434579427188e-01
2.405577707950654620e-01
2.067073412857573511e-01
1.698407389970832404e-01
1.299236810782202212e-01
8.750891809887151318e-02
4.336217801601766064e-02
-2.158470332246670287e-03
-4.834733824815481973e-02
-9.442031765994879366e-02
-1.399299874530651744e-01
-1.839875813101201074e-01
-2.257675997302631965e-01
-2.651149199593628714e-01
-3.005895947575624727e-01
-3.322197473233360343e-01
-3.590491056653727919e-01
-3.803748652257210594e-01
-3.965180180358168771e-01
-4.060672169541149623e-01
-4.097507443383502368e-01
-4.068171839601290585e-01
-3.972051817809341134e-01
-3.816530099403439569e-01
-3.594069882565142926e-01
-3.317920675071230341e-01
-2.985655596231547304e-01
-2.603645760564662348e-01
-2.181922140052011405e-01
-1.721526327770149245e-01
-1.236226189441558404e-01
-7.301862694525058928e-02
-2.118108229292163525e-02
3.085783022749535864e-02
8.240956469478435964e-02
1.327598405252079783e-01
1.808392935364536158e-01
2.262995763242956759e-01
2.682216596092590333e-01
3.058837777945897507e-01
3.393949722335335983e-01
3.673932956421254170e-01
3.903576578997426938e-01
4.074767659003361020e-01
4.184410814208519014e-01
4.238940253681807713e-01
4.226471722572041068e-01
4.158706368436103640e-01
4.028972779373750646e-01
3.839793845426744956e-01
3.599461242886075052e-01
3.301748673355062724e-01
2.960736778627595656e-01
2.573670464405424241e-01
2.147069303867567003e-01
1.689584321651204091e-01
1.202662854341570997e-01
6.973284911046287449e-02
1.784852315905921527e-02
-3.473212635781874891e-02
-8.705541675108113830e-02
-1.383536790990255727e-01
-1.881856341729757354e-01
-2.351992667672341275e-01
-2.792038743945802759e-01
-3.191300506461531850e-01
-3.541521834060937790e-01
-3.843998048848830673e-01
-4.082687789281832513e-01
-4.263073301909101054e-01
-4.375183958491172809e-01
-4.416278947318565962e-01
-4.392206836621038724e-01
-4.291883778971341545e-01
-4.128059471221097176e-01
-3.894966976864977504e-01
-3.597878702082866198e-01
-3.246028331470617312e-01
-2.837568004642152530e-01
-2.388217209862307233e-01
-1.899218001999809224e-01
-1.380469964701376284e-01
-8.427313342447506628e-02
-2.921520881883363230e-02
2.599434638946847287e-02
8.046408191847567726e-02
1.334822401366513589e-01
1.840134394386445382e-01
2.312112981492873698e-01
2.748230189190049022e-01
3.134899716171697936e-01
3.473531274788474454e-01
3.755059023314848421e-01
3.974904831965871410e-01
4.137633913749640402e-01
4.230706845048524678e-01
4.264353329174752072e-01
4.231228781395786620e-01
4.133370702210048542e-01
3.978738482157179179e-01
3.760152463602158268e-01
3.492451131885970783e-01
3.171576981302868248e-01
2.804737107193467915e-01
2.400561108467176297e-01
1.959149281327987602e-01
1.493765440010225154e-01
1.006559930665552050e-01
5.055134002034492036e-02
-5.290560630148710697e-05
-5.052874160004153237e-02
-1.002209355725930534e-01
-1.480951045383234188e-01
-1.937942149516702350e-01
-2.363638332283203303e-01
-2.750374249495923240e-01
-3.098165956180790603e-01
-3.392613879988490844e-01
-3.637406587611816677e-01
-3.823046480766253974e-01
-3.946073587008831485e-01
-4.011094881919936572e-01
-4.006515220685811229e-01
-3.943162000421647218e-01
-3.814253258436407501e-01
-3.623486969435834593e-01
-3.378501886972275492e-01
-3.075487768106420217e-01
-2.728893047418213813e-01
-2.337689571271515110e-01
-1.910751129135838666e-01
-1.457190449887218464e-01
-9.812572884698159137e-02
-4.945891167407895361e-02
-3.345347451080282752e-04
4.846271724566077188e-02
9.603157949578786101e-02
1.415607565681840374e-01
1.846871740329707468e-01
2.242087365558685097e-01
2.600364594980573152e-01
2.913483260933451557e-01
3.175423670242821794e-01
3.389463690563641052e-01
3.542966313927772837e-01
3.643229542238866636e-01
3.683110750930843613e-01
3.662343450425069036e-01
3.587726972084398502e-01
3.450915878139127480e-01
3.264493333255084062e-01
3.023907951253648752e-01
2.734712139706724776e-01
2.404622512776179444e-01
2.032573860513608999e-01
1.631255532722239721e-01
1.201685397012213496e-01
7.519635710666236483e-02
2.901126571718563862e-02
-1.778761694598418250e-02
-6.444893476227048223e-02
-1.100861841488521009e-01
-1.541581244476921686e-01
-1.958138365191300634e-01
-2.341893017034434310e-01
-2.692061664284438605e-01
-2.994985536316517316e-01
-3.252023045390585176e-01
-3.454975757271374071e-01
-3.598703146482069015e-01
-3.687723147945274893e-01
-3.710368215868281583e-01
-3.675649391354385287e-01
-3.577872011626413440e-01
-3.419058542174124304e-01
-3.207245143703676971e-01
-2.937804464081774647e-01
-2.624423768939393442e-01
-2.266235858501956524e-01
-1.871034494972416973e-01
-1.448201271293679815e-01
-1.000737783877364007e-01
-5.406703409466788457e-02
-7.304173341796754704e-03
3.943825117133586272e-02
8.529083258535906376e-02
1.295342751205539877e-01
1.717371223846210770e-01
2.108460388051559831e-01
2.466933138728156505e-01
2.785479265929574622e-01
3.057963945903637848e-01
3.287535641445178958e-01
3.462121597738306300e-01
3.587804722552690451e-01
3.658374015326690265e-01
3.672242025654059439e-01
3.636492076170328436e-01
3.541837055129619660e-01
3.399653750012779918e-01
3.205475463792934465e-01
2.962766689501383777e-01
2.679475009452597645e-01
2.352267230490099337e-01
1.993242191119325435e-01
1.602211813521404460e-01
1.185501772836484446e-01
7.510870714110526314e-02
3.024586680987183251e-02
-1.522214137346991625e-02
-6.060923398253736938e-02
-1.054011274812801796e-01
-1.487530186637213703e-01
-1.899021963203312569e-01
-2.286567528254858928e-01
-2.637243552436846494e-01
-2.951089950748646551e-01
-3.219538966826247517e-01
-3.436403386734904197e-01
-3.604881487741390389e-01
-3.712192950719960804e-01
-3.765268856998145175e-01
-3.757428462518130896e-01
-3.688432419652609706e-01
-3.565360749684122754e-01
-3.381198145696307500e-01
-3.148391373981397345e-01
-2.864565311206142550e-01
-2.535713553553098354e-01
-2.171061716223680882e-01
-1.771071418803284447e-01
-1.348679881995494545e-01
-9.069666133864424939e-02
-4.536640358887829294e-02
2.054789462388496857e-04
4.547206647273648039e-02
8.972818635207648053e-02
1.321293610636704308e-01
1.723386359271963653e-01
2.095723439742175620e-01
2.432488944444008427e-01
2.734375249532876029e-01
2.990211525938519799e-01
3.203954944991137532e-01
3.368981316776010204e-01
3.482867618071120441e-01
3.551264091826137337e-01
3.564159703401892365e-01
3.531452477806656387e-01
3.447665331384225929e-01
3.314832745387772950e-01
3.140182222714624216e-01
2.917946503902927868e-01
2.660055598830774470e-01
2.363792735498418673e-01
2.034299993989968081e-01
1.678803897425035774e-01
1.297444120381495425e-01
8.997695444250825014e-02
4.886710408822567825e-02
6.936866334994698513e-03
-3.506032248513572813e-02
-7.659550947564580659e-02
-1.172707618891710712e-01
-1.560955151976458066e-01
-1.928984184406474234e-01
-2.268497255059847006e-01
-2.573045503914358489e-01
-2.843536427497393992e-01
-3.067158783352769702e-01
-3.247778793673858355e-01
-3.377392924746034919e-01
-3.453127679410996076e-01
-3.479465654758174820e-01
-3.446631673448949940e-01
-3.364064692634683440e-01
-3.226567071524194530e-01
-3.037269562105990861e-01
-2.803067552186951916e-01
-2.521188775182089947e-01
-2.203543778479632176e-01
-1.850134997192083575e-01
-1.468176796142965368e-01
-1.065545234566066674e-01
-6.464277256480460698e-02
-2.196820166229461468e-02
2.083167680982309089e-02
6.315043824853031063e-02
1.042151823983464842e-01
1.432732410378145249e-01
1.801185772652568740e-01
2.136044210594317261e-01
2.437047113469851256e-01
2.696897544322706675e-01
2.909893327170229305e-01
3.079292426654858250e-01
3.193456486938920369e-01
3.258804494959905984e-01
3.269000691680781778e-01
3.223699992759579414e-01
3.128771644295408327e-01
2.977367098012492219e-01
2.780262789672477974e-01
2.534224482641337373e-01
2.244664592069464670e-01
1.918422526395766325e-01
1.556358445428915882e-01
1.169213917515474627e-01
7.598341300403854692e-02
3.362004576780560500e-02
-9.419870210945910372e-03
-5.237793177340568929e-02
-9.466319606082837512e-02
-1.352626448559867689e-01
-1.736661495161502256e-01
-2.090928998249298454e-01
-2.406572077470049975e-01
-2.683755525537637743e-01
-2.909644244587125117e-01
-3.086115158952901227e-01
-3.206563880634495378e-01
-3.267232052716901314e-01
-3.273285884238424370e-01
-3.216014700424253414e-01
-3.104703384674679656e-01
-2.936227881243227422e-01
-2.714603485342657607e-01
-2.447906283850632136e-01
-2.135352197841738353e-01
-1.789430732443381133e-01
-1.412035143276295091e-01
-1.011856187176403132e-01
-5.971617237048758298e-02
-1.740122676729791498e-02
2.488638646920851571e-02
6.642621818852820215e-02
1.065401925454673576e-01
1.445592553946076775e-01
1.796383852162353745e-01
2.117343138248666268e-01
2.397240662177568538e-01
2.636261273040094721e-01
2.829244524244217129e-01
2.970650623269215362e-01
3.065895721381875494e-01
3.104531379948581304e-01
3.093610595735527546e-01
3.029258887837622538e-01
2.911726675313089929e-01
2.748305403652371859e-01
2.533928192905184895e-01
2.279011819461827515e-01
1.982689352002439676e-01
1.650683918139477790e-01
1.290042271370392402e-01
9.036832438176814475e-02
5.005749176441059989e-02
8.582181487686978832e-03
-3.328908802463708544e-02
-7.488337745682288604e-02
-1.152468955946344548e-01
-1.540732570041445371e-01
-1.901569204898783116e-01
-2.230769566561676132e-01
-2.521987626181070863e-01
-2.765042974375104823e-01
-2.963408298713934852e-01
-3.103254802673242607e-01
-3.187651151662931892e-01
-3.212127434528327385e-01
-3.172646632244031095e-01
-3.077118833583760704e-01
-2.917556727780751258e-01
-2.703945022925797748e-01
-2.435890313622112169e-01
-2.117821078019024028e-01
-1.759473753044034083e-01
-1.362200507238786329e-01
-9.379658002047379373e-02
-4.917387376900356211e-02
-3.259445187020565404e-03
4.307506446181241788e-02
8.894859002003080439e-02
1.336821828597788420e-01
1.762540253774620980e-01
2.160036720014326672e-01
2.523214608088634181e-01
2.841117952470501029e-01
3.116696817207297299e-01
3.336193385253866106e-01
3.500899421708829617e-01
3.607353127530698034e-01
3.648937440609608673e-01
3.634706092495124663e-01
3.553882210541373654e-01
3.415148934293232852e-01
3.217630894237548111e-01
2.962073978877644009e-01
2.659241044706227575e-01
2.305906167002237661e-01
1.913853446258660940e-01
1.486092749969240567e-01
1.029325957141760950e-01
5.532344014767898166e-02
6.330382109207000063e-03
-4.314795135043869578e-02
-9.224805373370781325e-02
-1.402094587852518170e-01
-1.862508167905893020e-01
-2.292723735920382255e-01
-2.691469776706898465e-01
-3.044811510071426808e-01
-3.350333641849634336e-01
-3.602394780756409398e-01
-3.791116233540993141e-01
-3.923505960591255892e-01
-3.985445993317003888e-01
-3.982895192883958435e-01
-3.913449904006227609e-01
-3.774690020604531959e-01
-3.577752235098445310e-01
-3.316062414542593206e-01
-3.001674928682946386e-01
-2.636757993188391103e-01
-2.227006928875696623e-01
-1.784078967301152285e-01
-1.310989568166281982e-01
-8.197236627000265008e-02
-3.174512129644524450e-02
1.871214548671368272e-02
6.848689635538918186e-02
1.166250545817042461e-01
1.626412611802945940e-01
2.053792794299627023e-01
2.443759313150078993e-01
2.790836331409352056e-01
3.084433572949650815e-01
3.330366118078108562e-01
3.514282196620479581e-01
3.639963284515000952e-01
3.704941817625526101e-01
3.703309584019296441e-01
3.646933778598627218e-01
3.524571267460022694e-01
3.346753088006224619e-01
3.113493519919856567e-01
2.825931128965514794e-01
2.496304813681152202e-01
2.121169814897496397e-01
1.712754697326580033e-01
1.274532587949163687e-01
8.128169666081261346e-02
3.374996279265639332e-02
-1.463795633839524990e-02
-6.304687900228628239e-02
-1.106311458156112593e-01
-1.567220700663966571e-01
-2.006103621119490199e-01
-2.412591827020376667e-01
-2.786440202205282546e-01
-3.114429025970192333e-01
-3.394888374110241469e-01
-3.623439121019517151e-01
-3.790058567683127766e-01
-3.903750450191414423e-01
-3.949971330813015769e-01
-3.935070606614901600e-01
-3.857926598276509855e-01
-3.714811495854673518e-01
-3.518792383054176187e-01
-3.261712456274529215e-01
-2.955435171770633973e-01
-2.602685804845580875e-01
-2.206638432485458212e-01
-1.780562162441250984e-01
-1.324429625639024777e-01
-8.500572857454849474e-02
-3.638186564424265856e-02
1.284123433639401679e-02
6.164212443885500048e-02
1.094388163734665437e-01
1.556783508568050645e-01
1.994011129118791747e-01
2.403059276353570750e-01
2.777802228658851069e-01
3.110301304312478865e-01
3.404478637737029523e-01
3.647841213912859093e-01
3.843526063326546116e-01
3.988400477346251138e-01
4.076138709190265663e-01
4.117310738439612372e-01
4.099451200186089439e-01
4.030995524343292669e-01
3.910695967280417573e-01
3.736599361544060693e-01
3.519848153254411249e-01
3.253434187944258538e-01
2.947291731034674123e-01
2.602870872134536162e-01
2.222666250548282485e-01
1.816102135147820706e-01
1.384054322921179914e-01
9.343188506259836323e-02
4.733080681897960940e-02
5.763833580926802647e-04
-4.603659260367387596e-02
-9.171491644196350101e-02
-1.361886976104994540e-01
-1.782193042007434169e-01
-2.175063962878103774e-01
-2.533473470858824683e-01
-2.847001339075118098e-01
-3.119879783305080090e-01
-3.336474448559362815e-01
-3.499645003897455808e-01
-3.604348318059616418e-01
-3.644830229302006841e-01
-3.629662162898071864e-01
-3.548249340589933465e-01
-3.409769061971366089e-01
-3.213249054022242479e-01
-2.961400269111549854e-01
-2.664208376911073595e-01
-2.321035715205815309e-01
-1.943652739889622783e-01
-1.536323401098666219e-01
-1.107748581435266666e-01
-6.666568732226230143e-02
-2.210291984774089002e-02
2.211020205625639085e-02
6.506735279667441585e-02
1.059658580537609918e-01
1.442306864150711410e-01
1.787414189949543819e-01
2.095626054152147089e-01
2.354855516060330722e-01
2.563891277116358003e-01
2.719980607844182385e-01
2.815000216645707765e-01
2.858074217634026803e-01
2.837768698217125740e-01
2.761303340298151832e-01
2.628408041262535466e-01
2.438924134451600501e-01
2.203654591267673601e-01
1.918862582673634409e-01
1.595918976001414746e-01
1.237543430775464859e-01
8.509873691944752627e-02
4.450606902959763911e-02
2.526184756626137506e-03
-3.987803974324788392e-02
-8.202459653182569976e-02
-1.229456288454371382e-01
-1.620882263377453336e-01
-1.983072250855952845e-01
-2.313366567756123260e-01
-2.601273200233797933e-01
-2.841350721653936873e-01
-3.031335207851517666e-01
-3.160530882292175159e-01
-3.235223905218059803e-01
-3.244725474609794214e-01
-3.192157906121360078e-01
-3.078595142829553266e-01
-2.900844278851033020e-01
-2.670341742526359807e-01
-2.382740481465193405e-01
-2.048078352014367776e-01
-1.671032472933293156e-01
-1.257623016681850836e-01
-8.184279274736394605e-02
-3.590449767562309269e-02
1.101481938977266761e-02
5.810167128505583367e-02
1.043356739535786781e-01
1.490459594550934685e-01
1.910279932360184896e-01
2.298656036056524465e-01
2.644992564389265777e-01
2.942421542753390629e-01
3.188567706329581419e-01
3.371841799601030809e-01
3.497101828937809742e-01
3.554065911530651656e-01
3.544360853969484859e-01
3.469185558579517270e-01
3.324165592456733154e-01
3.120733387882184129e-01
2.853781039339481351e-01
2.533061883416961590e-01
2.163156356131119007e-01
1.750076350971782879e-01
1.304816334553302870e-01
8.329698687277492519e-02
3.461780456580482168e-02
-1.473292734864889431e-02
-6.353793100826632401e-02
-1.110811640296523461e-01
-1.560040620888961116e-01
-1.976736556881304452e-01
-2.350180361629161108e-01
-2.670820878915883267e-01
-2.936383421431775775e-01
-3.133741014547726800e-01
-3.266366697453511603e-01
-3.324810710271259295e-01
-3.309506263788148384e-01
-3.222985525513512028e-01
-3.061017856723355357e-01
-2.835593649322460386e-01
-2.543512797795275948e-01
-2.195660339488531010e-01
-1.798432404449088751e-01
-1.359252417257271195e-01
-8.914386622464234855e-02
-4.012950146836416487e-02
9.722320112241056300e-03
5.955931869642419607e-02
1.080025048435082347e-01
1.543237940084172255e-01
1.971780475970386082e-01
2.358322361085490315e-01
2.694340476456072997e-01
2.969583123865949803e-01
3.184262681207664647e-01
3.326130664601693043e-01
3.399166054711841856e-01
3.397228730409469488e-01
3.320518855756590115e-01
3.174850608814580033e-01
2.956333368658671801e-01
2.677845552474895086e-01
2.338378028367995298e-01
1.948191757118038214e-01
1.515804786920064984e-01
1.047620779911672684e-01
5.576571768465984902e-02
5.209026877280475976e-03
-4.560373881673002172e-02
-9.578175203957417505e-02
-1.440982162223616581e-01
-1.898509779439787604e-01
-2.317973658098902989e-01
-2.692877463019642259e-01
-3.015643293782687140e-01
-3.276795867287365938e-01
-3.478131848005057147e-01
-3.607693018456083478e-01
-3.670190943843438247e-01
-3.661010106392633134e-01
-3.579820459676869016e-01
-3.434911534074562844e-01
-3.221059477821975325e-01
-2.951915819134942609e-01
-2.627100260999265524e-01
-2.254955670092843867e-01
-1.846108170529528747e-01
-1.403414920198961524e-01
-9.416530092044680944e-02
-4.650858887245674922e-02
1.595121827095605238e-03
4.922131052499863213e-02
9.561676744441507947e-02
1.400456021141948393e-01
1.816333529777145184e-01
2.199317723618257059e-01
2.542932919938472591e-01
2.840338944901651952e-01
3.094052836086153002e-01
3.293103245979409066e-01
3.442112195006077346e-01
3.536613457829426155e-01
3.574341154802701537e-01
3.563508114360315338e-01
3.494967774919068848e-01
3.379809580356354926e-01
3.214876293675081875e-01
3.002813302652119765e-01
2.752830685283638168e-01
2.460434544216349717e-01
2.137869237441062109e-01
1.784548199602533081e-01
1.405728254705327085e-01
1.009461299146445223e-01
5.970693485588990379e-02
1.769388278342139825e-02
-2.462736213811488051e-02
-6.681443180921019243e-02
-1.081343985914176020e-01
-1.479825463462681734e-01
-1.861909210342389542e-01
-2.216382748089374966e-01
-2.542917266713040636e-01
-2.834123211254505059e-01
-3.083362038981820041e-01
-3.293895535053674162e-01
-3.452585168065706034e-01
-3.564474474492573819e-01
-3.623059575806331090e-01
-3.625617283497453158e-01
-3.578492411115514749e-01
-3.472611891520911986e-01
-3.317766956153644919e-01
-3.110830769397135986e-01
-2.854970437386658011e-01
-2.558367531695363573e-01
-2.219545780458562767e-01
-1.849762745896288696e-01
-1.451430372556098691e-01
-1.031310399216885942e-01
-5.980985877529604311e-02
-1.571388331795539606e-02
2.840680920327498526e-02
7.170779881083677587e-02
1.136870836605644586e-01
1.535472509178211209e-01
1.905028037561119214e-01
2.245212865928258861e-01
2.543662317659841632e-01
2.801590444086098919e-01
3.012377898102934770e-01
3.171062923509456177e-01
3.282677187154774967e-01
3.336297781741970336e-01
3.339719997897534487e-01
3.288269610900376727e-01
3.182779537985268026e-01
3.030689200795088079e-01
2.826690533313751530e-01
2.582125040902620849e-01
2.295721541076879979e-01
1.973362519020308015e-01
1.622725290321502256e-01
1.245657803120865936e-01
8.521264465889105688e-02
4.461754173483423180e-02
3.484241563457057822e-03
-3.746678901957978258e-02
-7.751062025341382000e-02
-1.162446234774305032e-01
-1.526599098445207137e-01
-1.864368240028699275e-01
-2.169126548457584458e-01
-2.433122492660246550e-01
-2.658804127261334971e-01
-2.833909104995316897e-01
-2.962009949925160646e-01
-3.037853743889357694e-01
-3.058348609964871567e-01
-3.030278476841878899e-01
-2.945106013832903824e-01
-2.812562070111797596e-01
-2.630281894840273416e-01
-2.401611807221171735e-01
-2.135236177653043743e-01
-1.829461634183051078e-01
-1.496086749053427423e-01
-1.136852070432711748e-01
-7.587595948472047880e-02
-3.699694882295984089e-02
2.516869728840021025e-03
4.187709452404719812e-02
8.045604996107083573e-02
1.177297895483383483e-01
1.530758032398068791e-01
1.857888801062819450e-01
2.158926496159059849e-01
2.423415473508220841e-01
2.652111193367979736e-01
2.840483383136158668e-01
2.982994536789669859e-01
3.085741623880791096e-01
3.137888892837496502e-01
3.146109453759918795e-01
3.106941608392075338e-01
3.018854268389623563e-01
2.890062307491376159e-01
2.713219000727348784e-01
2.498150242675705734e-01
2.243363665184339162e-01
1.951586951954382698e-01
1.630791769674220792e-01
1.279838614470514835e-01
9.078153598770391519e-02
5.176092454248805430e-02
1.141650373376696531e-02
-2.951279194928264557e-02
-7.050318595633410512e-02
-1.110886319225149466e-01
-1.503548362942268568e-01
-1.879530728307701737e-01
-2.231667528800036493e-01
-2.551615414702423923e-01
-2.840662871867067341e-01
-3.085452431536208628e-01
-3.287460385792045359e-01
-3.440461454156397147e-01
-3.538600545648703521e-01
-3.587652722733030708e-01
-3.576473485857249446e-01
-3.512613801844701178e-01
-3.392748896397459468e-01
-3.217188983016017745e-01
-2.994863388103643498e-01
-2.721310573305191216e-01
-2.408156866147493635e-01
-2.056632572971225648e-01
-1.672373349786279717e-01
-1.265380157253039872e-01
-8.381303454633179384e-02
-4.010291191083231038e-02
3.999034816640767431e-03
4.789683260730352721e-02
9.072060945347015792e-02
1.318537590171308393e-01
1.709554895332283109e-01
2.070317270856584790e-01
2.400011053335526778e-01
2.692267355235560267e-01
2.941625780837041626e-01
3.152214340532702441e-01
3.312810935484292729e-01
3.429361353100999210e-01
3.497275351542082911e-01
3.514580698561389216e-01
3.489337515188820071e-01
3.412384209858211337e-01
3.294072398605687457e-01
3.131241364396707416e-01
2.925629876994940703e-01
2.685789892220586395e-01
2.406961995474667937e-01
2.099883198288440000e-01
1.764172767913412820e-01
1.403684527399084447e-01
1.026181164316362360e-01
6.324310725239155884e-02
2.298272517710660268e-02
-1.767765479398106243e-02
-5.839964831184038530e-02
-9.842804231000909509e-02
-1.372253878016502227e-01
-1.746177462382040857e-01
-2.095034278474066369e-01
-2.418811253903757064e-01
-2.709793681177341540e-01
-2.961884180671004452e-01
-3.177806931553282532e-01
-3.344819864619809069e-01
-3.467842586927963322e-01
-3.540212403029058263e-01
-3.559326346987965461e-01
-3.531279249352858862e-01
-3.446890523026457931e-01
-3.315938338250583040e-01
-3.134992491497509137e-01
-2.906767789176132322e-01
-2.639706594048940591e-01
-2.331031132624536983e-01
-1.992528317168587859e-01
-1.625401346158599769e-01
-1.235484138310749547e-01
-8.318059693355261963e-02
-4.170857075263030567e-02
6.003287351327712962e-06
4.136912881535942388e-02
8.197279581040960161e-02
1.210221266825365349e-01
1.580160166797205945e-01
1.928014399066978468e-01
2.243923723202914944e-01
2.529446200142622669e-01
2.777975192252721270e-01
2.985742601981682398e-01
3.156954925059516914e-01
3.280846088936986704e-01
3.364743305573905108e-01
3.402818703707502501e-01
3.394357407694119644e-01
3.346116457340153616e-01
3.249334723877719266e-01
3.114564043037225671e-01
2.937226957991595500e-01
2.719683633201785966e-01
2.468877651673010432e-01
2.180610979566345309e-01
1.865024710960582199e-01
1.521258038373759502e-01
1.153370841904899358e-01
7.682722140880071660e-02
3.677508847090477095e-02
-4.182564436554792042e-03
-4.544469875636336642e-02
-8.668548781464860409e-02
-1.271153378033137160e-01
-1.660950691833344428e-01
-2.034732966695811662e-01
-2.379961592117353919e-01
-2.696917256630608217e-01
-2.976623966052538428e-01
-3.212582758030604335e-01
-3.407045803095138936e-01
-3.546459116187308247e-01
-3.636532246946359015e-01
-3.669340225362530683e-01
-3.643125484351628085e-01
-3.563514402861431840e-01
-3.422041142117133727e-01
-3.229728661275674817e-01
-2.982882125287059649e-01
-2.686178014801428038e-01
-2.347867786568371695e-01
-1.967530285971026416e-01
-1.557611157873832752e-01
-1.120690794691842074e-01
-6.645059773855960250e-02
-1.982232780645903913e-02
2.721362832252197106e-02
7.389733123810923732e-02
1.193068148500195380e-01
1.629837840732683285e-01
2.040621515842083733e-01
2.417921886484739602e-01
2.761396538041754889e-01
3.058303426338274122e-01
3.311238737165563273e-01
3.512415255142778969e-01
3.657764970966226326e-01
3.752260268047307168e-01
3.784452802377836766e-01
3.763912051322978458e-01
3.684281620941142199e-01
3.547215396982551505e-01
3.360042983953689388e-01
3.116705370471781755e-01
2.830118922185618779e-01
2.497515090134437288e-01
2.125193575916877187e-01
1.721127011330431111e-01
1.286626071035154584e-01
8.326523568941507358e-02
3.631299770100321345e-02
-1.149810603723766533e-02
-5.931585947194074199e-02
-1.064149231700928094e-01
-1.523228697048908398e-01
-1.958669449284912989e-01
-2.367775991565576055e-01
-2.741320520399073146e-01
-3.071333129438487131e-01
-3.358904442629885856e-01
-3.589594379638866850e-01
-3.767749541215208997e-01
-3.884724107061934273e-01
-3.937465274415076211e-01
-3.931399305842629421e-01
-3.856156756182235190e-01
-3.722913044696979368e-01
-3.526446415866185680e-01
-3.271075855449646630e-01
-2.965066942251232129e-01
-2.606395008802865343e-01
-2.208999567427327448e-01
-1.773815536089212164e-01
-1.309718956970256087e-01
-8.261073898255960613e-02
-3.287629871262612302e-02
1.723293290454012971e-02
6.689157983398019702e-02
1.154123345738142792e-01
1.618850437248776086e-01
2.054347720640594122e-01
2.458663935232661135e-01
2.818525903804191546e-01
3.134476458639248175e-01
3.398320328590060946e-01
3.604421883443036934e-01
3.757178103451488393e-01
3.844084451628512200e-01
3.873741313215184889e-01
3.839538139390751281e-01
3.742356735612950569e-01
3.589678265406485158e-01
3.374760617051866252e-01
3.110809628956467954e-01
2.794859246434889810e-01
2.433672833761315879e-01
2.035537237366791818e-01
1.601843721503224960e-01
1.144693826241702239e-01
6.677221336007709007e-02
1.793035481737889625e-02
-3.119894872299250332e-02
-7.981067340780056973e-02
-1.273327821176829522e-01
-1.726066082549635450e-01
-2.152096720241083450e-01
-2.542570386466045940e-01
-2.888468602455466216e-01
-3.190836413669002614e-01
-3.435085221799924482e-01
-3.624715251460590149e-01
-3.751841227410224189e-01
-3.812777248608998915e-01
-3.813627857129653353e-01
-3.743983834223401086e-01
-3.614975778466365530e-01
-3.422205659049525339e-01
-3.169965302274987962e-01
-2.867285937542916052e-01
-2.512242881198828437e-01
-2.119126909381575385e-01
-1.689240988813702216e-01
-1.231765871460329953e-01
-7.562452041002430680e-02
-2.685171122339428951e-02
2.212311328857065329e-02
7.051510299584179409e-02
1.176041717074228221e-01
1.625587228281221153e-01
2.044825768040230418e-01
2.432615531900020334e-01
2.776030009647385555e-01
3.075496412221939702e-01
3.324204614624215459e-01
3.515903523968313404e-01
3.656439112100109967e-01
3.733065631335574786e-01
3.754205595255227235e-01
3.714429878495663084e-01
3.613420018610656315e-01
3.459855283494381872e-01
3.245991450513588950e-01
2.984533341666006923e-01
2.672896099720473151e-01
2.316366302099179542e-01
1.923637392931071277e-01
1.494900556915040313e-01
1.041632890730961186e-01
5.672833359023748967e-02
7.931822961191659083e-03
-4.138808153003825652e-02
-9.045402146708914071e-02
-1.387430680621937196e-01
-1.850735038819954492e-01
-2.289975923131521429e-01
-2.696586169299657887e-01
-3.060168687308549851e-01
-3.382414574848034983e-01
-3.647211743384756177e-01
-3.857020322628541553e-01
-4.004118179283854273e-01
-4.082439410569383975e-01
-4.098832284038088636e-01
-4.040874058128407498e-01
-3.918727583417194738e-01
-3.728255518109143130e-01
-3.471731576784845563e-01
-3.159237870637528478e-01
-2.787504434572180001e-01
-2.370787371321289028e-01
-1.911060630438329577e-01
-1.416939038335061907e-01
-8.993201103054222767e-02
-3.641014157175898047e-02
1.775307288662697491e-02
7.166283508377868650e-02
1.245085215294489678e-01
1.753324906018944307e-01
2.230964806670466261e-01
2.676162250262382192e-01
3.074288207964863129e-01
3.424593411958180567e-01
3.719646104774472217e-01
3.951456205461975069e-01
4.126254908319255121e-01
4.229698831168204332e-01
4.269900257223041007e-01
4.241679419888009783e-01
4.143747662699389100e-01
3.986257250945859365e-01
3.760596006496482735e-01
3.480379188746212660e-01
3.143812171580205872e-01
2.756301423852350885e-01
2.328349364891206252e-01
1.860004685217924170e-01
1.364256758282315074e-01
8.452105662980138878e-02
3.110088804700904264e-02
-2.287593762929410190e-02
-7.661649068558154529e-02
-1.294820084527731341e-01
-1.802754553071132249e-01
-2.284959622757272157e-01
-2.732559831708147868e-01
-3.134705364087089774e-01
-3.493519441952341875e-01
-3.792132247388673716e-01
-4.033124886211229554e-01
-4.208879065754981275e-01
-4.312806830229254373e-01
-4.352702493253548521e-01
-4.315099583699376073e-01
-4.210514477939024669e-01
-4.034754575387174969e-01
-3.789652391340605497e-01
-3.485970083437709421e-01
-3.119514419590780907e-01
-2.704926209605914567e-01
-2.243952311669980548e-01
-1.745183557618864012e-01
-1.219791387535533733e-01
-6.734271036786604325e-02
-1.177725666541540317e-02
4.383000578213069875e-02
9.860732935719196401e-02
1.515889874835084639e-01
2.016667381416905602e-01
2.486290382682753153e-01
2.909588683476218574e-01
3.284892310008670768e-01
3.604774510262454545e-01
3.860056377425218344e-01
4.057160729266057198e-01
4.180851973058022919e-01
4.238559039860531064e-01
4.225326583729737129e-01
4.139169729614917692e-01
3.990551327223699762e-01
3.770687977319174822e-01
3.492991086678503554e-01
3.156257705981051487e-01
2.766250589663377113e-01
2.333720918969236502e-01
1.859635679846565748e-01
1.357216299564208417e-01
8.313890987277167133e-02
2.915241190917061687e-02
-2.528388294933447966e-02
-7.922436685429906644e-02
-1.319956924903712414e-01
-1.823540394637631623e-01
-2.296650181230154575e-01
-2.731071067666994701e-01
-3.114622364530041931e-01
-3.450140660951613314e-01
-3.720645446277191515e-01
-3.928277944361086016e-01
-4.066909696547309494e-01
-4.129869982466502498e-01
-4.126141436081864899e-01
-4.043474510205375405e-01
-3.892628450684446073e-01
-3.671502625602036107e-01
-3.383017256301339426e-01
-3.038841535103383729e-01
-2.636996787062788616e-01
-2.192174859499536055e-01
-1.708097408067444367e-01
-1.194607195983155845e-01
-6.627354102610805153e-02
-1.202629686132192233e-02
4.220111290628101447e-02
9.541818316199288108e-02
1.467054253289331589e-01
1.952352010609802180e-01
2.397988055069441293e-01
2.803427478335869805e-01
3.154053972359118774e-01
3.448558047384836511e-01
3.681826803335626064e-01
3.844882515599449824e-01
3.946465020674125301e-01
3.972818923212474429e-01
3.932175791635231787e-01
3.822450769878257826e-01
3.642864169537495256e-01
3.405492526885508520e-01
3.104238195658249877e-01
2.752646618536384038e-01
2.352485439366074349e-01
1.910673262717157150e-01
1.438529449009586791e-01
9.396688064388603046e-02
4.262589026664553860e-02
-9.461889183559807348e-03
-6.135726212810543867e-02
-1.121805035865411360e-01
-1.608793688668717081e-01
-2.069972211607370438e-01
-2.492832389788918190e-01
-2.872467227188754690e-01
-3.202967979788571284e-01
-3.473102279326283348e-01
-3.688966749535883549e-01
-3.835457792799191745e-01
-3.916912769674996686e-01
-3.930759982936973818e-01
-3.872250311652617460e-01
-3.753475760619937041e-01
-3.564953766917470235e-01
-3.318650204271983428e-01
-3.015986246650447788e-01
-2.660618583995372766e-01
-2.265885545192377615e-01
-1.831276437048389161e-01
-1.370410946680288844e-01
-8.887841573066984635e-02
-3.943667193138570420e-02
1.022541115707684134e-02
5.944814569496345569e-02
1.074527364747919489e-01
1.533238074896518532e-01
1.965045757719567354e-01
2.363821121017889992e-01
2.720280232382513708e-01
3.037032435149055742e-01
3.301773207262607146e-01
3.516010085842147803e-01
3.677151817847611470e-01
3.777638956237597823e-01
3.828782479006924699e-01
3.817496918821279839e-01
3.752278265237889987e-01
3.632543219748247121e-01
3.455844075541301130e-01
3.234864783323881388e-01
2.961839195694694893e-01
2.647850035087046527e-01
2.294555024952043554e-01
1.904624407155803834e-01
1.488723180126595713e-01
1.046996040984847498e-01
5.886068051415112301e-02
1.194279112122741474e-02
-3.553065306512726007e-02
-8.273717156247915872e-02
-1.289373217472985500e-01
-1.737729681560724326e-01
-2.161068924036737560e-01
-2.555804532749140767e-01
-2.915550799586013597e-01
-3.229807899626389589e-01
-3.502735596761939463e-01
-3.719298921677189895e-01
-3.881694945392334950e-01
-3.985897004594345927e-01
-4.024721805070672342e-01
-4.008214974724841895e-01
-3.924416483142766365e-01
-3.782218306108287575e-01
-3.581520864808675486e-01
-3.322463087715096242e-01
-3.017597240938780234e-01
-2.663284130524117277e-01
-2.271917534394463090e-01
-1.848052963088724354e-01
-1.397359327674563834e-01
-9.319521515514367360e-02
-4.555026836326326461e-02
2.202678305475560226e-03
4.924901609103195244e-02
9.505521746460314503e-02
1.387358010694416943e-01
1.796344118300908232e-01
2.175581924738450024e-01
2.514921746196189245e-01
2.814761726766714656e-01
3.070406392681379604e-01
3.276341604957100362e-01
3.440275873779751747e-01
3.550841645587221596e-01
3.615479149559039929e-01
3.632406557363413446e-01
3.599526667346026887e-01
3.528338879230855096e-01
3.409868752126987146e-01
3.254821310443279381e-01
3.062896939515011296e-01
2.834743124825633287e-01
2.581081823698414546e-01
2.296810462638904649e-01
1.991493629179126035e-01
1.666496099137198261e-01
1.323387822062910557e-01
9.704111945993397492e-02
6.069465082536039391e-02
2.384388730436845516e-02
-1.303412465165261491e-02
-4.985351961277523225e-02
-8.595352747788406744e-02
-1.209762053649647839e-01
-1.548976855278290099e-01
-1.867616415972043198e-01
-2.166871519281198810e-01
-2.440606735161373053e-01
-2.683029426980934051e-01
-2.898582771771379130e-01
-3.074525955360001284e-01
-3.215188119183699511e-01
-3.315286266555692030e-01
-3.370519102346763995e-01
-3.387593871619561381e-01
-3.356111672329055162e-01
-3.283493417822667682e-01
-3.167028922379875322e-01
-3.006274015315024695e-01
-2.809626651710248613e-01
-2.572143995546782858e-01
-2.303204154329930309e-01
-2.004010718938089575e-01
-1.677516847652218146e-01
-1.332734713473713584e-01
-9.702009996686448978e-02
-5.979150573716578848e-02
-2.209425362917116775e-02
1.576028758276785957e-02
5.297779256265286452e-02
8.917981201534824764e-02
1.241067992906592643e-01
1.569141545466446463e-01
1.876387653521992549e-01
2.156746735693230721e-01
2.405931821208491250e-01
2.627585018201604727e-01
2.811214971508751992e-01
2.961940154847084727e-01
3.075023925805972502e-01
3.147720905941009950e-01
3.186898269284672569e-01
3.182655855860537786e-01
3.143273290853382251e-01
3.064795649497992214e-01
2.946719412843525898e-01
2.796326322980479118e-01
2.606733167016053176e-01
2.386809230684960870e-01
2.134608327268543437e-01
1.851790120214382718e-01
1.545079671265952581e-01
1.212882013963715866e-01
8.621274056979594258e-02
4.957113186996170429e-02
1.164247789514816223e-02
-2.687860325699892305e-02
-6.555634111959371402e-02
-1.041087237755834172e-01
-1.415479709101264416e-01
-1.777162420654723185e-01
-2.118245203060464821e-01
-2.431326055871036451e-01
-2.717399140953678516e-01
-2.962782999445486287e-01
-3.169602855760524363e-01
-3.330127112021039615e-01
-3.439001102420288225e-01
-3.500635389963602240e-01
-3.503621291191711951e-01
-3.455457098742580335e-01
-3.351292881420993020e-01
-3.191708801029073950e-01
-2.984337530998234511e-01
-2.724620831575972346e-01
-2.424152912950768846e-01
-2.083166488582599563e-01
-1.707635633204440673e-01
-1.306951077468690992e-01
-8.837177899656101232e-02
-4.485704193312911592e-02
-7.157472444383472521e-04
4.341758092521119661e-02
8.666184876561108807e-02
1.283807148142102617e-01
1.681884097922556609e-01
2.050717838084645250e-01
2.389325401595739640e-01
2.690698889490458212e-01
2.949452432710001903e-01
3.168903466749339315e-01
3.337718507054788786e-01
3.462018197353156079e-01
3.536165118728560319e-01
3.558537770633523056e-01
3.536427107866541020e-01
3.460454931814873625e-01
3.341568374621024518e-01
3.175341009462148145e-01
2.964110721372392732e-01
2.715843437864628451e-01
2.425654628630870557e-01
2.105056072468254880e-01
1.752710439229271389e-01
1.373203833027948906e-01
9.741187978944715331e-02
5.565104766790318624e-02
1.283464921184663404e-02
-3.054482188380894941e-02
-7.408770444275009082e-02
-1.169876019592464289e-01
-1.586451537730261263e-01
-1.988182024401642933e-01
-2.363180047045049803e-01
-2.711115969284800253e-01
-3.023044499894104731e-01
-3.292359641551184657e-01
-3.521036645588370706e-01
-3.695327531623017747e-01
-3.820513653688787370e-01
-3.888490724207728788e-01
-3.896869269047583129e-01
-3.851390281519448955e-01
-3.742447313498055150e-01
-3.581103392823072329e-01
-3.362997728657999286e-01
-3.091997896963998849e-01
-2.776968037118570098e-01
-2.415564468204954574e-01
-2.021505636756081858e-01
-1.595989621216349352e-01
-1.146413402912006413e-01
-6.829902339146717849e-02
-2.092517371162960771e-02
2.644411813705274672e-02
7.314327026431191592e-02
1.186790316135290790e-01
1.621132971322399863e-01
2.029385738388480576e-01
2.408910406477371424e-01
2.749499428973436466e-01
3.053339412052837876e-01
3.312670946539945094e-01
3.524942634674639308e-01
3.694179262305097300e-01
3.809867980159633016e-01
3.881392131806290502e-01
3.901982923164847294e-01
3.872793199161197464e-01
3.801087052376224129e-01
3.678112377048208259e-01
3.517018157332817418e-01
3.311910708980352336e-01
3.066420278704056201e-01
2.788069356950982902e-01
2.471490319147441328e-01
2.128943640412880312e-01
1.757603564866601076e-01
1.361463545172003631e-01
9.479015009439489825e-02
5.164713893683525736e-02
7.475102962235136150e-03
-3.729629439646653388e-02
-8.244563812999727848e-02
-1.270867622191418356e-01
-1.708197086820384680e-01
-2.133396417674477685e-01
-2.534784066527575042e-01
-2.913416348221510854e-01
-3.258086992137010918e-01
-3.563646397906344854e-01
-3.829983499396044655e-01
-4.042809464099444972e-01
-4.207913116089617711e-01
-4.313903098637057454e-01
-4.359153502011788861e-01
-4.346812658900716109e-01
-4.266442237843675045e-01
-4.129512321428030486e-01
-3.928692699234943575e-01
-3.668710369483679790e-01
-3.356854467882819382e-01
-2.990495777788440002e-01
-2.584624896469880362e-01
-2.138871532379116314e-01
-1.662065750442472956e-01
-1.164643004481302757e-01
-6.505961811188287758e-02
-1.320556452166926631e-02
3.841103074329720035e-02
8.916427836107425342e-02
1.379508271332111624e-01
1.842760201075377413e-01
2.275929678407226375e-01
2.669057508193091177e-01
3.023717008547476270e-01
3.329963629972690908e-01
3.586862399710641913e-01
3.795556063300471461e-01
3.946789280888567397e-01
4.050660000126835580e-01
4.098258765088207412e-01
4.093777094518896709e-01
4.042120142617721124e-01
3.936370529167461108e-01
3.791448482712383994e-01
3.599398287627563198e-01
3.367244902930993100e-01
3.100788738796588229e-01
2.795980730062060937e-01
2.467089840247421173e-01
2.109056810472031418e-01
1.728242024508624131e-01
1.330816476187620112e-01
9.163225173175637561e-02
4.932053874275314775e-02
6.386667238743801156e-03
-3.691159856996556465e-02
-7.975544879238002927e-02
-1.219384308326652844e-01
-1.630410705125076576e-01
-2.021521131591392795e-01
-2.394517117178320276e-01
-2.737919084548260384e-01
-3.049352823574167370e-01
-3.326933153464610160e-01
-3.558430045690400001e-01
-3.750454133134205059e-01
-3.889850691188151410e-01
-3.977171048569571044e-01
-4.012842656829899157e-01
-3.986953586522615778e-01
-3.911113559347829116e-01
-3.774719796593004606e-01
-3.583449808108254975e-01
-3.341284786479674085e-01
-3.045033080023665240e-01
-2.708583788158506200e-01
-2.328693874425102617e-01
-1.914308702105815552e-01
-1.473138429342321920e-01
-1.008545161593482897e-01
-5.319478847923780895e-02
-4.854321585391833949e-03
4.349540360180939591e-02
9.085608443312290228e-02
1.367270031203751124e-01
1.804651304017733937e-01
2.211145664542333300e-01
2.587099886056957732e-01
2.921587572500676244e-01
3.212954557242004294e-01
3.459926791415664504e-01
3.652656367638171253e-01
3.799846032147385921e-01
3.890187029019366305e-01
3.927463571074520932e-01
3.913596804880971058e-01
3.841351542005023711e-01
3.724905223147832456e-01
3.554029316630379354e-01
3.336692481517018471e-01
3.076388742069195437e-01
2.770878421698853011e-01
2.433032050871226648e-01
2.058946198745981726e-01
1.656764658524228495e-01
1.232005368648386168e-01
7.873152872223768139e-02
3.314783683449627760e-02
-1.308485304065649946e-02
-5.948250215959501042e-02
-1.051301538255303286e-01
-1.495444167415069248e-01
-1.921854363801913101e-01
-2.319581125134002331e-01
-2.689489571779488108e-01
-3.018738537378352071e-01
-3.304599367520413833e-01
-3.544344823166187819e-01
-3.726144507051780685e-01
-3.857860760694781233e-01
-3.926018195842578828e-01
-3.933812572847014133e-01
-3.881730758703754169e-01
-3.762984805251415876e-01
-3.591421975356677843e-01
-3.357860246441835561e-01
-3.071818792831169098e-01
-2.737793603268620646e-01
-2.357350949379841687e-01
-1.943960983739195791e-01
-1.498309182684774699e-01
-1.030971395495128007e-01
-5.499445580090457641e-02
-6.169646648942116174e-03
4.240843870635295498e-02
8.994413033037342020e-02
1.358969081280207991e-01
1.792515945571588054e-01
2.194894565546150200e-01
2.561864370688035075e-01
2.882964319329718861e-01
3.161939224754931610e-01
3.387458634519647793e-01
3.560124538830641283e-01
3.680150358584131087e-01
3.738780933593207068e-01
3.748206855263250259e-01
3.697113723796280893e-01
3.592471878013510089e-01
3.436942876088067145e-01
3.226451184994640897e-01
2.975869458406059098e-01
2.677743164674727394e-01
2.341957676182588044e-01
1.972842912038385299e-01
1.571850487720001799e-01
1.150396374768343638e-01
7.091046562509381590e-02
2.557893566758068921e-02
-2.025917756889251964e-02
-6.614638386360573163e-02
-1.113638769011199431e-01
-1.551322067926244330e-01
-1.972108427974496869e-01
-2.365422271405140386e-01
-2.727465942106144792e-01
-3.054339126906213120e-01
-3.334977000518407619e-01
-3.574085731982317160e-01
-3.758677614357760488e-01
-3.889562116023694838e-01
-3.965712546958670703e-01
-3.978213069679464864e-01
-3.938666938491931502e-01
-3.835523932677218917e-01
-3.675913345013900879e-01
-3.462343416410721408e-01
-3.192651684743383900e-01
-2.880663823576488647e-01
-2.522333494009406096e-01
-2.128095269015548019e-01
-1.704212081280864766e-01
-1.254646029053054224e-01
-7.912392949712568346e-02
-3.180322846561926126e-02
1.569234030417183956e-02
6.246249606103796564e-02
1.079972135007476047e-01
1.515663383413088650e-01
1.923348505488744753e-01
2.302413926409129508e-01
2.642256810668688893e-01
2.941709049632669215e-01
3.198266685407475940e-01
3.403323226939915513e-01
3.565046474592717951e-01
3.671902370311514452e-01
3.728575876298264036e-01
3.735568828921995155e-01
3.686748950854276119e-01
3.595933517426090353e-01
3.452276608925488599e-01
3.264614344162868886e-01
3.034978735752412726e-01
2.761977066147259241e-01
2.457492392085480759e-01
2.117332276765935550e-01
1.749940431357911719e-01
1.359504069003560356e-01
9.487399182931580133e-02
5.259121322616551464e-02
9.478553976018586069e-03
-3.397729167617130619e-02
-7.695773160103408506e-02
-1.190271830171368284e-01
-1.596488241733666213e-01
-1.978226591123965483e-01
-2.336466775402181173e-01
-2.658562409743943089e-01
-2.942303025255720295e-01
-3.184434524342356632e-01
-3.373440654551929652e-01
-3.517339907391668907e-01
-3.601705210413417291e-01
-3.629966890542621893e-01
-3.601561143367003059e-01
-3.509399900047529552e-01
-3.366533797385429239e-01
-3.162755526928381911e-01
-2.907302240129548965e-01
-2.603341406173679817e-01
-2.251392466531128567e-01
-1.864783662544945986e-01
-1.442366409885492418e-01
-9.949093403702068128e-02
-5.293009534249442510e-02
-5.098882647107422228e-03
4.294405655373417785e-02
9.059030683232982550e-02
1.371879346404406563e-01
1.817755307808383847e-01
2.238794310525020759e-01
2.628970329086655622e-01
2.979253184283757738e-01
3.291586240588130763e-01
3.554622080350041680e-01
3.768867256090842055e-01
3.932422499329266130e-01
4.037364585334208833e-01
4.094067095515019350e-01
4.090744080736036237e-01
4.034083567494213818e-01
3.924897282255001008e-01
3.759680021137060124e-01
3.551320045163308126e-01
3.292440689490508388e-01
2.992640384340518600e-01
2.655082877984108469e-01
2.281155456850249841e-01
1.882051787040505408e-01
1.457578153535304677e-01
1.016100595804836082e-01
5.640978622014702903e-02
1.054462010025677965e-02
-3.510063210044214732e-02
-7.994682386444812439e-02
-1.235866715576496022e-01
-1.649948307276688508e-01
-2.039214461893371078e-01
-2.396634245919960771e-01
-2.714666552514117814e-01
-2.995048855604937055e-01
-3.225913659792137289e-01
-3.409688087203177065e-01
-3.541618932473250547e-01
-3.617759874049262803e-01
-3.645356917619114179e-01
-3.615546905625195984e-01
-3.536721294168083674e-01
-3.408009723009212677e-01
-3.232513294794122083e-01
-3.019232439978414284e-01
-2.767519053669211804e-01
-2.488290303453358776e-01
-2.185206500474627667e-01
-1.865789333190270849e-01
-1.538445599125903840e-01
-1.208522341583873061e-01
-8.839151700457459349e-02
-5.710330198493063225e-02
-2.754602516556126091e-02
-2.203400426266099998e-04
2.427001367779335617e-02
4.595135280575313175e-02
6.414954680963380618e-02
7.900070763799327267e-02
9.045737678146492655e-02
9.818068768382337552e-02
1.031203178434920709e-01
1.045857301152921526e-01
1.033982014346934708e-01
9.976255575120673846e-02
9.355420743894438118e-02
8.614584753454934685e-02
7.675046376924869740e-02
6.637824747607548592e-02
5.511582295832029299e-02
4.283864634397216431e-02
3.051700199247986411e-02
1.740439091022993878e-02
4.088419501913298504e-03
-9.615439943165604575e-03
-2.392162025611366261e-02
-3.862296207223536726e-02
-5.408154089952965649e-02
-7.040417935791332127e-02
-8.764526367546432439e-02
-1.058653945770071658e-01
-1.254150967353764301e-01
-1.456175448127128291e-01
-1.672302724469143520e-01
-1.893538009071864536e-01
-2.116263305507604109e-01
-2.343795356628159965e-01
-2.555198750212896996e-01
-2.763355003199685633e-01
-2.944466958261777734e-01
-3.092555880074103758e-01
-3.206968736849176160e-01
-3.259748805044593301e-01
-3.264668293317941616e-01
-3.193233771980089619e-01
-3.042574572710179948e-01
-2.811092982603888846e-01
-2.478878677830447241e-01
-2.059495607059211864e-01
-1.537629362299099967e-01
-9.186695381583653841e-02
-2.087971615792971747e-02
5.918926029182536297e-02
1.468407905399859992e-01
2.410226385780309677e-01
3.405799088116023832e-01
4.433350294739977215e-01
5.474303969947786896e-01
6.512803850902439962e-01
7.514259660939917040e-01
8.472172474128565334e-01
9.349621141827193505e-01
1.012573479509682350e+00
1.078836167679793512e+00
1.129653446338460210e+00
1.166166795746885310e+00
1.184383789655107266e+00
1.183976980334714657e+00
1.164827918695817255e+00
1.124708312932040544e+00
1.066336635248882558e+00
9.878740264091665502e-01
8.913228411054752165e-01
7.782084049991876418e-01
6.491947956448526069e-01
5.080108423913018978e-01
3.557616148816067358e-01
1.956683209829835901e-01
3.080815798743286038e-02
-1.364180432087727102e-01
-3.024129278263276710e-01
-4.641614168895922266e-01
-6.194825437746773744e-01
-7.644924071657563935e-01
-8.975031426912911670e-01
-1.016083930575307992e+00
-1.117358688984892101e+00
-1.201953500176968559e+00
-1.266170536798532087e+00
-1.310912406760737392e+00
-1.335319043674999984e+00
-1.338393135354652985e+00
-1.323316261032804197e+00
-1.287754627672648589e+00
-1.235095007901151121e+00
-1.165864562859155740e+00
-1.081290287323803057e+00
-9.852454391768969977e-01
-8.775338160123911102e-01
-7.621248994021203593e-01
-6.404947745453372088e-01
-5.147176521037495345e-01
-3.879854154494388752e-01
-2.614727391449568339e-01
-1.376298170229967588e-01
-1.849783254949821654e-02
9.485419623243429577e-02
2.004830388057805557e-01
2.970360424297520119e-01
3.846966379743577136e-01
4.610436459062978720e-01
5.270303327835144103e-01
5.816820365343415844e-01
6.242584656311633839e-01
6.572100143114696369e-01
6.778566560719085921e-01
6.888505520055756559e-01
6.896114160820767669e-01
6.803009667125272664e-01
6.637710123655320427e-01
6.379637132009259304e-01
6.058618966944548934e-01
5.670357775752896679e-01
5.222087788870086733e-01
4.734385245610396309e-01
4.197947283949861053e-01
3.634344002640052529e-01
3.043480688867382100e-01
2.432779578594621850e-01
1.814381954320629098e-01
1.190191460095665898e-01
5.689840050695227358e-02
-4.067544625329710950e-03
-6.351467545712546903e-02
-1.206100571891378093e-01
-1.743590727956625952e-01
-2.251020704117300264e-01
-2.710000344890237667e-01
-3.123100462868204641e-01
-3.482529665787379436e-01
-3.776297178092822282e-01
-4.017281706780563288e-01
-4.182270652933308686e-01
-4.281393280365238807e-01
-4.308471662960301485e-01
-4.257526671700504473e-01
-4.143881363222843839e-01
-3.951956039118493247e-01
-3.697204738636366006e-01
-3.378191625156757305e-01
-2.997588110201111489e-01
-2.571155692797530978e-01
-2.094828088347056028e-01
-1.585161443730020159e-01
-1.046774660478585195e-01
-4.874167953619865101e-02
7.925247691712405951e-03
6.483803156219727915e-02
1.209129883446873333e-01
1.751992165811699642e-01
2.271238339124767303e-01
2.757705870284185012e-01
3.203087669402676640e-01
3.607835765649286541e-01
3.958984897555920535e-01
4.258305152402824811e-01
4.501271529697749019e-01
4.680770743174672566e-01
4.807713259661801075e-01
4.867854114909081487e-01
4.870618679913824023e-01
4.814294205809985794e-01
4.695497689559601229e-01
4.528473064684642724e-01
4.302158744028743431e-01
4.029047178598493817e-01
3.709164329693978024e-01
3.342510125915931773e-01
2.942001338986282577e-01
2.502341296584832953e-01
2.034241655111416747e-01
1.541054874540141451e-01
1.024678511342464460e-01
4.956475139149338349e-02
-4.398210747894967798e-03
-5.887222116994405424e-02
-1.128735854292852447e-01
-1.662334316978107962e-01
-2.179957596732245984e-01
-2.672976784620306190e-01
-3.143065051095043638e-01
-3.572675774742766208e-01
-3.963316096998638072e-01
-4.305784724457948354e-01
-4.589990048843979320e-01
-4.822976164715038205e-01
-4.985716822996733022e-01
-5.085073947690852414e-01
-5.114142937814881718e-01
-5.067708967595631053e-01
-4.956380065703133164e-01
-4.767751080206082959e-01
-4.514121057530138259e-01
-4.193936724094593504e-01
-3.809713610673323703e-01
-3.374302556431392208e-01
-2.885750294797193027e-01
-2.358026842467272899e-01
-1.796629138202626152e-01
-1.208840592187254148e-01
-6.073193526728513231e-02
9.785237700401377969e-05
6.074092836476466251e-02
1.199510202468059006e-01
1.772067826923779954e-01
2.314707174005992685e-01
2.816453547861051954e-01
3.279614792317472327e-01
3.685940242787558718e-01
4.038185842252285940e-01
4.328563138216559580e-01
4.548536606974976637e-01
4.708175469275853176e-01
4.789868310668828899e-01
4.804541324958589987e-01
4.746610426974962604e-01
4.613751398140568671e-01
4.419002425368491194e-01
4.150764353243933114e-01
3.824416778044136822e-01
3.437707207508133300e-01
2.994715656286087713e-01
2.507973560619435327e-01
1.975372548120564731e-01
1.411003520451766802e-01
8.190974547980300891e-02
2.069894821231400145e-02
-4.139434993208623154e-02
-1.036249512645409099e-01
-1.652637638225316064e-01
-2.249683810403242668e-01
-2.822237110996652643e-01
-3.359541230311303139e-01
-3.849243860147058549e-01
-4.293403044370016075e-01
-4.671932343843223645e-01
-4.987111071851103583e-01
-5.229654843989548496e-01
-5.390484835001019270e-01
-5.478613223011866706e-01
-5.476687457166986572e-01
-5.396029400411554988e-01
-5.231473380167424025e-01
-4.982722804385662507e-01
-4.663579605311332088e-01
-4.266119987553816939e-01
-3.807878488555038188e-01
-3.290145099035557963e-01
-2.720473286183241468e-01
-2.114319293871129435e-01
-1.473903557316928459e-01
-8.154081585626513085e-02
-1.469373463336128352e-02
5.230187303947951560e-02
1.180759641511539837e-01
1.818211229000141760e-01
2.428931621547467667e-01
2.998741731618448370e-01
3.526070089586373357e-01
4.000552750332302954e-01
4.414356231533050900e-01
4.772441366608872193e-01
5.058004246706370166e-01
5.279330458573795459e-01
5.428839523626700636e-01
5.503252631229037517e-01
5.514078365063707077e-01
5.446882317105438132e-01
5.316883233043645518e-01
5.118689939058782556e-01
4.854194853419357969e-01
4.536350069155665188e-01
4.156542012657898910e-01
3.731218380354601183e-01
3.258718856700126287e-01
2.744003504050387399e-01
2.199027398954071233e-01
1.622873635901374567e-01
1.027518334550533846e-01
4.185019398929516743e-02
-1.996509995979572211e-02
-8.154211394625572595e-02
-1.422530627665675174e-01
-2.017163271622701703e-01
-2.584134527529597936e-01
-3.123139806748345682e-01
-3.621927621672491604e-01
-4.071619269955537579e-01
-4.474753709649559874e-01
-4.811667077987586416e-01
-5.088453349054873343e-01
-5.293288034760820215e-01
-5.420957991882814353e-01
-5.478622510201374141e-01
-5.450350103765235765e-01
-5.349352924125048148e-01
-5.167930100253224079e-01
-4.908677903094988970e-01
-4.582751958790404201e-01
-4.183763452914103786e-01
-3.729465466015793318e-01
-3.219557590697811333e-01
-2.662928036882625249e-01
-2.073211625289146376e-01
-1.453439760900860911e-01
-8.192751951224722107e-02
-1.782853267159362209e-02
4.612495876402321338e-02
1.085931338603804558e-01
1.688484047211452621e-01
2.262368034894516877e-01
2.794176672965014707e-01
3.283575951960895911e-01
3.719326616946324049e-01
4.096515506678417573e-01
4.418031487842651317e-01
4.669758200121126301e-01
4.861261652503970354e-01
4.983579083142275490e-01
5.037393976428774511e-01
5.031291807547403350e-01
4.954194345803716315e-01
4.822255130323481742e-01
4.628585214036070594e-01
4.378524829857682876e-01
4.082173765999750348e-01
3.733267588960166306e-01
3.348545942922336316e-01
2.924545604447555402e-01
2.467822992929061265e-01
1.988059379301609919e-01
1.484258146638612330e-01
9.681955858090973699e-02
4.428400934298790115e-02
-8.778129171474247094e-03
-6.136840610674209467e-02
-1.131518480205639943e-01
-1.636774399466185970e-01
-2.118422130726078101e-01
-2.577487723666351815e-01
-3.002461388437711043e-01
-3.388944817823495992e-01
-3.737176058716928373e-01
-4.032390454664990243e-01
-4.281211506910866382e-01
-4.471493153165605472e-01
-4.601717051221807520e-01
-4.675327887956421957e-01
-4.679905877049996832e-01
-4.627446482319712562e-01
-4.508551787090155916e-01
-4.327170836057678827e-01
-4.090010823506344817e-01
-3.791631432762040954e-01
-3.447343880284534090e-01
-3.054052297719585529e-01
-2.620005400934791173e-01
-2.154858219022590116e-01
-1.660528893497573155e-01
-1.150469024796484663e-01
-6.292513756582784890e-02
-1.040430304765212199e-02
4.142712900903056106e-02
9.204741950370494419e-02
1.407950063870600510e-01
1.866403124669075986e-01
2.295448644866765198e-01
2.684521827550760964e-01
3.030468721218922412e-01
3.333532325694665843e-01
3.582240499642841414e-01
3.784585269895799908e-01
3.930620892071516326e-01
4.021885662462053035e-01
4.062874174134564753e-01
4.044072808367746297e-01
3.979315566090336764e-01
3.859613361115107333e-01
3.690582642234780386e-01
3.478072092810860494e-01
3.216534823095940077e-01
2.920726485200266787e-01
2.584871408978486329e-01
2.216024894211159890e-01
1.820557173575287069e-01
1.398307495812585732e-01
9.595299739605465950e-02
5.061886294333441116e-02
4.323988258065028512e-03
-4.211765843197686626e-02
-8.828170287072809042e-02
-1.336868836705403241e-01
-1.773088505116223179e-01
-2.191084722365586601e-01
-2.579829583081451050e-01
-2.934181525319562445e-01
-3.253055037815498207e-01
-3.522316578024946021e-01
-3.747527132130711869e-01
-3.916124167814977186e-01
-4.026533334029020472e-01
-4.080706284370311243e-01
-4.067044867342105574e-01
-3.997231351373620178e-01
-3.861190290086600752e-01
-3.663718718484541559e-01
-3.410102521518867946e-01
-3.096326481989222223e-01
-2.737420217409390899e-01
-2.330141991331434737e-01
-1.883917013120948447e-01
-1.407127293398036105e-01
-9.041103774930556169e-02
-3.865312319418361814e-02
1.390325878039166269e-02
6.648952646204128736e-02
1.180664219578968777e-01
1.678608641833487236e-01
2.153249932217077833e-01
2.591922581219213706e-01
2.994150593287936424e-01
3.348591019461588658e-01
3.650343266545610366e-01
3.899804982661273511e-01
4.083877885675135655e-01
4.211072026998781137e-01
4.270334316186904511e-01
4.263366746630455895e-01
4.194365155363604103e-01
4.054874990239782928e-01
3.859680688516117231e-01
3.600730649652210680e-01
3.286012753240907802e-01
2.921970237579782914e-01
2.507848190617813500e-01
2.058638319475357137e-01
1.573704461289765766e-01
1.062988541580822399e-01
5.351079244893910958e-02
-3.696104180652692861e-04
-5.439497367509360526e-02
-1.076389167513516210e-01
-1.595214234299211498e-01
-2.089362797283553785e-01
-2.550981250261689093e-01
-2.976470331460510099e-01
-3.351507039875962768e-01
-3.678471595149039874e-01
-3.945017747953296627e-01
-4.147918558459160465e-01
-4.288774777655561810e-01
-4.355106183244528140e-01
-4.358458204986601636e-01
-4.288212806280629064e-01
-4.149129504013369107e-01
-3.946992543678978782e-01
-3.676337501139238517e-01
-3.354407675403041633e-01
-2.975786243093251349e-01
-2.551128271102486855e-01
-2.088926066469281861e-01
-1.591760005499893160e-01
-1.074499049661510608e-01
-5.402244433559000303e-02
1.492116801080634048e-04
5.409019009139132139e-02
1.071351911412140590e-01
1.585457516913172382e-01
2.072874374913705742e-01
2.531460021543492367e-01
2.950637866512653140e-01
3.325296333222407252e-01
3.655126176098567603e-01
3.926946966356231750e-01
4.148011312009206586e-01
4.306825282889699125e-01
4.403407831885775003e-01
4.441608586944031378e-01
4.410028829699692565e-01
4.322972014124957241e-01
4.169661378457585332e-01
3.955806887252977244e-01
3.687158423699849474e-01
3.358121654028254355e-01
2.985025609568764393e-01
2.562163933619191480e-01
2.098505618367687842e-01
1.601718528166554689e-01
1.074185333922490770e-01
5.276808471663434891e-02
-3.266072573195555329e-03
-5.996544676986373390e-02
-1.162542823021194827e-01
-1.713970510310825479e-01
-2.247501598877164053e-01
-2.749393113606199979e-01
-3.218415711100483523e-01
-3.640903051818902281e-01
-4.010637653892261123e-01
-4.326055589483553399e-01
-4.571649893393142094e-01
-4.754910000183917296e-01
-4.862222189388525351e-01
-4.894263062450056045e-01
-4.854236828985725727e-01
-4.732247303346228673e-01
-4.543894991279812112e-01
-4.280130121287907818e-01
-3.949854395728994993e-01
-3.560621614207839514e-01
-3.111838704022364954e-01
-2.621441088574238409e-01
-2.088877037961706373e-01
-1.526229110260008404e-01
-9.439645942511012966e-02
-3.486632373544474445e-02
2.473897869848731834e-02
8.353195189780918128e-02
1.408141975334955831e-01
1.954055823726957297e-01
2.466091875766122654e-01
2.939655942031259572e-01
3.361604903859906623e-01
3.734923390558575473e-01
4.047246399617179802e-01
4.296894415498342945e-01
4.485427994446906652e-01
4.600759543573861854e-01
4.655573057703141227e-01
4.637946016044274811e-01
4.553291916640126447e-01
4.406431979319941350e-01
4.190355472796890579e-01
3.922650921500515642e-01
3.594701431104918021e-01
3.216638719734085106e-01
2.795015095711406716e-01
2.330075156534181235e-01
1.836590337733153833e-01
1.314702208926712135e-01
7.738167247455923770e-02
2.227853467764663586e-02
-3.326188088881865124e-02
-8.837075305626110322e-02
-1.420712352652137578e-01
-1.939753886262885474e-01
-2.428829028475221197e-01
-2.881657376767340351e-01
-3.294756967678333925e-01
-3.653783841215836325e-01
-3.963122667285727818e-01
-4.208942659215996196e-01
-4.389941050074591677e-01
-4.507001773877864492e-01
-4.548157308017319878e-01
-4.526307551057168199e-01
-4.429595075590154751e-01
-4.264456831106965273e-01
-4.035875667652051857e-01
-3.739291311666184670e-01
-3.392662158112962900e-01
-2.990219829931408668e-01
-2.543684882951254278e-01
-2.061379605402985926e-01
-1.546792766569882738e-01
-1.014616511607165233e-01
-4.687039476923803016e-02
8.139176823173874253e-03
6.254892890936766814e-02
1.157226906845889025e-01
1.668837863849615966e-01
2.150227708652293623e-01
2.599936840286268813e-01
3.006822232359503966e-01
3.367446749651435978e-01
3.680676783317191059e-01
3.934849773095403513e-01
4.138183453419235214e-01
4.278834459754862207e-01
4.359195317166120187e-01
4.382047906230525092e-01
4.338090834772062032e-01
4.242242090939951082e-01
4.083524570048544522e-01
3.869529853461285418e-01
3.604820648534504124e-01
3.285480285262728506e-01
2.927147675421106765e-01
2.524257808856366081e-01
2.086154203802166318e-01
1.619386700959966896e-01
1.126541467640776312e-01
6.184011917449837303e-02
9.953922108876883668e-03
-4.236563644006967333e-02
-9.412690738382092914e-02
-1.447320161874556810e-01
-1.935674708835974089e-01
-2.394253862205756311e-01
-2.822872711908376853e-01
-3.208304772621493606e-01
-3.546382321900592993e-01
-3.834903455542845729e-01
-4.060363702021088650e-01
-4.230636784664845162e-01
-4.332014742009266395e-01
-4.366711001985129625e-01
-4.336410786068785606e-01
-4.232651613868146923e-01
-4.070320420017413676e-01
-3.839741913957714359e-01
-3.550208125061218301e-01
-3.207281826288694293e-01
-2.811083696415305200e-01
-2.377200013001289636e-01
-1.904934011091577728e-01
-1.405514376502281226e-01
-8.875061138374304437e-02
-3.572101441777721098e-02
1.748126177717641838e-02
7.004699854932462666e-02
1.213622051641989330e-01
1.703695351446751494e-01
2.164247994570913658e-01
2.591206235363694432e-01
2.972213165748505692e-01
3.310407856611846666e-01
3.593677629146360686e-01
3.820517678400265904e-01
3.991756860794591910e-01
4.095768854778871759e-01
4.144498569755451500e-01
4.125568662426596367e-01
4.044135999062189457e-01
3.903543434947853719e-01
3.697170042284981806e-01
3.441221995763382724e-01
3.126797067105228090e-01
2.763708592434100941e-01
2.357194781908130699e-01
1.908589263245895618e-01
1.430644043759234374e-01
9.248314820270286951e-02
4.003189311370394798e-02
-1.344722329632103142e-02
-6.723192858165108476e-02
-1.205438122858819572e-01
-1.722515343140390842e-01
-2.219567427666676029e-01
-2.684198160889988971e-01
-3.108902114647687509e-01
-3.490337517646115995e-01
-3.813137957207403117e-01
-4.081798616602099194e-01
-4.282077530948547039e-01
-4.412490734863584452e-01
-4.473988983085108728e-01
-4.455063623977373322e-01
-4.369117464587608524e-01
-4.204932028908789921e-01
-3.969953835980475354e-01
-3.669577992406531930e-01
-3.301656017438981960e-01
-2.883635952095525701e-01
-2.412633561066243049e-01
-1.901281837824245757e-01
-1.358601128735018593e-01
-7.912016660180132277e-02
-2.123737135176029245e-02
3.702279888812817776e-02
9.472404020437810712e-02
1.507510873740158797e-01
2.042402859003306093e-01
2.545786675298156720e-01
3.004450099308278999e-01
3.418513477619689045e-01
3.775722179623882679e-01
4.072239440832297053e-01
4.308386983227560085e-01
4.471362695451096547e-01
4.571838298572976633e-01
4.597644063732854169e-01
4.552804580568072801e-01
4.441394422915534435e-01
4.255887022017055266e-01
4.013263644804463404e-01
3.704542261967757044e-01
3.339919501949522029e-01
2.925642576792645277e-01
2.462366229434317377e-01
1.965316473400628983e-01
1.434714505768794057e-01
8.812319850675386090e-02
3.137761216845194601e-02
-2.606073061831984394e-02
-8.324103864766760341e-02
-1.391297724680496950e-01
-1.931901080160706718e-01
-2.442007664089798080e-01
-2.914015849190765839e-01
-3.343913771970354332e-01
-3.716766238982203152e-01
-4.036188092755743639e-01
-4.288246426627865260e-01
-4.471135455080628152e-01
-4.585745832049524795e-01
-4.620111958311672318e-01
-4.587364916208504506e-01
-4.475891597167832581e-01
-4.292680490606909927e-01
-4.043101860980073403e-01
-3.723363015423374334e-01
-3.352091334908059994e-01
-2.924124600684941400e-01
-2.452149964248019620e-01
-1.944864932685162473e-01
-1.406871696417681949e-01
-8.530771473701832808e-02
-2.882167971205583379e-02
2.776532540519242864e-02
8.341554585071031536e-02
1.374085276595616023e-01
1.890061444027788529e-01
2.371177684485663018e-01
2.816295272002345418e-01
3.214178427455994802e-01
3.561165338164357097e-01
3.856915263077084211e-01
4.089255136449365668e-01
4.267402502633242389e-01
4.379472334513393461e-01
4.428211942076158980e-01
4.417262706800687555e-01
4.337230390835790095e-01
4.204153150080836565e-01
4.007165887084550016e-01
3.754411583407505359e-01
3.451154347790451049e-01
3.093806613557884000e-01
2.698508502419674771e-01
2.260295894256432736e-01
1.788734649934021204e-01
1.290905156593594172e-01
7.698821584882817315e-02
2.363057739833041015e-02
-3.042977902525803580e-02
-8.458148597055496765e-02
-1.377801236934398932e-01
-1.893845887362000935e-01
-2.388261570497111630e-01
-2.847897076042735232e-01
-3.273189281043068499e-01
-3.650323681002494158e-01
-3.974934282090962778e-01
-4.245310413915490688e-01
-4.447219783139655935e-01
-4.589322802254371947e-01
-4.657651619956310607e-01
-4.654633420048892023e-01
-4.582599740414867728e-01
-4.433170786250193451e-01
-4.222012334490327090e-01
-3.940045972179424538e-01
-3.597092840559687477e-01
-3.199736357973801959e-01
-2.748967052905502140e-01
-2.260928478767935956e-01
-1.736468951508586267e-01
-1.187237823056623148e-01
-6.231577693158728976e-02
-5.140014606021071908e-03
5.169964932031116678e-02
1.072515962829738156e-01
1.609126665063999040e-01
2.115097232878044298e-01
2.584054360004601203e-01
3.011726838872462175e-01
3.385526758899339850e-01
3.709413061258729494e-01
3.970986568770679126e-01
4.170033688820907747e-01
4.307650104339315611e-01
4.373445142967274935e-01
4.380558920301319548e-01
4.317446042458530364e-01
4.191129185718234229e-01
4.005692837669857509e-01
3.756407982896176612e-01
3.460490168751765294e-01
3.110412954012101161e-01
2.717256159862013187e-01
2.287069837640293424e-01
1.822177544866887267e-01
1.335709887600384227e-01
8.296759873322748224e-02
3.130226168377578388e-02
-2.056679482444809248e-02
-7.202266339902974046e-02
-1.223164652186847778e-01
-1.704505363707327081e-01
-2.161771146849386649e-01
-2.583404592439013658e-01
-2.964552091225641783e-01
-3.302542972139755895e-01
-3.584582970684607739e-01
-3.816777501069097411e-01
-3.986134166622201658e-01
-4.093599998006371976e-01
-4.140421304350635490e-01
-4.116965777288214001e-01
-4.037073430416295849e-01
-3.889853969739097694e-01
-3.683247638356511588e-01
-3.421946055687880017e-01
-3.103349569733281355e-01
-2.744031687458302060e-01
-2.339581508576282221e-01
-1.901198149278074956e-01
-1.436315808635154623e-01
-9.488475205245511246e-02
-4.511340564722668423e-02
5.243312110515124802e-03
5.541595444759839229e-02
1.044756261187889529e-01
1.518761107500425367e-01
1.970073791512500783e-01
2.388991862073105987e-01
2.775806447720642334e-01
3.119703281171365417e-01
3.418441016957998180e-01
3.671207995245451827e-01
3.867159437161267754e-01
4.015211091216940309e-01
4.103513925306446763e-01
4.135271713373182556e-01
4.112692781926648444e-01
4.027599584769398500e-01
3.894483314606376201e-01
3.702842843856343769e-01
3.460521207171028957e-01
3.171562134545807821e-01
2.833660887116425942e-01
2.460404519709433468e-01
2.048449772243222111e-01
1.606456619918992801e-01
1.140992764966027861e-01
6.556140879058180992e-02
1.597664611544497015e-02
-3.404588192133856106e-02
-8.396673003015264758e-02
-1.327575798563579434e-01
-1.798337591499247212e-01
-2.246351363362725229e-01
-2.659387055998684857e-01
-3.038390472337491044e-01
-3.369969566934525318e-01
-3.651170663583530596e-01
-3.879810517964266681e-01
-4.043763250453470404e-01
-4.151757211228015443e-01
-4.190697178795235733e-01
-4.164481007156065617e-01
-4.074651639378764068e-01
-3.915185490477962604e-01
-3.700889016999941994e-01
-3.423734983132508125e-01
-3.094092877300498312e-01
-2.717425278372542774e-01
-2.296466949835527238e-01
-1.844865557696383496e-01
-1.364746988045817400e-01
-8.667452916232198934e-02
-3.594547623584687379e-02
1.496743262975841482e-02
6.519290172452507637e-02
1.137663563486411844e-01
1.602459117223226093e-01
2.035613815792794989e-01
2.431387516975086482e-01
2.786879558275431323e-01
3.090024253996981329e-01
3.345965854837720244e-01
3.542749973460620483e-01
3.680892830465926080e-01
3.761630168012415343e-01
3.775432431101667374e-01
3.735502742878650251e-01
3.630607881079235266e-01
3.468095980772331055e-01
3.251454743248088919e-01
2.977391130224639193e-01
2.661218533618605608e-01
2.297139382151364151e-01
1.895764237157599452e-01
1.462640620486189702e-01
1.001611862658963181e-01
5.238014724831302482e-02
3.330158530054250221e-03
-4.616691912338377612e-02
-9.524989636336000931e-02
-1.431909208412449064e-01
-1.893692573851211702e-01
-2.326451993358461534e-01
-2.728577156753355659e-01
-3.088385990285861804e-01
-3.400855729829091456e-01
-3.664168121214700369e-01
-3.865591597122557399e-01
-4.012247803425683101e-01
-4.091846209786476063e-01
-4.106219423897379261e-01
-4.057523218964411704e-01
-3.937946119690228786e-01
-3.761941897803499080e-01
-3.520782184913483492e-01
-3.223512562144321136e-01
-2.875864256727160284e-01
-2.478295908711916073e-01
-2.045829384539167295e-01
-1.578235751128166942e-01
-1.086381465551449071e-01
-5.786852237946227273e-02
-6.134846305741598060e-03
4.553961339145645715e-02
9.636594120414232467e-02
1.457493903982344519e-01
1.926623842663680863e-01
2.364999454239405385e-01
2.768373837464672693e-01
3.125268114896171401e-01
3.438467815253842819e-01
3.696481362509123625e-01
3.898328887355517747e-01
4.044268139072390023e-01
4.124372198896126274e-01
4.149502063390123618e-01
4.108757406456893801e-01
4.007768114252359126e-01
3.849420692450620241e-01
3.629474820332522778e-01
3.362427347412892953e-01
3.041889770975058638e-01
2.677754199982141925e-01
2.275244677958457862e-01
1.837804286882072091e-01
1.376529310846286158e-01
8.951718215616732977e-02
4.023241356952689252e-02
-9.353522281258630500e-03
-5.845593254506065151e-02
-1.064269339841219519e-01
-1.520932726507504551e-01
-1.951818990579563540e-01
-2.345239088859054633e-01
-2.695010740738101873e-01
-2.998883393370970207e-01
-3.243469141639911957e-01
-3.434538477147512925e-01
-3.559742345570628963e-01
-3.619945799046679902e-01
-3.616738834494854782e-01
-3.542056054350253280e-01
-3.409261007317903047e-01
-3.209753015733181059e-01
-2.952526093414595820e-01
-2.642687152608096390e-01
-2.281211683901616105e-01
-1.883266669661167736e-01
-1.448368515570555015e-01
-9.886427311885959135e-02
-5.117581921223757213e-02
-2.552055629078786581e-03
4.599897240720196567e-02
9.366011750085567744e-02
1.396847378136403250e-01
1.831726620721448873e-01
2.233345360140833735e-01
2.598467997204518820e-01
2.915463151098468542e-01
3.186162002759084233e-01
3.401148391764979850e-01
3.558167329281767266e-01
3.659379242351011863e-01
3.695168636946851715e-01
3.676206763101683705e-01
3.594036372549758163e-01
3.453651822462686649e-01
3.259990292878183205e-01
3.009194045334089296e-01
2.715895197138837869e-01
2.375467638529659142e-01
1.997358977935002056e-01
1.587965957957443441e-01
1.150410515624257224e-01
6.961727601488387762e-02
2.287544395314494716e-02
-2.436281995568839731e-02
-7.128100905054396419e-02
-1.171752239363050840e-01
-1.614530151986346973e-01
-2.030694653502006786e-01
-2.417883802632324886e-01
-2.766107850462251050e-01
-3.069934388124112568e-01
-3.328240058930178602e-01
-3.529301729124546538e-01
-3.678573594246246081e-01
-3.766168258436897176e-01
-3.792840066533560428e-01
-3.761195147883475975e-01
-3.664440699969981896e-01
-3.514331299168675926e-01
-3.304771169551463661e-01
-3.043326244399315872e-01
-2.735476428220948719e-01
-2.382558021668437220e-01
-1.997375171037414354e-01
-1.581098885644443008e-01
-1.143639100835804889e-01
-6.924129894776109850e-02
-2.352629271357464802e-02
2.206411806216124205e-02
6.655722963677179749e-02
1.094245447626520651e-01
1.498004978018392386e-01
1.868430193958512398e-01
2.204889019714819653e-01
2.493801353895039874e-01
2.738299995258635100e-01
2.928970634146415009e-01
3.062301986894273576e-01
3.142117683540299744e-01
3.156807259585692194e-01
3.117255600045352182e-01
3.014940079471921663e-01
2.853541774293564259e-01
2.638772095300607745e-01
2.365909670353523175e-01
2.049049526815038824e-01
1.684376669976841434e-01
1.280913105285059750e-01
8.454169886115092680e-02
3.821999719073021495e-02
-9.785647148499609926e-03
-5.892454575309580278e-02
-1.082956787046316371e-01
-1.570585144497251839e-01
-2.041842778577658279e-01
-2.492168403263632648e-01
-2.907739929887132035e-01
-3.285209160295905484e-01
-3.614734913679575889e-01
-3.887233222192967297e-01
-4.103798150108664000e-01
-4.249790888150033474e-01
-4.330516157972346125e-01
-4.337370083384695096e-01
-4.268975836844359772e-01
-4.131025262105212370e-01
-3.916114281324201141e-01
-3.636957331202914645e-01
-3.290544406337290173e-01
-2.884522647193860090e-01
-2.428009534335955344e-01
-1.924439276851707126e-01
-1.387960050560484437e-01
-8.243985696009226150e-02
-2.449726152411843549e-02
3.393247096337047297e-02
9.175607538131405616e-02
1.481324985670775529e-01
2.016725851165019900e-01
2.517424708438200653e-01
2.972271880955941192e-01
3.371508651121037925e-01
3.713709907619706652e-01
3.984564070741751785e-01
4.187194304584331839e-01
4.312528984141825728e-01
4.359528286532408092e-01
4.331719386352141932e-01
4.222797387420045290e-01
4.043876619896127345e-01
3.791489458173447069e-01
3.474981936200598476e-01
3.100546906923788981e-01
2.674270905041242763e-01
2.208768544666792621e-01
1.709989226187271782e-01
1.192239937588412957e-01
6.632381564670453145e-02
1.388870788000584611e-02
-3.746857590602825638e-02
-8.613775242198595805e-02
-1.311574137178039834e-01
-1.717063723670957387e-01
-2.062026736425028872e-01
-2.348873266270130600e-01
-2.559535871691744902e-01
-2.695960079968831025e-01
-2.751797590515669967e-01
-2.721739588578628855e-01
-2.614660676336697520e-01
-2.421142284461330618e-01
-2.154650143850425081e-01
-1.813973532718016202e-01
-1.407667220881823056e-01
-9.474001662649200739e-02
-4.373875253176517930e-02
1.047636437889032379e-02
6.730494396777686461e-02
1.251352886671064368e-01
1.829049562027282860e-01
2.392033143694050068e-01
2.928967002192734981e-01
3.427619299752935333e-01
3.875748888776096024e-01
4.266343338481446423e-01
4.585155562285123665e-01
4.832951382635366500e-01
4.996391911111670581e-01
5.075284992186857025e-01
5.067457681533795721e-01
4.968336715055805541e-01
4.787322043394057758e-01
4.519087463553566053e-01
4.174727721264401836e-01
3.757972592709641901e-01
3.276379584187552041e-01
2.742980002324606481e-01
2.164119063894478501e-01
1.554886083705415700e-01
9.254809093166782574e-02
2.893381666469752034e-02
-3.409395545161642005e-02
-9.516886784077427386e-02
-1.533088251405911873e-01
-2.070609636782673180e-01
-2.555713828737954940e-01
-2.978940736828911140e-01
-3.329409781468589125e-01
-3.607985854363796596e-01
-3.801845085940576130e-01
-3.914980199928108640e-01
-3.942989249551431818e-01
-3.887426703962186814e-01
-3.756348516328738008e-01
-3.547700058292386771e-01
-3.275953617626621295e-01
-2.942775120908658337e-01
-2.563161156382234296e-01
-2.145372530126481436e-01
-1.701104365953698405e-01
-1.245319929273556170e-01
-7.853643029758217153e-02
-3.407579210492528432e-02
8.489117738042395445e-03
4.722184080723934585e-02
8.164406870640128489e-02
1.106343805203167108e-01
1.329914143519559389e-01
1.489291543202355683e-01
1.567531122279337552e-01
1.574446491342786913e-01
1.498454736401466647e-01
1.342107792915179232e-01
1.111623769472736001e-01
8.006697820840180668e-02
4.294064814206954850e-02
-9.086419837736059435e-04
-4.997816090905260467e-02
-1.034252267519466528e-01
-1.605589662726885081e-01
-2.195421353385977881e-01
-2.799375787415954164e-01
-3.400304020877946698e-01
-3.988722240582251999e-01
-4.551273446554571223e-01
-5.076803699422445249e-01
-5.553873935146942387e-01
-5.972921110243092357e-01
-6.325135471806930809e-01
-6.601026177516029492e-01
-6.798407639987722462e-01
-6.907465192471562432e-01
-6.931130465141848163e-01
-6.864498465138311190e-01
-6.708676928645598281e-01
-6.469606140305490527e-01
-6.146058676800905118e-01
-5.750847115670278953e-01
-5.286267471191159473e-01
-4.762369639988541792e-01
-4.190805577573595286e-01
-3.579126693878738052e-01
-2.941605617181775045e-01
-2.288627088970454082e-01
-1.630443460750328200e-01
-9.813982873605020529e-02
-3.505639269639893030e-02
2.524161663473378781e-02
8.141979436255120106e-02
1.332439595287269185e-01
1.793004674927143327e-01
2.194364737305321000e-01
2.531580362107344051e-01
2.797125158332431916e-01
2.997823043580001290e-01
3.123163457668400866e-01
3.184612598694320784e-01
3.180757015575035318e-01
3.105656005520520679e-01
2.976869480785548916e-01
2.798844243233293838e-01
2.592673158630161012e-01
2.348817931737574582e-01
2.058339532339497069e-01
1.751447316372125584e-01
1.460729617389837642e-01
1.206839526411389585e-01
9.520340255481940517e-02
6.721070529200190435e-02
4.218954200103297580e-02
2.835450961692842498e-02
2.600456157677299984e-02
2.438636985822029146e-02
1.689753283874040335e-02
1.537275396431780905e-02
3.964580624669267195e-02
8.844650602784653870e-02
1.292677727443098945e-01
1.244701347562582328e-01
7.164848462492834358e-02
9.250134098978124442e-03
