BVP Signal
-2.362580239172117069e-02
-5.274730290671411637e-02
-8.076620577218862618e-02
-1.068702987203864335e-01
-1.302473694835492579e-01
-1.500852559300873967e-01
-1.656472760606763350e-01
-1.764240030514033220e-01
-1.819645063542647545e-01
-1.820193267644569235e-01
-1.764777841078976062e-01
-1.653355636488842983e-01
-1.488255355771745114e-01
-1.272343652047275009e-01
-1.010363909685986911e-01
-7.080641894210887299e-02
-3.719026259391877698e-02
-9.569586986832578912e-04
3.710378083844734221e-02
7.614811303281857069e-02
1.153104856361988340e-01
1.537389686239431508e-01
1.906002747796276542e-01
2.250802996121441524e-01
2.564531228654809425e-01
2.840237381666125827e-01
3.071925701226548289e-01
3.254612374514193607e-01
3.383808054521814657e-01
3.456676151471277381e-01
3.470845733431773272e-01
3.425324644978489652e-01
3.320260848640913531e-01
3.156429812848211003e-01
2.936266529463948949e-01
2.662605354524625323e-01
2.339567531745072870e-01
1.972103483146081526e-01
1.565694861453282016e-01
1.126927001471820372e-01
6.626132197823789149e-02
1.802837145308208711e-02
-3.121739026519428084e-02
-8.067106920492403410e-02
-1.295016942300465101e-01
-1.768796574557136569e-01
-2.219985512468206079e-01
-2.640621114819667881e-01
-3.023248259107512714e-01
-3.361058455400690592e-01
-3.647579601258842397e-01
-3.877687639555259524e-01
-4.046701153811564922e-01
-4.151233616139974325e-01
-4.189184185561525831e-01
-4.159099260453006930e-01
-4.061561419524575278e-01
-3.897698840411548127e-01
-3.670270103031857967e-01
-3.383296007239315339e-01
-3.041463460079533165e-01
-2.651106346503627198e-01
-2.218915335003386335e-01
-1.752557181496042227e-01
-1.260285544342019670e-01
-7.505295428839964256e-02
-2.320513162260995355e-02
2.863961390782898686e-02
7.964309311204864628e-02
1.289852258934583995e-01
1.759026053704583203e-01
2.197186724934815372e-01
2.597883852937752369e-01
2.956035393816194290e-01
3.267071513195441979e-01
3.527416443246222943e-01
3.734679545383373656e-01
3.886875275462283175e-01
3.983442809812873242e-01
4.024243003625905257e-01
4.010022253146154902e-01
3.942350218261310713e-01
3.823105441137954474e-01
3.655052360725124516e-01
3.441168726966861158e-01
3.184937315995195473e-01
2.890206812310054940e-01
2.560988633622762189e-01
2.201668252080035693e-01
1.816709583373795067e-01
1.410798698866668754e-01
9.887469331777182235e-02
5.554462938105642067e-02
1.159359030528422929e-02
-3.247175469979213247e-02
-7.613655691476017839e-02
-1.188824898534363572e-01
-1.601932761164938657e-01
-1.995555989165649080e-01
-2.364608678883678428e-01
-2.704240896245900250e-01
-3.009692585465612580e-01
-3.276564716860063675e-01
-3.500861340075801520e-01
-3.678832741805036499e-01
-3.807614627637918026e-01
-3.884612515680226918e-01
-3.908175992468071458e-01
-3.877476580455146427e-01
-3.792201206968748850e-01
-3.653482588222250471e-01
-3.462822179242629472e-01
-3.222990763963387573e-01
-2.937620525740883837e-01
-2.610893435992984735e-01
-2.248193694509529328e-01
-1.855152821217810055e-01
-1.438137097329942327e-01
-1.003898419310569057e-01
-5.592963663224194415e-02
-1.113712199798970459e-02
3.328777393249818944e-02
7.668356600318856908e-02
1.184054481908818346e-01
1.578623050807502204e-01
1.945350495645788991e-01
2.279335167881322288e-01
2.576835335141575145e-01
2.834496031338797906e-01
3.049832829684513413e-01
3.221271280629354195e-01
3.347587343953337680e-01
3.428679151516763057e-01
3.464743599746160085e-01
3.456678298078703082e-01
3.405951936018035697e-01
3.314267096161617743e-01
3.183924507437582152e-01
3.017355308825019344e-01
2.817311841153395946e-01
2.586750222084403528e-01
2.328722039195923188e-01
2.046472609224831707e-01
1.743286302462130344e-01
1.422566797673212868e-01
1.087776868649528578e-01
7.424389408270809509e-02
3.901713357516148339e-02
3.461869012128332423e-03
-3.204685072095957155e-02
-6.712990417781047880e-02
-1.014035194352918279e-01
-1.344780906797991282e-01
-1.659645754589988420e-01
-1.954781375468272187e-01
-2.226359701196520824e-01
-2.470739864558683108e-01
-2.684464245269375660e-01
-2.864245252209357551e-01
-3.007344656526864113e-01
-3.111187664321302671e-01
-3.173897799179745127e-01
-3.194131850387225691e-01
-3.170975375664360496e-01
-3.104577248082551200e-01
-2.995355342850634095e-01
-2.844775782597548375e-01
-2.654928439581149546e-01
-2.428417131191022982e-01
-2.168836364641630599e-01
-1.879993926166666773e-01
-1.566436552110076486e-01
-1.233050759857047540e-01
-8.849304966697603414e-02
-5.274809131584717870e-02
-1.661178127917828373e-02
1.938279217433110102e-02
5.470647773490457805e-02
8.886140071075543378e-02
1.213864588914660286e-01
1.518402620939868219e-01
1.798549288890942954e-01
2.050849869017807581e-01
2.272487247739925220e-01
2.461228692004378549e-01
2.615128187867766796e-01
2.733072174519166619e-01
2.814156519472643669e-01
2.858098525149197489e-01
2.865059513603713803e-01
2.835458039994193657e-01
2.770302745369023212e-01
2.670734658681113705e-01
2.538334973387015303e-01
2.374929861689254462e-01
2.182540908937381507e-01
1.963542172443843992e-01
1.720391073310736096e-01
1.455862548067629048e-01
1.172869816656914865e-01
8.745047996806351587e-02
5.641115097161218672e-02
2.451039454076308494e-02
-7.884127891178439526e-03
-4.039586021914652603e-02
-7.263588658698758027e-02
-1.042016908952902859e-01
-1.346895348738785803e-01
-1.636936539220363585e-01
-1.908087403221096767e-01
-2.156462611393653306e-01
-2.378320885511584493e-01
-2.570096097436311289e-01
-2.728719192005417127e-01
-2.851266869760392675e-01
-2.935492928404726531e-01
-2.979604842895622330e-01
-2.982253826919187278e-01
-2.943057436318261000e-01
-2.861881374482280749e-01
-2.739621261631563498e-01
-2.577710334667282499e-01
-2.378132673744926540e-01
-2.143804955191253581e-01
-1.877858290316240797e-01
-1.584213484812921902e-01
-1.267109980519133261e-01
-9.310809856962504183e-02
-5.810474439276532704e-02
-2.219804413626962070e-02
1.410365905886068472e-02
5.028926581332526791e-02
8.586217599780587850e-02
1.203407324567983272e-01
1.532563053488823490e-01
1.841845559024626877e-01
2.127140793999379165e-01
2.384813749723442844e-01
2.611614443025545018e-01
2.804555025923443634e-01
2.961328506761168322e-01
3.079800710373104544e-01
3.158488177053250245e-01
3.196315381139911982e-01
3.192559979419586358e-01
3.147217321828608694e-01
3.060462513239301519e-01
2.933198799487101716e-01
2.766685916575819526e-01
2.562610338642483665e-01
2.323335480763346894e-01
2.051408947627125778e-01
1.750110785740548458e-01
1.423001861235523025e-01
1.074070764371838627e-01
7.078352351849864776e-02
3.289597447631636973e-02
-5.738680419487107720e-03
-4.458874842189172738e-02
-8.310444636399227925e-02
-1.207185378515300833e-01
-1.568661351398812909e-01
-1.909925348704497039e-01
-2.225480541975664028e-01
-2.510249154305641550e-01
-2.759469153739679825e-01
-2.968741671445386254e-01
-3.134563703092117515e-01
-3.253681560632019076e-01
-3.323962643132150063e-01
-3.343933126978551607e-01
-3.312808842743868998e-01
-3.231120315758070349e-01
-3.099726764055020789e-01
-2.920808534784491428e-01
-2.697149907158266080e-01
-2.432196322396004140e-01
-2.130374660583286006e-01
-1.796330324227759789e-01
-1.435467701314299405e-01
-1.053457077069339665e-01
-6.561898598050075471e-02
-2.498134993525752412e-02
1.595299627192603431e-02
5.657795115783170736e-02
9.629112185041388550e-02
1.345215216017152104e-01
1.707265434411962546e-01
2.043854770353156214e-01
2.350421109087895699e-01
2.622577399799069231e-01
2.856603102947409267e-01
3.049247467774247045e-01
3.197627763929262179e-01
3.299701669546625249e-01
3.353638173111983534e-01
3.358453133840777483e-01
3.313628292226381555e-01
3.219141696200530922e-01
3.075856707098310605e-01
2.884872924083844437e-01
2.648268644116142378e-01
2.368543745620987906e-01
2.048809271267284515e-01
1.693026414911477096e-01
1.305405720775832390e-01
8.911031372673350326e-02
4.555936360569590171e-02
4.883943352614328326e-04
-4.544423568871197583e-02
-9.156550113991734907e-02
-1.371575480578439143e-01
-1.814919369234543334e-01
-2.238416367143484798e-01
-2.634808281301243560e-01
-2.997039303133048893e-01
-3.318633262236426740e-01
-3.593302169377016186e-01
-3.815769909060321430e-01
-3.981429153628797124e-01
-4.086407072551613284e-01
-4.128410267404855061e-01
-4.105564398326924103e-01
-4.017795087960361888e-01
-3.865955013153961062e-01
-3.651920543913518280e-01
-3.379277418839159441e-01
-3.052022963558473356e-01
-2.675714135831642748e-01
-2.256529805700743241e-01
-1.801296466736798108e-01
-1.317683561548006199e-01
-8.134925371674892047e-02
-2.968789975287733363e-02
2.239066614428680824e-02
7.408317582439233329e-02
1.246084810840446533e-01
1.732096412804845498e-01
2.192116846697449439e-01
2.619635048008868150e-01
3.009042857008016325e-01
3.355447492962519984e-01
3.654425876639838533e-01
3.902755490985083675e-01
4.097507167161267283e-01
4.236789932262521319e-01
4.319353963875038893e-01
4.344446376399692111e-01
4.312307604124409055e-01
4.223412026966099075e-01
4.079124357550195645e-01
3.881238453999437121e-01
3.632031719066062259e-01
3.334537426896159173e-01
2.991996840842128247e-01
2.608476558600227313e-01
2.188356800471949470e-01
1.736551573711743734e-01
1.258625940248597752e-01
7.603571727534996771e-02
2.482749786347027143e-02
-2.708669568110710912e-02
-7.899135021639092091e-02
-1.301327696329874772e-01
-1.797511604759262083e-01
-2.270717194708326003e-01
-2.713189986686124211e-01
-3.117517785758425752e-01
-3.476543029988006239e-01
-3.783533638816877209e-01
-4.032798291736693352e-01
-4.218957133429477313e-01
-4.338153003804849916e-01
-4.387411832691862079e-01
-4.364802915969064889e-01
-4.270358447999547113e-01
-4.104629202278660127e-01
-3.870335574806991197e-01
-3.571177633873361401e-01
-3.212043151406575592e-01
-2.799558590790061086e-01
-2.340761265505776900e-01
-1.844153955894350383e-01
-1.318746531247609322e-01
-7.740121963784485359e-02
-2.199531269406851397e-02
3.334415753672237415e-02
8.763523904144687737e-02
1.399040689633187506e-01
1.892484664328284438e-01
2.348301089919813123e-01
2.758625340394203485e-01
3.117101542559763128e-01
3.417782296779272033e-01
3.656295841282513059e-01
3.829365134322171293e-01
3.934552799681100832e-01
3.971310217319617974e-01
3.939541588226717628e-01
3.840860271334436971e-01
3.677804541552450179e-01
3.453733007615978901e-01
3.173444001328349917e-01
2.842057037341408354e-01
2.465852784247577478e-01
2.051598841446420352e-01
1.606508271249209585e-01
1.138404219720025590e-01
6.552011848579443465e-02
1.650484737596629586e-02
-3.238386641340217781e-02
-8.034315873395435348e-02
-1.265901281725022032e-01
-1.703628627527021544e-01
-2.109744013777072602e-01
-2.477607485314695657e-01
-2.801496432053291463e-01
-3.076453480855520506e-01
-3.298064160679050061e-01
-3.463381128864064795e-01
-3.569837573772490225e-01
-3.616308791364943320e-01
-3.602608165127632600e-01
-3.529297385559994060e-01
-3.398514489469478539e-01
-3.212765016440422561e-01
-2.975923162469835126e-01
-2.692555409368694308e-01
-2.367814024441028953e-01
-2.007813461451911641e-01
-1.618848724442951970e-01
-1.207772323363394129e-01
-7.816500382674297642e-02
-3.475568888956195868e-02
8.742077502705170033e-03
5.162996602883546116e-02
9.325765140173303269e-02
1.329912869275472476e-01
1.702572447517118892e-01
2.045422034964365920e-01
2.353651040691948637e-01
2.623478061005606321e-01
2.851402199380180802e-01
3.034796144962341735e-01
3.171714826718177171e-01
3.260619075302093606e-01
3.300987890036676253e-01
3.292544577401220751e-01
3.235858440443909467e-01
3.132013812379207396e-01
2.982502203131326413e-01
2.789617703663977433e-01
2.555844937643289572e-01
2.284400396710573045e-01
1.978848195143112498e-01
1.643140909938275718e-01
1.281829686882980934e-01
8.996175498747438493e-02
5.017826286717386175e-02
9.381546697599607576e-03
-3.185262115161324736e-02
-7.291635120939843340e-02
-1.131969000063066666e-01
-1.520688923253676883e-01
-1.889045598046990015e-01
-2.230964814241891414e-01
-2.540563208772581572e-01
-2.812197692760818324e-01
-3.040975670471852688e-01
-3.222229287577074164e-01
-3.352312184709138609e-01
-3.428325490436097134e-01
-3.448022456947202885e-01
-3.410707659620219045e-01
-3.316080981248388238e-01
-3.165434812220326855e-01
-2.960969582020023250e-01
-2.705703925737353854e-01
-2.404168970453700316e-01
-2.061231740684109637e-01
-1.682969957929950633e-01
-1.275995085116476413e-01
-8.473183403578188333e-02
-4.045266248314594026e-02
4.474305320246507733e-03
4.928269394907636158e-02
9.320657820462296961e-02
1.355183958826929880e-01
1.755337923728983451e-01
2.125961464056527195e-01
2.461498785337652428e-01
2.756697664641274415e-01
3.007273485415320469e-01
3.209791268507848905e-01
3.361289166805468964e-01
3.460134419453615440e-01
3.505029026919188606e-01
3.495772180948206742e-01
3.432914213434235529e-01
3.317508848494300500e-01
3.151721701099083339e-01
2.937974706359218757e-01
2.679609922037535785e-01
2.380460085272045334e-01
2.044787376230332576e-01
1.677596839738843548e-01
1.284061052253113178e-01
8.699627884376262554e-02
4.413370277877884384e-02
4.453507132574086036e-04
-4.341010471723788511e-02
-8.677046100624724589e-02
-1.289672516248300815e-01
-1.693310280967728065e-01
-2.072160941993460015e-01
-2.420017992735969403e-01
-2.730901991936153239e-01
-2.999625989891859801e-01
-3.221244417493048240e-01
-3.391786164507897827e-01
-3.508081498251378605e-01
-3.567544999701672270e-01
-3.569149253786237930e-01
-3.512268332085476397e-01
-3.397799979926205971e-01
-3.227618823708916507e-01
-3.004358302830071326e-01
-2.732226535152330604e-01
-2.415781875543018264e-01
-2.060815906032369416e-01
-1.673733370111414043e-01
-1.261351123857358258e-01
-8.311519174467470183e-02
-3.906944875745702039e-02
5.237373369863795869e-03
4.903812947743219075e-02
9.160004069019234141e-02
1.322338843893537397e-01
1.702759749040140824e-01
2.051660367318356437e-01
2.363774515031224488e-01
2.634795544896820774e-01
2.861364091967971701e-01
3.040570174577008622e-01
3.170901766537851940e-01
3.251215486687988321e-01
3.281418472025342536e-01
3.262226489492941472e-01
3.194778512835417805e-01
3.081253593711674732e-01
2.924063347900304755e-01
2.726318907673327407e-01
2.491550505266547644e-01
2.223536205802066901e-01
1.926532820049660921e-01
1.604888944687080932e-01
1.263223742423268403e-01
9.062815817677015440e-02
5.388648508715176977e-02
1.658634796174987547e-02
-2.078343216926775705e-02
-5.773915196612450229e-02
-9.379931073715347400e-02
-1.284956184237411869e-01
-1.613754506204040373e-01
-1.919958813907385875e-01
-2.199510441218020529e-01
-2.448469806682944672e-01
-2.663326716544777706e-01
-2.840967935127580168e-01
-2.978546814748380678e-01
-3.074014640962760003e-01
-3.125542819566620167e-01
-3.132147083468407311e-01
-3.093452051868056940e-01
-3.009553171954089112e-01
-2.881645963706668812e-01
-2.711193760775813533e-01
-2.500675229591352577e-01
-2.253139199951758043e-01
-1.972101649499451992e-01
-1.661928732962468236e-01
-1.327161206451302755e-01
-9.729210664549868548e-02
-6.045814706053406762e-02
-2.276422581294192116e-02
1.522173054146057358e-02
5.293359581112491719e-02
8.982179685214397580e-02
1.253433053103994999e-01
1.589878223124164824e-01
1.902813831302528902e-01
2.187699197739844115e-01
2.440697362548581717e-01
2.658179343951917462e-01
2.837163796526195880e-01
2.975229993298846853e-01
3.070282153379499945e-01
3.121126653652264160e-01
3.126800583151586599e-01
3.087148020156781358e-01
3.002557855691313504e-01
2.873833807359741366e-01
2.702685920231939765e-01
2.491044277452100220e-01
2.241692345467733993e-01
1.957862747730642616e-01
1.643232655764892414e-01
1.302238173098758112e-01
9.394943369083785800e-02
5.602886078710106466e-02
1.701826496108195530e-02
-2.249910318551712543e-02
-6.190393224489428026e-02
-1.005726612157009647e-01
-1.378733292909823382e-01
-1.731724650102822172e-01
-2.058617976790719784e-01
-2.353592520055249326e-01
-2.611070980250824736e-01
-2.826314164952274943e-01
-2.994835662676890164e-01
-3.113167426154299644e-01
-3.178667014079177289e-01
-3.189289437285236506e-01
-3.144559148003082116e-01
-3.044399280637035687e-01
-2.890224143291231229e-01
-2.684390355533659012e-01
-2.429975271023673278e-01
-2.131530043007172082e-01
-1.793929570014184960e-01
-1.423176494804325731e-01
-1.025826020994904664e-01
-6.088090155904971046e-02
-1.796548987507312622e-02
2.540363460327933753e-02
6.845664339331546111e-02
1.104208864120654610e-01
1.505528677472430243e-01
1.881455140759103473e-01
2.225147158038217610e-01
2.530688506657218784e-01
2.792463897536736073e-01
3.005786379858046420e-01
3.166872488303867916e-01
3.272418703059560841e-01
3.320609157663239053e-01
3.310028950142142046e-01
3.240560024194688582e-01
3.113068611393394747e-01
2.929045126799376675e-01
2.691505733557786328e-01
2.403829240358821839e-01
2.070664160746482074e-01
1.697409629081791937e-01
1.290016213198135198e-01
8.554893145249026221e-02
4.010473012924414826e-02
-6.540895051304784769e-03
-5.356682214809256604e-02
-1.001418313562104090e-01
-1.454197450817812376e-01
-1.885611159711660378e-01
-2.287705846798683273e-01
-2.652702670185943523e-01
-2.973538180642678608e-01
-3.243985123549880667e-01
-3.458258505394058435e-01
-3.612210927818455541e-01
-3.702197200772573416e-01
-3.726092226000412011e-01
-3.683156176147986405e-01
-3.573381530172542453e-01
-3.398887346195614834e-01
-3.162329981468261497e-01
-2.868007215314046232e-01
-2.521382758698705318e-01
-2.128552225365608619e-01
-1.697048820703145888e-01
-1.234693791925324524e-01
-7.500616770584750403e-02
-2.521408573914782347e-02
2.500343491031531418e-02
7.473539053733678494e-02
1.230786264305514383e-01
1.691895552401321834e-01
2.122511773214952602e-01
2.515170381851168924e-01
2.863397701677800056e-01
3.161096962677390487e-01
3.403721847700617031e-01
3.587265327495717804e-01
3.708914719407227500e-01
3.767164230625215104e-01
3.761026938186823321e-01
3.691255343245627984e-01
3.559090589446288755e-01
3.367013464712098059e-01
3.118562501126767583e-01
2.817770381073474439e-01
2.470003202893382710e-01
2.080939349892392265e-01
1.657128584642529878e-01
1.205699706584719977e-01
7.340498500682257621e-02
2.501450541504343650e-02
-2.379605841001999900e-02
-7.221082642390905248e-02
-1.194088360860946774e-01
-1.645908211703480117e-01
-2.069943986670726710e-01
-2.458751251212088207e-01
-2.805799180088617284e-01
-3.104936757208573983e-01
-3.350885642923907004e-01
-3.539514537083753298e-01
-3.667138510122172623e-01
-3.731821254568187252e-01
-3.732201369349228970e-01
-3.668273420706844590e-01
-3.541421294589445767e-01
-3.353601180398929071e-01
-3.108584742651750443e-01
-2.810622474232865042e-01
-2.465141602789465147e-01
-2.078509306242440347e-01
-1.657458176322795795e-01
-1.209634160625601973e-01
-7.428588617634543367e-02
-2.652126784882195831e-02
2.150645911441069480e-02
6.898797915983390094e-02
1.151446119628911219e-01
1.592114123611562126e-01
2.005027508203390540e-01
2.383719225379687667e-01
2.722386341610990579e-01
3.016275004595174725e-01
3.260956239046816640e-01
3.453364755266664643e-01
3.590958684571783910e-01
3.672112222172941309e-01
3.696326531737466614e-01
3.663475628726641231e-01
3.574769129343113860e-01
3.431824247654527982e-01
3.237118875726162637e-01
2.993956627943821225e-01
2.705963568102296990e-01
2.377722106491018117e-01
2.014053040306608144e-01
1.620363141336865764e-01
1.202497346954341934e-01
7.664803916339144041e-02
3.187609406198359252e-02
-1.341357148145651268e-02
-5.855700136186968441e-02
-1.028837114779391493e-01
-1.457333728836169018e-01
-1.864652835260693642e-01
-2.244484622846550925e-01
-2.591069359572717445e-01
-2.898902381766886860e-01
-3.163023286200871143e-01
-3.379276610286644500e-01
-3.543803498653249617e-01
-3.654005270277773665e-01
-3.707743423783493308e-01
-3.703888597983301390e-01
-3.642473995933896425e-01
-3.523985707473943352e-01
-3.350494678043384189e-01
-3.124533452855935423e-01
-2.849732285180923697e-01
-2.530707512967368400e-01
-2.172469006109555845e-01
-1.781127065980969704e-01
-1.363042967597756783e-01
-9.251044284971393639e-02
-4.745671624592007198e-02
-1.872901889796996233e-03
4.350314909607816416e-02
8.793665661359062469e-02
1.307318234191265360e-01
1.712143943372522181e-01
2.087529818302378271e-01
2.427925530538714571e-01
2.728021461941055326e-01
2.983600471877907445e-01
3.190915438105696444e-01
3.346993808478526677e-01
3.449934613379384563e-01
3.498177907274420684e-01
3.491485564482150195e-01
3.430068577972032462e-01
3.315026221996431599e-01
3.148415938556166083e-01
2.932651704911957147e-01
2.671316068266110788e-01
2.368312761211720519e-01
2.028316462077703330e-01
1.656650292886410747e-01
1.258911148494504806e-01
8.414189820353767946e-02
4.106508739189085322e-02
-2.657174874877987758e-03
-4.632024871273832112e-02
-8.921959679973534563e-02
-1.306517470517542523e-01
-1.699185615096516222e-01
-2.063660123394568946e-01
-2.393630042780645617e-01
-2.683289985236764763e-01
-2.927676841059863033e-01
-3.122121567198279379e-01
-3.263292917470369536e-01
-3.348402584275729232e-01
-3.375704040693223718e-01
-3.344800303616234372e-01
-3.255759022325801499e-01
-3.110397839037347678e-01
-2.911093602736246622e-01
-2.661363694684769632e-01
-2.365877481384534020e-01
-2.029697274500960047e-01
-1.659084712380179127e-01
-1.260598189430686411e-01
-8.413215299949516890e-02
-4.087520461436820740e-02
2.958003040331397791e-03
4.660868184627110083e-02
8.932107213701202808e-02
1.303823239953835200e-01
1.691060918441035787e-01
2.048486829873456538e-01
2.370520006748328412e-01
2.651827929787965443e-01
2.888211926967888532e-01
3.076018926848366752e-01
3.212345653318560146e-01
3.295455285955901648e-01
3.323944253515423997e-01
3.297749752466674344e-01
3.217314883032226236e-01
3.083922258568247976e-01
2.899872578967694903e-01
2.667793548435419271e-01
2.391463208919006322e-01
2.075004303660368810e-01
1.723237521642040360e-01
1.341643638830824492e-01
9.359350832916227270e-02
5.124937719316272067e-02
7.785737772107295673e-03
-3.611588390125929776e-02
-7.975353078653192596e-02
-1.224271106704926393e-01
-1.634422991054948759e-01
-2.021101832373354279e-01
-2.377867268369989739e-01
-2.698539148243291885e-01
-2.977400213830539988e-01
-3.209601896578127000e-01
-3.390570359278842760e-01
-3.517016313979671738e-01
-3.586231843183363965e-01
-3.596450081063838899e-01
-3.547275118642206904e-01
-3.438733256399054694e-01
-3.272529327273561162e-01
-3.050963103876631055e-01
-2.777378189407683773e-01
-2.456303546134958604e-01
-2.092631865984467265e-01
-1.692458050706840134e-01
-1.262207960745013458e-01
-8.088560080373516370e-02
-3.398623025829710514e-02
1.372332953353722074e-02
6.147007162353123472e-02
1.084794452629438133e-01
1.540027718686941272e-01
1.973093158031960503e-01
2.376990559144844806e-01
2.745416634728018446e-01
3.072272327587227125e-01
3.352427759762601767e-01
3.581276821614128858e-01
3.754879509971055240e-01
3.870461915701844391e-01
3.925579172803063677e-01
3.919184737227379700e-01
3.850823813910407845e-01
3.720960688411718564e-01
3.531312902901631023e-01
3.283987031411284008e-01
2.982570983907694151e-01
2.631147216318312498e-01
2.234733957544942085e-01
1.799344501496232540e-01
1.331323425928309379e-01
8.380685092866534125e-02
3.272515080603669024e-02
-1.929682367218356343e-02
-7.140272710242975829e-02
-1.227325765209631436e-01
-1.724196052765769871e-01
-2.196000189284344484e-01
-2.634581755316762752e-01
-3.032097359885614907e-01
-3.381232653950597689e-01
-3.675793737726399946e-01
-3.909925110978120788e-01
-4.079389301895221531e-01
-4.180768753829344764e-01
-4.211780126343560582e-01
-4.171998708244302190e-01
-4.061523187466083429e-01
-3.882603689071832953e-01
-3.638340597939889731e-01
-3.333084941385514588e-01
-2.972784314477301404e-01
-2.563808254092965200e-01
-2.113986387534857458e-01
-1.631590420572781031e-01
-1.125418038142901311e-01
-6.047906117620704958e-02
-7.902863598107157106e-03
4.426283769797428880e-02
9.510023847799092822e-02
1.437581463232584511e-01
1.894371386406857871e-01
2.313907613004650976e-01
2.690072129768664722e-01
3.017104282830229689e-01
3.290732310606416799e-01
3.507586426584875516e-01
3.665112954679804469e-01
3.762361186513548672e-01
3.798762742023867878e-01
3.775224949473299785e-01
3.693350970626960716e-01
3.555461889174791890e-01
3.364978237595161459e-01
3.125576834558813077e-01
2.841859035904234498e-01
2.518764823107617623e-01
2.161633782154127603e-01
1.776283093081620357e-01
1.368630501454160542e-01
9.449023239477633007e-02
5.114082487930615706e-02
7.448339507516110736e-03
-3.595134348204997998e-02
-7.842927114974440617e-02
-1.193789574972249357e-01
-1.582013708268760754e-01
-1.943381729955128701e-01
-2.272606511494469350e-01
-2.564713841597010546e-01
-2.815472944774723429e-01
-3.020861617074722671e-01
-3.177808143744670355e-01
-3.283781150416978378e-01
-3.336891051299640809e-01
-3.336431386364929197e-01
-3.282018304734428127e-01
-3.174639057304924350e-01
-3.015889301545473522e-01
-2.808188471079166026e-01
-2.555138406098786952e-01
-2.260654785782565124e-01
-1.929822192279009030e-01
-1.568127206281934582e-01
-1.181589695971820841e-01
-7.768264673030261802e-02
-3.605584180143876771e-02
6.020721229844377617e-03
4.784022742807625406e-02
8.871360121744478744e-02
1.279672658426798948e-01
1.649509161777982236e-01
1.990818729569761858e-01
2.297969223463316446e-01
2.566195916651033970e-01
2.791325096356988000e-01
2.969710578029953751e-01
3.098873159365143071e-01
3.176628972664493622e-01
3.201997175683673480e-01
3.174636162651922611e-01
3.094880377906405466e-01
2.964229087068028790e-01
2.784477503853850511e-01
2.558594316123210533e-01
2.290034907761238081e-01
1.982895777670205251e-01
1.642134940376165364e-01
1.272935109233373219e-01
8.812785309796203337e-02
4.734040400332575893e-02
5.588283431493753367e-03
-3.643655024092181532e-02
-7.803874089242651690e-02
-1.185165237182332076e-01
-1.571686188823524510e-01
-1.933257192621251896e-01
-2.263446804532759371e-01
-2.556149052710885439e-01
-2.806135683929494862e-01
-3.008431458886864918e-01
-3.159229315456562048e-01
-3.255467930912961938e-01
-3.294842662747663464e-01
-3.276617760651171496e-01
-3.200460406512630751e-01
-3.067711400732803240e-01
-2.880543907288526384e-01
-2.642037247839933989e-01
-2.356732390489439111e-01
-2.029513439608650327e-01
-1.666529955371254534e-01
-1.274417497772962760e-01
-8.602851180730758385e-02
-4.318373890077072119e-02
3.158107449465034910e-04
4.368207413235682124e-02
8.612541640625551165e-02
1.268922399805019197e-01
1.652643242957029246e-01
2.005543266440797390e-01
2.321746720917389206e-01
2.595663366628237489e-01
2.822798988267309905e-01
2.999498566587835979e-01
3.122706789244450443e-01
3.190853870156959982e-01
3.202737634123902777e-01
3.158532422116951399e-01
3.059234128696541322e-01
2.906528406931744302e-01
2.703434732002590879e-01
2.453281998912823225e-01
2.160561245950016473e-01
1.830302949850740046e-01
1.468061353808594316e-01
1.080181179957377946e-01
6.731676890628005006e-02
2.540545817938785061e-02
-1.699389766780200206e-02
-5.915340814977732009e-02
-1.003381598313038414e-01
-1.398221867028782150e-01
-1.769186931277542674e-01
-2.109544330253993460e-01
-2.413215568583038650e-01
-2.674723293911628885e-01
-2.889022952958154034e-01
-3.052362959015189059e-01
-3.161346082539958080e-01
-3.213923390301355876e-01
-3.209012648757755271e-01
-3.146257229850914494e-01
-3.026984558672440317e-01
-2.852925707316954496e-01
-2.627310424678444001e-01
-2.354204992021184384e-01
-2.038342938351420941e-01
-1.685664771420864738e-01
-1.302353389530272743e-01
-8.953796772622768518e-02
-4.720522548470271196e-02
-3.981654289581346151e-03
3.936897046745715251e-02
8.208805006767450063e-02
1.234513574917719680e-01
1.627477956998458486e-01
1.993227322598863649e-01
2.325838590396365202e-01
2.619719962206348285e-01
2.870441158009012783e-01
3.073911888877192133e-01
3.227075609589149519e-01
3.327765502656686025e-01
3.374308205341668976e-01
3.366388880110585125e-01
3.304031475733495427e-01
3.188380190032157335e-01
3.021330918254815923e-01
2.805294948790291731e-01
2.543800077626434675e-01
2.240628328925126089e-01
1.900467420357567772e-01
1.528477952146820584e-01
1.130205869294377274e-01
7.118500092252549871e-02
2.797361994776831340e-02
-1.594052161970649362e-02
-5.986833004462105423e-02
-1.031183243041647879e-01
-1.449959077547499919e-01
-1.848143795287409685e-01
-2.219259385030501464e-01
-2.556968585558572760e-01
-2.855526903481337975e-01
-3.109802450835272847e-01
-3.315039341149183527e-01
-3.467733786147773056e-01
-3.564741416172997335e-01
-3.604163512952394122e-01
-3.585105347512464458e-01
-3.507314671613905865e-01
-3.372208175050409595e-01
-3.181609803802810665e-01
-2.938751943366839647e-01
-2.647751369637347807e-01
-2.313320097782772811e-01
-1.941376973990857069e-01
-1.538083116828793395e-01
-1.110341558612493174e-01
-6.654148413229649117e-02
-2.106893630776740522e-02
2.462540722482237099e-02
6.978698836218011348e-02
1.136925429832174594e-01
1.556317067313273128e-01
1.949429673436025856e-01
2.310254588267746378e-01
2.633062462779030000e-01
2.913197250300076369e-01
3.146343245124191834e-01
3.329101003783818125e-01
3.458957723367285797e-01
3.533831136053257604e-01
3.552955562893808650e-01
3.515913600181467813e-01
3.423356784180457968e-01
3.276743282015011638e-01
3.078024225947527115e-01
2.830347036970952690e-01
2.537141178476234882e-01
2.202813708833749051e-01
1.832346326246532264e-01
1.431148485086664590e-01
1.005443414807619673e-01
5.616217119949265535e-02
1.066246242258042654e-02
-3.523572464055389070e-02
-8.080261455451703823e-02
-1.252925885029757269e-01
-1.679638032179192608e-01
-2.081023063132170781e-01
-2.450053919201439778e-01
-2.780228335194537270e-01
-3.065653965719188911e-01
-3.300783164654448321e-01
-3.481347337576610745e-01
-3.603472292235710417e-01
-3.664543539337086209e-01
-3.663088041365222258e-01
-3.598274682870244434e-01
-3.471134130315397526e-01
-3.283173879363772696e-01
-3.037442803835443961e-01
-2.738078591064051492e-01
-2.389870657739126270e-01
-1.999088389007754318e-01
-1.572314790164666687e-01
-1.117076163603979017e-01
-6.414156201148416003e-02
-1.535897238268349452e-02
3.377688712633497570e-02
8.240196286985052021e-02
1.296738209278434084e-01
1.747601095789592107e-01
2.168762693697018351e-01
2.553045205787647376e-01
2.893566144033237197e-01
3.184693378334978453e-01
3.421231978503646021e-01
3.599070666828469989e-01
3.715277192146905771e-01
3.767433701564146808e-01
3.754860331604856771e-01
3.677370749880508050e-01
3.536145582258726217e-01
3.333525232226143276e-01
3.072448929171197607e-01
2.757473979671761222e-01
2.393546536420382287e-01
1.986803483424458283e-01
1.544168781982977190e-01
1.073008209921938183e-01
5.816255237340289819e-02
7.849850677572572932e-03
-4.274684944332118874e-02
-9.271551368364272516e-02
-1.411528302988548922e-01
-1.871704891379000757e-01
-2.298946173495075573e-01
-2.685334300621586290e-01
-3.023294473856547038e-01
-3.306176066434108884e-01
-3.528536394153051758e-01
-3.685437410446763540e-01
-3.773936784783842313e-01
-3.791748627799425564e-01
-3.738217090399957865e-01
-3.614346941987333084e-01
-3.421856206430821112e-01
-3.164724826201673613e-01
-2.847530880435455991e-01
-2.476382054421447376e-01
-2.058600911086300167e-01
-1.602012159363161159e-01
-1.115694563994228672e-01
-6.089739157288899529e-02
-9.160793885859414010e-03
4.263805250272784120e-02
9.351123946003889187e-02
1.425010284741766997e-01
1.886657965121667502e-01
2.311621395730795725e-01
2.691946892624449417e-01
3.020564695790453613e-01
3.291793655126699081e-01
3.500400834693811469e-01
3.643058102418099131e-01
3.717166201263411573e-01
3.721463375758776726e-01
3.656323976469992854e-01
3.522678116625493905e-01
3.323449335129851079e-01
3.062166117470369597e-01
2.743632629857621907e-01
2.373869922902346608e-01
1.959345082661616555e-01
1.507831323909036292e-01
1.027413970601474269e-01
5.268060882457126226e-02
1.518709303425069823e-03
-4.982027102394079310e-02
-1.003998984878790024e-01
-1.492866914859407035e-01
-1.955956658695676698e-01
-2.384702539071649197e-01
-2.771109419627382220e-01
-3.108263203106180206e-01
-3.389594257380139641e-01
-3.610157457457275898e-01
-3.765748969550696823e-01
-3.853352343765706345e-01
-3.871695900036538629e-01
-3.820042876017809563e-01
-3.699792015835757786e-01
-3.513105286504945579e-01
-3.263478417748922888e-01
-2.955934780317751587e-01
-2.595963711602864432e-01
-2.190603210796563394e-01
-1.747319678216880945e-01
-1.274262426146564320e-01
-7.801906365927048503e-02
-2.739383848068342037e-02
2.354971961829423199e-02
7.391222103862027382e-02
1.228383461726450243e-01
1.695035649000313227e-01
2.131278335281406866e-01
2.530327398293082952e-01
2.885682091674670602e-01
3.192124521704631790e-01
3.445135016459771604e-01
3.640989746693978901e-01
3.777369035679508658e-01
3.852320532207213488e-01
3.865388077253825161e-01
3.816751314976120635e-01
3.707455485497509473e-01
3.539736013569079742e-01
3.316163448032911631e-01
3.040551844375488089e-01
2.717130841931089114e-01
2.350841439014922374e-01
1.947387565169942103e-01
1.512712953248790959e-01
1.053521436004417194e-01
5.767156732757749288e-02
8.954382851544893940e-03
-4.004570978453764196e-02
-8.857223146372122935e-02
-1.358633452994002788e-01
-1.811592010958961996e-01
-2.237343154615032415e-01
-2.628857408428854625e-01
-2.979496597349562403e-01
-3.283458943550364162e-01
-3.535200286466312347e-01
-3.730429979716304301e-01
-3.865498479350342742e-01
-3.937673705554170511e-01
-3.945740394057903888e-01
-3.888924129843190358e-01
-3.768299171233557288e-01
-3.585678333541063023e-01
-3.344018807778651459e-01
-3.047751383075589793e-01
-2.701721167956431247e-01
-2.312243865855093949e-01
-1.886089064165607510e-01
-1.430667848954309540e-01
-9.540355265607233792e-02
-4.643326968808954291e-02
3.010119435921384395e-03
5.209080938528704713e-02
1.000108303378027391e-01
1.460018844086887202e-01
1.893335952624495833e-01
2.293733740649711861e-01
2.655155508087507776e-01
2.972724717038742193e-01
3.242286238734515824e-01
3.460374378529850192e-01
3.624890553200530996e-01
3.734072742039417081e-01
3.787498639243924714e-01
3.785383825712411165e-01
3.728638708263414259e-01
3.619247258851273630e-01
3.459454642803761470e-01
3.252474497854458968e-01
3.001879550612312486e-01
2.711704711835784543e-01
2.386542073035133327e-01
2.031121315849844788e-01
1.650620911554218362e-01
1.250347650494827156e-01
8.357671869827235089e-02
4.124945504571538024e-02
-1.385007033582463798e-03
-4.376485505082274713e-02
-8.532960407778335254e-02
-1.255366269978886451e-01
-1.638564202237229872e-01
-1.997771854691475224e-01
-2.328297696172783871e-01
-2.625576885128342308e-01
-2.885658693322999957e-01
-3.104944858602244340e-01
-3.280291986320350017e-01
-3.409403225302922169e-01
-3.490226075333833777e-01
-3.521788781190663964e-01
-3.503604715039777551e-01
-3.435912436431267647e-01
-3.320000699855897297e-01
-3.157464609154934099e-01
-2.951089317524759892e-01
-2.704077005539499701e-01
-2.420296948264161752e-01
-2.104371619430624452e-01
-1.761121141937860846e-01
-1.395992612817569811e-01
-1.014597370812240495e-01
-6.226947921626896365e-02
-2.261745175075528802e-02
1.691422710861921475e-02
5.576532015252860797e-02
9.338335889434835890e-02
1.292623283919840105e-01
1.629281535539931491e-01
1.939389660246053915e-01
2.219249554170758809e-01
2.465349055205353079e-01
2.674949915854219484e-01
2.845728679945399575e-01
2.975799558600322747e-01
3.064037389106530895e-01
3.109511523153674628e-01
3.112068122782201129e-01
3.071879025596702117e-01
2.989573011828525750e-01
2.866398263901970833e-01
2.703790054550396227e-01
2.503887266305231951e-01
2.269063288661029021e-01
2.002157086737197944e-01
1.706499882673037649e-01
1.385610070969686691e-01
1.043610590569243324e-01
6.847875196882741156e-02
3.138172216435181072e-02
-6.430220652281271043e-03
-4.444524787910220098e-02
-8.212069495136331554e-02
-1.189082408679034697e-01
-1.542558329270820872e-01
-1.876091106443656120e-01
-2.184275845832703289e-01
-2.462003329043263855e-01
-2.704283541097888266e-01
-2.906800174397813352e-01
-3.065578269635500508e-01
-3.177245488662446271e-01
-3.239412403569864041e-01
-3.250006011050510790e-01
-3.208329656381452843e-01
-3.114232074731776434e-01
-2.968527431682514983e-01
-2.773255592442174233e-01
-2.530848185513908666e-01
-2.245163158908805023e-01
-1.920501121985649373e-01
-1.561975730227531667e-01
-1.175505570250573451e-01
-7.672383728306342299e-02
-3.439895468805104217e-02
8.727474497865705949e-03
5.194712763496850405e-02
9.454268408757121600e-02
1.358103346311038129e-01
1.750819000682763416e-01
2.117016149315810170e-01
2.450843103084988372e-01
2.746874477328297703e-01
3.000210828070806190e-01
3.206983920507272545e-01
3.363608672186297333e-01
3.467732970477827026e-01
3.517585857670177951e-01
3.512176364495382397e-01
3.451702630429511198e-01
3.336699344829919811e-01
3.169034278386390069e-01
2.951067862162919941e-01
2.685967531136436715e-01
2.377859985705058632e-01
2.031166736600396594e-01
1.651319837504769406e-01
1.244044654657520954e-01
8.155929067279160671e-02
3.727042273078479129e-02
-7.776163778151184980e-03
-5.286215134579236308e-02
-9.726350712711671898e-02
-1.402657258951752473e-01
-1.811612524774528499e-01
-2.192663595742448401e-01
-2.539544293021110399e-01
-2.846172719992651201e-01
-3.107429003525645772e-01
-3.318737830907680930e-01
-3.476249889962172990e-01
-3.577447827179525697e-01
-3.620190057137266937e-01
-3.603963825360628759e-01
-3.528975729996146060e-01
-3.396441983001052822e-01
-3.209019802929644061e-01
-2.969757368032799327e-01
-2.683167087775278348e-01
-2.354263236383858926e-01
-1.988759623411995303e-01
-1.593148644810262748e-01
-1.174079333999813457e-01
-7.386551290432041839e-02
-2.940855318309093525e-02
1.525158613030180854e-02
5.941188344847236902e-02
1.023896184640200602e-01
1.435612108188323022e-01
1.823201541541913939e-01
2.181367195160574812e-01
2.505331828692802798e-01
2.790762432707575846e-01
3.034302048367386595e-01
3.232832532616504162e-01
3.384170382971671831e-01
3.486625523659959702e-01
3.539002250319923104e-01
3.540951368871752547e-01
3.492339280264362689e-01
3.393886887884307590e-01
3.246668870186442124e-01
3.052283587565364775e-01
2.813029252693496352e-01
2.531428275519027049e-01
2.210852121228203959e-01
1.854952793027720981e-01
1.467973037258017421e-01
1.054771338809500913e-01
6.204423508833267764e-02
1.708346762671084096e-02
-2.880052110015302036e-02
-7.495993975932421782e-02
-1.207119454830426486e-01
-1.653662824228598338e-01
-2.082151342501355473e-01
-2.485502284480429203e-01
-2.856918163146005551e-01
-3.189783942271670059e-01
-3.477893993903715675e-01
-3.715893861977494494e-01
-3.898702757753876869e-01
-4.022595329878647652e-01
-4.084520478136890453e-01
-4.082427069586762602e-01
-4.015870327127800676e-01
-3.884870106483701568e-01
-3.691359843724612011e-01
-3.438015144034398118e-01
-3.128640929609298182e-01
-2.768455298133367659e-01
-2.363056609249232498e-01
-1.919349107278151001e-01
-1.444625397566310920e-01
-9.466642781386952477e-02
-4.337190298581702907e-02
8.593910829780462834e-03
6.040448975379078544e-02
1.112366846244811081e-01
1.603150336857669389e-01
2.069004101323067835e-01
2.502925409005211099e-01
2.898879902032166500e-01
3.251091401142712223e-01
3.554876172442089644e-01
3.806199427032732063e-01
4.001655460115510210e-01
4.139050601448014399e-01
4.216495647403588065e-01
4.233332197672169395e-01
4.189472491573020818e-01
4.085529473818725332e-01
3.923168720514940699e-01
3.704344220168662716e-01
3.432127370651381626e-01
3.109996909252774611e-01
2.742106976685705355e-01
2.333403164360992044e-01
1.889086609976690090e-01
1.415234177655677605e-01
9.181758128327915935e-02
4.047392765228868816e-02
-1.177927592029354154e-02
-6.420112672707717349e-02
-1.160164084404489149e-01
-1.664437668599210163e-01
-2.147092610664178003e-01
-2.600443085098850804e-01
-3.017053739047569350e-01
-3.390081397621411141e-01
-3.712881345288924773e-01
-3.979871771045862539e-01
-4.186064467283602819e-01
-4.327305660540097798e-01
-4.400950946682400389e-01
-4.404792253277954872e-01
-4.338528925532863512e-01
-4.202691775686692166e-01
-3.999031076048321642e-01
-3.731013026478048888e-01
-3.402583202998309964e-01
-3.019486987098770614e-01
-2.588079236635725811e-01
-2.115605287604440943e-01
-1.610287549692428488e-01
-1.080554545639745428e-01
-5.354372314695123036e-02
1.589416685741917856e-03
5.643748542591028872e-02
1.101030462891901540e-01
1.617156123390045552e-01
2.104821767774319730e-01
2.556326359499869194e-01
2.965047992151088052e-01
3.325085574843613112e-01
3.631207719226732800e-01
3.879635757658401740e-01
4.066956777555744140e-01
4.191243201600668988e-01
4.251340783069562645e-01
4.246905259645120112e-01
4.178960002669508400e-01
4.048868721934368864e-01
3.859317643959292443e-01
3.613530240326902065e-01
3.315430270721410611e-01
2.969863864084369975e-01
2.581922345032049426e-01
2.157564606190152945e-01
1.703024743176376199e-01
1.224950377494299913e-01
7.304140200192127397e-02
2.265798005935946990e-02
-2.791297965579001006e-02
-7.792400464873810995e-02
-1.266363608587468548e-01
-1.733183406289570683e-01
-2.172571577807327903e-01
-2.577906026597471811e-01
-2.942723649838716593e-01
-3.261384574468172981e-01
-3.528764646709992570e-01
-3.740354744165800271e-01
-3.892897960277296732e-01
-3.983485456001775726e-01
-4.010753735190509817e-01
-3.974094996767535415e-01
-3.873887825993606038e-01
-3.712071716237901331e-01
-3.491007327323326637e-01
-3.214720817720320700e-01
-2.887872260042858019e-01
-2.515994215551792812e-01
-2.105695433687820306e-01
-1.663835571170118599e-01
-1.198088328924707402e-01
-7.163582605170348838e-02
-2.266838588611710947e-02
2.627675555548319997e-02
7.439479383654855338e-02
1.209222314725386521e-01
1.651091857026790177e-01
2.062784616641899493e-01
2.438074386022471285e-01
2.771211019358604810e-01
3.057607221903068662e-01
3.292975482537587872e-01
3.474243080843943399e-01
3.599048519845014504e-01
3.665708820927822131e-01
3.673829227390368879e-01
3.623336369302176951e-01
3.515445751968682697e-01
3.351961755969699031e-01
3.135407461647515825e-01
2.869370216911724114e-01
2.557719527850101926e-01
2.205393932800898682e-01
1.817713669417579947e-01
1.400561671532611352e-01
9.604708568543193770e-02
5.041364210860871387e-02
3.876968156032563340e-03
-4.282820915885502538e-02
-8.895965288776758184e-02
-1.337683682579352273e-01
-1.765173910317869854e-01
-2.165075493319273958e-01
-2.530525847030900555e-01
-2.855400833661669302e-01
-3.134095884781242791e-01
-3.361562833005316553e-01
-3.534029616310891964e-01
-3.648069756347472881e-01
-3.701773140081445757e-01
-3.694061787360075622e-01
-3.624776040479700812e-01
-3.495390150945836272e-01
-3.307790346348796762e-01
-3.065504100979105639e-01
-2.772759204389506626e-01
-2.434594804800386814e-01
-2.057174809224457390e-01
-1.646905355902957835e-01
-1.210997598784858131e-01
-7.569215522164893239e-02
-2.922790103940453577e-02
1.751857573026905507e-02
6.378232446794311616e-02
1.088370528423587974e-01
1.519693952863553910e-01
1.925307396103148605e-01
2.299271115156844292e-01
2.636042777711911089e-01
2.931167856080394429e-01
3.180473368922604460e-01
3.380835008799690788e-01
3.529818458546943316e-01
3.625529751104703546e-01
3.667225958469076397e-01
3.654440529562706930e-01
3.587771153340190144e-01
3.468361509810884424e-01
3.297917321008712599e-01
3.079079630656906819e-01
2.814725844721855941e-01
2.508655986575997754e-01
2.165040097564527311e-01
1.788555280386823765e-01
1.384537082952689568e-01
9.584966112970597085e-02
5.165610933200789900e-02
6.504832283860617625e-03
-3.894827679110736407e-02
-8.402290044645856215e-02
-1.280386592597153872e-01
-1.703187796886203031e-01
-2.101897744915717237e-01
-2.470168993615095565e-01
-2.801960473196373758e-01
-3.091590529559101186e-01
-3.334310948400182051e-01
-3.525638738913922654e-01
-3.662303410041475860e-01
-3.741782472473992871e-01
-3.762327208648313381e-01
-3.723738478322336509e-01
-3.626211764131110904e-01
-3.471564575694335852e-01
-3.262393511361635356e-01
-3.002144464486119491e-01
-2.695586898641917362e-01
-2.347790819586095812e-01
-1.964899831496468574e-01
-1.553453801324964634e-01
-1.120329631531999381e-01
-6.728138112528864179e-02
-2.182002833457188928e-02
2.362922040652905981e-02
6.834857952959025318e-02
1.116631668227410223e-01
1.529387967968315887e-01
1.915712377236098163e-01
2.270487991397981409e-01
2.588851150995429284e-01
2.866848484110754436e-01
3.101200018194608110e-01
3.289084805547801693e-01
3.428778254354997168e-01
3.518818787791073155e-01
3.558702450952467289e-01
3.548477426143300528e-01
3.488663212539339087e-01
3.380660008775752123e-01
3.226078288210475487e-01
3.027339225014012980e-01
2.787228798387658135e-01
2.508965341146053296e-01
2.196398250756692316e-01
1.853542777870107738e-01
1.485035269921263223e-01
1.095730552740304398e-01
6.908033028995540226e-02
2.757924252817812311e-02
-1.436781710168283377e-02
-5.617220739931588769e-02
-9.723878973483401911e-02
-1.369744586191054270e-01
-1.747879216309189410e-01
-2.101005708429022345e-01
-2.423720453895474303e-01
-2.710743883471191662e-01
-2.957459090012494740e-01
-3.159708816744735138e-01
-3.313826590839723529e-01
-3.417254977424638573e-01
-3.467735874480088465e-01
-3.464320549021727702e-01
-3.406768565717914199e-01
-3.295623333456021986e-01
-3.132802924019410518e-01
-2.920569268939088858e-01
-2.662540952274013439e-01
-2.362906918691580205e-01
-2.026512874085071303e-01
-1.659102045629700650e-01
-1.266608800108839361e-01
-8.555954457521697254e-02
-4.328228034340318719e-02
-5.145942578213963392e-04
4.204796105270802720e-02
8.371799700815127365e-02
1.238404264622290363e-01
1.617709341447267635e-01
1.969197050654634129e-01
2.287422616811568554e-01
2.567293627089467511e-01
2.804670813315883748e-01
2.995667602274140195e-01
3.137400878003753224e-01
3.227638715115664914e-01
3.264724980917402819e-01
3.248215511062034211e-01
3.177971896717867173e-01
3.055103068310710546e-01
2.881349443912765151e-01
2.659156497200974023e-01
2.392126940243287092e-01
2.084156229180160191e-01
1.740276936525549101e-01
1.365969569279543161e-01
9.672732828018032469e-02
5.509422725347642991e-02
1.238806419966283212e-02
-3.065324214158711424e-02
-7.327823526006413402e-02
-1.147387018415729765e-01
-1.542896701453047581e-01
-1.912043617044796862e-01
-2.248184913486583336e-01
-2.544876024946177706e-01
-2.796632289846591735e-01
-2.998716926236664193e-01
-3.147023178683882594e-01
-3.239041584117909878e-01
-3.272676554334972288e-01
-3.247489445836709843e-01
-3.164047966203381024e-01
-3.023787157041445961e-01
-2.829849253829558320e-01
-2.585765898228836734e-01
-2.296503290656763119e-01
-1.967703608413334249e-01
-1.605564557781531954e-01
-1.217135862663045326e-01
-8.096006295980608114e-02
-3.904870387918740055e-02
3.255974334161281999e-03
4.520649377084151599e-02
8.607583538000769530e-02
1.251557306958618887e-01
1.618128543581303647e-01
1.954377656072063263e-01
2.255001956690849130e-01
2.515439062997341102e-01
2.731532021322653492e-01
2.900334762154297419e-01
3.019219588094587126e-01
3.086601957063214718e-01
3.101658019208445860e-01
3.064074612237444040e-01
2.974740229231105371e-01
2.834834136570526519e-01
2.646620256954415051e-01
2.412979197600845505e-01
2.137347665614986736e-01
1.824187399868562598e-01
1.478201866696083611e-01
1.105015222624495252e-01
7.106583016757692106e-02
3.015646008039229650e-02
-1.152533940530597184e-02
-5.326863101387397520e-02
-9.433514203380431729e-02
-1.339782032782156906e-01
-1.714681799810214291e-01
-2.060945738175632702e-01
-2.371691545096510367e-01
-2.640878624364660920e-01
-2.862733372573127433e-01
-3.032555234570118996e-01
-3.146583270400713506e-01
-3.201690134443394564e-01
-3.196543227095967055e-01
-3.130277767403571998e-01
-3.003715911059223753e-01
-2.818831525635024371e-01
-2.578403374109861090e-01
-2.286985125728052959e-01
-1.949524586651331937e-01
-1.572306318373526413e-01
-1.162323572386725207e-01
-7.270149760982849707e-02
-2.745842701258099927e-02
1.866634033536310189e-02
6.482614514061291189e-02
1.101685228877689604e-01
1.538708372128281265e-01
1.951507549480350212e-01
2.332497584884748454e-01
2.675118867076634599e-01
2.973164028400342440e-01
3.221411599065647779e-01
3.415676604881391354e-01
3.552260474033599458e-01
3.629069933640460821e-01
3.644459170121870928e-01
3.598084341378272599e-01
3.490669011688890544e-01
3.323523592061774501e-01
3.099497249162990187e-01
2.821808624271842647e-01
2.494876764690643900e-01
2.123887563393025424e-01
1.714528333713356556e-01
1.273519818681428661e-01
8.077957171152627680e-02
3.249611262784596333e-02
-1.670472775004111510e-02
-6.601555042498175041e-02
-1.146069750310909630e-01
-1.616522424767686816e-01
-2.063527347427529524e-01
-2.479218669376619388e-01
-2.856272365268824887e-01
-3.188048790389147458e-01
-3.468257848295749346e-01
-3.691995393262551550e-01
-3.854808430672643782e-01
-3.953553634306858910e-01
-3.986376934987908571e-01
-3.952070725834171405e-01
-3.851443475679920958e-01
-3.685839808393918116e-01
-3.458201011302198258e-01
-3.172693888612150848e-01
-2.834132843309587479e-01
-2.448920134440207841e-01
-2.023801221714815746e-01
-1.566470808369553880e-01
-1.085189514490124962e-01
-5.884065480962707984e-02
-8.492794971637129819e-03
4.164360495221564040e-02
9.071592961185165338e-02
1.378854398014165983e-01
1.823634233879373179e-01
2.234371825559459124e-01
2.604232883584826075e-01
2.927667530866682188e-01
3.199605363767906718e-01
3.415987925537181114e-01
3.573952947312396544e-01
3.671087628282706516e-01
3.706577655005344196e-01
3.680085781728733574e-01
3.592415868578992533e-01
3.445423595290196261e-01
3.241430487600487353e-01
2.984106067240755999e-01
2.677454839183308621e-01
2.326416386608061437e-01
1.936602122551235594e-01
1.513970617704437915e-01
1.065277545680444748e-01
5.974401967454717743e-02
1.178026409617820291e-02
-3.660537441464700031e-02
-8.465176356567155613e-02
-1.315927320847874449e-01
-1.766671472401601106e-01
-2.191528383707237737e-01
-2.583453267936460240e-01
-2.935922497362780659e-01
-3.243153060252987330e-01
-3.499670938981582213e-01
-3.701313395729250999e-01
-3.844382705938704792e-01
-3.926310424795878551e-01
-3.945778039995281317e-01
-3.901993619322597917e-01
-3.795964221764216995e-01
-3.629208132362584105e-01
-3.404551804211058963e-01
-3.125950719419963719e-01
-2.797850599991696940e-01
-2.426027088583103675e-01
-2.016555528814775178e-01
-1.576210520075815302e-01
-1.112236192302135801e-01
-6.319807824075680813e-02
-1.430056010121608101e-02
3.471331700870076975e-02
8.311775454354213000e-02
1.302028921730251643e-01
1.752975824848864717e-01
2.177969160524464431e-01
2.571174877494125655e-01
2.927725064603949323e-01
3.243151612238939774e-01
3.513661734310224993e-01
3.736360188745671551e-01
3.908638987962737010e-01
4.028973101797380663e-01
4.096192219887488939e-01
4.109847568969368092e-01
4.070238152914398833e-01
3.977959626126297832e-01
3.834554079224768430e-01
3.641821016553748458e-01
3.402264763390222546e-01
3.118959280643938126e-01
2.795294839780181340e-01
2.435479876746027006e-01
2.043920034283228104e-01
1.625681575801388723e-01
1.186246782842825254e-01
7.313778897981715321e-02
2.674063466021731061e-02
-1.992255541451404266e-02
-6.617540543805955355e-02
-1.113260424395826065e-01
-1.546855767788977709e-01
-1.955700665628415658e-01
-2.333054271616722408e-01
-2.672736862202786945e-01
-2.968796246812850370e-01
-3.216004886450484768e-01
-3.410037359667008605e-01
-3.546987608057807773e-01
-3.624567605096602474e-01
-3.641004006907204160e-01
-3.595914640165098208e-01
-3.490267375002061301e-01
-3.325651980844259170e-01
-3.105555731597813285e-01
-2.833952765336167356e-01
-2.516125855719398841e-01
-2.158347694877685297e-01
-1.767322633858734726e-01
-1.350787797346678365e-01
-9.166757627386287743e-02
-4.732690861673838345e-02
-2.905423654603493666e-03
4.076189455213712065e-02
8.286708112402202397e-02
1.226166692285882431e-01
1.593019561305860643e-01
1.922538332721148158e-01
2.208798632767633441e-01
2.447022945035536301e-01
2.632816469272502014e-01
2.763375736569900765e-01
2.836479917399553630e-01
2.851045218136094572e-01
2.807312759726431906e-01
2.706000075238240710e-01
2.549484929503268438e-01
2.340630893800106915e-01
2.083408332320605127e-01
1.782793298639673285e-01
1.444166550239027180e-01
1.074053638716732373e-01
6.792481372086989211e-02
2.671531227763962457e-02
-1.543971312113445737e-02
-5.774736913656630666e-02
-9.939456368307741929e-02
-1.395688328853627036e-01
-1.774909300741523976e-01
-2.124002840683819615e-01
-2.435841311347790583e-01
-2.704159648056969623e-01
-2.922991273225272746e-01
-3.087793965537022345e-01
-3.194647379605145554e-01
-3.240747719243227687e-01
-3.224853993140176511e-01
-3.146238949009306785e-01
-3.006202719948796176e-01
-2.806740375128960463e-01
-2.551179550799376194e-01
-2.244301811072703656e-01
-1.891369514235856641e-01
-1.499205504589481708e-01
-1.075049764264969232e-01
-6.268998371367962008e-02
-1.633976431101302751e-02
3.066963833117042348e-02
7.743388336047585252e-02
1.230464641170834206e-01
1.666358749481421375e-01
2.073539747445851678e-01
2.443977684137196293e-01
2.770626077386082464e-01
3.046735815313215134e-01
3.266992767768815975e-01
3.426828653366866817e-01
3.522687557109519529e-01
3.552716102326506364e-01
3.515546707123736736e-01
3.411848712405668449e-01
3.243119401038002114e-01
3.012139074189714161e-01
2.723368773974075840e-01
2.381764423745154347e-01
1.994084658367969443e-01
1.567660107575739037e-01
1.110758726769249388e-01
6.326060741450467706e-02
1.426448764592674889e-02
-3.490641544905342952e-02
-8.323342938758021559e-02
-1.297155104088793531e-01
-1.733657149529434505e-01
-2.132374300203520590e-01
-2.484912435611564274e-01
-2.783205660199276066e-01
-3.020836401607034372e-01
-3.192413173772249424e-01
-3.293672220982188925e-01
-3.322629995723003216e-01
-3.277898955135342129e-01
-3.160601695968156544e-01
-2.973078101732868905e-01
-2.719060839795452988e-01
-2.404472475758098193e-01
-2.035760027495694680e-01
-1.621310959266305807e-01
-1.170239036539116317e-01
-6.923951313806230023e-02
-1.985338048929324861e-02
3.005012449144783826e-02
7.937182671467024608e-02
1.270113983923044920e-01
1.719302923746496292e-01
2.131490712757233563e-01
2.497413434914176888e-01
2.809477682588995551e-01
3.060564235279534806e-01
3.245412485856127849e-01
3.360148828632372187e-01
3.401920550359405770e-01
3.370341079219772995e-01
3.265625907062371658e-01
3.090235050909817538e-01
2.847933410008227639e-01
2.543541008295807648e-01
2.183864957675258622e-01
1.776138876475730766e-01
1.329076664207010094e-01
8.520574364707707293e-02
3.549002176478821546e-02
-1.519302947729483932e-02
-6.579406934940434937e-02
-1.152763958285502044e-01
-1.626097997211569113e-01
-2.068307956234096134e-01
-2.470525679385176532e-01
-2.824352895429371180e-01
-3.123130110416416083e-01
-3.360729190711841396e-01
-3.532722114836949201e-01
-3.636203861038911356e-01
-3.669109220465628374e-01
-3.631777927728932487e-01
-3.525155365437433463e-01
-3.352091819754396962e-01
-3.116767653944441108e-01
-2.824122742993754320e-01
-2.480799292434987813e-01
-2.093786496460597890e-01
-1.671047104935850514e-01
-1.221070148867917093e-01
-7.524854490580241972e-02
-2.741649782414082304e-02
2.050622503783770811e-02
6.768259179200669662e-02
1.132959319018881084e-01
1.565926500227028118e-01
1.969062407358349032e-01
2.336040120181231972e-01
2.661911130235959932e-01
2.942197968074622971e-01
3.173452227512867929e-01
3.353332378467268615e-01
3.479920201499364651e-01
3.552687117843961184e-01
3.571485854464420129e-01
3.537089243062719879e-01
3.451041825668043628e-01
3.315233401872269559e-01
3.132467197747803023e-01
2.905758593849129268e-01
2.638723551680172141e-01
2.335370498795151240e-01
1.999935609607365883e-01
1.637133638290290683e-01
1.251780358387921954e-01
8.490170466110183445e-02
4.341501664726117593e-02
1.259517551345678242e-03
-4.100528750668818584e-02
-8.281779786187852543e-02
-1.236139594878156445e-01
-1.628291247381534745e-01
-1.999121026004203050e-01
-2.343291046640580133e-01
-2.655587973144573066e-01
-2.931324506499069504e-01
-3.165993433333066931e-01
-3.355719656856597233e-01
-3.497264748924094890e-01
-3.587764815978776167e-01
-3.625567260326860719e-01
-3.609359144104717920e-01
-3.538984502785086361e-01
-3.415196178871529042e-01
-3.239321407106913187e-01
-3.014140504987831148e-01
-2.742779585011141386e-01
-2.429533341175729444e-01
-2.079411214800426788e-01
-1.697878731968112120e-01
-1.291301638692324560e-01
-8.662111120868065672e-02
-4.295829643404738829e-02
1.139908658818328258e-03
4.495886652076758194e-02
8.778994281104807174e-02
1.289347218763731151e-01
1.677506891518811549e-01
2.036171966870873040e-01
2.359762962780240780e-01
2.643458835054747214e-01
2.882768671498349700e-01
3.074429933971533080e-01
3.215559879856818015e-01
3.304282875215566739e-01
3.339673082780186264e-01
3.321262436568171994e-01
3.249947340712514565e-01
3.126975768719032489e-01
2.954647780341707053e-01
2.736037039590177300e-01
2.474659647510848992e-01
2.175075302104588770e-01
1.842074450323873958e-01
1.481169762636941334e-01
1.098286780735814316e-01
6.995807096268419345e-02
2.916303119138008437e-02
-1.189290299905182424e-02
-5.253918702363058468e-02
-9.210261143018283470e-02
-1.299302031650960421e-01
-1.653984782082462968e-01
-1.979006731622457160e-01
-2.269068142616238459e-01
-2.519151234586681776e-01
-2.725021789490430502e-01
-2.883332976139449388e-01
-2.991146672848336019e-01
-3.046968357663004667e-01
-3.049728385339072201e-01
-2.999544574799015151e-01
-2.897583368377280033e-01
-2.745528172303629555e-01
-2.546510448888158473e-01
-2.304011280067633782e-01
-2.022502610179023330e-01
-1.707138047176942619e-01
-1.363386906001488597e-01
-9.974103957414431898e-02
-6.154872868975430622e-02
-2.240880227627076171e-02
1.702168018070898681e-02
5.609967303855178944e-02
9.420693323161273558e-02
1.307372224173291575e-01
1.651471896834512954e-01
1.969203017429278779e-01
2.255934167469619001e-01
2.507760188575862692e-01
2.721024696838976187e-01
2.893043274432205436e-01
3.021458123799847795e-01
3.104601649315149037e-01
3.141538107078276076e-01
3.131626075577888524e-01
3.075184752249142672e-01
2.972799258150477519e-01
2.825777203783761404e-01
2.636023620644519228e-01
2.405764766229563367e-01
2.138075266202529856e-01
1.836235419868472718e-01
1.504200881777725263e-01
1.146362536425055700e-01
7.674038598952220847e-02
3.726169678453181144e-02
-3.257878491000685064e-03
-4.423561162654547629e-02
-8.506846109774671150e-02
-1.251459391957637779e-01
-1.638455670463312419e-01
-2.005478907547093570e-01
-2.346588164635582952e-01
-2.655950598586628297e-01
-2.928184447040331762e-01
-3.158482629237953088e-01
-3.342328226130276692e-01
-3.476362090861329635e-01
-3.557604090332043834e-01
-3.584160113367471090e-01
-3.555214351013743501e-01
-3.470479035862029660e-01
-3.331323252414921110e-01
-3.139556242740897396e-01
-2.898256667904240413e-01
-2.611485873916695732e-01
-2.283790240467440391e-01
-1.920911115398930835e-01
-1.528839731208656849e-01
-1.114180754609570417e-01
-6.839071957359971199e-02
-2.450360477627844258e-02
1.953381945853395474e-02
6.301704097020210948e-02
1.052863331976557626e-01
1.457035029547736060e-01
1.836799881489834529e-01
2.187032360149052668e-01
2.502862411516718066e-01
2.780502175291858502e-01
3.016567708415955340e-01
3.208423440706490437e-01
3.354325990254344303e-01
3.452833438666527699e-01
3.503561572007878322e-01
3.506440160911251103e-01
3.462075269027534152e-01
3.371701698603163377e-01
3.236810619598220473e-01
3.059635095232903224e-01
2.842593097777383893e-01
2.588611175153912036e-01
2.300984511341482297e-01
1.983221454500038172e-01
1.639326295356118013e-01
1.273417027889053310e-01
8.899999400021359197e-02
4.938004314040805864e-02
8.970252687637680911e-03
-3.171199246749620282e-02
-7.214430221476850202e-02
-1.117911796069286368e-01
-1.501116440615132275e-01
-1.865723823516206303e-01
-2.206511173308111362e-01
-2.518353681123837728e-01
-2.796595747918911856e-01
-3.036755459967865889e-01
-3.234926389599107610e-01
-3.387844610074345897e-01
-3.492580562218971507e-01
-3.547387306321641010e-01
-3.550867857324365162e-01
-3.502697211380593201e-01
-3.403483601571397621e-01
-3.254337934034259860e-01
-3.057768174019592222e-01
-2.816622614042858519e-01
-2.534777656136488755e-01
-2.216807001737887139e-01
-1.867640430501598670e-01
-1.492980427664251375e-01
-1.098667666604822013e-01
-6.908307659713955329e-02
-2.757478842983347722e-02
1.403910733567143021e-02
5.515513527683090639e-02
9.517965679706186233e-02
1.335730575624021754e-01
1.698185250103642352e-01
2.034479752729916047e-01
2.340586687569499169e-01
2.612706902469729142e-01
2.847927602386368107e-01
3.043629538383181288e-01
3.197808701652882224e-01
3.309104190955350355e-01
3.376404433834694352e-01
3.399397073901024857e-01
3.377986638300024547e-01
3.312643635505336803e-01
3.204299931066350027e-01
3.054135014034168316e-01
2.863973112454101244e-01
2.635797215558377538e-01
2.372142506645520399e-01
2.075895239429738082e-01
1.750227848458690838e-01
1.398902111195886588e-01
1.025822589265647511e-01
6.354524696469471268e-02
2.325315349664558440e-02
-1.779278023817676413e-02
-5.904749209475423921e-02
-9.995718593207780778e-02
-1.399395173622607902e-01
-1.784015867804722433e-01
-2.147534203914638617e-01
-2.484087426727614734e-01
-2.787925677220465248e-01
-3.053796994606083892e-01
-3.276622315673196617e-01
-3.452048262075846363e-01
-3.576431776468754764e-01
-3.646582557759823207e-01
-3.660741693492937099e-01
-3.617546088674937765e-01
-3.517009534094635015e-01
-3.360196861181298233e-01
-3.148840125898413334e-01
-2.886311806144066239e-01
-2.576364214556671195e-01
-2.224002818688695093e-01
-1.834977408277510547e-01
-1.415483123656707809e-01
-9.725683793066580707e-02
-5.134231548855089367e-02
-4.555718933769881129e-03
4.233766841952144033e-02
8.858572084541577185e-02
1.334563261112966803e-01
1.762315114522168547e-01
2.162628208021436516e-01
2.529280560010948031e-01
2.856736366698344742e-01
3.140266374576261565e-01
3.375483275253119975e-01
3.559234610099392127e-01
3.688740138219248621e-01
3.762207277406827144e-01
3.778748653117623979e-01
3.737925246477444841e-01
3.640600782760402554e-01
3.487971451143991874e-01
3.282269065036346190e-01
3.026465511850933154e-01
2.723994313984127724e-01
2.379350883529146587e-01
1.997271340298678033e-01
1.583307323864402982e-01
1.143463882119456487e-01
6.840611594179041299e-02
2.119865272853471705e-02
-2.657737301769623472e-02
-7.419667454021652842e-02
-1.209228403897157494e-01
-1.660274932870780540e-01
-2.087936780702077666e-01
-2.485168684012767082e-01
-2.845522057130718263e-01
-3.162767001326280969e-01
-3.431411092013354480e-01
-3.646773559036172174e-01
-3.804601707100292440e-01
-3.902138305617753322e-01
-3.937065137602132614e-01
-3.908432451752608117e-01
-3.816464956854427326e-01
-3.662043729588508878e-01
-3.447852612719845555e-01
-3.177017085617965808e-01
-2.854060046353841251e-01
-2.484438871242543589e-01
-2.074146713656975227e-01
-1.630327889812862030e-01
-1.160348864875505454e-01
-6.721630513255602568e-02
-1.740263703603701917e-02
3.257975825864128927e-02
8.190363922402316144e-02
1.297502658350715710e-01
1.753558999517308148e-01
2.179800500154062681e-01
2.569454008849876847e-01
2.916581681458306208e-01
3.215580766616153996e-01
3.462175978095711759e-01
3.652531908285388540e-01
3.783874411155795925e-01
3.854522944061830603e-01
3.863275749092596190e-01
3.810469255967601776e-01
3.696858370158070950e-01
3.524371627318773070e-01
3.295880639654338307e-01
3.014757678702238430e-01
2.685659518304951421e-01
2.313541813470881559e-01
1.904286423209414492e-01
1.464354754661264246e-01
1.000543568950124501e-01
5.203250615840811222e-02
3.129078137553004124e-03
-4.586817316316726956e-02
-9.415790141863991658e-02
-1.409485570320360703e-01
-1.854643518285470360e-01
-2.269426582399570180e-01
-2.646904406959039724e-01
-2.980424411642536575e-01
-3.264123901994579469e-01
-3.493117826445282237e-01
-3.662956740104846287e-01
-3.770851988797563892e-01
-3.814539526645711609e-01
-3.793154924546400242e-01
-3.707184250401173164e-01
-3.557740117531320023e-01
-3.347837669577610198e-01
-3.080980248736010507e-01
-2.762010656597113090e-01
-2.396779181830077654e-01
-1.991598298304213532e-01
-1.553883460029874541e-01
-1.091265514476699311e-01
-6.118257662873004266e-02
-1.239073203321486294e-02
3.642119581095262792e-02
8.443863471306056745e-02
1.308575459070108471e-01
1.749405636146865728e-01
2.159813517404965966e-01
2.533367808204448068e-01
2.864577335438360239e-01
3.148266511273149493e-01
3.380569094625038851e-01
3.558095619709922275e-01
3.678388913118411097e-01
3.740071946864929608e-01
3.742161791802272597e-01
3.685045873664903882e-01
3.569513434357050041e-01
3.397319360633184182e-01
3.171090993865410823e-01
2.893856118455667703e-01
2.569782823270552186e-01
2.203321917237266725e-01
1.799751803110233306e-01
1.364933723931067988e-01
9.050548023181853585e-02
4.270382058682503645e-02
-6.204205171461057988e-03
-5.546888980740405373e-02
-1.043174860483084831e-01
-1.519742406148409941e-01
-1.976584020415539378e-01
-2.405951663572642452e-01
-2.800538250678588637e-01
-3.153234045713650957e-01
-3.457543882146419945e-01
-3.707828531809158612e-01
-3.898817848421944898e-01
-4.026792503408488377e-01
-4.088574026841219622e-01
-4.082325738689879246e-01
-4.007666672778495420e-01
-3.864834478538605733e-01
-3.656144145026025138e-01
-3.384490702998837475e-01
-3.054253233779236076e-01
-2.671066233616631314e-01
-2.241103424476480199e-01
-1.771972403301349530e-01
-1.271594554663594556e-01
-7.485853334823268368e-02
-2.120165510635912964e-02
3.289963410964064083e-02
8.652599925916376611e-02
1.387635540137870938e-01
1.887538219981682031e-01
2.356672480045560736e-01
2.787347079968381935e-01
3.172883266256371626e-01
3.506930925133256993e-01
3.784597952167691459e-01
4.001584738546114517e-01
4.154632793160938919e-01
4.241839921971601313e-01
4.261752778394259922e-01
4.214599586194428538e-01
4.101149853636466003e-01
3.923297719573365372e-01
3.684079764372988341e-01
3.386970598222894813e-01
3.036810861182478449e-01
2.638798186728100181e-01
2.198999345222403257e-01
1.724169446409138662e-01
1.221354601986679445e-01
6.983268450735471977e-02
1.630058367018474841e-02
-3.763848178546964907e-02
-9.114351354015270967e-02
-1.433781516485361507e-01
-1.935160375170293934e-01
-2.407393121025124261e-01
-2.842874500167575369e-01
-3.234280653517734860e-01
-3.574913169050565331e-01
-3.859053895460952122e-01
-4.081339932833290551e-01
-4.237976646423681770e-01
-4.325772288852051672e-01
-4.342785422335170842e-01
-4.288599816592373326e-01
-4.163362528715127686e-01
-3.969271576355489772e-01
-3.709150251223931605e-01
-3.387226866244833490e-01
-3.009066176168583850e-01
-2.580741370944246715e-01
-2.109817211134752402e-01
-1.604215278686788038e-01
-1.072590930365866502e-01
-5.241431145681640924e-02
3.184310617551755485e-03
5.859007666039450779e-02
1.128580167662835976e-01
1.650879884364822026e-01
2.144060411799132426e-01
2.599906933527912356e-01
3.011195849811438841e-01
3.371011583995987548e-01
3.673869083775732070e-01
3.914933636163290265e-01
4.090383061774602869e-01
4.197878629272751017e-01
4.235535758040375742e-01
4.203278566457674947e-01
4.101677670368088502e-01
3.932486866436950557e-01
3.698811279566630583e-01
3.404217312843245691e-01
3.053836504812340036e-01
2.653246070483619157e-01
2.208974106404273385e-01
1.728395576342565687e-01
1.219188071232157888e-01
6.898592389371538403e-02
1.490962514687482754e-02
-3.941267406280912766e-02
-9.306371806481733566e-02
-1.451354047575207917e-01
-1.947416929799749563e-01
-2.410080744642968953e-01
-2.831370686409404036e-01
-3.203732870972697544e-01
-3.520346671117510207e-01
-3.775685200934408847e-01
-3.964630785230989218e-01
-4.083916902023972950e-01
-4.131067234437801328e-01
-4.104931734435717794e-01
-4.006179519254512988e-01
-3.836049390880160725e-01
-3.597964056363905927e-01
-3.296076783951290556e-01
-2.935858972349619234e-01
-2.524191692522224639e-01
-2.068381000098163947e-01
-1.577066258858987602e-01
-1.059226794626851043e-01
-5.243137049320262255e-02
1.782874891104443971e-03
5.574044084625478374e-02
1.084786885432026809e-01
1.590444218494704576e-01
2.065600267650847255e-01
2.501971882421262783e-01
2.891908480656648073e-01
3.229102891051423563e-01
3.507618968375437185e-01
3.723172727557378936e-01
3.872320451614371106e-01
3.952656980944449505e-01
3.963487801350992212e-01
3.904580489315572778e-01
3.777567085421403847e-01
3.584820599730894064e-01
3.329798249304842805e-01
3.017349275902272976e-01
2.652715447991024211e-01
2.242530274421513092e-01
1.793858679305460058e-01
1.314443011879503631e-01
8.127039882318690123e-02
2.972065555340006049e-02
-2.230861159963423712e-02
-7.391348728291244341e-02
-1.242059513518685432e-01
-1.723104418171700347e-01
-2.173814815381697185e-01
-2.586517095488395923e-01
-2.953776360660058109e-01
-3.269354185272875801e-01
-3.527742474056027588e-01
-3.724273150133923793e-01
-3.855943181073343551e-01
-3.920196102803511495e-01
-3.916390415127294911e-01
-3.844796052473573589e-01
-3.706810991818013656e-01
-3.505572222490619394e-01
-3.244660884068912288e-01
-2.929345571114110314e-01
-2.565517831551497596e-01
-2.159843154233378193e-01
-1.719917353838863738e-01
-1.253512550393068026e-01
-7.689197965777075372e-02
-2.745634284341097464e-02
2.212499564446224198e-02
7.103242219247349332e-02
1.184692456417926754e-01
1.637112635659506155e-01
2.060555296844170936e-01
2.448915225104839055e-01
2.796763353992173240e-01
3.099201454820526003e-01
3.352590336041599839e-01
3.553601279185682471e-01
3.700096801968127402e-01
3.790618650761916619e-01
3.824319794055932586e-01
3.801483054427317598e-01
3.722663569711388565e-01
3.589473444634815325e-01
3.403995117501572021e-01
3.168879417546451305e-01
2.887597408595130588e-01
2.563841221147241112e-01
2.202134289820415203e-01
1.807290661556922307e-01
1.384593041976825978e-01
9.398517789746839435e-02
4.790310846660045252e-02
8.594687305776629871e-04
-4.648601819605373275e-02
-9.345626543940280251e-02
-1.393589482858000606e-01
-1.835059235629877272e-01
-2.252231054563123558e-01
-2.638430481557852425e-01
-2.987488632612745887e-01
-3.293583729994811748e-01
-3.551354960450290865e-01
-3.756474658399823197e-01
-3.904912864023862840e-01
-3.994028737265718498e-01
-4.021925479077643750e-01
-3.987631276766714361e-01
-3.891779324345182034e-01
-3.735431467177430798e-01
-3.521406956499491536e-01
-3.253257818011204283e-01
-2.935486332709543178e-01
-2.573878993887028788e-01
-2.174524544110971180e-01
-1.744547183957173841e-01
-1.291398151711797837e-01
-8.227782114597270713e-02
-3.466511415155339171e-02
1.291020688307586289e-02
5.969516965299243721e-02
1.049493499106080446e-01
1.480060952581387923e-01
1.882594263162506443e-01
2.251509113285587449e-01
2.582492726262436422e-01
2.871557352390819995e-01
3.115928517050817748e-01
3.313609484521984894e-01
3.463184924145525923e-01
3.564445025726600824e-01
3.617449121764988451e-01
3.623209018893426836e-01
3.583211036917291481e-01
3.499325103857000019e-01
3.374042083564727790e-01
3.209976109467920224e-01
3.010142948261399498e-01
2.777712748856752678e-01
2.515977756828953193e-01
2.228384591563731809e-01
1.918406425703180762e-01
1.589592020867673372e-01
1.245513187136207400e-01
8.897769545497986876e-02
5.260251230745150580e-02
1.579198292700812606e-02
-2.108123511949216988e-02
-5.764277825265790023e-02
-9.351333991726698547e-02
-1.283098140193507652e-01
-1.616495411784474867e-01
-1.931512683844520684e-01
-2.224355286251519237e-01
-2.491392100861551939e-01
-2.729091146447565897e-01
-2.934126444652048749e-01
-3.103576535859698393e-01
-3.234657866253502490e-01
-3.325273997774467749e-01
-3.373653563363203101e-01
-3.378581391254366073e-01
-3.339688521649654129e-01
-3.256874848723447236e-01
-3.131152594292661018e-01
-2.963945511110696041e-01
-2.757400966648099749e-01
-2.514524054131817565e-01
-2.238578404097302799e-01
-1.933707849691084224e-01
-1.604307292968165100e-01
-1.255154764920738131e-01
-8.913824144027429619e-02
-5.181635027677888167e-02
-1.407594622543742457e-02
2.355689399949381646e-02
6.058059905360671515e-02
9.651130063216384336e-02
1.308882721292513041e-01
1.633055028803525599e-01
1.933716795471231431e-01
2.207591975673184326e-01
2.451762919806605434e-01
2.663669499174558530e-01
2.841403803313934939e-01
2.983216630816541981e-01
3.087978197622157084e-01
3.154830349540236889e-01
3.183242499137350912e-01
3.173150045098865890e-01
3.124618574144939487e-01
3.038205966376454903e-01
2.914642133316942552e-01
2.754997606493043705e-01
2.560720990810392284e-01
2.333422539705148901e-01
2.075267351687994921e-01
1.788582729828242512e-01
1.476174723743652328e-01
1.141263796275469034e-01
7.873010636720284561e-02
4.183764120991201318e-02
3.873671523128507932e-03
-3.468781809089965806e-02
-7.333960232833264259e-02
-1.115578975883995128e-01
-1.487832222510777069e-01
-1.844509954627178705e-01
-2.179944467324006208e-01
-2.488459541682964959e-01
-2.764611834500634857e-01
-3.003359161567745184e-01
-3.199843831489628254e-01
-3.350145405241723440e-01
-3.450737547655924331e-01
-3.498963886186072791e-01
-3.493328012755017031e-01
-3.432760421229639203e-01
-3.317862903564859911e-01
-3.149788620891919022e-01
-2.930867014165405848e-01
-2.664650075339464186e-01
-2.355123974955095623e-01
-2.007642100315429889e-01
-1.627908777737917534e-01
-1.222296301507967975e-01
-7.977180534374939125e-02
-3.611785759793051387e-02
8.011076994825283570e-03
5.189335878641132549e-02
9.484105508329643275e-02
1.361876697779159096e-01
1.753047058667602243e-01
2.116422856774031191e-01
2.446729564767697596e-01
2.739711875243415196e-01
2.991618224565716910e-01
3.199326164246819593e-01
3.360720101033080609e-01
3.473951557524985745e-01
3.538225297487316290e-01
3.553152825497133405e-01
3.518945006636895467e-01
3.436560551134013597e-01
3.307183014647087083e-01
3.132791330848364586e-01
2.915609581602272016e-01
2.658361101704502794e-01
2.364255099979005736e-01
2.036701706444969950e-01
1.679718859502578043e-01
1.297482600700264055e-01
8.946152355846775928e-02
4.760776946817357747e-02
4.701082987677893121e-03
-3.870081771961638578e-02
-8.203110681934877579e-02
-1.246996234549468119e-01
-1.661025111506045093e-01
-2.056379196704900547e-01
-2.427082450613455844e-01
-2.767222624008199294e-01
-3.071327083737364627e-01
-3.334131510548579702e-01
-3.550902674162724204e-01
-3.717704538218667976e-01
-3.830908997607112010e-01
-3.888228291379288715e-01
-3.887870926364425661e-01
-3.829134337872891480e-01
-3.712588519722451741e-01
-3.539284571474323737e-01
-3.311969645640828741e-01
-3.033887141722744207e-01
-2.709387525106830008e-01
-2.343830056520540273e-01
-1.942928501643940153e-01
-1.513387536122964283e-01
-1.062128269567435557e-01
-5.963867507966785775e-02
-1.236219514210773474e-02
3.488071010304211184e-02
8.137892223288414884e-02
1.264323994076566593e-01
1.694116228796603840e-01
2.097263483305676357e-01
2.468416350338035747e-01
2.803222884401974646e-01
3.097604991869497004e-01
3.348643613307485944e-01
3.553922021127453590e-01
3.711694341416974519e-01
3.821155748326301449e-01
3.881751106781724525e-01
3.893842858119798134e-01
3.858103847705551814e-01
3.775675548615875510e-01
3.648212172626208449e-01
3.477518445394801594e-01
3.265877523214184563e-01
3.015703721691258554e-01
2.729695420187675525e-01
2.410793394851133975e-01
2.062067879101980306e-01
1.686941656453569416e-01
1.288930519180746526e-01
8.719066615577297785e-02
4.399795929031735664e-02
-2.534121821799462104e-04
-4.508706534090187179e-02
-9.001591303388126186e-02
-1.345119357300291751e-01
-1.780259711639508580e-01
-2.199948896163821943e-01
-2.598321529028530530e-01
-2.969504495604502470e-01
-3.307719892414573426e-01
-3.607236600272667459e-01
-3.862702611084490867e-01
-4.069264581802639613e-01
-4.222352046466772979e-01
-4.318576517716540275e-01
-4.354949412977373591e-01
-4.329670307923385586e-01
-4.242156182701353195e-01
-4.092416789335835414e-01
-3.882378160409352130e-01
-3.614485338073056830e-01
-3.292640417519864249e-01
-2.921909498965997720e-01
-2.507897120976734229e-01
-2.057570241776150999e-01
-1.578179623679262233e-01
-1.077602019530691790e-01
-5.641019937210151047e-02
-4.592630346961529275e-03
4.687267956342222597e-02
9.717525524160094963e-02
1.455742810521883923e-01
1.913632760907306163e-01
2.339035811441149693e-01
2.726637260906099036e-01
3.071459798795084239e-01
3.369951506188920698e-01
3.619106312078217424e-01
3.816832189908661022e-01
3.962161555130107038e-01
4.054466716776865542e-01
4.094311217449597695e-01
4.082616040331226159e-01
4.020939482337795301e-01
3.911451257991475083e-01
3.756510343008464536e-01
3.559020145215510134e-01
3.322013839102018751e-01
3.048773158969276809e-01
2.742765690362224951e-01
2.407531208999926231e-01
2.046779105675455845e-01
1.664258940495876027e-01
1.263861844320049166e-01
8.495617844390858375e-02
4.254334582078411753e-02
-4.257212247706365638e-04
-4.351904687223495660e-02
-8.628103708578241382e-02
-1.282453718830895983e-01
-1.689343970100736225e-01
-2.078537319500914915e-01
-2.445077213849272679e-01
-2.784011341732268718e-01
-3.090396769243889397e-01
-3.359529859435622656e-01
-3.586982745345501655e-01
-3.768541343727987991e-01
-3.900801422558282106e-01
-3.980614931274994994e-01
-4.005782547263829207e-01
-3.974957308276942936e-01
-3.887327243836560808e-01
-3.743629631563575866e-01
-3.545003916037169356e-01
-3.293964945016211177e-01
-2.993990894357282384e-01
-2.649162541268912374e-01
-2.264919520448390178e-01
-1.846987905492759319e-01
-1.401955002225739877e-01
-9.368755445308224461e-02
-4.589734220005881049e-02
2.423288688798680424e-03
5.052359850143099684e-02
9.768105057239978573e-02
1.431858448409936979e-01
1.863754091454523087e-01
2.266525799902812111e-01
2.634465143705989054e-01
2.962948007724250377e-01
3.247722653956274241e-01
3.485370760349011388e-01
3.673373010031633634e-01
3.809564238008955050e-01
3.892949946079873325e-01
3.922860271392469289e-01
3.899446964716463127e-01
3.823552885749550434e-01
3.696357454256662955e-01
3.519938381452393794e-01
3.296589964392755423e-01
3.029287167069854569e-01
2.721451319213166187e-01
2.376815072096544745e-01
1.999770503838423363e-01
1.594862792771237214e-01
1.167202753605965926e-01
7.221900090269277317e-02
2.654817915757638758e-02
-1.968376890715365507e-02
-6.586023749046238107e-02
-1.113388389014845076e-01
-1.554673498297001188e-01
-1.975977824128581084e-01
-2.370876686843665371e-01
-2.733057199837921614e-01
-3.056711442189970485e-01
-3.336209266819521457e-01
-3.566634029467676270e-01
-3.743789788884467895e-01
-3.863925588813795775e-01
-3.924739279187746677e-01
-3.924337518259459756e-01
-3.862240112290870053e-01
-3.739080078718409750e-01
-3.556192837240353954e-01
-3.316695710138599096e-01
-3.024127847965063509e-01
-2.683432345434598187e-01
-2.300413271836971862e-01
-1.881393061525566957e-01
-1.433718796793821693e-01
-9.649150630872754819e-02
-4.829264828158587319e-02
4.106738199472284578e-04
4.881671773283857013e-02
9.614310180353807800e-02
1.416224559551075013e-01
1.845644906102290594e-01
2.243088204446098410e-01
2.602708127492934786e-01
2.919577254296725211e-01
3.189136233511585816e-01
3.408179672231548829e-01
3.573917068552583953e-01
3.684570631944223407e-01
3.739320375653705231e-01
3.737769801446060303e-01
3.680778096166395508e-01
3.569523345323720176e-01
3.406079117511040533e-01
3.193179284958250208e-01
2.933920734682569087e-01
2.632257581756670128e-01
2.292336272692756527e-01
1.918921925557232344e-01
1.517134787355319536e-01
1.092338499688416120e-01
6.503486620278658981e-02
1.970686114051304130e-02
-2.613277508250722025e-02
-7.185475039295505240e-02
-1.168275986533388600e-01
-1.604167521070855584e-01
-2.019923105612859149e-01
-2.409506746038437563e-01
-2.766984493299228243e-01
-3.086844326489261991e-01
-3.364053468049406082e-01
-3.593859422258449121e-01
-3.772530407784400186e-01
-3.896647133432838417e-01
-3.963843401879985628e-01
-3.972685708601282339e-01
-3.922302686080850753e-01
-3.813423614909062231e-01
-3.647187756011994741e-01
-3.426120602033734808e-01
-3.153704722028662366e-01
-2.834025952103945700e-01
-2.472511552979608229e-01
-2.074870871988327981e-01
-1.647671643080697579e-01
-1.197940758466041478e-01
-7.328814257745758232e-02
-2.600002497595253759e-02
2.132048204201059463e-02
6.794990633961439652e-02
1.131765936779726422e-01
1.563358065140334763e-01
1.968268571454520055e-01
2.340756376200627820e-01
2.676169519957398713e-01
2.970225777491324326e-01
3.219488866401881699e-01
3.421422072450368002e-01
3.573845363521632734e-01
3.675743621958784679e-01
3.726420410382341175e-01
3.725980806815208934e-01
3.675194508782287373e-01
3.575150895826484376e-01
3.427780091748224844e-01
3.235212209559008567e-01
3.000199120883045301e-01
2.725894603677011530e-01
2.415733033208943004e-01
2.073734692851004757e-01
1.704056037881548913e-01
1.311359519747790636e-01
9.005623889886947564e-02
4.768222613986676517e-02
4.568966990013037521e-03
-3.872035890949027115e-02
-8.159515337561465409e-02
-1.234543828141060062e-01
-1.636960953919226469e-01
-2.017171911719999322e-01
-2.369223573383288373e-01
-2.687523999187134693e-01
-2.966610493408666782e-01
-3.201604318344113964e-01
-3.388208220248899449e-01
-3.522511277303900235e-01
-3.601849013749742756e-01
-3.623909700375042009e-01
-3.587654478982698625e-01
-3.493033030019784269e-01
-3.340654912055633363e-01
-3.132783732143374356e-01
-2.872079749122172232e-01
-2.562583807652643597e-01
-2.209171638692112860e-01
-1.817278802291057427e-01
-1.393434541133877214e-01
-9.443741444799005902e-02
-4.774188884979086583e-02
-1.615722343997760824e-05
4.798017821204686451e-02
9.548724723002499637e-02
1.417547795906080599e-01
1.860872246893907067e-01
2.278103005423163518e-01
2.663132822762130925e-01
3.010614507144186991e-01
3.315529433639121670e-01
3.574067678134092430e-01
3.782787955265501378e-01
3.939204045733950554e-01
4.041720201738897567e-01
4.089159774531113123e-01
4.081578978970958893e-01
4.019348467933914204e-01
3.903774570041406711e-01
3.736843814566333521e-01
3.520947336340983225e-01
3.259421353437101376e-01
2.955818043937506467e-01
2.614420661066479967e-01
2.239926292770934857e-01
1.837341132963123402e-01
1.412238026554332726e-01
9.703052549827129170e-02
5.176110926690910552e-02
6.038922384513339958e-03
-3.950572157788274918e-02
-8.423260523671882716e-02
-1.275051399840676503e-01
-1.687098871287919244e-01
-2.072425436820979350e-01
-2.425427844434121794e-01
-2.740995266454789858e-01
-3.014317232273207026e-01
-3.241666212463348851e-01
-3.419643310553506232e-01
-3.545968762903468630e-01
-3.619339930388008608e-01
-3.639046287749881925e-01
-3.606039800752908753e-01
-3.521693576446141560e-01
-3.388797714522454596e-01
-3.211106593180659274e-01
-2.992967568680398593e-01
-2.740026860544638176e-01
-2.458190076771833710e-01
-2.154084436209788844e-01
-1.834715977360500960e-01
-1.507111504067880636e-01
-1.178328083267152770e-01
-8.553177655757371323e-02
-5.443262053305586434e-02
-2.512960041892819962e-02
1.864132176356614323e-03
2.614453161446461671e-02
4.734841904498221510e-02
6.527438594092105362e-02
7.977463822209895916e-02
9.081123728947559925e-02
9.846140420996873921e-02
1.028398461225379368e-01
1.041785473457990108e-01
1.027390021558226563e-01
9.882673144350118122e-02
9.278321556559276928e-02
8.494649981479279743e-02
7.564223404805973938e-02
6.518859915582148057e-02
5.384299701378547631e-02
4.182399392021807216e-02
2.930490946261321561e-02
1.636505604107685308e-02
3.061252539588554811e-03
-1.063645177714223067e-02
-2.480085624368966180e-02
-3.953090324441399517e-02
-5.496749542502321617e-02
-7.125122777477921332e-02
-8.849763111348618594e-02
-1.068109741869811558e-01
-1.262267061171256088e-01
-1.466935903700323784e-01
-1.681160281746376661e-01
-1.902229452598818149e-01
-2.126871015732882952e-01
-2.350339015644133944e-01
-2.566441073440755005e-01
-2.768416990367712494e-01
-2.947785478696194339e-01
-3.095655945257078656e-01
-3.202479453283735289e-01
-3.258204271117286499e-01
-3.252986677163743900e-01
-3.177549839554030253e-01
-3.022892269409641619e-01
-2.781941210085074889e-01
-2.448780936755661219e-01
-2.019205636079048904e-01
-1.492338711782554839e-01
-8.682592697343416432e-02
-1.513305507629558733e-02
6.520826737522300576e-02
1.532951578745245236e-01
2.478220942982098940e-01
3.473798130677021589e-01
4.501670421036036984e-01
5.542412771854370312e-01
6.575004278339311448e-01
7.576543783463356441e-01
8.523972454837900337e-01
9.394023937918758449e-01
1.016346462488307179e+00
1.081078906060204847e+00
1.131608051537102089e+00
1.166095443217304517e+00
1.183166667754558699e+00
1.181578426574189988e+00
1.160624183962502221e+00
1.119982286006728556e+00
1.059630090262085877e+00
9.802396264697185169e-01
8.826493323458725060e-01
7.683149313685544435e-01
6.390365974429419449e-01
4.968787835967110045e-01
3.443837399920737785e-01
1.841836535837650946e-01
1.918077985693966703e-02
-1.476079048035803254e-01
-3.131678645445199471e-01
-4.744886215243804273e-01
-6.286140119356786737e-01
-7.728674624483944378e-01
-9.046750689147695645e-01
-1.021807826895480886e+00
-1.122417411890666905e+00
-1.204840362895962302e+00
-1.268054778717565778e+00
-1.311223871088943671e+00
-1.334034149586280193e+00
-1.336622494640260728e+00
-1.319348246750923437e+00
-1.283178499637972703e+00
-1.229223968569230552e+00
-1.158999552457768978e+00
-1.074291061871271769e+00
-9.770075141810201647e-01
-8.693211099664107655e-01
-7.534460864572285477e-01
-6.316537466959148972e-01
-5.062439977888040232e-01
-3.794460989891940694e-01
-2.533679568300566398e-01
-1.300623204332073124e-01
-1.130396322307380963e-02
1.012479035925240023e-01
2.061628947644568166e-01
3.023139429665051559e-01
3.886752775235597923e-01
4.646065711118716468e-01
5.295928744911004848e-01
5.833625698647735280e-01
6.258954985888205425e-01
6.572560071288426897e-01
6.777709618762397525e-01
6.878346202585110536e-01
6.879747364455626180e-01
6.788266059435370536e-01
6.610580162548095329e-01
6.354167754517939803e-01
6.026656346334667846e-01
5.635837921313187060e-01
5.189606845621708153e-01
4.695788205734018894e-01
4.162060111113850547e-01
3.596052676364037692e-01
3.005156941109482505e-01
2.396646992448048241e-01
1.777684832369152979e-01
1.155254388479468042e-01
5.363024936988236568e-02
-7.234948841803756636e-03
-6.639290680513965093e-02
-1.231759396372155702e-01
-1.769282310264972957e-01
-2.270025548628775702e-01
-2.727865756677293474e-01
-3.136801326349133445e-01
-3.491369494110898586e-01
-3.786628948904238179e-01
-4.018027983630286792e-01
-4.182244721501874318e-01
-4.276309376581383104e-01
-4.298638551967360888e-01
-4.248695378796411015e-01
-4.126722668771278246e-01
-3.934869502965583354e-01
-3.675749858891771971e-01
-3.353693154682805266e-01
-2.974037134125077642e-01
-2.542866923515320621e-01
-2.067689385602459184e-01
-1.556288003080104898e-01
-1.017291302831086763e-01
-4.597086025537625020e-02
1.073886359392517420e-02
6.748387498038527221e-02
1.233587440373634936e-01
1.775211339683685774e-01
2.291528763914897626e-01
2.775154908508925544e-01
3.219631037605958923e-01
3.618912341004161259e-01
3.968445093234844179e-01
4.264118425336402840e-01
4.502962056564375759e-01
4.683039166664163533e-01
4.802876059582411594e-01
4.862318733468934395e-01
4.861534980380934901e-01
4.801572148124926276e-01
4.684098724263165980e-01
4.511108822646154870e-01
4.285332202429220638e-01
4.009658408899104964e-01
3.687482276249692825e-01
3.322476681784283237e-01
2.918542772550222764e-01
2.479988898846759993e-01
2.011227449312846804e-01
1.517089841878392908e-01
1.002588735986427171e-01
4.730093893100822955e-02
-6.598262593906445428e-03
-6.086105021177622143e-02
-1.148675282463731545e-01
-1.679837353731321314e-01
-2.195578350868279127e-01
-2.689185455605587749e-01
-3.153958010454683825e-01
-3.583279235392821671e-01
-3.970578414892523833e-01
-4.309737627892473721e-01
-4.595023327814927727e-01
-4.821107745561892255e-01
-4.983796159620329513e-01
-5.079215408984879554e-01
-5.104916002704051881e-01
-5.059391242897425256e-01
-4.942003802007151059e-01
-4.753985469776939032e-01
-4.497030706051602378e-01
-4.174678885946860873e-01
-3.791420338278380653e-01
-3.352645019108148050e-01
-2.865247596172555422e-01
-2.336442010705118699e-01
-1.774544417480925784e-01
-1.188307065345066416e-01
-5.867546300902298090e-02
2.073312358247489731e-03
6.248062659368315563e-02
1.216368726392551280e-01
1.786424149725032440e-01
2.326569261544791656e-01
2.829005020941519621e-01
3.286308910602819822e-01
3.692295836957868449e-01
4.041129454794851750e-01
4.328147647076684423e-01
4.549621272994794352e-01
4.702411543409487082e-01
4.784890486376728314e-01
4.795801770654279927e-01
4.735218541719524166e-01
4.604037504187226681e-01
4.403816004999707157e-01
4.137436604511759985e-01
3.808097283781274323e-01
3.420209623243588570e-01
2.978771362664355271e-01
2.489409684931359612e-01
1.958738276353431396e-01
1.393612498886954154e-01
8.017925701087288970e-02
1.913779258875882711e-02
-4.291365185152985068e-02
-1.050772285012106649e-01
-1.664482139177545228e-01
-2.261047229271875014e-01
-2.831215573196365076e-01
-3.366026278830157592e-01
-3.856796184529638905e-01
-4.295168266291444215e-01
-4.673820712193847982e-01
-4.985740745780278815e-01
-5.225287836125530605e-01
-5.387842883043960640e-01
-5.469652478591723321e-01
-5.469057502829650641e-01
-5.384933751919309675e-01
-5.218303279928124816e-01
-4.971433239606455889e-01
-4.647704458816576123e-01
-4.252592133360786897e-01
-3.792043608894347106e-01
-3.273731974618561136e-01
-2.706105677947003851e-01
-2.098237351993332556e-01
-1.460114297194443356e-01
-8.018393722532543566e-02
-1.337435279675589297e-02
5.337781329796380259e-02
1.190705380042264838e-01
1.827447586850091676e-01
2.434726218683960497e-01
3.004432068074535112e-01
3.528813605955736787e-01
4.001282084576481823e-01
4.416287428669956050e-01
4.768850537091872122e-01
5.055622408520656919e-01
5.273665956090982654e-01
5.421361308692230763e-01
5.498005909122863910e-01
5.503478013319716977e-01
5.438958672597268285e-01
5.305924519049235455e-01
5.106875862799898913e-01
4.844868257659105670e-01
4.523420086125969908e-01
4.146863778164773806e-01
3.719720602742990767e-01
3.247217152657216888e-01
2.734878753304641474e-01
2.188594536367042265e-01
1.614753727895744673e-01
1.019878597485818217e-01
4.109750073808208365e-02
-2.047913864231021633e-02
-8.200260617025409426e-02
-1.427089047397257782e-01
-2.018308542179016452e-01
-2.585938492921215914e-01
-3.122230077960595485e-01
-3.619683756857162149e-01
-4.071008701126235252e-01
-4.469211746732126844e-01
-4.808124846922158246e-01
-5.081828860604149511e-01
-5.285622642984642017e-01
-5.415600809558855921e-01
-5.468707379630494136e-01
-5.443690723030590872e-01
-5.339775647579241280e-01
-5.158222486703498699e-01
-4.901327988661420276e-01
-4.572540000457595566e-01
-4.177206553995285732e-01
-3.721129508954892362e-01
-3.211815252602098769e-01
-2.657440896754914017e-01
-2.066847049000238301e-01
-1.449728052986145044e-01
-8.158809444083472973e-02
-1.753174843432903085e-02
4.619069554597597660e-02
1.086168616822348609e-01
1.688277249993408169e-01
2.259416869935792493e-01
2.792009407258624343e-01
3.278830978524434059e-01
3.713956876639803451e-01
4.092480023408428536e-01
4.410155394052351352e-01
4.664410099401047338e-01
4.853073945589134741e-01
4.975377357685392132e-01
5.031405501388896973e-01
5.021864473279540331e-01
4.948685840152428073e-01
4.814067755231499213e-01
4.621136825943177318e-01
4.373459941243804661e-01
4.074977608233952830e-01
3.730206748145310502e-01
3.343784902528262881e-01
2.920756907060708119e-01
2.466317680919503652e-01
1.985825630824638588e-01
1.484836219879290820e-01
9.689531857509370294e-02
4.439373258943538070e-02
-8.440544625718499061e-03
-6.102093063885788427e-02
-1.127552101322137207e-01
-1.630521975944834168e-01
-2.113247434181351470e-01
-2.569880185646828963e-01
-2.994781152197339424e-01
-3.382465062366942776e-01
-3.727673903818710111e-01
-4.025697864813597149e-01
-4.271996871810597729e-01
-4.462887801730214266e-01
-4.595179572760812459e-01
-4.666337371257398559e-01
-4.675048103528127719e-01
-4.620348627652460793e-01
-4.502816253877582886e-01
-4.323718684533005563e-01
-4.085302098135755733e-01
-3.791229458548756037e-01
-3.445546935228783192e-01
-3.053746209415156287e-01
-2.621820468344166488e-01
-2.156427224724343228e-01
-1.664974000844882673e-01
-1.154995876026147505e-01
-6.343761387104901450e-02
-1.110724835710617808e-02
4.071857246522183477e-02
9.128703014825975681e-02
1.398731468402237832e-01
1.858334375256170956e-01
2.285473658014745557e-01
2.674918774258598919e-01
3.022108866745257250e-01
3.323025354600878667e-01
3.574857066251642679e-01
3.775082945822508806e-01
3.922285560684992123e-01
4.015637964897592060e-01
4.054850139443874069e-01
4.040563890784715784e-01
3.973638363266144835e-01
3.855745908678607226e-01
3.688898261839965720e-01
3.475518687316023203e-01
3.218588114207781015e-01
2.921242361010307209e-01
2.587183975790194879e-01
2.220303677141907128e-01
1.824848950705925676e-01
1.405444492471749074e-01
9.668573522960746680e-02
5.143138651900720781e-02
5.316383038291107310e-03
-4.109543550413643359e-02
-8.721644082185023295e-02
-1.324517861894188853e-01
-1.761884764720123842e-01
-2.178112483905655927e-01
-2.567148456377660870e-01
-2.923005542807592949e-01
-3.239932144451806439e-01
-3.512675113302404784e-01
-3.736158224893637581e-01
-3.906242051749007071e-01
-4.019261003445046554e-01
-4.072330733302911843e-01
-4.063840785819393120e-01
-3.992576782806905866e-01
-3.859022538745303099e-01
-3.664333155584487689e-01
-3.410794351793501877e-01
-3.102127187497841776e-01
-2.742486462553398452e-01
-2.337583018070106267e-01
-1.893606235328184062e-01
-1.417533527868767018e-01
-9.171224666881162835e-02
-4.003033517824942933e-02
1.245156005764925383e-02
6.488322632396217871e-02
1.164270698247065194e-01
1.662552847559278235e-01
2.135671580707043660e-01
2.576315580363890412e-01
2.977380690962662113e-01
3.332770726575744469e-01
3.636997537092212518e-01
3.885240862255762151e-01
4.073988189596204901e-01
4.200072941384105363e-01
4.261791892778340474e-01
4.258130915633907554e-01
4.188964016074183672e-01
4.055518956836000610e-01
3.859399025909472369e-01
3.603682110708998909e-01
3.291990360447359931e-01
2.928816138636282096e-01
2.519686194095928089e-01
2.070436113227512864e-01
1.587952836692573533e-01
1.079426323334240212e-01
5.525510456440890783e-02
1.548913543669205861e-03
-5.235137497825337327e-02
-1.056002462808236508e-01
-1.573499887450550139e-01
-2.067795260802857138e-01
-2.530871110440673366e-01
-2.955063863030469307e-01
-3.333553343201685060e-01
-3.659774126462362887e-01
-3.928413962054140285e-01
-4.134869337644606624e-01
-4.275418187992459096e-01
-4.347954636119331084e-01
-4.350814117945291937e-01
-4.284205528739735147e-01
-4.149164114210810439e-01
-3.947835618755795029e-01
-3.683950592223023124e-01
-3.361657205770951506e-01
-2.986649385195873085e-01
-2.565149698437609316e-01
-2.104086420534163893e-01
-1.611173268556375660e-01
-1.094271485928838827e-01
-5.616595813874331045e-02
-2.171064219498808345e-03
5.173411361144858445e-02
1.047382255120153927e-01
1.560523490246150669e-01
2.049526150703941951e-01
2.507338084363308628e-01
2.927735934053679046e-01
3.305057783873989186e-01
3.634134324316233844e-01
3.910879227605257302e-01
4.131478997239813600e-01
4.293226587832726926e-01
4.393999730704820639e-01
4.432314278231058724e-01
4.407779513951481931e-01
4.320296388823540168e-01
4.170955222071747182e-01
3.961339165294098796e-01
3.693777697980348829e-01
3.371597737292282293e-01
2.998435423013521284e-01
2.579087056330441885e-01
2.118729184163307966e-01
1.623268987848541511e-01
1.099375189067791497e-01
5.539711681663599813e-02
-5.223322791388096409e-04
-5.702871491834682338e-02
-1.132967271265641340e-01
-1.684741119295653511e-01
-2.217112265854932485e-01
-2.721677423924604988e-01
-3.190103582422916251e-01
-3.614671656758460805e-01
-3.988053520238770133e-01
-4.303522226557661146e-01
-4.555596663533257318e-01
-4.739165187681330105e-01
-4.850847280973407671e-01
-4.888122120498999967e-01
-4.849649561365428907e-01
-4.735985425140926686e-01
-4.548212875190520976e-01
-4.289547240015759155e-01
-3.964029002403724466e-01
-3.576892689875425524e-01
-3.134866918720577433e-01
-2.645062240142606602e-01
-2.115879631869409527e-01
-1.556100357265612355e-01
-9.749095165764909421e-02
-3.818863090404233523e-02
2.134304726052058121e-02
8.016935910220011896e-02
1.373641712963331596e-01
1.920682420547957792e-01
2.434732847766576946e-01
2.908203192200845000e-01
3.334729449750915564e-01
3.708269865524876918e-01
4.024118497798861438e-01
4.278362786541120566e-01
4.467843240650984926e-01
4.590850864618267191e-01
4.646035927670469912e-01
4.633483425047325022e-01
4.553942935726822405e-01
4.408947304970174397e-01
4.201205835870176486e-01
3.933735964306652177e-01
3.610725075403419249e-01
3.236785051723882201e-01
2.817172684072004607e-01
2.357900439709077756e-01
1.865201142860607453e-01
1.346045395270553391e-01
8.076130803994580054e-02
2.574261745790351608e-02
-2.966807555605457947e-02
-8.468294717791433057e-02
-1.385041006116809470e-01
-1.903337688524359139e-01
-2.394020820056864673e-01
-2.849591238455312925e-01
-3.262888968938161272e-01
-3.627549512321593950e-01
-3.937450645959429396e-01
-4.187668153008008431e-01
-4.373946116655742511e-01
-4.492895920532881116e-01
-4.542696795384584263e-01
-4.521965829332547093e-01
-4.431195153554139399e-01
-4.271693014567767843e-01
-4.045908030863630822e-01
-3.757893269082082099e-01
-3.412131013263376422e-01
-3.014688636600090788e-01
-2.572167608484113299e-01
-2.091880583416810824e-01
-1.581920537190859843e-01
-1.050511803725644039e-01
-5.062315690293525683e-02
4.227148954123190194e-03
5.865881762025128288e-02
1.118514398566233525e-01
1.630134083249696053e-01
2.114349043403316863e-01
2.564290183018671510e-01
2.974073943966657474e-01
3.338474828257962934e-01
3.652830109538465764e-01
3.913695736606686015e-01
4.117926873171801061e-01
4.263558630540733585e-01
4.349240306903003894e-01
4.374253260871152627e-01
4.338945915900568329e-01
4.243937850798801259e-01
4.090916341302326953e-01
3.882003862155288809e-01
3.619947414216156956e-01
3.308316717645696237e-01
2.950930354386253063e-01
2.552524421326597404e-01
2.118131404714725108e-01
1.653350236539467277e-01
1.164361877107337601e-01
6.575406527588142924e-02
1.398575343473961591e-02
-3.815687809057538571e-02
-8.993912194803110882e-02
-1.406079948226570120e-01
-1.894148932454818857e-01
-2.356244287351970668e-01
-2.785084529870170411e-01
-3.173944494570599684e-01
-3.516448270036771628e-01
-3.806748454095216228e-01
-4.040076612854210381e-01
-4.211985681882995936e-01
-4.319531502996463712e-01
-4.360506073410204131e-01
-4.333738680611861627e-01
-4.239700657574157483e-01
-4.079326689968454378e-01
-3.855423304056952438e-01
-3.571511789373247869e-01
-3.232174437786285992e-01
-2.843302358003868546e-01
-2.411127675724498154e-01
-1.943030928984655903e-01
-1.446727189633172372e-01
-9.303107252038297914e-02
-4.022406018572978470e-02
1.290439801705949713e-02
6.552187716898547065e-02
1.168020186467784438e-01
1.659714156185668199e-01
2.122964324181260687e-01
2.550839274030101134e-01
2.937400755425787491e-01
3.276973977148488482e-01
3.564996740719050816e-01
3.797558467291306528e-01
3.971396887196058101e-01
4.084481260370221856e-01
4.135094884570498230e-01
4.122803216929314951e-01
4.047758286663830640e-01
3.910868190647786014e-01
3.714160855558511498e-01
3.459981179770728055e-01
3.151908589769183422e-01
2.793967039072958736e-01
2.390943557458313773e-01
1.948506691774163913e-01
1.472609360757796138e-01
9.701676041943935180e-02
4.483703019144424928e-02
-8.508621228386775703e-03
-6.220484918579280431e-02
-1.154266662559410017e-01
-1.673244202581034568e-01
-2.170456380840544708e-01
-2.637627781125330140e-01
-3.066659136013897835e-01
-3.449832844879295868e-01
-3.780315354386013516e-01
-4.051550496392529732e-01
-4.258384859324818583e-01
-4.396436766053800627e-01
-4.462354081511490378e-01
-4.454619329176050524e-01
-4.372227194449223031e-01
-4.216351897278582950e-01
-3.989102458581299526e-01
-3.693883725134055052e-01
-3.335897738057933548e-01
-2.920817207537517168e-01
-2.456024067627724516e-01
-1.949466212430742695e-01
-1.409806389711554253e-01
-8.464805653443618905e-02
-2.690281409072525776e-02
3.127653785357314975e-02
8.890785954496700783e-02
1.450477342420956606e-01
1.987854344739234114e-01
2.492486263738953878e-01
2.956718671096263407e-01
3.373193453695653155e-01
3.735816419192268256e-01
4.039325417078575287e-01
4.279190887858607129e-01
4.452447732808617609e-01
4.556519532172392806e-01
4.590387447247493702e-01
4.553832163622955065e-01
4.447489349721609475e-01
4.273417896520980142e-01
4.034039284205012121e-01
3.733197275000056381e-01
3.375306112843647899e-01
2.965564520486170252e-01
2.510189912277500657e-01
2.015676345429773808e-01
1.489494679551926493e-01
9.394202818857888548e-02
3.736669364420902584e-02
-1.991075032984854221e-02
-7.701819711476370900e-02
-1.330682492796240457e-01
-1.871721580505363858e-01
-2.384724067102585443e-01
-2.861361900919812684e-01
-3.293672657024017680e-01
-3.674648145828040557e-01
-3.997561721451035055e-01
-4.257039145947121295e-01
-4.448540871555562992e-01
-4.568444418270687368e-01
-4.614965370892915031e-01
-4.586802623048989447e-01
-4.484698450598113562e-01
-4.310377901671686440e-01
-4.066716191156003468e-01
-3.758381661275248531e-01
-3.390478667005192293e-01
-2.969733438480518517e-01
-2.503475067906554274e-01
-1.999684536765412579e-01
-1.467135305906824283e-01
-9.147085516105218916e-02
-3.515451734878795309e-02
2.131588994774873125e-02
7.705317466696948170e-02
1.312008814385738908e-01
1.829335186746575137e-01
2.315227157231032340e-01
2.762674804094782943e-01
3.165736159278204620e-01
3.519259377615333029e-01
3.818662314142823866e-01
4.060726161238554788e-01
4.242563139252480964e-01
4.362515636002123887e-01
4.419635403909775162e-01
4.413589124465648328e-01
4.345192776976760096e-01
4.215537855361374819e-01
4.026781828625518034e-01
3.781562010406655516e-01
3.483092978001686713e-01
3.135431930241628917e-01
2.742864931913667204e-01
2.310547171352959617e-01
1.843941375004066185e-01
1.349011243367473911e-01
8.322909863665362007e-02
3.004825603739730289e-02
-2.391615919651549071e-02
-7.792402387981624268e-02
-1.312159936362831125e-01
-1.830156612100735658e-01
-2.325514884605335009e-01
-2.790684885842737994e-01
-3.218193492384989196e-01
-3.601149044910347818e-01
-3.933063595852096528e-01
-4.207974101841133741e-01
-4.421107686367048983e-01
-4.568032384452913042e-01
-4.645900594765428604e-01
-4.652722865739880587e-01
-4.587554770592910947e-01
-4.451286023084231602e-01
-4.245292353156314702e-01
-3.972941304658970663e-01
-3.638440317090586573e-01
-3.247071035932118654e-01
-2.805583485890700279e-01
-2.321075952158916100e-01
-1.801850888466872691e-01
-1.256597408792975989e-01
-6.943403619762460177e-02
-1.244625553777522695e-02
4.437067758076029822e-02
1.001103439121684424e-01
1.538766833862585948e-01
2.048439616440554945e-01
2.522449499896939895e-01
2.953607535428222075e-01
3.336035359072600515e-01
3.664199421617894692e-01
3.933915165049252094e-01
4.141873169155574352e-01
4.285487041267753705e-01
4.363690208137329662e-01
4.375782836820792943e-01
4.322489669275784152e-01
4.205255666028370753e-01
4.026259471582449567e-01
3.788883193958039186e-01
3.496800788405720062e-01
3.154791087204656397e-01
2.768068086042168030e-01
2.342385898990690940e-01
1.884189957577475372e-01
1.400089402736395261e-01
8.972392364728386249e-02
3.829578893094467973e-02
-1.352926414680402645e-02
-6.499070168450382656e-02
-1.153327357914945561e-01
-1.638181597834948433e-01
-2.097169753887339616e-01
-2.523476787220984008e-01
-2.910665629066110371e-01
-3.252687950613296630e-01
-3.544486739386889518e-01
-3.781280071087093075e-01
-3.959508209375999233e-01
-4.076354687140906208e-01
-4.129773538013702394e-01
-4.119239558782820110e-01
-4.044618389642712364e-01
-3.907392335826462837e-01
-3.709809796482598232e-01
-3.455000933256364704e-01
-3.147450892133463185e-01
-2.791969026323737890e-01
-2.394552988105929092e-01
-1.961635031754144221e-01
-1.500099624624493533e-01
-1.017373175470036029e-01
-5.209432149591522454e-02
-1.842154579694582628e-03
4.825608501575510967e-02
9.746591561893881706e-02
1.450796170198943580e-01
1.904141119515002922e-01
2.328621724527235315e-01
2.718377390483887601e-01
3.068369743577177844e-01
3.374160136362548412e-01
3.631759638540394963e-01
3.838241370833028743e-01
3.990941549227453033e-01
4.088214474815740629e-01
4.128993574909183284e-01
4.112764860653270182e-01
4.040033599717749446e-01
3.911561701797876545e-01
3.729142235436666009e-01
3.495026672378230836e-01
3.212063702112181174e-01
2.883961591728570473e-01
2.514669067842385530e-01
2.109051010470422982e-01
1.672291917407502382e-01
1.210098893014222021e-01
7.287657460430002621e-02
2.347508352811089605e-02
-2.649591810651796830e-02
-7.632394802237182918e-02
-1.252830033255779574e-01
-1.726352539805134367e-01
-2.176516125462734097e-01
-2.596302524626037389e-01
-2.978797609065015894e-01
-3.317757531333374588e-01
-3.607397085814320614e-01
-3.842484877931169884e-01
-4.019025257154127950e-01
-4.133367837020203717e-01
-4.183426262768160653e-01
-4.167948970234514050e-01
-4.086677538101525231e-01
-3.941071272309688567e-01
-3.733035612924487379e-01
-3.466271857266545187e-01
-3.145226844009901823e-01
-2.775269462993081859e-01
-2.363011013648244063e-01
-1.915342384751250737e-01
-1.440092005125394037e-01
-9.453821833139275377e-02
-4.395271769565078923e-02
6.895701863573355794e-03
5.716437093481219200e-02
1.060469311464200537e-01
1.527495433822674276e-01
1.965472978082960509e-01
2.367718139894882112e-01
2.727994865702743077e-01
3.041261475233150158e-01
3.302787933194619718e-01
3.509059653337835982e-01
3.657339401248111965e-01
3.745547710520966689e-01
3.772968533983576123e-01
3.739218510112497507e-01
3.645225246598953195e-01
3.492570112371533586e-01
3.283537091693506937e-01
3.021546664011068861e-01
2.710305325376231034e-01
2.354620914039438628e-01
1.959729821740044398e-01
1.531439523162084204e-01
1.076278156895212335e-01
6.009514405987376184e-02
1.127608297999049825e-02
-3.808167307050613903e-02
-8.721535427867477264e-02
-1.353473531355396386e-01
-1.817069382732015015e-01
-2.255489311508547812e-01
-2.661377413358838040e-01
-3.027995475407632697e-01
-3.349079908632646152e-01
-3.618850853036759685e-01
-3.832743455855547321e-01
-3.986525601460910728e-01
-4.077423015794414685e-01
-4.103535228841350690e-01
-4.063847196106102344e-01
-3.959065720032007296e-01
-3.790328257978056725e-01
-3.560508621420109265e-01
-3.273290610979935344e-01
-2.933237001148954470e-01
-2.546241674749377681e-01
-2.118495308132691823e-01
-1.657227358123480321e-01
-1.170038683461070428e-01
-6.648283671797622363e-02
-1.498477341352874581e-02
3.666659326789328821e-02
8.766198875749589559e-02
1.371983794188121886e-01
1.845214851196135264e-01
2.289219700770540877e-01
2.697244430236722668e-01
3.063554786888651460e-01
3.382695706509475930e-01
3.650267302048976203e-01
3.862628413240549730e-01
4.016712754535381458e-01
4.110792514431980127e-01
4.143471079879431640e-01
4.114640188662825881e-01
4.024913988246138219e-01
3.875600516885688296e-01
3.669269485978169376e-01
3.408802189997293119e-01
3.098309426120844368e-01
2.742439579148437945e-01
2.346488869992620074e-01
1.916672475809405585e-01
1.459429199959866308e-01
9.819949575023856347e-02
4.918734526332468882e-02
-3.159384688122823803e-04
-4.950264018689698453e-02
-9.756619972641300542e-02
-1.437106438572706146e-01
-1.871454580747105023e-01
-2.271316306149706588e-01
-2.629746194113251612e-01
-2.940224764589636219e-01
-3.197439646350312970e-01
-3.396416352335231981e-01
-3.533622831305736067e-01
-3.606498625578942185e-01
-3.613344006998977509e-01
-3.554340924310319672e-01
-3.430137082774906698e-01
-3.243231649773503644e-01
-2.997094881644459807e-01
-2.696113584437540567e-01
-2.346234152120596494e-01
-1.953740660135019347e-01
-1.526104435330044584e-01
-1.071276039211648268e-01
-5.975402595745693546e-02
-1.136251455359849061e-02
3.717456914905148402e-02
8.500178100305133544e-02
1.312710410911717140e-01
1.751903027913936928e-01
2.160255951056053725e-01
2.530802290339906335e-01
2.857824691909885972e-01
3.135962393197679887e-01
3.361054660533472349e-01
3.529910712612671642e-01
3.639937712647932644e-01
3.690097786423097714e-01
3.679734047071673286e-01
3.609514361939065719e-01
3.480941225835514352e-01
3.296138159283015234e-01
3.058494217691885009e-01
2.771686190193641819e-01
2.440438956711477037e-01
2.069991128326137408e-01
1.666042385171521145e-01
1.235026684375173378e-01
7.835274441409390001e-02
3.186248133716818032e-02
-1.524155903832052905e-02
-6.222519283886168706e-02
-1.083447793537788140e-01
-1.528632014744554235e-01
-1.950750776194374869e-01
-2.342864642969540445e-01
-2.698599893923060988e-01
-3.012131824029923854e-01
-3.278017381435932576e-01
-3.492016539096101102e-01
-3.650228085839609671e-01
-3.750019193157090314e-01
-3.789717166514456892e-01
-3.768341169230815524e-01
-3.686604874809189525e-01
-3.545636559162594903e-01
-3.348099759359091099e-01
-3.097563349921175213e-01
-2.798303455373489790e-01
-2.455946644459809924e-01
-2.076403030493354507e-01
-1.666538687241008176e-01
-1.233655072419335141e-01
-7.853052833600537852e-02
-3.294166079539229131e-02
1.260781656241727333e-02
5.733855884230276700e-02
1.004773931139832932e-01
1.412941135466048159e-01
1.791085976175956773e-01
2.132686165721340288e-01
2.432255635250188952e-01
2.684626158223277770e-01
2.885605116730727282e-01
3.031886445233338279e-01
3.120655119319235560e-01
3.150522839435065947e-01
3.120472209320599433e-01
3.030732397838256098e-01
2.882415970665301863e-01
2.677247963849413992e-01
2.418355147527400106e-01
2.109196996013640302e-01
1.754457704449206012e-01
1.359497539940699440e-01
9.302496981542907051e-02
4.736727352909220201e-02
-3.056542721946442498e-04
-4.920053523147460695e-02
-9.849196624230582842e-02
-1.473362293036473147e-01
-1.948640771169976027e-01
-2.402099339482712814e-01
-2.825367336710313815e-01
-3.210188750193467833e-01
-3.548953006789266063e-01
-3.834753858405512972e-01
-4.061129018655842415e-01
-4.223180980774872140e-01
-4.316478544933184391e-01
-4.338189026138650206e-01
-4.286839990755164642e-01
-4.161793008743714939e-01
-3.964693001295227504e-01
-3.697755963412459046e-01
-3.365137112429001931e-01
-2.972277760496108145e-01
-2.525451284328804613e-01
-2.032710194985765106e-01
-1.502474720698452892e-01
-9.442941595990761439e-02
-3.682971219771011273e-02
2.151706350378548155e-02
7.954038582420298875e-02
1.361731312451837095e-01
1.903917566171783871e-01
2.411916600066077443e-01
2.876444676719889237e-01
3.289217552124582555e-01
3.642410062801619830e-01
3.930048999769597540e-01
4.146776388520632128e-01
4.288857572350048830e-01
4.354216408243860581e-01
4.341544862930519777e-01
4.251998163469226100e-01
4.087400027054339802e-01
3.851488338824418101e-01
3.549525941872313517e-01
3.187570188825188389e-01
2.773697562220527324e-01
2.316438114330732212e-01
1.825620201764657224e-01
1.311876540126135637e-01
7.861594371518787483e-02
2.600518249862560083e-02
-2.548193399992904062e-02
-7.470907918614155818e-02
-1.205535923696929856e-01
-1.619630286785351814e-01
-1.979958066309688292e-01
-2.277563043654806663e-01
-2.505609104941042276e-01
-2.658082762529607734e-01
-2.730774895830121451e-01
-2.721690190182366464e-01
-2.629666422081227140e-01
-2.456600619590671997e-01
-2.205327976223134812e-01
-1.880800537735982658e-01
-1.489995425362602433e-01
-1.040654621490215703e-01
-5.427738301311713087e-02
-6.888103169764292488e-04
5.553901298264651842e-02
1.131645770061915357e-01
1.709371441562339555e-01
2.275877203100105106e-01
2.818527847184055801e-01
3.325518960361728560e-01
3.785533680333488249e-01
4.188167048241551171e-01
4.524746280975291413e-01
4.787129757039680911e-01
4.969630883556765966e-01
5.067684718494218643e-01
5.078429664218333528e-01
5.001513883683577077e-01
4.837329023670671191e-01
4.589203520322104879e-01
4.261515898917060952e-01
3.860408993282833379e-01
3.394052156699252087e-01
2.871210015911778157e-01
2.302613286322356956e-01
1.699533019041363779e-01
1.074012945180613521e-01
4.387887618473396145e-02
-1.934093888779608861e-02
-8.099431792735289903e-02
-1.398271654961658061e-01
-1.946887005763697776e-01
-2.445004827723172847e-01
-2.882773063284228554e-01
-3.252472338394916118e-01
-3.546976519690397955e-01
-3.761838817251188516e-01
-3.894074722079818862e-01
-3.942347569273443320e-01
-3.908236220757279611e-01
-3.794055242826086527e-01
-3.605046880088935701e-01
-3.347695227862921286e-01
-3.029919655453365834e-01
-2.661617855247984110e-01
-2.253106553612358454e-01
-1.816079872777880411e-01
-1.362669487434571280e-01
-9.051627970824682734e-02
-4.560145613093347094e-02
-2.744565636294993283e-03
3.692359331104455578e-02
7.230227956302037740e-02
1.024367001772628072e-01
1.264945127042285122e-01
1.437349411502495400e-01
1.536666872925405158e-01
1.558634029163510348e-01
1.501453050204553108e-01
1.364939130472269113e-01
1.150172191661980037e-01
8.609107944931793099e-02
5.015355265904375415e-02
7.872786093464867463e-03
-3.996601188142712147e-02
-9.247884738942424576e-02
-1.486185410979192767e-01
-2.073069693895970289e-01
-2.673695375061928559e-01
-3.275945506239779093e-01
-3.867701327872268280e-01
-4.436842738316393309e-01
-4.971467402103293409e-01
-5.460687158491825954e-01
-5.893968268814830935e-01
-6.262164032066692698e-01
-6.557524776911574094e-01
-6.773109796553242745e-01
-6.904591317553521179e-01
-6.948366146437390256e-01
-6.903201887738763531e-01
-6.769728289349590256e-01
-6.549684348225817132e-01
-6.247607618613546521e-01
-5.868686952542674362e-01
-5.420203832223489115e-01
-4.910719081601051528e-01
-4.349528190561731122e-01
-3.747373066601937808e-01
-3.115235804058329450e-01
-2.464613381842379880e-01
-1.807239939870655121e-01
-1.154587955904791130e-01
-5.177201814193210794e-02
9.256657875297946703e-03
6.668038579165447288e-02
1.196036959790394150e-01
1.672606785192014556e-01
2.090421339860863981e-01
2.444029489540571198e-01
2.730340135753768216e-01
2.946986331015979399e-01
3.093421192727379143e-01
3.170814312535424895e-01
3.181110249625913600e-01
3.128549755599610016e-01
3.017952643614969510e-01
2.855733849347172892e-01
2.649480890747657469e-01
2.407342300292372173e-01
2.138779036262654643e-01
1.853506100458801598e-01
1.561790702108751816e-01
1.274213174079417144e-01
1.001252177037521562e-01
7.531880704219773293e-02
5.401232331868399683e-02
3.710395647767938954e-02
2.544095475340313328e-02
1.976961481870631587e-02
2.068951629608761777e-02
2.872654057667745064e-02
4.407515740780709734e-02
6.681976205919326617e-02
9.704467668584371154e-02
1.348342234426880282e-01
