BVP Signal
4.622828926903424507e-03
1.197842688795939248e-01
1.196753525143359198e-01
-2.465513476306868679e-02
-2.325759669865797574e-01
-3.707792288941708647e-01
-3.485401219690971719e-01
-1.807487019465247591e-01
2.856267530002272459e-02
1.672031868112511810e-01
1.930250892487723469e-01
1.479992464808956854e-01
1.067350425321298424e-01
1.131183981205432509e-01
1.575186799886560962e-01
1.992838346479059997e-01
1.999245181817905781e-01
1.381257764765089213e-01
1.024637713645337733e-02
-1.654279940622738754e-01
-3.406441024494807346e-01
-4.459757163279748360e-01
-4.267155935416052093e-01
-2.830487315794879555e-01
-7.661532051013394962e-02
1.084050493092716949e-01
2.187699294982257125e-01
2.557396032483266746e-01
2.546649263507838601e-01
2.470871194503909962e-01
2.404637038126113957e-01
2.246238279541341865e-01
1.875671686809182725e-01
1.227794440464952397e-01
2.745658782565948974e-02
-9.818101360672421007e-02
-2.448742029104921669e-01
-3.864599084151276176e-01
-4.799507971016494512e-01
-4.795269791916075275e-01
-3.609180755944209062e-01
-1.429131333350919797e-01
1.106008036233231961e-01
3.159843578143833320e-01
4.118923721703472984e-01
3.917655390316924224e-01
3.031856587940248704e-01
2.135478762207874137e-01
1.669897127067249964e-01
1.622017149528947044e-01
1.611370125341680670e-01
1.158002385687285085e-01
-4.677487773932620385e-03
-1.949574328621684893e-01
-4.063067651889823440e-01
-5.602674101550351171e-01
-5.874539645291223522e-01
-4.715585120327425717e-01
-2.609329086787499641e-01
-3.193412968407072228e-02
1.635453582709458509e-01
3.157363436647107058e-01
4.291025216125659014e-01
4.902828757531607629e-01
4.731414659351651508e-01
3.724665643954691574e-01
2.228903924142831006e-01
7.909014139826742174e-02
-2.294534906374678940e-02
-8.752155183091525625e-02
-1.484169600503802700e-01
-2.375947192902964633e-01
-3.552439645692833103e-01
-4.592042002164663517e-01
-4.838529997742826994e-01
-3.832386551783107942e-01
-1.715309861253304646e-01
7.395191006690650382e-02
2.577638616716890763e-01
3.285181179186643652e-01
3.076828568493757410e-01
2.603340654695116552e-01
2.352180444872197795e-01
2.299893575822865577e-01
2.104474174413903942e-01
1.553068648543456387e-01
7.379486089719988762e-02
-1.858968674598454607e-02
-1.263478826415527778e-01
-2.604670346300831385e-01
-3.980807578083960241e-01
-4.708015968403584939e-01
-4.108267589083404170e-01
-2.161740746420223735e-01
3.266111287615081071e-02
2.263613830288278006e-01
3.022183451977227264e-01
2.751010204508116952e-01
2.065492138546070611e-01
1.514767755486677303e-01
1.294512282611966769e-01
1.303859253362493476e-01
1.318977751174373048e-01
1.086573181627333573e-01
3.703495707391557534e-02
-9.254339548840251339e-02
-2.574052749768289683e-01
-3.972307027208339947e-01
-4.370729400614267179e-01
-3.324040542707991097e-01
-1.078149436860933452e-01
1.422525988297905775e-01
3.013513398800353738e-01
3.031490198256732160e-01
1.778553580940043233e-01
3.217696880560100281e-02
-2.887801186143668097e-02
2.286197964039227148e-02
1.293480773227949632e-01
2.048785144056325946e-01
2.022159010632917364e-01
1.280767606404562553e-01
1.070693264434174896e-02
-1.298593658417065422e-01
-2.750712335395245067e-01
-3.857077854093468039e-01
-4.080042556899072803e-01
-3.141560235345872698e-01
-1.344751740124727202e-01
5.766185919844636631e-02
1.951546777805179822e-01
2.537070679327045886e-01
2.494497027240822895e-01
2.136151074828816498e-01
1.727100510931528499e-01
1.428470670914102902e-01
1.288238886109731862e-01
1.213969202349526877e-01
9.794009943973081000e-02
3.375019791859723561e-02
-7.902217601816130532e-02
-2.184951967638962822e-01
-3.385415665766373650e-01
-3.912439706281256591e-01
-3.514994136707585426e-01
-2.285018483754324148e-01
-6.020886822621049350e-02
1.029277439347255907e-01
2.175429928502667920e-01
2.645093457686784610e-01
2.556730228024818308e-01
2.228111534331474464e-01
1.936160665096994249e-01
1.733894472764372918e-01
1.471658678863913550e-01
9.630436989438534434e-02
1.155162100983100903e-02
-1.039814974936092290e-01
-2.328314657652562347e-01
-3.389356482938870041e-01
-3.753511209246495062e-01
-3.132759480653570794e-01
-1.715250225086573099e-01
-1.156389411563210623e-02
1.060320498513277199e-01
1.636378519153277589e-01
1.855206990890881924e-01
1.992838851973476322e-01
2.060736611409947350e-01
1.911662731368501955e-01
1.551337608618590380e-01
1.205980046439274478e-01
1.017471260559935642e-01
7.443174992482481933e-02
-9.146044813962195263e-03
-1.665784043557305694e-01
-3.470742735534555479e-01
-4.547495196801860096e-01
-4.185789283577008302e-01
-2.469505992671983119e-01
-2.015831766949083281e-02
1.673380152653110020e-01
2.631419603656478534e-01
2.726059848074698921e-01
2.365790735172600412e-01
1.989534970658073387e-01
1.845376630732069589e-01
1.900923634204205737e-01
1.863149191018047546e-01
1.323428435264336622e-01
1.342281609072903947e-03
-1.944392355722257548e-01
-3.960130035170652540e-01
-5.181794157547985336e-01
-4.936492452423879018e-01
-3.174357667089828805e-01
-5.936873963483813021e-02
1.718547595063997235e-01
2.937922978561701148e-01
2.976126617282969788e-01
2.406858401741771014e-01
1.928103694035318560e-01
1.849524466447483029e-01
2.022712125815785411e-01
2.142733576605991841e-01
1.993737540780932682e-01
1.396817447674505164e-01
8.851075686908377316e-03
-2.102048563966085748e-01
-4.812975322055371707e-01
-6.955948537288161315e-01
-7.200960427062890190e-01
-4.921894122058585452e-01
-8.272113604227371297e-02
3.335445046025604654e-01
5.836065393223965891e-01
5.976694669920239456e-01
4.345849799407035530e-01
2.250851641286819582e-01
8.432482895462189987e-02
5.230075968671465958e-02
8.822512825010586646e-02
1.089323385069908001e-01
4.366206105455756187e-02
-1.226175401986411284e-01
-3.369126664483490519e-01
-5.039880516301445956e-01
-5.391291774364317391e-01
-4.177324242383043673e-01
-1.884327144868221393e-01
5.940878889608963015e-02
2.478376696034551019e-01
3.434715610853426027e-01
3.555796744772984352e-01
3.142227797280943147e-01
2.511729764671739029e-01
1.907519705162391555e-01
1.445429407454764670e-01
1.062959693374641024e-01
5.169799158187227128e-02
-4.979789840511664178e-02
-2.099115183268095430e-01
-3.952405817542021804e-01
-5.245047184361926185e-01
-5.082745203261975764e-01
-3.155573596831468541e-01
-1.427042430275093920e-02
2.599754611816927907e-01
3.918269797724729941e-01
3.598552875674014273e-01
2.361182737435567058e-01
1.204604762591523492e-01
7.199232296244284512e-02
8.827680900422896215e-02
1.291473739585776714e-01
1.480929761289015989e-01
1.075409959585216235e-01
-1.304935254891059770e-02
-2.000240760052931499e-01
-3.896169562373065220e-01
-4.854938002676331132e-01
-4.188874739662844515e-01
-2.081967305973755344e-01
4.234211091342654498e-02
2.143037700812011614e-01
2.564950665181187084e-01
2.058779008516369302e-01
1.397795846016534060e-01
1.135893986032101566e-01
1.358221555055771912e-01
1.820432654933339389e-01
2.159904520943483064e-01
1.996489273379604690e-01
1.026318813890521042e-01
-7.687154669932727558e-02
-2.921788967765035494e-01
-4.568324235206548956e-01
-4.898069607308305207e-01
-3.683600027337017302e-01
-1.460344842278127331e-01
8.020358401255034408e-02
2.282282693670203422e-01
2.719356166872275438e-01
2.417268441557901548e-01
1.924590617369907886e-01
1.651713347138639709e-01
1.662429574042871283e-01
1.720762753134472134e-01
1.502913278371919292e-01
8.020976007177320344e-02
-3.860579915327383427e-02
-1.874891126580663370e-01
-3.315315146966002491e-01
-4.241136750649728837e-01
-4.209905134070923705e-01
-3.047344058099581421e-01
-1.039766231954686870e-01
1.128059182600479882e-01
2.716113104137516387e-01
3.325857395991862475e-01
3.057863801434471118e-01
2.347804522778429437e-01
1.660881476602384943e-01
1.268433737667428174e-01
1.168210912279369351e-01
1.091405272914307834e-01
5.979737112970570645e-02
-6.630571457190147233e-02
-2.581808342139977341e-01
-4.415960040400848108e-01
-5.135234909130901304e-01
-4.154011020860416403e-01
-1.837939623373509579e-01
7.286941976416366762e-02
2.530215486182132989e-01
3.233955783174543019e-01
3.140256687352139253e-01
2.695856825332624274e-01
2.154592989067656006e-01
1.615563235290259081e-01
1.148191955037063394e-01
7.143151336462826018e-02
4.681014518691489767e-03
-1.163365128083410083e-01
-2.818957539626760767e-01
-4.215981644597452949e-01
-4.452486357619607205e-01
-3.156156088670303284e-01
-8.462098109785551325e-02
1.420253703110518906e-01
2.778735329432495682e-01
3.029736448882987543e-01
2.560349127561983296e-01
1.939960573965791024e-01
1.564793539492672636e-01
1.499635881371996771e-01
1.465133261067026460e-01
9.611308529531115141e-02
-4.129267322609386781e-02
-2.534326519509134679e-01
-4.576242400123078369e-01
-5.383725872159708103e-01
-4.269781426812242486e-01
-1.610112947898496571e-01
1.332624469649457133e-01
3.262768186004025850e-01
3.667747867700477116e-01
2.963372109844710778e-01
1.995294061922492368e-01
1.417873656812802530e-01
1.379148232221099057e-01
1.556074133834095541e-01
1.385244836321759543e-01
3.878223483814813299e-02
-1.481267725971565363e-01
-3.648363589365362092e-01
-5.132198131732021995e-01
-5.121631560806816363e-01
-3.512553140594321111e-01
-9.611090560449520037e-02
1.565123158790562297e-01
3.324862550972669251e-01
4.043483110994183782e-01
3.840372205271859740e-01
3.057441497543125219e-01
2.104182216868782374e-01
1.282112230344252257e-01
6.081858966484177120e-02
-1.953186373448545510e-02
-1.426905306874102219e-01
-3.010543776448697528e-01
-4.352107977673106975e-01
-4.669305198545761204e-01
-3.579729028462910190e-01
-1.441383871026269414e-01
8.604715691948339185e-02
2.480780408226821443e-01
3.067288641339791511e-01
2.828393177188574525e-01
2.289685473345440259e-01
1.940987972463945055e-01
1.934015634240849879e-01
1.969887407890391628e-01
1.486881818973317948e-01
9.687973832590235368e-03
-2.007882007243612099e-01
-4.015899969901978173e-01
-4.932007990355830040e-01
-4.218747990679574955e-01
-2.172816454781349160e-01
2.551638454741506079e-02
2.057759660995845952e-01
2.739698777747049396e-01
2.486713461139500314e-01
1.893075020271435260e-01
1.490051931788386463e-01
1.391908352983380892e-01
1.272200476150013582e-01
6.745769794874734160e-02
-5.646673096348142629e-02
-2.099800183291065658e-01
-3.237663568691871996e-01
-3.365590276963972838e-01
-2.339608609058109745e-01
-5.732051341987104420e-02
1.206253603018072607e-01
2.349752831367724892e-01
2.590583038874499922e-01
2.118310060603332268e-01
1.408217269040225594e-01
8.961382217010421813e-02
6.796046936772803804e-02
4.573138842428720041e-02
-2.023116574762251485e-02
-1.429134344163097703e-01
-2.810078556959075824e-01
-3.587896929868849005e-01
-3.182619317431926165e-01
-1.623497411087747033e-01
4.457347787931201233e-02
2.161752399674350955e-01
2.923881190182969214e-01
2.668722789447806054e-01
1.837746151708046227e-01
1.083589950055368067e-01
8.409915042076887559e-02
9.981777630351570951e-02
9.486948921529259060e-02
8.189454683530827950e-03
-1.631423168797712098e-01
-3.472983669150714325e-01
-4.427307255896170135e-01
-3.897999636112085553e-01
-2.101250052700946447e-01
1.444198179622836753e-02
1.980766786160489401e-01
2.949279829006496434e-01
3.070384220379800411e-01
2.672517380409591414e-01
2.165430442782945164e-01
1.823733482733561617e-01
1.604231443055785800e-01
1.130898300191800487e-01
-1.617198912072570494e-03
-1.840919455105431979e-01
-3.712357145342093934e-01
-4.686110889041006367e-01
-4.176051953331541000e-01
-2.408399060648311885e-01
-2.559793170763746684e-02
1.386026441618806726e-01
2.138982103096038756e-01
2.207991030989696624e-01
2.051188911085204403e-01
1.999145428656208257e-01
2.082978905236071987e-01
2.090114500577299750e-01
1.730696455203977746e-01
8.109646550758803363e-02
-6.346340706799374898e-02
-2.289130348471736243e-01
-3.623224662916457728e-01
-4.101144359057120603e-01
-3.446269096803463716e-01
-1.821762297902315142e-01
1.983458328716791730e-02
1.881763704431761441e-01
2.698167345108491988e-01
2.593245396765777588e-01
1.994077745221460862e-01
1.494671919930521398e-01
1.404164763619371037e-01
1.506241865835373783e-01
1.253674537197397854e-01
2.471586550395876714e-02
-1.406494260562736187e-01
-3.122775656506768804e-01
-4.172274481437141525e-01
-4.054583810671227306e-01
-2.727236566786030991e-01
-6.371622986297142965e-02
1.449323262706967430e-01
2.790819539391444781e-01
3.055354636420055670e-01
2.500482841783520094e-01
1.769838461852120126e-01
1.408138385623182165e-01
1.459049208944729892e-01
1.466042724640224115e-01
8.614108593761782284e-02
-5.697474610463049149e-02
-2.472737124865366232e-01
-4.069298587327400130e-01
-4.571925048126843638e-01
-3.642482233915200207e-01
-1.623845860954674647e-01
6.328106900325453088e-02
2.265170614716143505e-01
2.886129575484893683e-01
2.712947834892512899e-01
2.273645427794556140e-01
1.959987314754815246e-01
1.782000599633712934e-01
1.456664622234966067e-01
6.781003095630241950e-02
-6.553625716639133181e-02
-2.338915249222156545e-01
-3.854714670426827583e-01
-4.497247540312430125e-01
-3.721218871882162604e-01
-1.599804528519991331e-01
1.013928802474466373e-01
2.935035396646452632e-01
3.450760187283849478e-01
2.793385126113677175e-01
1.850762580821841141e-01
1.391309184838168678e-01
1.489960801848532190e-01
1.578186000116890142e-01
9.634345164585789156e-02
-6.377323770557352667e-02
-2.871361603502342597e-01
-4.869913246710391164e-01
-5.644447920853293832e-01
-4.613062442975802702e-01
-2.016229718585647035e-01
1.104927785754732383e-01
3.469784785745284594e-01
4.315331452676761104e-01
3.786163792112959836e-01
2.683393641860616352e-01
1.830211060786713917e-01
1.570319779929765791e-01
1.696883009369998252e-01
1.701514484790800363e-01
1.066332323930970771e-01
-5.125140377454645568e-02
-2.908954207104410550e-01
-5.407821308434914709e-01
-6.865147098714579066e-01
-6.325632773825600186e-01
-3.740140159695866662e-01
-1.406384243366524955e-02
2.976744398520591584e-01
4.584898659533871434e-01
4.630528414519201608e-01
3.808199344774680917e-01
2.932641934946251250e-01
2.443615570576417040e-01
2.287498678066089419e-01
2.058894414881455859e-01
1.232560667554629119e-01
-5.276566311424668587e-02
-3.012600597767143284e-01
-5.333603381241198704e-01
-6.318741101677329830e-01
-5.313457869525060051e-01
-2.742424116296517944e-01
1.399552959842376154e-02
2.147711628864854561e-01
2.904507012486967632e-01
2.817441049872887460e-01
2.482931817340494618e-01
2.203033997251051535e-01
1.971600296760314119e-01
1.702465474937283618e-01
1.332322992402691364e-01
7.536642482385236264e-02
-1.947343523921074571e-02
-1.544689756054127283e-01
-2.980162278326264902e-01
-3.867837932489890385e-01
-3.615904362671531480e-01
-2.107407636720055599e-01
1.450248417841137893e-02
2.240412322135326706e-01
3.343015767727615106e-01
3.081710705284570473e-01
1.726276646489965927e-01
6.355557557625957088e-03
-1.018167454985841047e-01
-1.049559302008631623e-01
-2.611899751277890758e-02
6.030370338551049869e-02
8.019834540445147653e-02
5.507962359923457285e-03
-1.330587519168168198e-01
-2.644433257085524458e-01
-3.113179719267351597e-01
-2.288809232663261417e-01
-3.646966968186982072e-02
1.807158181319090673e-01
3.160115038488513495e-01
3.107372680649271857e-01
1.945753520421026339e-01
5.980694111544648806e-02
-9.182313447696044406e-03
9.147150326814790233e-03
7.308950280403991862e-02
1.175217414613664024e-01
9.324645115465407530e-02
-1.532100020114546268e-02
-1.859348460730028130e-01
-3.588733840695814692e-01
-4.525482299424576915e-01
-4.051863192444848938e-01
-2.216409047675722555e-01
1.937347876416728454e-02
2.153685083600964667e-01
3.079356133801307571e-01
3.089489847746066387e-01
2.695624592113333162e-01
2.314104138649173137e-01
2.040928418446596448e-01
1.737086697096148491e-01
1.188285032892506532e-01
2.039441823199328319e-02
-1.269108934732610106e-01
-2.979118652125052336e-01
-4.323328751447232388e-01
-4.617092080140819954e-01
-3.565042806342317849e-01
-1.530411982608580745e-01
6.798572027722749045e-02
2.339581385648815681e-01
3.172713930894712764e-01
3.306601302679554322e-01
2.987441568467495423e-01
2.397674570540139771e-01
1.673143969929530295e-01
9.399031090315962400e-02
2.236105888854167389e-02
-6.539665137751460300e-02
-1.952413012803614345e-01
-3.642663235900584495e-01
-5.122282301974576679e-01
-5.413196211349220466e-01
-3.839094596841170492e-01
-6.668402543673090932e-02
2.874011840653651895e-01
5.282853091821788638e-01
5.690125150253957376e-01
4.324575749830723015e-01
2.260172946769896107e-01
6.614415924398953095e-02
4.269264062133570903e-03
2.340444330538316020e-03
-2.606468144351913041e-02
-1.386659572467726087e-01
-3.102942986531470604e-01
-4.456486184300222364e-01
-4.498074091171928024e-01
-2.994403445929904595e-01
-5.889308793038672274e-02
1.658067000956739978e-01
2.929946450577238792e-01
3.039998842814454205e-01
2.391069558946106177e-01
1.649530180825751202e-01
1.327295153511690584e-01
1.438342837501173088e-01
1.438970711162270710e-01
6.117648307113517092e-02
-1.271593255602577743e-01
-3.542146380064943312e-01
-4.940195046321254058e-01
-4.494500457295322882e-01
-2.263701355495815193e-01
6.835570717521793904e-02
2.996370372142380112e-01
3.857473183319631849e-01
3.328481306169018827e-01
2.136879389527333029e-01
1.153166711404903788e-01
8.478715604671638317e-02
9.899105552169329414e-02
8.135192082631048649e-02
-3.518892006328493138e-02
-2.404740749916152165e-01
-4.345337426089699306e-01
-4.928695170641617107e-01
-3.629059230923957768e-01
-1.089913435690879062e-01
1.355450032446532393e-01
2.668792311356382729e-01
2.747794208966186091e-01
2.265112734276457651e-01
1.978908832896715264e-01
2.127409049412245512e-01
2.300931807404331120e-01
1.789902814510233586e-01
1.604095415447487349e-02
-2.287471045318222318e-01
-4.510483372844400485e-01
-5.278878943092316645e-01
-4.002163454780857110e-01
-1.219478074734231809e-01
1.687224140681776730e-01
3.397018064628175016e-01
3.484471418053294300e-01
2.556343807439256932e-01
1.649257649277152127e-01
1.409696263134453953e-01
1.661377096831717082e-01
1.607724734077680961e-01
4.770675768457675880e-02
-1.821379421326262127e-01
-4.452515860717559115e-01
-6.034936033867173144e-01
-5.492234839438924210e-01
-2.838894579526466400e-01
7.152388163096792817e-02
3.512269503419029326e-01
4.521903569764857966e-01
3.912639691534126607e-01
2.698383225998248758e-01
1.820190331957907692e-01
1.456222211004075673e-01
1.070989576273874699e-01
4.071147535262276129e-03
-1.728937048096326201e-01
-3.646472167313217216e-01
-4.772882927034100553e-01
-4.383199950951222057e-01
-2.423078043775241386e-01
3.839896896817457383e-02
2.873483178720578346e-01
4.082386693468892380e-01
3.809190144393314048e-01
2.666177106392846330e-01
1.538476566262254597e-01
8.697446179162482416e-02
3.806809214017989329e-02
-5.406710443651949194e-02
-2.136708217430349499e-01
-3.897456725327931304e-01
-4.837938787460847045e-01
-4.211157439585515583e-01
-2.089282002117875958e-01
6.268051541301980500e-02
2.766625518983096832e-01
3.608367102208718258e-01
3.253519084584399756e-01
2.420504366969671306e-01
1.839009548905030378e-01
1.698948595774581460e-01
1.555884542301722018e-01
7.599401797298654948e-02
-9.198350343300942811e-02
-2.973192589202907077e-01
-4.410334502707082827e-01
-4.424752343945113076e-01
-2.944688456921182862e-01
-6.647793842767391048e-02
1.417626413231631854e-01
2.585147826386438030e-01
2.723969922908845431e-01
2.254002478762672235e-01
1.767350667531371045e-01
1.595712042755428328e-01
1.558295235778732746e-01
1.085328862974398456e-01
-2.911597192123407951e-02
-2.397084577617266954e-01
-4.304932723171743802e-01
-4.870419225207005542e-01
-3.565954155278243665e-01
-9.193263396156825529e-02
1.827827892386038044e-01
3.541596285646287923e-01
3.831271010161825252e-01
3.094175176790119330e-01
2.076430343315651683e-01
1.324540009208918789e-01
8.593459740885531217e-02
2.444401385409278316e-02
-9.766530565317921297e-02
-2.751367888429658848e-01
-4.336068170861193116e-01
-4.720547494586069814e-01
-3.405639765958711207e-01
-8.791703077207846384e-02
1.674746209290977061e-01
3.209779169805491161e-01
3.468003918619135262e-01
2.936489266017272559e-01
2.281342166329078380e-01
1.837683550038712588e-01
1.514734288999621259e-01
1.005924165643403700e-01
2.482395143985682839e-03
-1.525738817300593408e-01
-3.398419846520625009e-01
-4.932838640687596810e-01
-5.282418553493919422e-01
-3.948441757691221188e-01
-1.242265879060134859e-01
1.780808589000674180e-01
3.941130594031628798e-01
4.624323573860543712e-01
4.018807862443916079e-01
2.815769360967842472e-01
1.704511966617962004e-01
1.019885752211323604e-01
6.518756748633625087e-02
1.661492189087046545e-02
-9.001809365654833694e-02
-2.632578519723457466e-01
-4.470946690989771044e-01
-5.404700585861528239e-01
-4.642070632542364406e-01
-2.262869555405140343e-01
7.406055899676189380e-02
3.112373424028423985e-01
4.120779186590836085e-01
3.859393278610538935e-01
2.941445074122777115e-01
1.979766589149859479e-01
1.277193430276482577e-01
8.096473800391112974e-02
3.355372660485445024e-02
-4.599588025120349144e-02
-1.736936927119439034e-01
-3.243192017068585731e-01
-4.288675456134757868e-01
-4.133802790061023025e-01
-2.567542033375769250e-01
-1.670296894143286082e-02
2.041696938461836641e-01
3.250826801578468594e-01
3.308123754331642186e-01
2.635146422198904048e-01
1.817014787105586393e-01
1.234609461542770514e-01
9.233184442371655809e-02
6.257171446329440334e-02
-2.494443688846340046e-03
-1.228449998608446003e-01
-2.771455243120030110e-01
-4.026408092277778406e-01
-4.290787504530299556e-01
-3.258124677209096598e-01
-1.243480698357385394e-01
1.016187374383180630e-01
2.790645529580647044e-01
3.672831008854430257e-01
3.639524989035908265e-01
2.954124568855787114e-01
2.027430765060433959e-01
1.241734140685149534e-01
7.425581079104279225e-02
3.242316664337083210e-02
-4.290096575993121442e-02
-1.765198545623788973e-01
-3.426768586138758677e-01
-4.680174179294807058e-01
-4.763159742880590519e-01
-3.420740999077640510e-01
-1.102533734200248361e-01
1.311326043212448500e-01
3.009054113154632226e-01
3.623657765570995615e-01
3.320078253187284112e-01
2.620700093182706247e-01
2.071733433921851830e-01
1.895415466647840663e-01
1.827230687387528807e-01
1.292121578437890328e-01
-1.400674424198622425e-02
-2.323223623692081130e-01
-4.471421615510269842e-01
-5.565278726654143693e-01
-4.977331074457916893e-01
-2.882012180705672000e-01
-1.609701805825369814e-02
2.119542466710602202e-01
3.292531614351013047e-01
3.366123574088168979e-01
2.860820686652521538e-01
2.364951438587783450e-01
2.129222836210322711e-01
1.963842697856827968e-01
1.459416797759800488e-01
3.266448130448389164e-02
-1.374481420806374921e-01
-3.208130119024124038e-01
-4.516625439323030955e-01
-4.706346972190518785e-01
-3.577091272108147146e-01
-1.510699997217051505e-01
6.740479065666715730e-02
2.184915631379246159e-01
2.730591699187576715e-01
2.629662300250268370e-01
2.458879939159326622e-01
2.541379577213173091e-01
2.704233590300211265e-01
2.467895697822403145e-01
1.447433201686910698e-01
-3.692554503744505112e-02
-2.593532067365479921e-01
-4.562221008828146185e-01
-5.530785423824220448e-01
-4.960359014675457257e-01
-2.864450862810142273e-01
2.974568501660279640e-03
2.568596281607855580e-01
3.828894038489908391e-01
3.673501547624994368e-01
2.746267219874782284e-01
1.908151987489121182e-01
1.588113797778968606e-01
1.552117549178480549e-01
1.194272316877804108e-01
5.059618143950089797e-03
-1.829585659608723436e-01
-3.824380747113744761e-01
-4.992349298179190598e-01
-4.567308060798977443e-01
-2.495642956041347338e-01
3.617017832283517254e-02
2.660075422800411982e-01
3.446498500954034983e-01
2.808031198210337309e-01
1.716528810940471939e-01
1.174863435279798751e-01
1.394486208009534378e-01
1.695306180863381251e-01
1.171237124596681278e-01
-4.747813908329590049e-02
-2.608977100149194595e-01
-4.079011213251610424e-01
-4.014281423334948862e-01
-2.420356719314772920e-01
-1.609218500462515633e-02
1.632428968505192368e-01
2.290623550789854246e-01
1.969002207208379041e-01
1.407444730222084939e-01
1.286859874202430642e-01
1.671834423272131609e-01
1.966778394195263235e-01
1.420909003572026208e-01
-2.142620385816318418e-02
-2.393396639640701373e-01
-4.078773539611707522e-01
-4.400718654105140182e-01
-3.188003481809231765e-01
-1.016810473788591906e-01
1.187715142132912405e-01
2.669407389445476175e-01
3.159793189087185539e-01
2.883717435297787901e-01
2.308575370496246393e-01
1.778707810246897836e-01
1.250346960647137351e-01
3.542158606225087603e-02
-1.181806857306337832e-01
-3.064594808317204211e-01
-4.398762290387528973e-01
-4.251463036326788014e-01
-2.409928260601632843e-01
3.407250230267355739e-02
2.701381691286726117e-01
3.710887313625751971e-01
3.287518779626042442e-01
2.108409558280847085e-01
1.023262623677495542e-01
4.775562884941564334e-02
3.034626078317304021e-02
-6.093772834182331621e-03
-1.097531148447188354e-01
-2.760188710363599141e-01
-4.348367073079935086e-01
-4.864683727786922596e-01
-3.687181129243715105e-01
-1.070485320897431869e-01
1.946136925967869302e-01
4.171297619376860277e-01
4.938516055476824818e-01
4.348748678935489553e-01
3.015159033186603499e-01
1.619284500073250310e-01
6.036506479959480309e-02
8.820532974918249280e-03
-8.236167130774241230e-03
-2.392969969189562285e-02
-7.381240338220013131e-02
-1.763962892695241369e-01
-3.178664888487886531e-01
-4.516861566801325667e-01
-5.166530440911243360e-01
-4.662231778206886723e-01
-2.946631659650210677e-01
-4.560866629796500593e-02
2.039474494072304189e-01
3.791182530396509653e-01
4.446067721597574129e-01
4.209519886645936015e-01
3.654590501521614021e-01
3.283271314173419331e-01
3.165756472763607832e-01
2.942576710826805275e-01
2.163441947266693255e-01
6.467659881299692159e-02
-1.427694518688168435e-01
-3.672787232641894772e-01
-5.645583024372846648e-01
-6.863955069789299257e-01
-6.837772746822929903e-01
-5.294802131078890639e-01
-2.479736048319690633e-01
8.124536843487861759e-02
3.596258829294931569e-01
5.176174285889949545e-01
5.384008752142144250e-01
4.495722899376182191e-01
3.022753773116089171e-01
1.542941659425218770e-01
5.493619569343999309e-02
2.549673338191915661e-02
4.405867223466275462e-02
5.313510697001988525e-02
-5.438381676207915127e-03
-1.495534224309473803e-01
-3.395279747822494976e-01
-4.963687574866214591e-01
-5.426491331817455688e-01
-4.423088737673457893e-01
-2.204575812406549262e-01
4.579402504974128263e-02
2.636865446937548541e-01
3.723283341814979108e-01
3.726044408940513142e-01
3.161479549813903667e-01
2.603563920669339504e-01
2.274881933102807785e-01
2.022627862640033192e-01
1.627741771077616251e-01
1.061423394320844538e-01
4.132091856315284195e-02
-3.606783068083175420e-02
-1.482845459584567482e-01
-3.052620614682368672e-01
-4.710546551979024610e-01
-5.700025145309837171e-01
-5.358667329280574210e-01
-3.608594193020208674e-01
-1.021491634435233997e-01
1.532607475062975344e-01
3.315391610804783173e-01
3.977405950990302586e-01
3.634229880662998013e-01
2.798434386916501815e-01
2.121529333839076159e-01
1.991896593600779308e-01
2.268795147374232934e-01
2.430254089119836536e-01
2.031398543802547252e-01
1.018792947332798349e-01
-3.913804540764487250e-02
-2.029212984163394351e-01
-3.809999422385828005e-01
-5.433414614476139715e-01
-6.215131817676923243e-01
-5.457881092857258531e-01
-3.116165082886018234e-01
-5.403969512648959528e-03
2.466038710624109953e-01
3.642861787956458985e-01
3.577018953019825975e-01
2.971052049201456380e-01
2.473003364333682952e-01
2.270526732332612541e-01
2.167300273946434763e-01
1.907087648501561150e-01
1.399940593093512153e-01
7.094820002367629996e-02
-1.053653413025945618e-02
-1.101107399940662590e-01
-2.369246710848670334e-01
-3.793838768880571921e-01
-4.880319145978589401e-01
-4.923373679465082864e-01
-3.510374456344057537e-01
-9.703063796993230405e-02
1.693441395947168360e-01
3.427757850799352246e-01
3.816297143750297938e-01
3.243115727424475958e-01
2.432623229396079223e-01
1.844122390998527150e-01
1.478177941530609274e-01
1.155484959786478305e-01
8.192971449153252372e-02
4.778902336835655351e-02
-5.291708904896608168e-03
-1.125980398333372573e-01
-2.822225203924870196e-01
-4.565570582204466210e-01
-5.346769267072236653e-01
-4.483947315596191752e-01
-2.218202819156970540e-01
4.397498247403185123e-02
2.451834241555732596e-01
3.389159797365388638e-01
3.478103798856670426e-01
3.188839883920400742e-01
2.832935320379282307e-01
2.459033232265394608e-01
1.989494169704228155e-01
1.388051900630236091e-01
7.079195608562738329e-02
-1.357641546425591983e-04
-8.195026658025428290e-02
-1.932008380588638996e-01
-3.380494977764658682e-01
-4.784850759941072229e-01
-5.399458560472575330e-01
-4.618999560509230995e-01
-2.537906582240126996e-01
1.731024712714912539e-03
2.089617037512980779e-01
3.264393859475740456e-01
3.763502221813069815e-01
3.940536803782042075e-01
3.803265430973099548e-01
3.111645692059470392e-01
1.888214553238956039e-01
6.674648664174924473e-02
1.013683638935691800e-02
2.835523866015832173e-02
5.082040529941483920e-02
-2.172588564256391908e-02
-2.294256014507448649e-01
-5.024440495093058789e-01
-6.926036263607791010e-01
-6.691563093387664640e-01
-4.105943430137148353e-01
-2.563187196413993507e-02
3.128348473758829074e-01
4.749561027349956110e-01
4.477976942224589640e-01
3.255000908616971778e-01
2.268308287437078574e-01
2.065440141855138523e-01
2.301030606526469902e-01
2.246778566285246859e-01
1.516703810618864612e-01
3.193234109685016975e-02
-9.171080015356003479e-02
-2.043026032070351383e-01
-3.217039742959180160e-01
-4.446814924629740595e-01
-5.228176761923455373e-01
-4.809276969132449953e-01
-2.902606406253339655e-01
-1.078566255435314813e-02
2.435570962423785346e-01
3.850200392713614139e-01
4.027390242357815620e-01
3.462202380642833699e-01
2.721019141484835036e-01
2.088889394601194383e-01
1.596064508392220915e-01
1.186032049076399808e-01
7.520474260470033645e-02
7.828833112529132165e-03
-1.081368310647623510e-01
-2.728702437903449685e-01
-4.401677510413604111e-01
-5.305132735612427819e-01
-4.789326967625119336e-01
-2.833413378136067085e-01
-1.391787712243919284e-02
2.263817534496849193e-01
3.613004966947103158e-01
3.779824921594706622e-01
3.194500485183968674e-01
2.461396933264522469e-01
1.981437351761582422e-01
1.809150578352475280e-01
1.737965196532661738e-01
1.449322012278616012e-01
6.093035195954196737e-02
-1.027027354012985672e-01
-3.385583419018420859e-01
-5.813658967593680060e-01
-7.150171621409284750e-01
-6.355891649204499227e-01
-3.356384645034408143e-01
6.711131722735969030e-02
3.979361410278687838e-01
5.412129416218696143e-01
5.061329169066166589e-01
3.915249116049214217e-01
2.935973910436344703e-01
2.429013124368751275e-01
2.118635875968976068e-01
1.606673817910839186e-01
6.659161988888726014e-02
-7.791378598539394629e-02
-2.698193496193009855e-01
-4.810634256260422070e-01
-6.444967878179663767e-01
-6.752423547931984960e-01
-5.265449129991565114e-01
-2.334250450030466717e-01
1.000321023971266488e-01
3.620993234024311169e-01
4.925816323772179151e-01
4.983174667562626503e-01
4.272817931880615316e-01
3.321555490195045590e-01
2.476533219711827827e-01
1.846346247146466724e-01
1.333224680584926825e-01
7.059261806108554915e-02
-2.908946875713785962e-02
-1.791505103513078012e-01
-3.654443659173338688e-01
-5.373374284610343832e-01
-6.183262476521307338e-01
-5.442974662576974820e-01
-3.133147452661637633e-01
-5.853563600240890841e-03
2.544998995267999664e-01
3.790397812585861725e-01
3.681460041394919447e-01
2.954500587832025182e-01
2.387520409775070185e-01
2.223301350614095284e-01
2.191415542138750450e-01
1.974311804574588880e-01
1.527484843066191367e-01
9.200326065837427514e-02
7.528226027234685702e-04
-1.510671825671239810e-01
-3.590513690188608109e-01
-5.479556759005335120e-01
-6.049426707263559910e-01
-4.658625641345356394e-01
-1.756399874567908803e-01
1.362758210663693736e-01
3.433054553701853084e-01
3.960111200625533456e-01
3.310624641756659270e-01
2.260051543468047930e-01
1.464364985829377241e-01
1.191320179940138502e-01
1.327093360041271541e-01
1.511275986969257135e-01
1.308115232690904572e-01
4.088095158614543645e-02
-1.170541230044860326e-01
-3.009217769594954017e-01
-4.414368870664684419e-01
-4.736451819101472616e-01
-3.720334800420856958e-01
-1.697071032929010626e-01
5.365802783202476556e-02
2.140322865630706617e-01
2.709611987567978608e-01
2.466450140749050224e-01
2.007389298737375094e-01
1.813846660046384007e-01
1.928027273981886835e-01
2.031687765704056348e-01
1.782397351924596141e-01
1.049730233419104430e-01
-1.179754902219987134e-02
-1.609390021782325930e-01
-3.199683022109143238e-01
-4.407379236279099777e-01
-4.586706932715991503e-01
-3.362924790653177842e-01
-1.048698875213974757e-01
1.426421406080065624e-01
3.087773805709712049e-01
3.499858352347962609e-01
2.899587151656568551e-01
1.888894944062131653e-01
1.039396036133313217e-01
6.591591380093642094e-02
7.010813792598619143e-02
7.560295276934805853e-02
2.361417837698900901e-02
-1.176051549257394191e-01
-3.083018897597933350e-01
-4.428908880673704251e-01
-4.208249843554875413e-01
-2.298255235712144962e-01
3.572959811941536779e-02
2.429738400183338864e-01
3.159739816393775103e-01
2.769276053185277253e-01
2.072437049147184129e-01
1.736976668110340460e-01
1.827540984713687533e-01
1.875123079345686894e-01
1.279291307477082307e-01
-2.606049297902685372e-02
-2.479299770635119415e-01
-4.564081258830619547e-01
-5.523052445365930208e-01
-4.771434836989175143e-01
-2.549675539224062204e-01
1.948476631558704320e-02
2.417690563286928329e-01
3.586183509591271967e-01
3.808203721378445872e-01
3.493585830429967176e-01
2.980225149832044229e-01
2.442052551057718457e-01
1.964444610613358400e-01
1.513932803651369952e-01
8.104128854525871617e-02
-6.038233187400621205e-02
-2.943845984975236307e-01
-5.706904989322301169e-01
-7.667656015273953685e-01
-7.534820971889395480e-01
-4.844906091365119849e-01
-4.023778122714993799e-02
4.080166181710909168e-01
6.894133692770552102e-01
7.213992620436142644e-01
5.443016690595570140e-01
2.871091186720557964e-01
8.635929951775378477e-02
4.894210233017393108e-03
4.586227135754405992e-04
-3.143284681254976398e-02
-1.656824527025914096e-01
-3.753232681759696154e-01
-5.408859143557870341e-01
-5.394611806946975063e-01
-3.413922401010229812e-01
-3.444762620261321295e-02
2.401686859208939095e-01
3.811272640363860265e-01
3.761412655257938553e-01
2.832258490777113114e-01
1.766692683999027125e-01
1.033857586306577980e-01
7.023003973730010396e-02
5.582775185616939417e-02
3.115982307079025182e-02
-2.368627626276111758e-02
-1.122330002528718479e-01
-2.219316469870834252e-01
-3.263161356337538899e-01
-3.873657156150533409e-01
-3.643296553874172949e-01
-2.345007159205818592e-01
-1.756489463695143360e-02
2.180898085556148835e-01
3.828743864349898329e-01
4.166774451207444496e-01
3.269691239186643950e-01
1.825327707258348475e-01
6.613386095133688691e-02
2.248565305220417976e-02
3.698806566428108900e-02
5.306588795950825665e-02
1.244962494955897947e-02
-1.032967742870557482e-01
-2.510396209230105757e-01
-3.430720045981984767e-01
-3.046635700517873468e-01
-1.380139093975654152e-01
6.350141011416288173e-02
1.762550108495272161e-01
1.400373614952299395e-01
4.709348248732536657e-03
-1.121886006692234261e-01
-1.199826129735268587e-01
-2.122788235146111369e-02
1.005749730704679212e-01
1.535399239155821327e-01
1.076382947931953105e-01
1.114561145420323029e-02
-5.153159377687077658e-02
-2.423921905836723401e-02
8.054703338886848307e-02
1.906871061585813099e-01
2.239801785608024343e-01
1.437443430841396363e-01
-1.669151592609703638e-02
-1.753721452481386001e-01
-2.527225409100870568e-01
-2.182198254555188788e-01
-1.048568522229921807e-01
1.442597933314559988e-02
7.194045594040754388e-02
4.464617156030881162e-02
-3.537252489730935423e-02
-1.046818869633336369e-01
-1.103359061569841870e-01
-4.275300102559942417e-02
6.038258878553981468e-02
1.404839750486662209e-01
1.573817403524514491e-01
1.154024024716119312e-01
5.678921816904164421e-02
2.541793825565800968e-02
2.898371398906041119e-02
3.304142329510137421e-02
-5.559594878665363726e-03
-9.487458813254268097e-02
-1.938333219845398969e-01
-2.409353288600055709e-01
-1.997177800103679679e-01
-8.263025242597532571e-02
6.159475613110704240e-02
1.799682775209289765e-01
2.404337275068829660e-01
2.392532398335688870e-01
1.952683429331896203e-01
1.369101265275921853e-01
8.507796332487994884e-02
4.018845542818680339e-02
-1.437813111160790580e-02
-9.134546106882818206e-02
-1.785567770419258515e-01
-2.395690822530082142e-01
-2.394080145735892340e-01
-1.748758441161631927e-01
-8.259588237331466631e-02
-1.667853285017628640e-02
-1.279178986139384300e-02
-6.370953803200579690e-02
-1.213206089016813927e-01
-1.250515351656620311e-01
-4.329847874694348064e-02
9.763320193412461379e-02
2.241280041482663909e-01
2.682447543021453384e-01
2.245632376798019081e-01
1.563319934940288758e-01
1.375756866283168733e-01
1.838418029172748103e-01
2.405317705707905596e-01
2.389416960578499838e-01
1.604780824913482062e-01
4.625521919136388327e-02
-5.044215593014045318e-02
-1.171617634913142691e-01
-1.907161129162564528e-01
-3.156087239260066957e-01
-4.897799500105538550e-01
-6.442126073637558514e-01
-6.771303844787923687e-01
-5.232644458588463499e-01
-2.099416152890294374e-01
1.456995773505684877e-01
4.053983998654727694e-01
4.985184253272127441e-01
4.619128548332147588e-01
3.967493703025001262e-01
3.769410530207660259e-01
3.868758675455745699e-01
3.435803578703843231e-01
1.864793569666755024e-01
-4.486479730149040002e-02
-2.221196791122230785e-01
-2.308513691734090933e-01
-7.858999744771955065e-02
9.446268876140084814e-02
1.225903230533206267e-01
-4.991961737833161550e-02
-3.231609233053354124e-01
-5.212830251455029540e-01
-5.236050582176714485e-01
-3.421404123400406672e-01
-9.897130942387011299e-02
6.574376375762872038e-02
8.757825530794466351e-02
1.500863954295539315e-02
-3.213693032636098790e-02
4.323172143999520767e-02
2.348642056341899709e-01
4.313338181927870441e-01
5.012500969498248082e-01
3.982733141175269775e-01
1.963290633682441833e-01
2.549390035120768783e-02
-3.313231963425006255e-02
-3.874836215726554234e-03
1.558267886575431804e-02
-6.143343009876550687e-02
-2.428032213193170863e-01
-4.496242533388418172e-01
-5.650528478156165990e-01
-5.070496639368797798e-01
-2.834045940529212881e-01
6.195106787493909195e-03
2.300520333489853853e-01
3.110918477775326818e-01
2.751543432876946138e-01
2.186730153124099574e-01
2.205869000752864462e-01
2.740823877995785529e-01
2.966222160943886021e-01
2.068172575485792142e-01
5.825547836885158759e-04
-2.351532370590931897e-01
-3.789092532801689450e-01
-3.569887120160759597e-01
-1.927120634152193479e-01
1.107201820308928442e-02
1.427999293255412527e-01
1.545017348218962194e-01
8.328610907170941324e-02
9.750663936177184077e-03
-1.062926191447188806e-02
1.112279888301890424e-02
1.443481125883072647e-02
-4.999338348046933334e-02
-1.658798061623253384e-01
-2.524594466378071722e-01
-2.259839839767135983e-01
-7.196015552194512388e-02
1.361385818056359831e-01
2.900923315829443405e-01
3.248469860388253361e-01
2.545831890988692336e-01
1.451688604740071220e-01
5.809901837019526560e-02
1.320055471548253756e-02
-1.221107295350154498e-02
-5.816223666121556057e-02
-1.475903325349764428e-01
-2.596490991525260972e-01
-3.311995250087104159e-01
-2.964392498640973650e-01
-1.420533715132977770e-01
6.955011794658771951e-02
2.370661780202352187e-01
2.914535203778760852e-01
2.409036659662626700e-01
1.514807768537447252e-01
8.380374407297042083e-02
4.404919025266651467e-02
-8.903228503880561417e-03
-1.105261300742388236e-01
-2.418688619230926484e-01
-3.296324246580782935e-01
-2.977972922270183398e-01
-1.309447931469762683e-01
1.015576264180635402e-01
2.840009440163797638e-01
3.319808239002071115e-01
2.515296650417239155e-01
1.296453827258254865e-01
5.873096531361721162e-02
5.667165839136822925e-02
5.449958730351855962e-02
-3.297347310250398067e-02
-2.149565433911257983e-01
-3.970769396434957743e-01
-4.492168210804703410e-01
-3.120957165442288517e-01
-4.847511963761930165e-02
2.052094395959807027e-01
3.409084063141660792e-01
3.451002502787496873e-01
2.804410590798616099e-01
2.134058028434577814e-01
1.577442514538724971e-01
7.636767151454115776e-02
-6.975793966732934948e-02
-2.687589051133030260e-01
-4.418934446709958941e-01
-4.823845615645585561e-01
-3.312612053903940534e-01
-3.620615502735757829e-02
2.633740469043751031e-01
4.276049287848704417e-01
4.125851245390190769e-01
2.862067401082715179e-01
1.501321245917957015e-01
4.598184485947243161e-02
-6.214397077901523403e-02
-2.165839334456816090e-01
-3.863323049780920115e-01
-4.680448601145377197e-01
-3.740613414303588513e-01
-1.221319294864748883e-01
1.641108394124482783e-01
3.479471639981583930e-01
3.792118328459817000e-01
3.118706102798345370e-01
2.332711203540807077e-01
1.787579956993639030e-01
1.091950397901051417e-01
-3.420213763926227557e-02
-2.504650625556443799e-01
-4.478135602990498398e-01
-4.966986958483143866e-01
-3.329738212780402051e-01
-2.572924037308688128e-02
2.574541664612790548e-01
3.685645849520007289e-01
2.826418123439999874e-01
1.002370003700185919e-01
-4.414740957051321857e-02
-8.076656949531724194e-02
-3.264487895001622064e-02
3.038953927874388228e-02
5.643076954919834520e-02
4.322169479638768297e-02
