BVP Green Neck Signal
1.012736435570911822e-02
3.388389142403949207e-03
-3.218619319507508812e-03
-9.538237088481654052e-03
-1.541504022297488299e-02
-2.069361052570645176e-02
-2.522942588374767203e-02
-2.891151859702075638e-02
-3.163784051244711293e-02
-3.333917835275738289e-02
-3.396962638578436555e-02
-3.350188389219230234e-02
-3.195193638508674050e-02
-2.934607035458924873e-02
-2.574888777180508320e-02
-2.124658666760161421e-02
-1.594222351711748961e-02
-9.969972034057854315e-03
-3.470112222395829206e-03
3.397666216056396439e-03
1.046511494151507182e-02
1.756199336247270953e-02
2.451517093190289445e-02
3.115383192817522406e-02
3.732114481910470127e-02
4.286567103982811405e-02
4.765531556966523530e-02
5.158065797099422450e-02
5.454286016517106289e-02
5.648219174547458588e-02
5.735075780989985078e-02
5.713211934137555487e-02
5.583916497341995244e-02
5.349784990352911968e-02
5.017281278210317108e-02
4.593827961037259822e-02
4.089350458153360318e-02
3.515629507883322874e-02
2.885215583256343919e-02
2.212480369415875670e-02
1.512128044470775756e-02
7.993901497490648808e-03
8.980474158120036604e-04
-6.013982138569452969e-03
-1.259600676866933985e-02
-1.870475036287830989e-02
-2.421365535483037401e-02
-2.900411173192449232e-02
-3.297239247910036669e-02
-3.603771964488199780e-02
-3.812684370899108166e-02
-3.919867463263897872e-02
-3.922432878480134472e-02
-3.819795442748488007e-02
-3.614191622194182912e-02
-3.308814875860625893e-02
-2.910333933975919884e-02
-2.426477876586939988e-02
-1.867134755973124879e-02
-1.244296711278992940e-02
-5.706419942160417293e-03
1.391117946763465243e-03
8.697698543202538740e-03
1.605481210179330112e-02
2.329887116040802245e-02
3.026836290281133268e-02
3.680758705800168951e-02
4.276340958825366328e-02
4.800030453581606571e-02
5.239364416317653095e-02
5.583353426197760344e-02
5.824004471127707666e-02
5.954156404072517839e-02
5.970381723917122380e-02
5.871089080787416509e-02
5.656966455558917750e-02
5.332371508849094444e-02
4.902597824446926211e-02
4.376604870583448298e-02
3.764779751860490575e-02
3.079269391974771494e-02
2.334473389848104249e-02
1.545261238447172281e-02
7.280054736161293595e-03
-1.004807702514904678e-03
-9.233166517930064404e-03
-1.723552417517963328e-02
-2.484589105429877570e-02
-3.191095665683896243e-02
-3.828145280470490047e-02
-4.382757874530386621e-02
-4.843531629962918861e-02
-5.200298742694740850e-02
-5.446179368216609584e-02
-5.575147297795797485e-02
-5.584523911180086508e-02
-5.473789279192157325e-02
-5.244185230281502713e-02
-4.900674144811680011e-02
-4.449090021821622276e-02
-3.898573225363208272e-02
-3.259956129943031994e-02
-2.545542025853671231e-02
-1.770104047854575285e-02
-9.488988330547832445e-03
-9.875399702002334718e-04
7.628787063961770497e-03
1.618433558987330753e-02
2.450194122132453786e-02
3.240712047614919405e-02
3.973906789207505563e-02
4.634193077398381100e-02
5.207956118446752797e-02
5.683679638548099627e-02
6.050989729960283559e-02
6.303434813065468545e-02
6.435686737656089174e-02
6.445874812670349119e-02
6.335057497666519988e-02
6.105846967108347068e-02
5.765102315384938031e-02
5.320695817635519298e-02
4.783522479316534848e-02
4.166512312595696543e-02
3.483601840672311684e-02
2.750917378274076244e-02
1.984964190879521737e-02
1.202953445153706960e-02
4.224659780265899167e-03
-3.393246510161321110e-03
-1.065973424365749059e-02
-1.741425590528955861e-02
-2.351765104763941377e-02
-2.884006164983832915e-02
-3.327127444435416803e-02
-3.672858267147992295e-02
-3.913887701096855493e-02
-4.046802005825874543e-02
-4.069541170346756970e-02
-3.982814068144750058e-02
-3.790411827252570393e-02
-3.497219267944289695e-02
-3.111819813767111031e-02
-2.643829927998048862e-02
-2.105028775227601665e-02
-1.509110551998731065e-02
-8.703483959495682265e-03
-2.045819066648599770e-03
4.720453180555923833e-03
1.143311996391192450e-02
1.792944277121178917e-02
2.405244533701009560e-02
2.965884195694272127e-02
3.460994214805143687e-02
3.879200694586353720e-02
4.210533139105109707e-02
4.446859005916098395e-02
4.583432972287390661e-02
4.616431266925841853e-02
4.545987069904143529e-02
4.374001674330109390e-02
4.104680127090050423e-02
3.745596529563628013e-02
3.305178276634906931e-02
2.795035376279554964e-02
2.227898969589792513e-02
1.617838296544787946e-02
9.804792284528083060e-03
3.316619437360604581e-03
-3.122447102673983448e-03
-9.347722419542302957e-03
-1.520221639518122558e-02
-2.053606351929738658e-02
-2.520730419316664223e-02
-2.909850945453568150e-02
-3.209929202144365390e-02
-3.412898542342834851e-02
-3.512881876703347755e-02
-3.505710958399511912e-02
-3.391344377671086374e-02
-3.170752002525788898e-02
-2.848756085370320046e-02
-2.432433871550492704e-02
-1.930646881174786708e-02
-1.355675811348691986e-02
-7.205093058919662639e-03
-4.050908532647681803e-04
6.678701321570035786e-03
1.387666073609343173e-02
2.101145963472926190e-02
2.790664901193679742e-02
3.439456974808267897e-02
4.031118740205152234e-02
4.550923846144949020e-02
4.986186674943018232e-02
5.325234701203811899e-02
5.560304573816462342e-02
5.684861919120542256e-02
5.695748338394874405e-02
5.593072217680530867e-02
5.378425412854759280e-02
5.057959044967184903e-02
4.638992418011351343e-02
4.131928884304641308e-02
3.549545031869261874e-02
2.905602828623062364e-02
2.216279883599561046e-02
1.498211558505825602e-02
7.687662336528225046e-03
4.575582947239703255e-04
-6.534084465857076772e-03
-1.312145763206008092e-02
-1.914265778520701095e-02
-2.445888359194613865e-02
-2.894270595428607984e-02
-3.248683353679186758e-02
-3.501621261957617998e-02
-3.646578454698933686e-02
-3.681331130309143523e-02
-3.605331437241630910e-02
-3.420836483220746072e-02
-3.133669676590819519e-02
-2.750715660478322139e-02
-2.282698303540536128e-02
-1.741532416707108552e-02
-1.141055668354313407e-02
-4.970506434540171610e-03
1.742978806501665860e-03
8.556826399595830399e-03
1.529578443037023575e-02
2.178960554309570044e-02
2.787207835540041895e-02
3.338535049643418656e-02
3.819419547746487342e-02
4.216999071764509360e-02
4.521563917936912563e-02
4.725424492900159867e-02
4.822846575625300974e-02
4.812208549869929908e-02
4.692901102056681178e-02
4.468389055256036246e-02
4.144209560683230487e-02
3.727894741817316254e-02
3.230305475232725376e-02
2.663017999138180686e-02
2.040133418182379227e-02
1.376760738930171701e-02
6.887065259121531030e-03
-7.297349707174015376e-05
-6.945470056705358754e-03
-1.356786981175454876e-02
-1.977951376309132481e-02
-2.543332964432171162e-02
-3.039661204028117764e-02
-3.454577621377209751e-02
-3.778876268151263457e-02
-4.004266079844084891e-02
-4.125512509400360017e-02
-4.139952159555735506e-02
-4.046417576223916568e-02
-3.847823853585218001e-02
-3.548085281187450535e-02
-3.154374612868901528e-02
-2.676043533610781427e-02
-2.123740503559695333e-02
-1.510933753700790735e-02
-8.516492436311147440e-03
-1.614674058507479214e-03
5.432123867715217894e-03
1.245905845278851877e-02
1.929992031370237129e-02
2.579044190020744060e-02
3.178034115037409180e-02
3.712547286144807918e-02
4.169882694904934045e-02
4.539722233091730147e-02
4.812670095985959601e-02
4.983153897677017330e-02
5.046927821023729221e-02
5.002657177248179265e-02
4.852224835969690120e-02
4.598706869133624420e-02
4.249219178752935977e-02
3.812005309148413373e-02
3.297781718508334403e-02
2.719439003289114004e-02
2.090590183126334392e-02
1.426813066356536104e-02
7.440876827945188884e-03
5.880197512007833902e-04
-6.123730608930308926e-03
-1.253189970525443037e-02
-1.848411517645265345e-02
-2.383177453583906064e-02
-2.844822459917068641e-02
-3.221908066428512407e-02
-3.504710925323309412e-02
-3.686647178679156728e-02
-3.762012341597257420e-02
-3.728938875100165640e-02
-3.587264008497016016e-02
-3.339178656893006247e-02
-2.990291799980410864e-02
-2.547126833196657059e-02
-2.019687027459265288e-02
-1.419199883729139675e-02
-7.585712904427396354e-03
-5.264590964709067386e-04
6.833417325867420337e-03
1.432989743390533643e-02
2.179606569246836378e-02
2.906747689829303899e-02
3.598195797622673331e-02
4.238291540382214256e-02
4.813126271636342102e-02
5.309315286828546199e-02
5.715908621242229981e-02
6.023737522922992249e-02
6.225129959732129264e-02
6.316009845222322894e-02
6.293201555026194105e-02
6.157095310834172913e-02
5.910154843151148307e-02
5.556637845515386559e-02
5.104219698311290160e-02
4.561341316708851512e-02
3.939255331202917015e-02
3.250508052973264533e-02
2.508721370167534687e-02
1.729146411093664820e-02
9.272854270411055172e-03
1.192900864731154080e-03
-6.784706407003065522e-03
-1.450024096950542490e-02
-2.179876835834256010e-02
-2.852980436482215054e-02
-3.456100936180900307e-02
-3.976596206833559605e-02
-4.403917224004842007e-02
-4.729525986789820391e-02
-4.946036238904634452e-02
-5.049648427639295833e-02
-5.037529642562178084e-02
-4.910043259120594472e-02
-4.669995645173541376e-02
-4.321672256277067636e-02
-3.873033135677791255e-02
-3.332884660218343037e-02
-2.712789643388984623e-02
-2.025983603596590021e-02
-1.286663364004557789e-02
-5.109251688659611525e-03
2.848292792609810782e-03
1.083596513699174903e-02
1.868094582858143698e-02
2.621536206406944666e-02
3.327925696829887869e-02
3.971727158717002631e-02
4.539736021781434760e-02
5.019673511861937054e-02
5.401502902004718526e-02
5.678018592905968026e-02
5.843099095258710851e-02
5.894763143608595934e-02
5.832343151186099306e-02
5.658124842682955152e-02
5.377359933981250284e-02
4.996413330320322033e-02
4.525115419974053838e-02
3.974179128733291988e-02
3.356206100315097668e-02
2.685306301360070383e-02
1.975995900510222128e-02
1.243782526455581780e-02
5.043122187969584919e-03
-2.270942740422619670e-03
-9.353261410950979710e-03
-1.605981948144707613e-02
-2.226158932180411637e-02
-2.783423029115986852e-02
-3.267661073038017477e-02
-3.669938353017802857e-02
-3.982927715441639260e-02
-4.201971173774079332e-02
-4.323149209849681818e-02
-4.345606602903193116e-02
-4.269726551783194907e-02
-4.097718564905389327e-02
-3.834201835583150864e-02
-3.484472733713439574e-02
-3.056299396847317329e-02
-2.558244972223797098e-02
-2.000131051806693094e-02
-1.393100299965225816e-02
-7.486161449213323514e-03
-7.909939827037736418e-04
6.028046355938763284e-03
1.284406364552255139e-02
1.952979529590426200e-02
2.596082897269947135e-02
3.202093706367576537e-02
3.759651219126226851e-02
4.258799337824449582e-02
4.690516600018146409e-02
5.046777481404618459e-02
5.321736114765390074e-02
5.510121795798263861e-02
5.609153208832502041e-02
5.617366166677209560e-02
5.534742521447371527e-02
5.363771561132178040e-02
5.107561465657377286e-02
4.771660978842992562e-02
4.362642872310032449e-02
3.888264881652300775e-02
3.357918303641199004e-02
2.781354227991419265e-02
2.169544489468976448e-02
1.533858326430948341e-02
8.859521339501370135e-03
2.377973115664754056e-03
-3.987205483646920866e-03
-1.012113553131793048e-02
-1.591040223987671628e-02
-2.125059165439893358e-02
-2.604514925321532726e-02
-3.020387322106943273e-02
-3.365486497718652575e-02
-3.633120204727451757e-02
-3.818586015838112968e-02
-3.918563963454708282e-02
-3.930844138358934731e-02
-3.855743839365310260e-02
-3.694197366221112222e-02
-3.449549519740151282e-02
-3.126476110101412964e-02
-2.730855257904536704e-02
-2.270741092326123214e-02
-1.754672731614716208e-02
-1.192965380504238879e-02
-5.967083218841534066e-03
2.239636529896881292e-04
6.517648824886726651e-03
1.278739062291669656e-02
1.890631316919456906e-02
2.474768007116930763e-02
3.019185027547535705e-02
3.512732450400297274e-02
3.944805149489404028e-02
4.306851383881460382e-02
4.590953187394614110e-02
4.791285304434581699e-02
4.903932276818218083e-02
4.926035934600988403e-02
4.857858212740683718e-02
4.700462839555168137e-02
4.457471630415105884e-02
4.134363083855957521e-02
3.737689793456158011e-02
3.276534368735523756e-02
2.760523655155318681e-02
2.200914261608854366e-02
1.609899997216320336e-02
1.000064691707766053e-02
3.847188396688346751e-03
-2.227859389788636700e-03
-8.094029659560370710e-03
-1.362236754840913389e-02
-1.869177929213338557e-02
-2.319305212702195765e-02
-2.702197026440077143e-02
-3.009692088431245582e-02
-3.234479659966588844e-02
-3.371181435212280975e-02
-3.416736479508718227e-02
-3.368980200047658885e-02
-3.229029935176297439e-02
-2.999000732205273773e-02
-2.683361505397483665e-02
-2.288826542617473925e-02
-1.823005159887685842e-02
-1.296183646383536683e-02
-7.193045687009589316e-03
-1.047851557346790065e-03
5.338391787367211851e-03
1.182752612183256974e-02
1.827489491146349829e-02
2.453531484279682442e-02
3.046891692670630758e-02
3.593908275164638816e-02
4.081775926678393729e-02
4.499401686479171519e-02
4.836242440266710213e-02
5.084460458655060827e-02
5.237525196362583652e-02
5.290854746051932428e-02
5.242939877371205482e-02
5.093151103518289008e-02
4.844470457597276764e-02
4.501267700747543093e-02
4.070040346087464705e-02
3.559952516742259654e-02
2.980899566793280067e-02
2.345334347022166518e-02
1.666482783187529793e-02
9.586294965921445671e-03
2.371147308815669749e-03
-4.826224431363474072e-03
-1.184957091630193041e-02
-1.854283072496662119e-02
-2.475922999567479327e-02
-3.035937009839679429e-02
-3.521281215477656268e-02
-3.921277184832642343e-02
-4.225907211199946695e-02
-4.428127936983100588e-02
-4.522774711549189947e-02
-4.506485664859533752e-02
-4.379635126089232583e-02
-4.143520942766681231e-02
-3.803178408965604551e-02
-3.365517392897779403e-02
-2.839323759470888803e-02
-2.236469912156989481e-02
-1.569501477623109695e-02
-8.533630609520254096e-03
-1.039423202909968598e-03
6.622282974546935506e-03
1.427773084396998134e-02
2.175385086966204543e-02
2.888360405099755709e-02
3.550238182256331559e-02
4.146115000596094918e-02
4.662710899830697919e-02
5.087774606290387802e-02
5.412559013121082119e-02
5.629321971767307919e-02
5.733665927256511446e-02
5.723966836782226619e-02
5.600194757173519722e-02
5.366605490130282180e-02
5.028484012743254794e-02
4.594384975374211227e-02
4.075017764624943445e-02
3.482298316809421396e-02
2.830724246625732424e-02
2.135274171666398310e-02
1.412117841453058159e-02
6.780409192656059771e-03
-5.029560459712560314e-04
-7.564560855541672783e-03
-1.424274144980551549e-02
-2.039213633435010137e-02
-2.587438354921674927e-02
-3.056821173786407331e-02
-3.437577297086953643e-02
-3.720795127322130275e-02
-3.901109135265212052e-02
-3.974366957492714292e-02
-3.939069722641389687e-02
-3.796609718545571749e-02
-3.549476117512832818e-02
-3.203838329395489182e-02
-2.766887167915976081e-02
-2.248174594942570215e-02
-1.659298994522073398e-02
-1.012620077078848699e-02
-3.225658702370911603e-03
3.959937854436641411e-03
1.127452579989548717e-02
1.855698504543285346e-02
2.564799428651242524e-02
3.239263040390918252e-02
3.863831341006644660e-02
4.424846663170695776e-02
4.909535442003484795e-02
5.306572969343574531e-02
5.607250976323708419e-02
5.803645674051134684e-02
5.891371815199325512e-02
5.867598333368505975e-02
5.731857802787620332e-02
5.487067244340173428e-02
5.137110284764827284e-02
4.689612678190843015e-02
4.153505124872923504e-02
3.539722382426577219e-02
2.861481473407232953e-02
2.132555021231392553e-02
1.368473095420958199e-02
5.852255146770339589e-03
-2.009584865171633143e-03
-9.736329410823633956e-03
-1.716696509002868867e-02
-2.415152726402748987e-02
-3.054365066311743454e-02
-3.621647040176084048e-02
-4.105718920241761827e-02
-4.496610697973342508e-02
-4.787461352327441327e-02
-4.972205929774699967e-02
-5.048056763720110141e-02
-5.014105645724551558e-02
-4.871193379282363206e-02
-4.623448287655634176e-02
-4.275765536059080579e-02
-3.835972134511708015e-02
-3.313227691467893199e-02
-2.717987774234258830e-02
-2.062644867759724429e-02
-1.359971581294015450e-02
-6.239739804707590716e-03
1.309103131850881604e-03
8.901446972101137792e-03
1.639075179344390981e-02
2.363261910239203289e-02
3.049212370829195579e-02
3.683756311036493619e-02
4.255154567701554397e-02
4.753023454877325360e-02
5.167849134182676135e-02
5.492809372079457408e-02
5.721813702730759593e-02
5.851344974808311145e-02
5.879825124924402402e-02
5.806947963210913610e-02
5.635532261412305038e-02
5.369135212423277459e-02
5.013897090627107700e-02
4.577504515883758923e-02
4.068726770128398146e-02
3.498451352601869568e-02
2.877987171331071459e-02
2.219965996178789591e-02
1.537642516115327387e-02
8.444883683372407523e-03
1.543105342838103737e-03
-5.191628457254707403e-03
-1.162841282090934861e-02
-1.763895816556868348e-02
-2.310518140119748043e-02
-2.792170699801870687e-02
-3.198920451367807949e-02
-3.523202218953123965e-02
-3.758211482663189468e-02
-3.899249729246418578e-02
-3.943703498534578689e-02
-3.889958671695530057e-02
-3.739557532341228341e-02
-3.494884990938303126e-02
-3.160785027436117944e-02
-2.744038220185815447e-02
-2.252422207992900785e-02
-1.696246388947996592e-02
-1.086379829801386449e-02
-4.352461606154294470e-03
2.437598181135288214e-03
9.369060313639480941e-03
1.629786139448614543e-02
2.307962256229166911e-02
2.957432405624859859e-02
3.564421067067237436e-02
4.116035731987913171e-02
4.600833766280272574e-02
5.007924675421585037e-02
5.329008509868885662e-02
5.556831484044297276e-02
5.686219012726659999e-02
5.714701853130411957e-02
5.640734670117067417e-02
5.466297500023917233e-02
5.194508646314136696e-02
4.830761888807111326e-02
4.382805885469808621e-02
3.859173197682731066e-02
3.270859064030459673e-02
2.629488444241976502e-02
1.947818578379470825e-02
1.239538484192759596e-02
5.184739439212637455e-03
-2.012422650001223674e-03
-9.054803294936988184e-03
-1.580778428806026495e-02
-2.214114380957842021e-02
-2.793218945880797388e-02
-3.307456713751167482e-02
-3.746669436942125925e-02
-4.102964779721805094e-02
-4.369634840464958064e-02
-4.541491320931186765e-02
-4.615945998871307659e-02
-4.591120281119970281e-02
-4.468099904641645304e-02
-4.249204389910195973e-02
-3.938524216730097255e-02
-3.542557739061283351e-02
-3.068469001544252978e-02
-2.525886831647727176e-02
-1.925254261543741033e-02
-1.278227052017797544e-02
-5.977728072109530881e-03
1.028750443445111511e-03
8.097139265169658526e-03
1.508573829045074116e-02
2.185588989588502923e-02
2.827155802213911218e-02
3.420205660755688826e-02
3.953227256973934622e-02
4.415170203754421874e-02
4.797175341496635187e-02
5.091884932130179287e-02
5.293315356201973992e-02
5.398575502531718223e-02
5.405545395840351264e-02
5.315218987082391544e-02
5.130285292508793976e-02
4.855001180891552193e-02
4.496421304892798260e-02
4.062218349675533746e-02
3.562309182820871251e-02
3.007574491738350050e-02
2.409667925023245560e-02
1.781339696199823325e-02
1.135460755346563017e-02
4.850959412957939719e-03
-1.566453752787637550e-03
-7.772065535761293713e-03
-1.364656200853510415e-02
-1.907500686067106765e-02
-2.395879047611541510e-02
-2.820429599423864703e-02
-3.173457160724939968e-02
-3.448765826002594265e-02
-3.641018932610445152e-02
-3.747385518807566651e-02
-3.765682610690307408e-02
-3.695902938603642246e-02
-3.539596218650202519e-02
-3.299325603030524301e-02
-2.980017845516411829e-02
-2.587141343512532055e-02
-2.128041948987975662e-02
-1.611132302020599344e-02
-1.045584154244047492e-02
-4.419804997872324968e-03
1.888271458953205695e-03
8.351716681138054293e-03
1.485023962445410767e-02
2.126322034694128754e-02
2.746957273915022132e-02
3.334965269630493084e-02
3.879202238999499008e-02
4.368842902086899488e-02
4.794195948585323885e-02
5.146910791214843323e-02
5.419296785032036434e-02
5.606139608188297208e-02
5.702988392641752252e-02
5.707569716699622403e-02
5.619657797067096477e-02
5.440020136708872966e-02
5.172412153913878707e-02
4.821351190105985923e-02
4.393532307564102651e-02
3.897279168220897649e-02
3.341705657630253401e-02
2.737827497802585233e-02
2.097044641694486775e-02
1.431665870577133147e-02
7.545371671776610403e-03
7.850229833193823198e-04
-5.836131837322673481e-03
-1.219110816855519669e-02
-1.816254986621954753e-02
-2.363774389523862901e-02
-2.851428531823112927e-02
-3.270580999541283090e-02
-3.613143063241934516e-02
-3.873412526991208693e-02
-4.046601705244656788e-02
-4.129680487943683531e-02
-4.121790575615687235e-02
-4.022825328955421248e-02
-3.835438992275497228e-02
-3.563139560411763412e-02
-3.211261538017032291e-02
-2.786934854836212172e-02
-2.297948195159949664e-02
-1.754095565964215384e-02
-1.165669144135794352e-02
-5.439924027011944392e-03
9.880524967376498255e-04
7.504254775557147282e-03
1.398177778330843973e-02
2.029350411705689583e-02
2.631706654592879877e-02
3.193308007682864325e-02
3.702881896865263534e-02
4.150528089384872971e-02
4.526777930749330270e-02
4.824288467738728492e-02
5.036774601190211614e-02
5.159494325413971350e-02
5.190213596616245068e-02
5.127416602154878655e-02
4.972586014599773840e-02
4.728391620732547845e-02
4.399303006970303742e-02
3.992114120139048095e-02
3.514258066402768665e-02
2.975451568946039377e-02
2.386125329380742871e-02
1.757733282663877933e-02
1.102780725771914175e-02
4.339515995663010758e-03
-2.355973901572231723e-03
-8.926269063127302561e-03
-1.524295206141242087e-02
-2.118085974449307463e-02
-2.661987392920641543e-02
-3.145369930732757474e-02
-3.558003870247357370e-02
-3.891533973614748343e-02
-4.138825340695077848e-02
-4.293948648809349511e-02
-4.353552204680970206e-02
-4.314946663659129100e-02
-4.178231571288843621e-02
-3.944950419726320212e-02
-3.618231052804303516e-02
-3.203889754449049804e-02
-2.708409691801287600e-02
-2.140895101995939076e-02
-1.511526482360708509e-02
-8.317496443757368269e-03
-1.147178111653044015e-03
6.260680066431855047e-03
1.375983100491795855e-02
2.120056810005616077e-02
2.843361664281162521e-02
3.531016699795095498e-02
4.168499551078436172e-02
4.742644406504909621e-02
5.240720333931631753e-02
5.651968045269012419e-02
5.967313282617824760e-02
6.178885860676208014e-02
6.282190006569569884e-02
6.273607171431905272e-02
6.152771399012834513e-02
5.921527662420270066e-02
5.583310472063972296e-02
5.145085029992008119e-02
4.614613628748519963e-02
4.002460206562497708e-02
3.320698827859563940e-02
2.582443791184431056e-02
1.802645834426084073e-02
9.965543231633726406e-03
1.801579789866727781e-03
-6.302513424069515653e-03
-1.418700359304879768e-02
-2.169667915525252955e-02
-2.867996424862948035e-02
-3.500247558840578754e-02
-4.053606201950786525e-02
-4.517089768623003959e-02
-4.881773342410535704e-02
-5.139684204624454800e-02
-5.286226795453672495e-02
-5.317798911165282083e-02
-5.233591781466059162e-02
-5.035291759524936073e-02
-4.725821007048621597e-02
-4.311643130812371771e-02
-3.800095397485395154e-02
-3.201074498897874682e-02
-2.526294727884507985e-02
-1.788389559553107272e-02
-1.002100312762601447e-02
-1.825748663003935908e-03
6.540935606525208855e-03
1.491283218262013169e-02
2.312497934933632759e-02
3.101487908943980840e-02
3.842245444506887930e-02
4.520317549270114893e-02
5.121965772832548502e-02
5.635096547058619787e-02
6.050046115130194857e-02
6.358016655425006991e-02
6.553893296950255576e-02
6.633906553094467973e-02
6.596987839650132746e-02
6.445238517840061465e-02
6.181854305507689107e-02
5.813881844278926542e-02
5.349495319549576328e-02
4.799167413352645184e-02
4.175516780691315016e-02
3.491843435420664832e-02
2.763390727412684891e-02
2.005830724635139159e-02
1.235337189974308400e-02
4.684551791305260372e-03
-2.785613683876146836e-03
-9.902119135178483883e-03
-1.651290315711551396e-02
-2.248415107734952692e-02
-2.769286963194633050e-02
-3.203058396677075509e-02
-3.541706947722606663e-02
-3.777994646061068329e-02
-3.908162014026251435e-02
-3.930089868627979766e-02
-3.843825694834108325e-02
-3.652758735861618561e-02
-3.361174499519130332e-02
-2.976887464632547303e-02
-2.509033722684760742e-02
-1.968602411125015481e-02
-1.368855544686551143e-02
-7.235872544931816648e-03
-4.833480286738538537e-04
6.408707777327651497e-03
1.327768919884815546e-02
1.995875104712598741e-02
2.629053662154079082e-02
3.212390689911810010e-02
3.731373075615607854e-02
4.173614000698241261e-02
4.528378392412494430e-02
4.786332668203823609e-02
4.941726105437042188e-02
4.989728257779119103e-02
4.929171176241665259e-02
4.761149023295498800e-02
4.488626243712170311e-02
4.118350229528375955e-02
3.657920483680671825e-02
3.118052640476429854e-02
2.510986231066838700e-02
1.850134006014301710e-02
1.150794191765799196e-02
4.285510747404027744e-03
-3.003158408790272162e-03
-1.019277173870734854e-02
-1.712274469191053458e-02
-2.363854443981591724e-02
-2.959039822122951080e-02
-3.484891052594265431e-02
-3.929153661498614725e-02
-4.281734880853042824e-02
-4.534747389467637391e-02
-4.681420865669704001e-02
-4.718636874641559537e-02
-4.644284395739761706e-02
-4.459307794411977027e-02
-4.167131230192774177e-02
-3.772527701391325400e-02
-3.283809100810076292e-02
-2.710113298964339501e-02
-2.063102649058468768e-02
-1.356067054261290636e-02
-6.031317288039427828e-03
1.798330430020862562e-03
9.766739310170404961e-03
1.770761326185711637e-02
2.545230571455939575e-02
3.283706172811941271e-02
3.970645732598646060e-02
4.590938541094025105e-02
5.131732887386521863e-02
5.581122570185419879e-02
5.929319861841250011e-02
6.169378229182242296e-02
6.295386855201451359e-02
6.305546776774584306e-02
6.199433641460638800e-02
5.979549396701490382e-02
5.651516722945668786e-02
5.222079430907629327e-02
4.701641026533686513e-02
4.101585327697822303e-02
3.435324235628857414e-02
2.717989899698977294e-02
1.965188000845818211e-02
1.193744112535309078e-02
4.206861406812341733e-03
-3.371848096395689380e-03
-1.063223425066336936e-02
-1.741512863929378305e-02
-2.357778875374906546e-02
-2.898273619582281135e-02
-3.351964824642154200e-02
-3.709283960012964981e-02
-3.962619095470949759e-02
-4.107810613394124316e-02
-4.141647303014850401e-02
-4.064947060450638944e-02
-3.880253953239982262e-02
-3.592477783683344084e-02
-3.209842836901458107e-02
-2.741435764854818075e-02
-2.199521804266107647e-02
-1.597439501169486270e-02
-9.498760992909537765e-03
-2.730221011404665964e-03
4.167393113969621206e-03
1.102572842464059552e-02
1.767578956475410537e-02
2.395756254839448776e-02
2.971900126197815628e-02
3.481691741409629476e-02
3.913438077467934484e-02
4.256183752729296443e-02
4.502085840228769315e-02
4.645498095574805003e-02
4.682513930571078481e-02
4.613249832878507650e-02
4.438787252180702303e-02
4.163853580945886534e-02
3.795219832803186505e-02
3.341307951970204360e-02
2.813571193772186271e-02
2.224086594235620898e-02
1.587033815874941065e-02
9.175192953865530382e-03
2.311390662352775030e-03
-4.557971841524379765e-03
-1.127029043370304101e-02
-1.766875643017790098e-02
-2.359893762540256346e-02
-2.891907864896301611e-02
-3.350220011842410667e-02
-3.722928578939643796e-02
-4.001113162114686150e-02
-4.176769058128500939e-02
-4.244640959400901303e-02
-4.202022373301290969e-02
-4.047523371686198579e-02
-3.783679783992335149e-02
-3.414035216369076114e-02
-2.945212864941589015e-02
-2.386106481421787842e-02
-1.746842635920111894e-02
-1.040489494703570467e-02
-2.807342812991403362e-03
5.170259895763472044e-03
1.336396452948032144e-02
2.160732069296703722e-02
2.972924233410065287e-02
3.755936320459569294e-02
4.493681675161258215e-02
5.170531188645783455e-02
5.772194610653087754e-02
6.286436301269844595e-02
6.701783303330209607e-02
7.010139880016441616e-02
7.204690621439284459e-02
7.281217964292607814e-02
7.238668945545545519e-02
7.077097530043910401e-02
6.800585306591808155e-02
6.414439207234420848e-02
5.926524853000473408e-02
5.347187290382232616e-02
4.687621098903624328e-02
3.961550828506313349e-02
3.183306318536797269e-02
2.368276406409761808e-02
1.532665374724296106e-02
6.926939441849168377e-03
-1.354290762960316634e-03
-9.356010335087313473e-03
-1.692842913333636803e-02
-2.392868299164365928e-02
-3.022483518934607899e-02
-3.570707560635268119e-02
-4.027203399589835559e-02
-4.384624654490660439e-02
-4.637089816143082077e-02
-4.780704513100331871e-02
-4.814756623946752495e-02
-4.739409834277318739e-02
-4.558387587336243385e-02
-4.276800206766242368e-02
-3.901781530978004620e-02
-3.443041438464834042e-02
-2.910968615178562841e-02
-2.318321326015863881e-02
-1.678580986306517364e-02
-1.006112331623919970e-02
-3.161748022836912732e-03
3.759607592917151887e-03
1.055124620222143428e-02
1.706242928383207291e-02
2.315418113375337233e-02
2.869701155283236466e-02
3.357127932012313187e-02
3.768367407904843480e-02
4.094801221998638219e-02
4.330838467683158222e-02
4.472829790131251093e-02
4.518797578389894404e-02
4.470277992288912428e-02
4.329629812197378913e-02
4.102334484364292266e-02
3.795461477142749590e-02
3.417410459243114262e-02
2.978801185845738816e-02
2.490664368541849888e-02
1.965292716408544374e-02
1.415474415721173010e-02
8.539733117335376530e-03
2.935192279420583555e-03
-2.534283601268305132e-03
-7.757167369884934889e-03
-1.262653815246939440e-02
-1.705155498969209218e-02
-2.095840384773671114e-02
-2.428163729674930743e-02
-2.698407533416385951e-02
-2.903641944030900535e-02
-3.043111955992516826e-02
-3.117894419451775617e-02
-3.129876805876290885e-02
-3.083122483083004101e-02
-2.982171027045551343e-02
-2.832607422257398672e-02
-2.640715027359957084e-02
-2.412822555031386013e-02
-2.155331949339111750e-02
-1.874560087225788513e-02
-1.575972627950267269e-02
-1.264577873033590621e-02
-9.446176910499540919e-03
-6.189895747522557688e-03
-2.902494508014850060e-03
4.042409401456099546e-04
3.724303176746662433e-03
7.056057625118069415e-03
1.040394116210381810e-02
1.377210100001402537e-02
1.716088540719505964e-02
2.056905522602932648e-02
2.398503037643626851e-02
2.738578344277459511e-02
3.074205837353682913e-02
3.400239097034681024e-02
3.710896685564173819e-02
3.998771843097770340e-02
4.255026857527702960e-02
4.470425099751963727e-02
4.634667490350393576e-02
4.737306240932637191e-02
4.768570353051933275e-02
4.719166276971588359e-02
4.581057033264230444e-02
4.349144003523124080e-02
4.019232006186001377e-02
3.591683438184513355e-02
3.069406103211268222e-02
2.458299105760718486e-02
1.769737184006404951e-02
1.016429286608535980e-02
2.163626163076459545e-03
-6.101510845950986438e-03
-1.440786065284667058e-02
-2.250292658450077712e-02
-3.013160279546285569e-02
-3.703717783823388260e-02
-4.296319745485812497e-02
-4.767744454972385609e-02
-5.097575450942401498e-02
-5.267251086758428097e-02
-5.265253390510894749e-02
-5.082235184587571147e-02
-4.715711706748839521e-02
-4.169514621166713064e-02
-3.450636224715840361e-02
-2.575403711509254012e-02
-1.562453742093817058e-02
-4.366795327860168406e-03
7.724480784658338886e-03
2.033782233582366941e-02
3.312289300833007322e-02
4.572388033624189690e-02
5.778927493045613734e-02
6.897025232342834933e-02
7.894153524426872348e-02
8.742334808850726890e-02
9.415171090803248211e-02
9.894212036151790735e-02
1.016471595581629611e-01
1.021766103906666251e-01
1.005272627122219820e-01
9.672020970927902583e-02
9.087324412182062883e-02
8.313984386876867305e-02
7.372339923205822876e-02
6.288765275433200186e-02
5.090955767391832504e-02
3.810794565371516951e-02
2.481312863138301558e-02
1.135664134895461759e-02
-1.928807068462669826e-03
-1.472100586488111693e-02
-2.673313647049002650e-02
-3.768924879722186649e-02
-4.736451412240443026e-02
-5.557324579911029905e-02
-6.215955680891196988e-02
-6.704236192579780818e-02
-7.015888666092127968e-02
-7.151391363373030274e-02
-7.115332628164335038e-02
-6.915301695643220892e-02
-6.564856995022615160e-02
-6.078788175824641205e-02
-5.475920015381272044e-02
-4.777013866141829185e-02
-4.003815741537111728e-02
-3.179625336293771809e-02
-2.327767047191631189e-02
-1.470878352179789614e-02
-6.312935043668337597e-03
1.704175894449503660e-03
9.159170280432688688e-03
1.587930344629931434e-02
2.173410079398335401e-02
2.660674345477216304e-02
3.041584262523300275e-02
3.311564290432046642e-02
3.467577796530738748e-02
3.511468428072791331e-02
3.446365360110738296e-02
3.278711948151885602e-02
3.017602660352755595e-02
2.673251641011579680e-02
2.258724158356834044e-02
1.787672915875344881e-02
1.274952746821206989e-02
7.361796795279217792e-03
1.869023052900746322e-03
-3.574998165601555276e-03
-8.818415998822350804e-03
-1.372387210793980447e-02
-1.816142858409855454e-02
-2.201499988483730449e-02
-2.519156775837241846e-02
-2.760525355479998000e-02
-2.920147402696320060e-02
-2.993836335138559679e-02
-2.979481180090010062e-02
-2.877713915207875256e-02
-2.689982682946186199e-02
-2.420771182723348638e-02
-2.075545508074138137e-02
-1.661436339703624421e-02
-1.187324300125449511e-02
-6.625731701293230240e-03
-9.803265312109546784e-04
4.950777572724987183e-03
1.105116281252131911e-02
1.720088265824584045e-02
2.328110292022005784e-02
2.917648688542403765e-02
3.477313049806569911e-02
3.996690858544357100e-02
4.466021575681775047e-02
4.876317277770345071e-02
5.220286358105966779e-02
5.491099318800962692e-02
5.683992570035970027e-02
5.795298171010114519e-02
5.822635634386999492e-02
5.765861325474445909e-02
5.625418623025871950e-02
5.404162012242845481e-02
5.105963438021207668e-02
4.736061051432436525e-02
4.301579793562042980e-02
3.810138907853428958e-02
3.271169372097116473e-02
2.694706386954031502e-02
2.091582900988413554e-02
1.473508445235704317e-02
8.523180804373616318e-03
2.401619555163301417e-03
-3.507601760268061995e-03
-9.087483154647729017e-03
-1.422539596580212062e-02
-1.881418193234636257e-02
-2.276271029335246929e-02
-2.598446731986717856e-02
-2.841367234450651452e-02
-2.999897442680508203e-02
-3.070178337098249111e-02
-3.051267177612283776e-02
-2.942952102515210278e-02
-2.747978756495191022e-02
-2.470728549923283113e-02
-2.117094622311185836e-02
-1.695710774231742185e-02
-1.215815427334216228e-02
-6.888402233293775857e-03
-1.271725333528065001e-03
4.561215910242755710e-03
1.046998744592034236e-02
1.631377363407461589e-02
2.195381465261914133e-02
2.725238702671454322e-02
3.208226048154350085e-02
3.632826213321702774e-02
3.988241726706994589e-02
4.266362546073871470e-02
4.459898200311739752e-02
4.564086800049454301e-02
4.576477290348026500e-02
4.495801105586833685e-02
4.324263884343259451e-02
4.064943813143496315e-02
3.723480305172189447e-02
3.307373970876663349e-02
2.825053665719325091e-02
2.287123689946510621e-02
1.704622174204759033e-02
1.089645562529884849e-02
4.548979888826881757e-03
-1.868707292856955533e-03
-8.228369045104912127e-03
-1.440282751968265454e-02
-2.027340420901622975e-02
-2.572541896773559988e-02
-3.065368098219516807e-02
-3.496734627040383458e-02
-3.858065338684763673e-02
-4.142979287698858593e-02
-4.345916347072219243e-02
-4.462986859207458690e-02
-4.492307151026840584e-02
-4.432723139165997001e-02
-4.285724712690346799e-02
-4.053603022445635001e-02
-3.740472178745052334e-02
-3.352187715491573849e-02
-2.895294924689650190e-02
-2.378403403376007710e-02
-1.810632637654898541e-02
-1.202287153365952724e-02
-5.645714436881918256e-03
9.104012789218421386e-04
7.524357237728067881e-03
1.407425094748513024e-02
2.044059477624028676e-02
2.650539319544962386e-02
3.215634321931749168e-02
3.729255745859124532e-02
4.181697307350031728e-02
4.565182468433617857e-02
4.872869028386792728e-02
5.099344504969596098e-02
5.241454334891725714e-02
5.296698771304948067e-02
5.265283787605600646e-02
5.148457810648863348e-02
4.949111690733774827e-02
4.672197651507619537e-02
4.323263628040377449e-02
3.909975254154004348e-02
3.440647278849374990e-02
2.924656770741877396e-02
2.372441570757286705e-02
1.794690666144771116e-02
1.202811373275118959e-02
6.083639549466487127e-03
2.284300479127180164e-04
-5.423095097952122280e-03
-1.075967093238017896e-02
-1.567852802763633480e-02
-2.007954879314684943e-02
-2.387642414740937316e-02
-2.699158831442705075e-02
-2.935732691128607047e-02
-3.092642196107880243e-02
-3.165717289608666746e-02
-3.153212896003453058e-02
-3.054605781733218950e-02
-2.870866568080315817e-02
-2.605430433938864948e-02
-2.262378125869349971e-02
-1.848384096351344749e-02
-1.371160636278988265e-02
-8.397837433745010405e-03
-2.651181345612607827e-03
3.415579444873900056e-03
9.675660472159380160e-03
1.599798257577083813e-02
2.224892833194856701e-02
2.829223149324965048e-02
3.399371887703526302e-02
3.922738629447871522e-02
4.387002883864792036e-02
4.781387451508373881e-02
5.096397081776720545e-02
5.323579114881386853e-02
5.457333695426773434e-02
5.492811663088816715e-02
5.428118604654093293e-02
5.263312276736445416e-02
4.999982322219373443e-02
4.643031293959858780e-02
4.198126427493661939e-02
3.673755675758709482e-02
3.079885395455957825e-02
2.427657786962964317e-02
1.730236200503045343e-02
1.001160789064945225e-02
2.551278722048851838e-03
-4.926965624886319069e-03
-1.227146111521543528e-02
-1.933055660479963273e-02
-2.595502362455096024e-02
-3.200786190700775913e-02
-3.735652342644186358e-02
-4.188474123407678190e-02
-4.549401431593483314e-02
-4.809516407520744719e-02
-4.963166601917202297e-02
-5.005652113073494336e-02
-4.935184468380427597e-02
-4.752502462751700962e-02
-4.459700301697489683e-02
-4.062669969700351963e-02
-3.568235873842581785e-02
-2.986104284572758255e-02
-2.327970194680259453e-02
-1.606602828933376137e-02
-8.371730273210194889e-03
-3.531034435507148309e-04
7.822481091293794625e-03
1.598164457387776100e-02
2.395253171176255427e-02
3.156616859551956283e-02
3.865645930509827716e-02
4.507527140172930963e-02
5.068250965891108600e-02
5.535681059015958722e-02
5.900369370943858716e-02
6.153829150115105312e-02
6.291577696697650546e-02
6.310555620005572908e-02
6.210589152915627770e-02
5.994795772687980945e-02
5.667433403126714841e-02
5.236680776155756140e-02
4.711832690265654877e-02
4.104442627391131221e-02
3.428113359847971553e-02
2.697059990707755678e-02
1.927187061003353755e-02
1.134745821604752486e-02
3.362046268057822078e-03
-4.518131033948726526e-03
-1.213118465446825014e-02
-1.932588920675500088e-02
-2.595464036531070634e-02
-3.188985841551930656e-02
-3.701549907168157072e-02
-4.123019519190329607e-02
-4.446030105859609394e-02
-4.663972589898428278e-02
-4.773512878677882432e-02
-4.772817548195804060e-02
-4.662051914230610355e-02
-4.444376738677613403e-02
-4.123761244402281839e-02
-3.707318169114692114e-02
-3.203305614785829925e-02
-2.621650352392462802e-02
-1.974268294465753373e-02
-1.273571739215816068e-02
-5.336039971644830453e-03
2.311348172920805674e-03
1.005743354055510172e-02
1.774939777723733014e-02
2.523610842777409755e-02
3.237249507278491811e-02
3.901570228711628147e-02
4.503686832159522341e-02
5.031769909860579065e-02
5.475019169339215286e-02
5.825198560524411096e-02
6.074751011442654919e-02
6.219000886370978920e-02
6.255003117351241870e-02
6.181439615368672369e-02
6.000195830440357980e-02
5.713928474989107831e-02
5.328336286075997102e-02
4.850568323941011756e-02
4.289255792024463526e-02
3.655349399186814952e-02
2.960315022722065717e-02
2.217456966481698780e-02
1.440768282464411666e-02
6.448357688309379158e-03
-1.550144643954197952e-03
-9.434377436355393526e-03
-1.705215359448842075e-02
-2.425203423120161211e-02
-3.089147148363945855e-02
-3.683673304285519506e-02
-4.196105097984083321e-02
-4.616053434756279411e-02
-4.933790524523855303e-02
-5.142146297392981985e-02
-5.235968533769592981e-02
-5.211540501872464343e-02
-5.068851643481599167e-02
-4.808819697840521767e-02
-4.435843470129396948e-02
-3.956505363736774472e-02
-3.379067414792018276e-02
-2.715238587657980290e-02
-1.977480069564309384e-02
-1.180880203643933438e-02
-3.418300840098612188e-03
5.224863863771133342e-03
1.393594227154542134e-02
2.252932029938169503e-02
3.082150124216950088e-02
3.863011232625181840e-02
4.578498263893252679e-02
5.213185396013680223e-02
5.752480030014522905e-02
6.185243870895900525e-02
6.501493089457639762e-02
6.694399440151099778e-02
6.760405126379159801e-02
6.697415078244221831e-02
6.508125380334776888e-02
6.196534752944569263e-02
5.770107472451987268e-02
5.239164795017144799e-02
4.615292906513525362e-02
3.913404207430051795e-02
3.149133218207597618e-02
2.339771945033079781e-02
1.503695982646404208e-02
6.594137664876825386e-03
-1.743156626088800641e-03
-9.788455034339036548e-03
-1.736796672720341758e-02
-2.431461186667853436e-02
-3.047592853369757854e-02
-3.572456958336447941e-02
-3.994141554255256632e-02
-4.304500746300834318e-02
-4.496969108011159011e-02
-4.567701151226502554e-02
-4.516556020606635191e-02
-4.344547901289369518e-02
-4.057141855616118453e-02
-3.661292486019811915e-02
-3.166604290732680238e-02
-2.585552439861905222e-02
-1.931445673246081490e-02
-1.220245730322472300e-02
-4.685999630096623035e-03
3.059869967063845887e-03
1.085272085983452275e-02
1.851171665878153724e-02
2.586146007985710635e-02
3.272897539843438314e-02
3.895915728724262672e-02
4.440917485072263388e-02
4.895040985919989207e-02
5.248642250051093611e-02
5.492938945319123661e-02
5.622934268472663810e-02
5.635698146470642655e-02
5.530500551432816769e-02
5.310548509776456122e-02
4.980008393283129331e-02
4.546825291205365549e-02
4.020579422503742922e-02
3.412631637888925012e-02
2.736875461814947813e-02
2.007729589374903506e-02
1.241357963839705147e-02
4.545060261713505974e-03
-3.358378976785773330e-03
-1.112410739481870317e-02
-1.858191290716421085e-02
-2.557196892120467552e-02
-3.193798142171328652e-02
-3.754104346059202596e-02
-4.225791375164391489e-02
-4.597642328161197917e-02
-4.861714460871652266e-02
-5.010945329679127730e-02
-5.041558155494033772e-02
-4.952131388139603685e-02
-4.742949218242917958e-02
-4.418293692576916870e-02
-3.983396524302392633e-02
-3.446988666348281549e-02
-2.819793434356456657e-02
-2.114079537303691081e-02
-1.344996627439898340e-02
-5.282676537942800586e-03
3.185371901719870422e-03
1.177024034082162912e-02
2.028585834918057371e-02
2.854302828719752771e-02
3.635476513349002875e-02
4.354779187820882747e-02
4.995419442285334299e-02
5.542617137503489527e-02
5.983973557610067912e-02
6.308247170089868738e-02
6.508536885197685473e-02
6.579275760223642078e-02
6.518600472514955724e-02
6.328135495936690336e-02
6.011133938987534009e-02
5.575738217824568327e-02
5.031323581784909182e-02
4.390612713366306291e-02
3.668834901701049922e-02
2.882289434589705920e-02
2.049835943658656970e-02
1.190801410777366474e-02
3.252138382412390720e-03
-5.264879522531539825e-03
-1.344409573678240558e-02
-2.109746527947097688e-02
-2.804183896946271098e-02
-3.412195365475427511e-02
-3.919591415897719089e-02
-4.314571641460054202e-02
-4.589056546918002938e-02
-4.736128606660527929e-02
-4.753777080603277527e-02
-4.641862229894774122e-02
-4.403446195890087234e-02
-4.045552950854816587e-02
-3.576398928157711876e-02
-3.008441863114662274e-02
-2.355420308275552738e-02
-1.633155356912549885e-02
-8.595180775758749780e-03
-5.278021526549806289e-04
7.677046402231296751e-03
1.582393399517574573e-02
2.372406549262835035e-02
3.119385395918520404e-02
3.805920617441500842e-02
4.417093994049126754e-02
4.938702524097662167e-02
5.359903913532235858e-02
5.671951725463074412e-02
5.868163148696273201e-02
5.946078137605471242e-02
5.904275937476672481e-02
5.745524948346718980e-02
5.474667155803903534e-02
5.098606692947258573e-02
4.627596831139305783e-02
4.072616528840718869e-02
3.447212115865942728e-02
2.765927342299215330e-02
2.044058555712748720e-02
1.297874167895701064e-02
5.436566435460847384e-03
-2.025502551886360601e-03
-9.248170880800841986e-03
-1.608280601939696478e-02
-2.239174715886743661e-02
-2.804469089908979973e-02
-3.293617900293448891e-02
-3.696788640286439998e-02
-4.006623522937317189e-02
-4.217790797271888520e-02
-4.326217342344982481e-02
-4.331184121279526428e-02
-4.232798077570550793e-02
-4.034024013487233495e-02
-3.739686929396383169e-02
-3.355878843729698940e-02
-2.891383459927044514e-02
-2.355561406269452568e-02
-1.759695107859530691e-02
-1.116057032841646923e-02
-4.375025001994923592e-03
2.621290552824486787e-03
9.688999909336271435e-03
1.668861814580622355e-02
2.348077192776460223e-02
2.993271582304543946e-02
3.592068061418927927e-02
4.132567252565216148e-02
4.604924373801819876e-02
5.000004065004734488e-02
5.310588774114703703e-02
5.531523866477815882e-02
5.658564110830061750e-02
5.690543585658690978e-02
5.627160878143355055e-02
5.470416828756452521e-02
5.224282254925655122e-02
4.893638824350710764e-02
4.485858732936841980e-02
4.008895084555408328e-02
3.472267523229614211e-02
2.886560750764264813e-02
2.262813923707004612e-02
1.613058263962579425e-02
9.494812875700635313e-03
2.844384800912870895e-03
-3.696283141309145669e-03
-1.000611661507421271e-02
-1.597005081377651445e-02
-2.147568035285348995e-02
-2.642455933331649964e-02
-3.072436491711671297e-02
-3.429533992462916597e-02
-3.707549901980930485e-02
-3.900916491085316962e-02
-4.006659402985036922e-02
-4.022716916516870522e-02
-3.948972887171855323e-02
-3.787498750102259726e-02
-3.541185384153802684e-02
-3.215744823713080625e-02
-2.817692523192757981e-02
-2.355360505195365842e-02
-1.838705572297301416e-02
-1.278255232151988621e-02
-6.861233037500612426e-03
-7.476216223236452699e-04
5.429351048160448515e-03
1.153763378510668652e-02
1.744778853589241605e-02
2.303680116966323049e-02
2.818427088165082264e-02
3.278597682769882754e-02
3.674689949729560007e-02
3.998508389304109012e-02
4.244291525759544270e-02
4.406955495786029492e-02
4.484381416976326168e-02
4.475789094360031056e-02
4.382158958313083635e-02
4.207072289498987178e-02
3.954773763098247408e-02
3.632003291433848202e-02
3.246390692554058932e-02
2.806679889823067778e-02
2.322923913953224215e-02
1.805424767169335962e-02
1.265219454923554449e-02
7.135335607038595200e-03
1.614817156864118211e-03
-3.799252545736220461e-03
-8.999488229377343440e-03
-1.388722089908228652e-02
-1.836637695489485439e-02
-2.235263577022909842e-02
-2.577042338935370963e-02
-2.855139975050819540e-02
-3.064490529447309181e-02
-3.200480872924801878e-02
-3.260337964132672961e-02
-3.242378183050433765e-02
-3.145951193001850221e-02
-2.972412170282830168e-02
-2.723613652814707575e-02
-2.403423037510605750e-02
-2.016656496428374107e-02
-1.569224217787739892e-02
-1.068725167494870634e-02
-5.231729999258056575e-03
5.785582887500723137e-04
6.642037536515613995e-03
1.285064421226083352e-02
1.908834753668400483e-02
2.523819007717728949e-02
3.118127085670919715e-02
3.679840284998749100e-02
4.197600161584387479e-02
4.660595906700625707e-02
5.058549140888823903e-02
5.382922630684751353e-02
5.625687203146018112e-02
5.780884075224108215e-02
5.844164728171973022e-02
5.812360811699619073e-02
5.685310281819512535e-02
5.463598902359748100e-02
5.150616572735337850e-02
4.751486938866977816e-02
4.272661177669467153e-02
3.723275634161062053e-02
3.113046583882963028e-02
2.453699911145604609e-02
1.757943605183954691e-02
1.039099414594923769e-02
3.114748947980185752e-03
-4.105422472483364997e-03
-1.112625799462525072e-02
-1.780493619827719712e-02
-2.400654761135554913e-02
-2.960635382557041950e-02
-3.448525601139684760e-02
-3.854740906119875216e-02
-4.170469842974839497e-02
-4.389139065920806548e-02
-4.506461881959011873e-02
-4.519250247452945290e-02
-4.427893942383170217e-02
-4.233759389104025522e-02
-3.941023655908044987e-02
-3.556148095834978790e-02
-3.086730117336777129e-02
-2.543336270670343985e-02
-1.937198693757490042e-02
-1.281343994215386126e-02
-5.899561992261934291e-03
1.224004832642782738e-03
8.403814220268576718e-03
1.548599808841830475e-02
2.232178994123244775e-02
2.876513836728150295e-02
3.467980684181514589e-02
3.994620071585155974e-02
4.445074743170353976e-02
4.810828234582725793e-02
5.084542883641651745e-02
5.261050118697790240e-02
5.338093917820920659e-02
5.314353145070870033e-02
5.192101937483031143e-02
4.974803652513606900e-02
4.668110922698041204e-02
4.280014411605043145e-02
3.819220808413949925e-02
3.296713379484300654e-02
2.724066192370195108e-02
2.113770916301510247e-02
1.479098499395599398e-02
8.333555476909801016e-03
1.898804669680172023e-03
-4.380540884111400017e-03
-1.038057947152146859e-02
-1.598339053633245077e-02
-2.107920191020948644e-02
-2.557646330551565511e-02
-2.938866412013921292e-02
-3.245219052419570649e-02
-3.471576085518760652e-02
-3.614216420371545169e-02
-3.671902307520924502e-02
-3.644030132146219847e-02
-3.532569177934797439e-02
-3.340589710499436427e-02
-3.072538660192253301e-02
-2.734794034957219871e-02
-2.334210707395529757e-02
-1.879364397696346028e-02
-1.379411137082013628e-02
-8.441921236183817095e-03
-2.843133136679612365e-03
2.895287638970609791e-03
8.664372300449391107e-03
1.435489576810134761e-02
1.986216959925922801e-02
2.508553567393598596e-02
2.992860760391779021e-02
3.430766137164538432e-02
3.814251714703164459e-02
4.136781239639748115e-02
4.392865765231773745e-02
4.577858716220674362e-02
4.689065214363336009e-02
4.724270026400567007e-02
4.683135752565684151e-02
4.566380190121863136e-02
4.375688448011410409e-02
4.114527151145274536e-02
3.786784861212416642e-02
3.397982804043205018e-02
2.954371170888887149e-02
2.463012774749797143e-02
1.932161588225688592e-02
1.370355722104804955e-02
7.871643273970663213e-03
1.925196780039481470e-03
-4.032470880627333880e-03
-9.893395300189684882e-03
-1.554932239900476063e-02
-2.089188765450290461e-02
-2.581297784694357861e-02
-3.021013670556795677e-02
-3.398616051203728894e-02
-3.704913657885726408e-02
-3.932356040354326870e-02
-4.073870106404117730e-02
-4.124452967688823496e-02
-4.080631410136988102e-02
-3.940189125472520065e-02
-3.703958801444815624e-02
-3.373538082725479476e-02
-2.953546515067564243e-02
-2.450378406876404375e-02
-1.871926041874241026e-02
-1.228963393660624862e-02
-5.328874028537293993e-03
2.027075698401542038e-03
9.632098112006673429e-03
1.733405794625826959e-02
2.497163622012901416e-02
3.238353345033226360e-02
3.941306583868107311e-02
4.590557854558625223e-02
5.171936151679772803e-02
5.672850274214037702e-02
6.081536469491818919e-02
6.389455653629688703e-02
6.589088167803965057e-02
6.675772843610543184e-02
6.647622475494499583e-02
6.504037096539107277e-02
6.248392224152734403e-02
5.885094039948048777e-02
5.421388784090010182e-02
4.866714705826315213e-02
4.231542250338765632e-02
3.528899075171285787e-02
2.772348451487292170e-02
1.976768659795442515e-02
1.157841912099505897e-02
3.313873215829845047e-03
-4.865193768496014516e-03
-1.279876819882821981e-02
-2.033531310899539674e-02
-2.732752397902048214e-02
-3.363870640802416045e-02
-3.914921859229802265e-02
-4.374546923285734662e-02
-4.734118788683546603e-02
-4.986092301798980553e-02
-5.125072863327567729e-02
-5.148408445038948900e-02
-5.054428339165890904e-02
-4.845186979273650302e-02
-4.523929949132322187e-02
-4.096535350518538260e-02
-3.571551697520386481e-02
-2.958542126675124673e-02
-2.270262441041545620e-02
-1.520290978810378765e-02
-7.239943307623230261e-03
1.018184189653621036e-03
9.399705874971690106e-03
1.772386616848900878e-02
2.580887795827792319e-02
3.347871553025496411e-02
4.056109218318065118e-02
4.689383699196923716e-02
5.233635114205189426e-02
5.675487013691121047e-02
6.004991523815705196e-02
6.213959864545083589e-02
6.296652838589500423e-02
6.251440401226839028e-02
6.077828085344592901e-02
5.780053672215269139e-02
5.364283024968426877e-02
4.839370068894681409e-02
4.217750819287456598e-02
3.512765813808171877e-02
2.740955881003051889e-02
1.919880847821113512e-02
1.068213013624846192e-02
2.058041697182046506e-03
-6.475043486187559601e-03
-1.472123765415725080e-02
-2.248618284407293347e-02
-2.959167671598382510e-02
-3.587315063945197696e-02
-4.117881047542472361e-02
-4.539257797154035157e-02
-4.840806717073643795e-02
-5.015886650965136612e-02
-5.060539980641026031e-02
-4.973007072430829512e-02
-4.756362938625145059e-02
-4.414828755872261812e-02
-3.956983781113061760e-02
-3.393729398045311485e-02
-2.737898225379515466e-02
-2.005696705028065657e-02
-1.213990570821870882e-02
-3.817689993783348994e-03
4.710971836272202090e-03
1.324546986263855711e-02
2.158257792156856314e-02
2.952208724233791257e-02
3.688030644248146278e-02
4.347967677816314686e-02
4.916602088594344833e-02
5.381108026019731233e-02
5.729975945914488056e-02
5.956360683309287057e-02
6.054779482211687658e-02
6.023667323882596347e-02
5.864913779955765322e-02
5.582077461854725170e-02
5.183431280745575548e-02
4.678378172762854420e-02
4.079411800374894981e-02
3.401191788206354288e-02
2.659283738734860222e-02
1.871286642913269974e-02
1.055128370438518023e-02
2.290755525064592721e-03
-5.884240204038711057e-03
-1.379548118257216058e-02
-2.127635204642486233e-02
-2.816497701155572936e-02
-3.432427738145029522e-02
-3.962831581061571767e-02
-4.397113944040498268e-02
-4.727592037003183756e-02
-4.947500353544798807e-02
-5.053791453442175313e-02
-5.044749643461553246e-02
-4.921063602366350376e-02
-4.686207711825711442e-02
-4.344553315798846405e-02
-3.903550766615773715e-02
-3.371535283363085583e-02
-2.758545467055344147e-02
-2.076189910436536390e-02
-1.336547986345850217e-02
-5.530163313516785716e-03
2.607251684656989622e-03
1.090710133629244766e-02
1.922763070617358738e-02
2.742919564025159823e-02
3.537749938293133917e-02
4.294021226332148805e-02
4.999662852428400639e-02
5.643284695230992715e-02
6.214392473890734125e-02
6.704211906023450906e-02
7.104449625482286979e-02
7.408945889968676646e-02
7.612535551361722386e-02
7.711449707323013436e-02
7.704045732135207658e-02
7.589298852509597515e-02
7.368685908918519434e-02
7.044618063969740329e-02
6.621127063438747573e-02
6.104207322788670481e-02
5.500504839982543054e-02
4.818999065187822700e-02
4.069376096994280906e-02
3.262809656335292213e-02
2.411906782211748271e-02
1.529777176091367749e-02
6.310245107797074135e-03
-2.693984553448928142e-03
-1.156011916559554834e-02
-2.012932985851123222e-02
-2.824469979891068572e-02
-3.575455097756331108e-02
-4.250965275266622989e-02
-4.837796107224986986e-02
-5.323795798762170906e-02
-5.698361669794202444e-02
-5.954007272951035434e-02
-6.084146470401351203e-02
-6.086343802504988465e-02
-5.960184443754037997e-02
-5.707943726456364553e-02
-5.336179901791443525e-02
-4.852581481807582281e-02
-4.269322309368502738e-02
-3.600303397032955655e-02
-2.861585598846501377e-02
-2.071963154207379434e-02
-1.250730009422743039e-02
-4.186700490162088666e-03
4.030304362641137783e-03
1.193788425261505318e-02
1.933628593520052980e-02
2.603486622158640226e-02
3.187424994906036535e-02
3.670442650809937341e-02
4.041440594063291925e-02
4.292446950346006512e-02
4.417652146914932687e-02
4.416912825907120393e-02
4.291475802960893760e-02
4.047494862759587475e-02
3.694248986703974752e-02
3.243074388623422982e-02
2.709581299711644881e-02
2.110225216150579328e-02
1.463960527777084797e-02
7.909940095281007763e-03
1.117704132683547923e-03
-5.528826082784947006e-03
-1.182383796653843980e-02
-1.757945191158038004e-02
-2.261536423591770442e-02
-2.677449324371009715e-02
-2.993050971819844613e-02
-3.196955648418033785e-02
-3.282793385718228707e-02
-3.245863011126798314e-02
-3.085310589313423890e-02
-2.804332622261550972e-02
-2.407686037260344664e-02
-1.905215872627371437e-02
-1.308129946324160936e-02
-6.306965973227623805e-03
1.102530267079679556e-03
8.970683045758875984e-03
1.709973913294883172e-02
2.528809429545670132e-02
3.333337158156780139e-02
4.103272019996316577e-02
4.819162418928100988e-02
5.463419574938895018e-02
6.019086192890281406e-02
6.472576347115135964e-02
6.812098888995002377e-02
7.028327238700206314e-02
7.116227681490513990e-02
7.071941775661708118e-02
6.896566518535866830e-02
6.593293436300860788e-02
6.168141783443625153e-02
5.631041674377193496e-02
4.992911255645069574e-02
4.268240799776503586e-02
3.472706928053181930e-02
2.623376127738644148e-02
1.738844221240498644e-02
8.378583412232418551e-03
-6.054954251349187536e-04
-9.373347783838411468e-03
-1.774496200738555005e-02
-2.554946527964005454e-02
-3.262519110721218835e-02
-3.883730603163973449e-02
-4.405841361200817791e-02
-4.819202042564089961e-02
-5.116316607244605214e-02
-5.291445822010185096e-02
-5.342863379976582616e-02
-5.269825028696393382e-02
-5.075431550882973653e-02
-4.764912779087768224e-02
-4.345399122517164259e-02
-3.827470199934743939e-02
-3.222464947866798129e-02
-2.544471088406285997e-02
-1.808777217348984251e-02
-1.031587105880438227e-02
-2.304248123319504842e-03
5.770769799447713136e-03
1.373258355996958766e-02
2.140484499074285854e-02
2.862148207433371991e-02
3.522824835206288946e-02
4.107865076578213342e-02
4.605544897806597426e-02
5.005042936603164988e-02
5.298480642740274749e-02
5.480672738265875837e-02
5.547894417144475648e-02
5.500736620293339429e-02
5.340891973926673725e-02
5.073466310265433571e-02
4.706049673106386944e-02
4.247583370468734076e-02
3.710192442879486213e-02
3.106666209069615034e-02
2.451630710633510499e-02
1.760770108295117362e-02
1.050069628133980942e-02
3.360692793194693280e-03
-3.647363898710317791e-03
-1.036660848951838354e-02
-1.664403907297908394e-02
-2.233891838230942298e-02
-2.732908846541661635e-02
-3.149952434051141170e-02
-3.476677695548344160e-02
-3.705925360388039047e-02
-3.833051336039685481e-02
-3.856436276017891074e-02
-3.775563306982804290e-02
-3.593917311921605157e-02
-3.316191942919273494e-02
-2.949724564011530631e-02
-2.504381598797270070e-02
-1.990927320533002198e-02
-1.422781603032432715e-02
-8.139902152968458288e-03
-1.796721803796888679e-03
4.642379498376354371e-03
1.101888742847096508e-02
1.717695829949157649e-02
2.296274019006832104e-02
2.823897998323388406e-02
3.287851988982805340e-02
3.676918340462355383e-02
3.982871155662025958e-02
4.198324523087376692e-02
4.319675851359677105e-02
4.345148693644229621e-02
4.275244218652774625e-02
4.114062576088723527e-02
3.866598905867851821e-02
3.541277826798604200e-02
3.147829612470270239e-02
2.697433586633049205e-02
2.203089580278299112e-02
1.678069476505566690e-02
1.136357878900789292e-02
5.921158061322430791e-03
5.888799391330070895e-04
-4.503971649477997267e-03
-9.234403044256364601e-03
-1.350054263357310796e-02
-1.720659253368490849e-02
-2.027946457975385308e-02
-2.266413860102049066e-02
-2.431682487063734077e-02
-2.522281264135455697e-02
-2.537428639026612781e-02
-2.478614150059528509e-02
-2.348763018569351851e-02
-2.151688823675242460e-02
-1.893034794200154289e-02
-1.578810160631209658e-02
-1.216136175497534166e-02
-8.126895016120787296e-03
-3.764171488720551191e-03
8.429121243944395422e-04
5.610129937077540721e-03
1.045381337164449052e-02
1.529058033381892195e-02
2.003986896058621708e-02
2.462482722239187072e-02
2.897034804476676662e-02
3.300849314488972508e-02
3.667373248114668555e-02
3.990697644196605082e-02
4.265586779703372383e-02
4.487139900877343962e-02
4.651575510254364609e-02
4.755433608422993119e-02
4.796321575743998228e-02
4.772734527898952334e-02
4.683744150522065747e-02
4.529986653896939108e-02
4.312496754959261464e-02
4.033769429485919988e-02
3.697265565486047151e-02
3.307152422644346612e-02
2.869124527368217131e-02
2.389217108043323323e-02
1.874660848039639421e-02
1.333313055022828861e-02
7.734582404113929215e-03
2.041149491057589471e-03
-3.655904674863689856e-03
-9.263044654774670039e-03
-1.468586459251900594e-02
-1.983235323868203295e-02
-2.461379813182310028e-02
-2.894374604272889617e-02
-3.274595619226852716e-02
-3.594781138370136547e-02
-3.848761693139012702e-02
-4.031561361753607797e-02
-4.138782355242318078e-02
-4.168036661249117925e-02
-4.117518845678080214e-02
-3.987138307221695793e-02
-3.778295126392250403e-02
-3.493175327731986440e-02
-3.136167712564250781e-02
-2.712203463208147369e-02
-2.227899870603497132e-02
-1.691039559562695568e-02
-1.110060974558430349e-02
-4.948730629088906978e-03
1.443221180635978138e-03
7.965323034634486099e-03
1.450334520664024046e-02
2.094275490288052821e-02
2.716854589187362237e-02
3.306678448878897641e-02
3.853139114384325492e-02
4.345983303198409226e-02
4.775915631050015042e-02
5.135017738050338953e-02
5.415902551001609139e-02
5.613443341450757157e-02
5.723323485887225198e-02
5.743020577713577740e-02
5.672061618042056885e-02
5.510754686941508190e-02
5.262142142611340306e-02
4.930059442835893480e-02
4.520186376671393030e-02
4.039878545108843699e-02
3.497145864928018905e-02
2.901864498417493915e-02
2.264346084023220740e-02
1.595847921844818773e-02
9.083099683735915836e-03
2.138162869914279375e-03
-4.752344652000404547e-03
-1.146441335750846696e-02
-1.787845905325785231e-02
-2.387747660864525737e-02
-2.935068433778269953e-02
-3.419912373461173050e-02
-3.832776282087260733e-02
-4.166074586396649460e-02
-4.413107339127522732e-02
-4.568661172438712170e-02
-4.629755443681074500e-02
-4.594113354499251151e-02
-4.462371042552416844e-02
-4.236240038810377279e-02
-3.919385627333105832e-02
-3.517805723591466843e-02
-3.038250776571130296e-02
-2.490118669760749831e-02
-1.883587558479546051e-02
-1.230278602511717181e-02
-5.431835172317683001e-03
1.643642215925782309e-03
8.780801548665109410e-03
1.583498114008302995e-02
2.266364150089039339e-02
2.912585790223740784e-02
3.508655358433586391e-02
4.042552114528406848e-02
4.502713238088777714e-02
4.879919352508081676e-02
5.166362573560004390e-02
5.355831599954487265e-02
5.445271075117644882e-02
5.432442134066887279e-02
5.318545083818975588e-02
5.106425429905391000e-02
4.800803477722932061e-02
4.409339465324851881e-02
3.940391719598489856e-02
3.404916418277283141e-02
2.814849325284275033e-02
2.183139658235105918e-02
1.524000713765274670e-02
8.518005499699591102e-03
1.812475274353049851e-03
-4.728828853907758763e-03
-1.096476604384819323e-02
-1.676076269234482233e-02
-2.198833567160468974e-02
-2.653920847631666829e-02
-3.031097033412823855e-02
-3.322412160901925399e-02
-3.521726325011250575e-02
-3.624160773012018860e-02
-3.628094847498936071e-02
-3.532716273763231857e-02
-3.340183126132135333e-02
-3.054519150442740194e-02
-2.681142349597141067e-02
-2.228334431917646311e-02
-1.704999241764126178e-02
-1.122198706079516675e-02
-4.920670892718584204e-03
1.725659401369942537e-03
8.577358508751525487e-03
1.549354931111503186e-02
2.233228986753444181e-02
2.895139592729036385e-02
3.521526156934294549e-02
4.099687450365550184e-02
4.617414705159798155e-02
5.064569532087465770e-02
5.431710592432172774e-02
5.711393942371556509e-02
5.898248708812564578e-02
5.987877409242750582e-02
5.979092768920617890e-02
5.871590960916079488e-02
5.667552543848437124e-02
5.371209224813840166e-02
4.987789139500523744e-02
4.525161048498906047e-02
3.991794987183235055e-02
3.397802041331363793e-02
2.754369281971111999e-02
2.073127808388541479e-02
1.366644031518999061e-02
6.476157106773262721e-03
-7.119898723297272275e-04
-7.770156471638574834e-03
-1.457452923302164638e-02
-2.100826030437090083e-02
-2.695741965939437573e-02
-3.232271077376916435e-02
-3.701103685363516665e-02
-4.094206133207482778e-02
-4.405285701703905848e-02
-4.628674030971386549e-02
-4.761205655758548455e-02
-4.800567932146947159e-02
-4.746315282564105703e-02
-4.600027716756102669e-02
-4.364073900003538620e-02
-4.043468737373226429e-02
-3.643964375990695753e-02
-3.173105566465447142e-02
-2.639984102505051056e-02
-2.054321340484041927e-02
-1.427556342481064652e-02
-7.715058326830948922e-03
-9.875014937852010996e-04
5.776077576141888659e-03
1.244507583706627035e-02
1.889010828921117158e-02
2.498316642387973449e-02
3.060738141371859705e-02
3.565202409468995470e-02
4.001750286613994789e-02
4.362426262050478343e-02
4.639890426937729601e-02
4.829609781450335676e-02
4.928279658808500802e-02
4.934500911777534027e-02
4.849591260061242304e-02
4.675655869110509344e-02
4.417856484742390538e-02
4.082418452098320744e-02
3.677265509265121440e-02
3.212247319587629296e-02
2.697722549162038033e-02
2.145691324086113072e-02
1.568592871371714270e-02
9.793144881551340761e-03
3.911475635839406495e-03
-1.827546299412788171e-03
-7.297148641339367726e-03
-1.237239878238815746e-02
-1.694066257293620759e-02
-2.089814406777071309e-02
-2.415053311450096260e-02
-2.662600847868572262e-02
-2.825883030023471770e-02
-2.901016457491201878e-02
-2.885655953406075086e-02
-2.779096091772777222e-02
-2.583705102531318187e-02
-2.302624110150623682e-02
-1.942144345407432332e-02
-1.509986419851486530e-02
-1.015469016310169281e-02
-4.702905111207986676e-03
1.133377381149784126e-03
7.214342784849381122e-03
1.339396438187584124e-02
1.952325799443883902e-02
2.544973883630493802e-02
3.102321292155041724e-02
3.610412397524712796e-02
4.055664424854944772e-02
4.426346350399024826e-02
4.712473574490838590e-02
4.905223083562468972e-02
4.999358743310294145e-02
4.990615252901554888e-02
4.878124950132105980e-02
4.663569268061091427e-02
4.350229509282686063e-02
3.945294096844756404e-02
3.456842060238867614e-02
2.895857033018999285e-02
2.275052172309477080e-02
1.608122667208405909e-02
9.106683138046297449e-03
1.985853902744670781e-03
-5.116746666905722628e-03
-1.203409971153831387e-02
-1.860430347852402855e-02
-2.467348443578745026e-02
-3.009234899360783977e-02
-3.473435128231925489e-02
-3.848183585775632326e-02
-4.123917721995967040e-02
-4.293805453858005189e-02
-4.352103432059482857e-02
-4.297192639469801095e-02
-4.128749355874956201e-02
-3.849554148499068768e-02
-3.465447800567838382e-02
-2.983517065436821353e-02
-2.414700468194505914e-02
-1.770917826905734835e-02
-1.066411715728849546e-02
-3.172454853874478835e-03
4.599318564495564685e-03
1.247039200530816218e-02
2.025778844655519786e-02
2.778069001535544980e-02
3.485967673815797835e-02
4.132443582813135480e-02
4.702356235491749609e-02
5.181207444595641726e-02
5.557821261957021641e-02
5.822680558991687183e-02
5.968741271298899642e-02
5.992990816328852555e-02
5.893561559803085770e-02
5.673354099416638707e-02
5.337159858419615599e-02
4.892547538550909292e-02
4.350682700372310308e-02
3.723674530551417811e-02
3.026958070806230749e-02
2.277000928305714447e-02
1.491514488967971355e-02
6.894917367119764683e-03
-1.100338471137047962e-03
-8.880951671359403610e-03
-1.625830071925489506e-02
-2.305856251495613102e-02
-2.912005262057303784e-02
-3.429342987791827307e-02
-3.846293195668865073e-02
-4.152192300969025779e-02
-4.340237947109981675e-02
-4.406147070066280397e-02
-4.347805599564097401e-02
-4.167738573513098121e-02
-3.869577595929139108e-02
-3.461233825764450933e-02
-2.952834327618427540e-02
-2.356444206999431731e-02
-1.687420421705726134e-02
-9.617671141367637594e-03
-1.975971781452917110e-03
5.861275427886041695e-03
1.370260667505961150e-02
2.135408587494861885e-02
2.862490618628587419e-02
3.534070298311690200e-02
4.133309293026653924e-02
4.645689107768969511e-02
5.059190273825159984e-02
5.363092974550240366e-02
5.551168983727253203e-02
5.618476281977829306e-02
5.563852982726614355e-02
5.389376486417920414e-02
5.098738891345367535e-02
4.700077534935005047e-02
4.202578795980242699e-02
3.618366210215755857e-02
2.961563149969553485e-02
2.247154958024686136e-02
1.492012107434585733e-02
7.132999374078607610e-03
-7.152010975535541548e-04
-8.448343558322034957e-03
-1.589643547088650036e-02
-2.290054132829185199e-02
-2.930632078041631866e-02
-3.498309927387668883e-02
-3.981055741225326960e-02
-4.368780286916075506e-02
-4.654145462637909042e-02
-4.830714481859018500e-02
-4.895675780269176380e-02
-4.847485716070444595e-02
-4.687047754598248905e-02
-4.418020717821529580e-02
-4.045008676825227745e-02
-3.575824301402632382e-02
-3.019185605720343252e-02
-2.385696465305301231e-02
-1.687649909182907873e-02
-9.378930661235990174e-03
-1.508030148173656985e-03
6.589184381099393896e-03
1.476174051981093277e-02
2.285586239362810343e-02
3.072024408351661101e-02
3.820965410743429325e-02
4.518131649310249548e-02
5.150761706966976161e-02
5.706957953316097593e-02
6.176084225757089152e-02
6.549858534666885834e-02
6.820676380080298307e-02
6.983962946986994880e-02
7.036516123962203995e-02
6.977086425738748821e-02
6.807313719386283435e-02
6.529641322612175780e-02
6.149653309438584542e-02
5.674065962658697559e-02
5.111328198912326592e-02
4.471928004113049498e-02
3.766904793141177127e-02
3.009135788171756268e-02
2.212017884118690908e-02
1.389639961928310942e-02
5.567387687898476059e-03
-2.719320948865040256e-03
-1.081645348900056938e-02
-1.857736490137743349e-02
-2.586357448683868077e-02
-3.254269250270201003e-02
-3.848985810390052192e-02
-4.359881953575922564e-02
-4.776856830747334276e-02
-5.092236046127861931e-02
-5.299785559554700404e-02
-5.394853603570250872e-02
-5.375869680185403621e-02
-5.242071058813466133e-02
-4.996125463929508570e-02
-4.642320226687181306e-02
-4.186922191367653534e-02
-3.639259084244941822e-02
-3.009423339456158975e-02
-2.310417779150173573e-02
-1.556329348181364688e-02
-7.624660217157237622e-03
5.436262011842950964e-04
8.771592552900648807e-03
1.688502279736991962e-02
2.470892441737132170e-02
3.207724436576242510e-02
3.883268014958425607e-02
4.482637094060205885e-02
4.993709393465926849e-02
5.405160649836957681e-02
5.708816919228623665e-02
5.898957757190952805e-02
5.971556811828068745e-02
5.926899592770650677e-02
5.766315483191156166e-02
5.494837018390311828e-02
5.119788358798468136e-02
4.650054975152642656e-02
4.097677260584971226e-02
3.475323937229963384e-02
2.797593627488213427e-02
2.080025333453626099e-02
1.338462948346269554e-02
5.892359166564766111e-03
-1.514256277365853658e-03
-8.681726974715593681e-03
-1.546024550832049774e-02
-2.171323633572182221e-02
-2.732115132612372016e-02
-3.217184509089655864e-02
-3.618260160466350850e-02
-3.928031707258030497e-02
-4.141584073866316079e-02
-4.256452921519682242e-02
-4.271213407209005497e-02
-4.187783701100304679e-02
-4.008975705641436293e-02
-3.739906935149702599e-02
-3.387571265734156539e-02
-2.959779128902214479e-02
-2.466459144449473229e-02
-1.917995448950843632e-02
-1.325823369875379909e-02
-7.020566204160162520e-03
-5.891844514220017509e-04
5.911552026498979699e-03
1.235776710239219409e-02
1.863210956995153822e-02
2.462064506266989708e-02
3.021729328325226463e-02
3.532929397908375624e-02
3.986829736205546593e-02
4.376606834334382384e-02
4.696270922433136430e-02
4.941281137524114464e-02
5.109044774440131553e-02
5.197580062387876371e-02
5.207241585557999958e-02
5.139157658624380481e-02
4.995876876797670368e-02
4.781466789477759050e-02
4.500480059676922190e-02
4.159025634983187780e-02
3.763625572019490412e-02
3.321581346538735047e-02
2.840857444832646517e-02
2.329599061756147324e-02
1.796417452771812556e-02
1.250008555886636917e-02
6.990690686268197576e-03
1.522954679439404019e-03
-3.817843011831550080e-03
-8.950249950903162166e-03
-1.379409229202855497e-02
-1.827600261362099382e-02
-2.232629762811029484e-02
-2.588064981474347270e-02
-2.888421447148405152e-02
-3.128502667658593361e-02
-3.304407400727425032e-02
-3.412795245765219698e-02
-3.451291037761547442e-02
-3.418876496748194521e-02
-3.314985546473449979e-02
-3.140870614945374256e-02
-2.898418273976023640e-02
-2.590807373433551275e-02
-2.222661478478621735e-02
-1.799123342339300352e-02
-1.327101871094318528e-02
-8.140023613281664738e-03
-2.682875969526004982e-03
3.006392208046391838e-03
8.830886088712944573e-03
1.468592883297298313e-02
2.046536146991620800e-02
2.606310494316335657e-02
3.137314928310114270e-02
3.629317609414125373e-02
4.072965865710608674e-02
4.459203260878272929e-02
4.780589324586974331e-02
5.030596502171159196e-02
5.203904776049982778e-02
5.297429479162613780e-02
5.308693101761725874e-02
5.237826206676968188e-02
5.086129207985926742e-02
4.856395442770740367e-02
4.553610797040099495e-02
4.183305756468420206e-02
3.753027971004947727e-02
3.271037992313054199e-02
2.746421680195167830e-02
2.189229084836383232e-02
1.609643751653721394e-02
1.018179874663991194e-02
4.254179157307541419e-03
-1.584752285665918907e-03
-7.237172166702331676e-03
-1.260931966251831876e-02
-1.762007468019879952e-02
-2.219186383224082751e-02
-2.626119691385808003e-02
-2.977500145788391367e-02
-3.268755029939762746e-02
-3.497087417878332744e-02
-3.660121408768952228e-02
-3.756989951542646922e-02
-3.787712795896475138e-02
-3.752980817911360373e-02
-3.654775566910021395e-02
-3.495361076250638049e-02
-3.278011571436473953e-02
-3.006472516416717339e-02
-2.684934702845854365e-02
-2.318271729582689275e-02
-1.911518854849374519e-02
-1.470307020348125826e-02
-1.000489687978853293e-02
-5.082457004331230981e-03
-1.513083698475962968e-06
5.170984946190948506e-03
1.036391217029386698e-02
1.550491022356218634e-02
2.051984018230254558e-02
2.533283291545583224e-02
2.986829663149083089e-02
3.405182336777941299e-02
3.780963254882138691e-02
4.107360316142811413e-02
4.377999510589210969e-02
4.587043356302166613e-02
4.730033138786277069e-02
4.802902784110554824e-02
4.803416438355107010e-02
4.730465277484096481e-02
4.584091120099141603e-02
4.366660875381701834e-02
4.081115798920705723e-02
3.732720921083037408e-02
3.327875980297322067e-02
2.874073816445040647e-02
2.380559455103778421e-02
1.856916530933759926e-02
1.313819198108560557e-02
7.623511867351113157e-03
2.135982339741286130e-03
-3.213522934635916310e-03
-8.316505614718867900e-03
-1.307551180849036293e-02
-1.739689040150585453e-02
-2.120110999203284746e-02
-2.442298301559965926e-02
-2.700482901873041408e-02
-2.891348522689903694e-02
-3.012248790553410938e-02
-3.062514887459231311e-02
-3.043076043595566854e-02
-2.955669363003627509e-02
-2.804133654202121961e-02
-2.592781759023742028e-02
-2.327248037365457420e-02
-2.014014689060809535e-02
-1.659917245105895639e-02
-1.272520710544600142e-02
-8.594885447133437939e-03
-4.285178217063373950e-03
1.268120567349080227e-04
4.566875344980702613e-03
8.965689411838523998e-03
1.325576766993623139e-02
1.737836195062746752e-02
2.127831973656886880e-02
2.490671001410898339e-02
2.822290718567969925e-02
3.118883276925313308e-02
3.377603580698107510e-02
3.595923948420463173e-02
3.771919207191293949e-02
3.904303966247475027e-02
3.992028916570745239e-02
4.034815635502386755e-02
4.032598483550308560e-02
3.985860166046217151e-02
3.895546607541369027e-02
3.762838823496738455e-02
3.589556791996565549e-02
3.377676614384843290e-02
3.129677198993957576e-02
2.848375256688117155e-02
2.536814793482417354e-02
2.198537996369400588e-02
1.837200807766071337e-02
1.456868899088125877e-02
1.061826563712235487e-02
6.565387546359849509e-03
2.457864626236845075e-03
-1.655845846200443457e-03
-5.725096919416985085e-03
-9.698326119951441310e-03
-1.352354521608150825e-02
-1.714817473085692920e-02
-2.051984334020019729e-02
-2.358747878988632155e-02
-2.630052399297021920e-02
-2.861116613668360925e-02
-3.047463897091273743e-02
-3.184824776377326999e-02
-3.269686110827864367e-02
-3.298769251003302871e-02
-3.269678580089262210e-02
-3.180798324105003905e-02
-3.031034621882752744e-02
-2.820801262217974281e-02
-2.550910935109303862e-02
-2.223649855307978374e-02
-1.842339470882525115e-02
-1.411042990037138234e-02
-9.355267061225212843e-03
-4.219494167590670357e-03
1.221353436321660768e-03
6.883966891786790290e-03
1.267980257588613782e-02
1.851077184634650208e-02
2.427732155748218643e-02
2.987683412299397406e-02
3.520542406332694690e-02
4.016245243253354497e-02
4.465203686431812313e-02
4.858132680814798710e-02
5.187187064098505718e-02
5.445055303937049868e-02
5.625882713367406224e-02
5.725505165522711687e-02
5.740480318799195958e-02
5.669974949483309878e-02
5.513933421444140726e-02
5.274279735432552824e-02
4.954765201671779140e-02
4.559935405136775893e-02
4.096659606234550471e-02
3.572376018325033181e-02
2.995982934190849142e-02
2.377450098462013245e-02
1.727175483294549063e-02
1.056558394547968058e-02
3.771712888350171183e-03
-2.992061391593918603e-03
-9.606762296890950653e-03
-1.595606539055487855e-02
-2.192882185787185453e-02
-2.741609532643874553e-02
-3.232113595198703865e-02
-3.655293104887419320e-02
-4.003124979973425590e-02
-4.269231932964055037e-02
-4.447790897265327392e-02
-4.535351081985654342e-02
-4.529356199701033842e-02
-4.429031043548852659e-02
-4.235760730201787450e-02
-3.951706519829448205e-02
-3.581859200976595520e-02
-3.132071988402460733e-02
-2.610098861657651065e-02
-2.025527805456582564e-02
-1.388615778887855243e-02
-7.116206474726378788e-03
-7.280894148192079696e-05
7.107734046248643037e-03
1.428228621047965968e-02
2.130767761251704112e-02
2.804110448516344833e-02
3.434086144893746390e-02
4.007638437095835393e-02
4.512394965425412657e-02
4.937094008198205514e-02
5.272713347079463486e-02
5.510886478246882630e-02
5.646300488728545064e-02
5.675131505590769870e-02
5.595560611971457654e-02
5.408965696056879796e-02
5.117588207863554145e-02
4.727139793611638552e-02
4.244676169830477463e-02
3.679141761581768838e-02
3.041875019869668892e-02
2.344822205288438211e-02
1.602019370826874081e-02
8.281353598239339989e-03
3.856489323046351225e-04
-7.505652259728676744e-03
-1.523140159717830885e-02
-2.263201938535632299e-02
-2.954894186931457389e-02
-3.583425259476867575e-02
-4.134858460714272571e-02
-4.596153478852627733e-02
-4.956656328174937481e-02
-5.206372458613565263e-02
-5.338212563007419670e-02
-5.346943524852305202e-02
-5.229108177206511637e-02
-4.984972965074717377e-02
-4.615743108395427285e-02
-4.126500590134427743e-02
-3.524296316628087317e-02
-2.818278037077545650e-02
-2.021084823712329323e-02
-1.146178080750979641e-02
-2.101239239338231930e-03
7.692675265307370204e-03
1.772989035795979190e-02
2.780448394525005321e-02
3.770891873979075742e-02
4.723312709843560664e-02
5.616673510585798446e-02
6.431103257907355708e-02
7.147960799278915700e-02
7.749609941800388035e-02
8.221940923553518188e-02
8.551894169159769687e-02
8.730317250054167588e-02
8.751335240811419780e-02
8.611165380526755730e-02
8.311746574803068055e-02
7.856447036694368113e-02
7.253575657579267033e-02
6.514736403966138456e-02
5.653657492089268072e-02
4.688684186695017686e-02
3.639114775309581357e-02
2.527157637278039035e-02
1.376553750999525913e-02
2.115527485307963813e-03
-9.427264921319837565e-03
-2.061278788628629829e-02
-3.120450414227896735e-02
-4.097189905913024149e-02
-4.970587695683333779e-02
-5.722704968468624032e-02
-6.336839246486768162e-02
-6.801485454921001039e-02
-7.106946393279840735e-02
-7.247734748454463805e-02
-7.223002996349321692e-02
-7.033719107060397435e-02
-6.687033992823522566e-02
-6.191834839874997554e-02
-5.561058744247154156e-02
-4.811193302100735814e-02
-3.960028205143547447e-02
-3.028923057552619647e-02
-2.040001061250700312e-02
-1.016575713905732911e-02
1.721278581585132181e-04
1.037590173252223198e-02
2.021679878503377867e-02
2.947029291869183651e-02
3.793972414644443403e-02
4.544397955501944947e-02
5.182522807337826276e-02
5.696815230633262700e-02
6.076946555954992196e-02
6.317864531352385127e-02
6.416854060237121848e-02
6.374406632305051890e-02
6.195656965532987670e-02
5.886963305542269181e-02
5.459303028035784877e-02
4.925272142199745712e-02
4.299639099529092845e-02
3.599674644382009486e-02
2.843154505604730820e-02
2.049366247691170734e-02
1.237976808469556239e-02
4.284438641401659871e-03
-3.599668859388842519e-03
-1.108593408248317869e-02
-1.800668152751512541e-02
-2.419992752164736027e-02
-2.953040106121802844e-02
-3.388231852923538623e-02
-3.715649624267877010e-02
-3.929353077180509912e-02
-4.024404689991521733e-02
-3.999884286027290126e-02
-3.857201502420411904e-02
-3.599840571880840584e-02
-3.235228245060385588e-02
-2.771688664328441493e-02
-2.220897056403015393e-02
-1.596066696450059927e-02
-9.117319610508052563e-03
-1.844230716865025328e-03
5.690241442140159082e-03
1.330988647406691414e-02
2.083590147754199942e-02
2.809510702099098783e-02
3.492110313521945564e-02
4.115348303675497865e-02
4.665611825427423698e-02
5.130072158316550252e-02
5.498567751497721728e-02
5.763492298871882719e-02
5.918608186655088810e-02
5.961905754285457687e-02
5.892487652472871984e-02
5.712851585026909595e-02
5.428082331300825708e-02
5.044640170044320526e-02
4.572372419384741066e-02
4.021861937914825852e-02
3.405769092481086835e-02
2.738009551972742789e-02
2.032977527173989579e-02
1.305998363224791098e-02
5.724649440806543234e-03
-1.525810032852788038e-03
-8.542778902776514138e-03
-1.518644538519254086e-02
-2.133097981766660795e-02
-2.685597933582466873e-02
-3.166601687099795254e-02
-3.567544268072313923e-02
-3.881842264245932705e-02
-4.105406974217258587e-02
-4.235020383770348590e-02
-4.270717173751953366e-02
-4.213553834304754192e-02
-4.066728748071860022e-02
-3.835585235102240836e-02
-3.526225356643613446e-02
-3.147088207783386299e-02
-2.707198876252236985e-02
-2.216732891828897961e-02
-1.686781773015398264e-02
-1.128611293238023991e-02
-5.538912901487312752e-03
2.568561184618772114e-04
5.989353908153973241e-03
1.154998557326483190e-02
1.683644655241364751e-02
2.175963571440901051e-02
2.623430665060920083e-02
3.019334686454512237e-02
3.357881335783219345e-02
3.634442294363492837e-02
3.846318878764664467e-02
3.991320655270021861e-02
4.069308089472217782e-02
4.080965151822550652e-02
4.028075799688266012e-02
3.913870969471357902e-02
3.741945399731533284e-02
3.517169121621746553e-02
3.244816658135715043e-02
2.930697327059713850e-02
2.581180239493002099e-02
2.202755712256281029e-02
1.802264509901429362e-02
1.386633007042493808e-02
9.628662079884237751e-03
5.380345428147572870e-03
1.191919691713064916e-03
-2.866602040179117190e-03
-6.725474785180272745e-03
-1.031705148790964394e-02
-1.357508205834118825e-02
-1.643583370000794089e-02
-1.884110458338052879e-02
-2.073456287625089628e-02
-2.206981602652152014e-02
-2.280574787905528117e-02
-2.290975270780995499e-02
-2.236397646451144736e-02
-2.115513533590267226e-02
-1.929046181656061953e-02
-1.678586719450201117e-02
-1.367145794033272979e-02
-9.996868303968634017e-03
-5.817492631869325588e-03
-1.210692148830000599e-03
3.738819756432626169e-03
8.935107856444102561e-03
1.426995834521451595e-02
1.963282312817070732e-02
2.490650443743045589e-02
2.997241353698052932e-02
3.471605105145693371e-02
3.902648021236707759e-02
4.279850857071500897e-02
4.594379947463426289e-02
4.837887547230182439e-02
5.004217705922237719e-02
5.088733124961697385e-02
5.088073887274059681e-02
5.001783106595122236e-02
4.830104754289627628e-02
4.575981101719150262e-02
4.243839090764300187e-02
3.839355804234766828e-02
3.370462543671357003e-02
2.845565892703207783e-02
2.274722078340968637e-02
1.668702687137335605e-02
1.038773672013167636e-02
3.969097927498183714e-03
-2.448658994797761786e-03
-8.745668845643483902e-03
-1.480237874113619900e-02
-2.050490841840464304e-02
-2.574586803579598931e-02
-3.042205782094398875e-02
-3.444597400800632897e-02
-3.773497459782239327e-02
-4.022293157033009214e-02
-4.185874473073232516e-02
-4.260028926677127820e-02
-4.243198785874298384e-02
-4.134525791073478257e-02
-3.935578038311943194e-02
-3.649680079659135823e-02
-3.281317233498887154e-02
-2.837714790396470704e-02
-2.326723567936611267e-02
-1.758324680365392842e-02
-1.143722865003395789e-02
-4.948803513111479403e-03
1.748198087612316126e-03
8.517775577280461280e-03
1.521972027181373727e-02
2.171201760113050661e-02
2.785721657378970040e-02
3.352476255453507026e-02
3.858821805039701347e-02
4.294107166100043921e-02
4.648437107365386428e-02
4.913880479146256336e-02
5.084854855203946311e-02
5.156737905577077341e-02
5.128447803424519141e-02
4.999979320705649072e-02
4.773925966645683333e-02
4.455353130418544111e-02
4.050320523542635942e-02
3.567856873608819118e-02
3.017720034273680893e-02
2.411344272365556138e-02
1.761431510622853830e-02
1.081066517212435872e-02
3.842355194084479380e-03
-3.149526173553458645e-03
-1.002597261720268584e-02
-1.664926801544304794e-02
-2.288775321019281134e-02
-2.862186896425673865e-02
-3.373610476908418809e-02
-3.813531687424894651e-02
-4.173418185230521466e-02
-4.446248497415403872e-02
-4.627376959177108978e-02
-4.712856552168442209e-02
-4.701637268111603235e-02
-4.593782188889744544e-02
-4.391168135564573610e-02
-4.097938642650657964e-02
-3.718914582675581643e-02
-3.261339335526929062e-02
-2.733198474512483350e-02
-2.143752372328166025e-02
-1.503528900288852999e-02
-8.233802384665287605e-03
-1.150985498761286814e-03
6.093169738910441356e-03
1.337829423326115930e-02
2.058372566089699401e-02
2.759171907464510673e-02
3.429240625848013757e-02
4.057841227293858960e-02
4.635555061104597308e-02
5.153794772227878601e-02
5.604876515777913043e-02
5.982987044347200245e-02
6.282798270141833064e-02
6.501041838652386884e-02
6.635481317016540814e-02
6.685042657111206488e-02
6.650560283722722899e-02
6.533342123716601169e-02
6.336535994484945866e-02
6.064021596690392923e-02
5.720598183669110132e-02
5.312265899560580235e-02
4.845323686578677236e-02
4.327109415530484837e-02
3.765289780709654005e-02
3.168006623972727948e-02
2.543895611298569934e-02
1.901722235910009370e-02
1.250643642464472141e-02
5.999132218831073823e-03
-4.110683364736836612e-04
-6.629644952565222522e-03
-1.256268267178946296e-02
-1.811805498012091648e-02
-2.320441150245483239e-02
-2.773589022281894995e-02
-3.163025245915030564e-02
-3.481065611973658408e-02
-3.721200389721239510e-02
-3.877280240624807195e-02
-3.944938411166727665e-02
-3.920745965690235202e-02
-3.802639881545087641e-02
-3.590906261401171501e-02
-3.286530123915692297e-02
-2.893560187893466640e-02
-2.417330481701538553e-02
-1.865215645805841718e-02
-1.247377299972825954e-02
-5.747797396640265573e-03
1.385903636840261043e-03
8.777462309889872208e-03
1.626279134370459470e-02
2.366235594658912950e-02
3.079464412233985648e-02
3.747351169602356619e-02
4.351236603073797837e-02
4.873659155084734962e-02
5.298193005479959194e-02
5.609657276920212293e-02
5.796470269076599291e-02
5.848076246859062327e-02
5.758475768042008863e-02
5.524804050904851688e-02
5.146886813012533507e-02
4.630622742076090370e-02
3.983376837876969473e-02
3.218177315415968881e-02
2.351144347105880647e-02
1.400857613038945446e-02
3.902969724403895432e-03
-6.567592463642086230e-03
-1.714208246521787757e-02
-2.754968621963104630e-02
-3.752334915792952807e-02
-4.680144809015676644e-02
-5.512976565514592087e-02
-6.229105368219611805e-02
-6.808167124633275613e-02
-7.233976030506072963e-02
-7.495091980733779857e-02
-7.582193961250013881e-02
-7.493520960350273652e-02
-7.229524070458977214e-02
-6.796320809075831471e-02
-6.205148040000063592e-02
-5.469353384988217409e-02
-4.608304969194043643e-02
-3.642764498044161886e-02
-2.596472699736081247e-02
-1.495307837565776690e-02
-3.654195745346652292e-03
7.664977405327831964e-03
1.873884849740798178e-02
2.932302102186113563e-02
3.918532070199659545e-02
4.811618708630755609e-02
5.594870542715900397e-02
6.252845358246680862e-02
6.775770161982319628e-02
7.156459771461347319e-02
7.391244594840074011e-02
7.481701432502314841e-02
7.430768677103533060e-02
7.246574222301556401e-02
6.939116767512112927e-02
6.520760243389180089e-02
6.006675719147244741e-02
5.412562519233794778e-02
4.755679194787449521e-02
4.053686812312645715e-02
3.323959233399017416e-02
2.583598965712389020e-02
1.849131983031921181e-02
1.135224819011990648e-02
4.560087307752510970e-03
-1.766017478723781904e-03
-7.523578617187941762e-03
-1.262175999445560443e-02
-1.699833861625532280e-02
-2.059791885969932887e-02
-2.338951470110990638e-02
-2.535671662475801752e-02
-2.649412760681708195e-02
-2.681786520297262805e-02
-2.634881088918996500e-02
-2.512505362009916088e-02
-2.319283944544623527e-02
-2.060608817123356015e-02
-1.743067156727423975e-02
-1.373519223916465012e-02
-9.598162224358382927e-03
-5.101823029474406544e-03
-3.327915225696852566e-04
4.616888167613874584e-03
9.654157643954504320e-03
1.468292052081600699e-02
1.960629156367931641e-02
2.432883892301666157e-02
2.875656581450594315e-02
3.279795126389300347e-02
3.636982017679968315e-02
3.939159199285986734e-02
4.179489652069195288e-02
4.352095743889775742e-02
4.451897656560756950e-02
4.475878022948902996e-02
4.421555807099358110e-02
4.288613334481836820e-02
4.078084801786332342e-02
3.792154224697720510e-02
3.435359575993882086e-02
3.012784205354681125e-02
2.531568282596647831e-02
1.999870881790878283e-02
1.426714116077764868e-02
8.225240951496039926e-03
1.979808136811957164e-03
-4.354704357617919692e-03
-1.066093491529549256e-02
-1.682212675253260195e-02
-2.272231616493011405e-02
-2.824757399638937877e-02
-3.329334972989333313e-02
-3.775834938846425043e-02
-4.155308412759262798e-02
-4.460024777416091851e-02
-4.682922789043077183e-02
-4.819171400629393420e-02
-4.864570161730252112e-02
-4.816962391959069001e-02
-4.675869365869596284e-02
-4.441808156459788048e-02
-4.117950945668597679e-02
-3.708117721601686401e-02
-3.218310453622365980e-02
-2.655955246941048287e-02
-2.029404057395244390e-02
-1.348978971770984150e-02
-6.254110163401621451e-03
1.292804765944073619e-03
9.024118796943158410e-03
1.681016748013308693e-02
2.451652341791660944e-02
3.200893529313827285e-02
3.915736233796477533e-02
4.583365325811659952e-02
5.191828213003521486e-02
5.730343195264191170e-02
6.188669669812291857e-02
6.558846555223003805e-02
6.833697167130088623e-02
7.008052289924780742e-02
7.078908242394610362e-02
7.044187344886967961e-02
6.904943477054538425e-02
6.663108527843435158e-02
6.322902252015001612e-02
5.890507662800800043e-02
5.372993169545648567e-02
4.779850199215537193e-02
4.121131262384528787e-02
3.408349511902541984e-02
2.654013821809833584e-02
1.871006607646399575e-02
1.073022668966759630e-02
2.738620430552644522e-03
-5.127494894208386826e-03
-1.273131465996149569e-02
-1.994106652910666161e-02
-2.663401842223250826e-02
-3.269093315007025324e-02
-3.801013913584279369e-02
-4.249766909198784276e-02
-4.607435463283761357e-02
-4.868201567883431030e-02
-5.026968608407082068e-02
-5.081585768138104781e-02
-5.030939634034711089e-02
-4.876071383046748364e-02
-4.620451706060371005e-02
-4.268447601807228570e-02
-3.827511678401286643e-02
-3.305976833536651560e-02
-2.714153343558718678e-02
-2.064125169178911492e-02
-1.368603933912345208e-02
-6.420518862623272351e-03
1.006915237873969374e-03
8.442657467767499327e-03
1.572940058117754808e-02
2.271251377488386555e-02
2.924399354918528343e-02
3.517867282164491294e-02
4.038947135387025572e-02
4.475963063567572897e-02
4.818776547686640793e-02
5.060122700009184876e-02
5.193564179185795882e-02
5.216368182774902551e-02
5.127482157660587930e-02
4.928210267512701803e-02
4.623348835184339090e-02
4.218640929304136311e-02
3.723494386001581502e-02
3.148634707604481414e-02
2.506642752787699782e-02
1.812285886160187875e-02
1.080821227682370392e-02
3.290483318950223300e-03
-4.258219502595700888e-03
-1.166520790582432562e-02
-1.875725119298728844e-02
-2.536543209803187454e-02
-3.133495959435177863e-02
-3.651552729088836796e-02
-4.077978759035242456e-02
-4.401753081979127569e-02
-4.613387267011656578e-02
-4.707157983924362826e-02
-4.678314519960666273e-02
-4.526104778717526811e-02
-4.252150022823369957e-02
-3.860215481246509484e-02
-3.358236841511837156e-02
-2.755114176360186351e-02
-2.063402158686135704e-02
-1.297373131508300012e-02
-4.727898458304993258e-03
3.922812753111967234e-03
1.279401577308168433e-02
2.169124293412131796e-02
3.041653930807054762e-02
3.877719912081477316e-02
4.658699471406015091e-02
5.366592750371205339e-02
5.985999525737480814e-02
6.502375849725532120e-02
6.904104216159864804e-02
7.182435619360422185e-02
7.330149123103485431e-02
7.344849664630510866e-02
7.225434759795518191e-02
6.974752657974468695e-02
6.598731993210119051e-02
6.104947343419966227e-02
5.505119921470012084e-02
4.811893381452839874e-02
4.040575286521432691e-02
3.208121305108748572e-02
2.332183476567333338e-02
1.431803924349055873e-02
5.261754211838107383e-03
-3.656841591483504621e-03
-1.224855847144367543e-02
-2.033379908623880392e-02
-2.774857164713778745e-02
-3.433525549707860253e-02
-3.996653098121354802e-02
-4.452722787471631583e-02
-4.792748840044540326e-02
-5.011006240948335383e-02
-5.102937989058389801e-02
-5.068458269419098133e-02
-4.908921753913200042e-02
-4.628802200859356841e-02
-4.235769172719185127e-02
-3.738672488345302913e-02
-3.150095077753461287e-02
-2.483585328118813329e-02
-1.754718092342549482e-02
-9.807193572281335675e-03
-1.792139178374290050e-03
6.311970167173864242e-03
1.431798966078784950e-02
2.204520942011356510e-02
2.931713081136677612e-02
3.596771709047819759e-02
4.185346569353697033e-02
4.683777358712720718e-02
5.081794216688553106e-02
5.370882554655069530e-02
5.544836831393109428e-02
5.601363099737173556e-02
5.539217023815535407e-02
5.361477495223682110e-02
5.073000268475449936e-02
4.681013148784868294e-02
4.195936483544818879e-02
3.628977027382193632e-02
2.994113001244778222e-02
2.306213896385104350e-02
1.581108823189833479e-02
8.356545351211127834e-03
8.673238924370831396e-04
-6.488741804991859756e-03
-1.354469759257755437e-02
-2.014493427152899002e-02
-2.614351262357149375e-02
-3.140355681389045417e-02
-3.581379847960990820e-02
-3.926998122079462111e-02
-4.169702323473952615e-02
-4.303962783951834070e-02
-4.325921092697995046e-02
-4.235435169921416415e-02
-4.033272150007259638e-02
-3.723791767467406200e-02
-3.313289498566693303e-02
-2.809838941347551217e-02
-2.224654690442526978e-02
-1.569638717674232478e-02
-8.591672445707250472e-03
-1.086665571816770696e-03
6.656651923853773405e-03
1.446546080685526259e-02
2.216650819097460909e-02
2.958853729900543308e-02
3.656135230728256580e-02
4.292653412598299023e-02
4.853885116122773347e-02
5.326151450776132890e-02
5.698866641181302151e-02
5.962379991238132143e-02
6.110110874921811930e-02
6.138213139285884912e-02
6.044355373525710229e-02
5.830569613600637691e-02
5.499986359118321649e-02
5.059204176398341551e-02
4.517277958018706130e-02
3.884658891263201297e-02
3.175006478669041565e-02
2.402649249991421418e-02
1.583848404610513350e-02
7.359482597551564309e-03
-1.233470794935703600e-03
-9.756830604657273226e-03
-1.802740236693545217e-02
-2.586965935449073856e-02
-3.311168280051563634e-02
-3.959457632981188552e-02
-4.517863749997021172e-02
-4.973197452325799767e-02
-5.315704292091342348e-02
-5.536891698749779600e-02
-5.631111169019993590e-02
-5.596042788390279132e-02
-5.430643596809076046e-02
-5.138441876037055239e-02
-4.724322213841770229e-02
-4.196326766374770117e-02
-3.565437364968263023e-02
-2.843769987794000226e-02
-2.046745135374757399e-02
-1.190562100519353128e-02
-2.930026022356440989e-03
6.269812641434304584e-03
1.550324751430873921e-02
2.457749752895428338e-02
3.330078889735550024e-02
4.149499152746538577e-02
4.899007318071739447e-02
5.563048123601833234e-02
6.128882184007947848e-02
6.584604241204930486e-02
6.922170189822540731e-02
7.135353515535051983e-02
7.220450345226711586e-02
7.177637169201619982e-02
7.008147170652563596e-02
6.717397347341999558e-02
6.312368554418686106e-02
5.802285890170244542e-02
5.199119362017710216e-02
4.515527628346176214e-02
3.766474456743799937e-02
2.967592644254328157e-02
2.135214984664390164e-02
1.286355445895386723e-02
4.379459362371626238e-03
-3.934564810704016709e-03
-1.191458119386074044e-02
-1.940927697048029990e-02
-2.627712050811897154e-02
-3.238618022981071959e-02
-3.762909920419101051e-02
-4.190511807136067246e-02
-4.514174348982764873e-02
-4.728390557369355901e-02
-4.829322487353947257e-02
-4.816506549566593881e-02
-4.690319154529867113e-02
-4.454561206630441167e-02
-4.114711040435219819e-02
-3.678048120480239408e-02
-3.154745165964579351e-02
-2.555645633838715680e-02
-1.894072783120605633e-02
-1.184306448894141203e-02
-4.415242118814906476e-03
3.179493458166079978e-03
1.077700658144238599e-02
1.821250912579913672e-02
2.532143984901948780e-02
3.194912225854804749e-02
3.795093629065703772e-02
4.319033804876972610e-02
4.755805873630295638e-02
5.095276279616579862e-02
5.330275851003259818e-02
5.456034827539440329e-02
5.469344251200992935e-02
5.371115797723696739e-02
5.163269683340397653e-02
4.851220673216263130e-02
4.442631768117728808e-02
3.946643424154751972e-02
3.375496293962160915e-02
2.742063134743747549e-02
2.061171610836723747e-02
1.348641861448846013e-02
6.206645074795914471e-03
-1.059560249562362284e-03
-8.144767446737741223e-03
-1.488929242409287729e-02
-2.113683243399143777e-02
-2.674450001269926269e-02
-3.158735653891902445e-02
-3.554843703969064184e-02
-3.854370388821967003e-02
-4.050027039566143905e-02
-4.137309049153976848e-02
-4.114672430132373937e-02
-3.981814899765243748e-02
-3.742567668347151350e-02
-3.401900620001715309e-02
-2.967663631024594628e-02
-2.450142750908799322e-02
-1.860636056858539292e-02
-1.213155735663123611e-02
-5.223016200286991449e-03
1.961226303797213889e-03
9.255060759049246050e-03
1.649286078978524570e-02
2.351042671671204481e-02
3.014548717751663193e-02
3.625137406362298476e-02
4.168985196718849595e-02
4.633799460300220413e-02
5.009985817173526895e-02
5.288768221024590932e-02
5.465037538387140098e-02
5.535256417984486810e-02
5.498281190849079597e-02
5.356313015240619924e-02
5.112497089545317563e-02
4.773561693389609395e-02
4.347453741526503823e-02
3.843981836563524490e-02
3.275023842694176762e-02
2.652959119471536703e-02
1.991725157517656303e-02
1.305656717881369458e-02
6.093037633503063308e-03
-8.259366204435500403e-04
-7.555862796238848288e-03
-1.396131585587702742e-02
-1.990982014620224297e-02
-2.528493390924126810e-02
-2.998150629552572694e-02
-3.390529904241644521e-02
-3.698735857036063862e-02
-3.916528904324481641e-02
-4.040434830170565317e-02
-4.068528068536505365e-02
-4.000451575154491402e-02
-3.838727830206140057e-02
-3.586581976828765589e-02
-3.250024407039440316e-02
-2.836303029379875357e-02
-2.354014111213964186e-02
-1.813721741382581104e-02
-1.226405194923737424e-02
-6.044491080377886565e-03
3.927958662785224764e-04
6.916929054811281861e-03
1.339446350794115323e-02
1.969373102064514783e-02
2.569107000062673118e-02
3.126558278202477836e-02
3.630996286052244615e-02
4.072946804210261784e-02
4.443782993150824367e-02
4.737443912880788532e-02
4.948557893597937962e-02
5.074207900730263315e-02
5.113282045172647811e-02
5.065850870482357243e-02
4.934819688627394008e-02
4.723744838473047103e-02
4.438390021050325068e-02
4.085807589110918014e-02
3.673881721076176221e-02
3.212082635924703999e-02
2.710168982506609356e-02
2.178699310716362622e-02
1.628597042122352859e-02
1.070782017243846092e-02
5.161657305829145913e-03
-2.447285624273950674e-04
-5.411094734295300752e-03
-1.024014937816871210e-02
-1.464367756819727473e-02
-1.854449212612137299e-02
-2.187035271568856659e-02
-2.456780034514650934e-02
-2.658925591322468945e-02
-2.790296900740575625e-02
-2.849248410327104297e-02
-2.834853203723648046e-02
-2.748397288266418020e-02
-2.591744145436444824e-02
-2.368418544166919770e-02
-2.083222075507906376e-02
-1.741615322151203113e-02
-1.350692877617112181e-02
-9.179062088064467162e-03
-4.517137206971630868e-03
3.881241647809945128e-04
5.443685219527868296e-03
1.055196960168930907e-02
1.561512255735080651e-02
2.053747284778095067e-02
2.522447110761991129e-02
2.958666807759985362e-02
3.354278479446089201e-02
3.701475422629687401e-02
3.993944741965880368e-02
4.225964029761659912e-02
4.393034775575323236e-02
4.492212645349474842e-02
4.521108902972006266e-02
4.479436101798019154e-02
4.367574423203490069e-02
4.187347003640316118e-02
3.942034438572288024e-02
3.635457594503394008e-02
3.273125190104747562e-02
2.860979883753045697e-02
2.405918601486697894e-02
1.915604800738038294e-02
1.397952980789997704e-02
8.615062017979225467e-03
3.149218951990516869e-03
-2.330547929129703384e-03
-7.736238759468465863e-03
-1.298156015954798556e-02
-1.798388191734609162e-02
-2.266197100780942275e-02
-2.694240112638043860e-02
-3.075574988745907040e-02
-3.403932837890741997e-02
-3.674170451535194865e-02
-3.881503180451992274e-02
-4.022742048280755073e-02
-4.095351711808890849e-02
-4.097958400561457076e-02
-4.030730174769444479e-02
-3.894336786122391814e-02
-3.691368066020028066e-02
-3.425044414239086094e-02
-3.099808765303677799e-02
-2.721394820736057485e-02
-2.295964521430881103e-02
-1.831047782574419039e-02
-1.334531872824720744e-02
-8.149580241868549513e-03
-2.814165654825807709e-03
2.569157186793884044e-03
7.906621960742475988e-03
1.310444364373372639e-02
1.807294962795131382e-02
2.272522832778544125e-02
2.697924020217420948e-02
3.076374493884518821e-02
3.401068825534659529e-02
3.666734992438404339e-02
3.868918615305548536e-02
4.004201864870178540e-02
4.070976681566622346e-02
4.068125649913899300e-02
3.996590661506282949e-02
3.858187578048043187e-02
3.655957423448482485e-02
3.394640674020400067e-02
3.079444377645547404e-02
2.717320810219320953e-02
2.315811082689564829e-02
1.883344585173581109e-02
1.429330997633886102e-02
9.634045649999985195e-03
4.958829059035881753e-03
3.724883641918587743e-04
-4.020622552534149248e-03
-8.116567954138672464e-03
-1.181433745403032490e-02
-1.502172815782648607e-02
-1.764932338274269666e-02
-1.962228436220712566e-02
-2.087596675296323617e-02
-2.135606869833682475e-02
-2.103210038702081619e-02
-1.987986659422394387e-02
-1.790237696966552258e-02
-1.511777014138037875e-02
-1.155983634311590763e-02
-7.290898575654298185e-03
-2.380118556540682974e-03
3.076657471287021130e-03
8.971841318763891515e-03
1.518642695941349249e-02
2.158487091434188945e-02
2.802898713734705560e-02
3.437336770882236381e-02
4.047033953825962538e-02
4.617696471157675675e-02
5.135577211705065481e-02
5.587476433681416027e-02
5.962331650222372353e-02
6.249757187488741428e-02
6.441834572729718267e-02
6.532909820213504692e-02
6.518642836880460256e-02
6.398605831949635836e-02
6.173383791430622769e-02
5.846827625164322667e-02
5.425172273241383319e-02
4.916010276310690819e-02
4.330148139078547620e-02
3.679077743806429684e-02
2.976283632160826517e-02
2.236402525868677951e-02
1.474498187214551975e-02
7.064314578336452002e-03
-5.191490490601795293e-04
-7.851734070139108901e-03
-1.478227944374352343e-02
-2.116996675068215719e-02
-2.688969645715186957e-02
-3.182263697619645143e-02
-3.587805499391233388e-02
-3.897580935944689601e-02
-4.105860964149687237e-02
-4.209672466121306550e-02
-4.207060370180838726e-02
-4.099783479453270041e-02
-3.890729124527318727e-02
-3.585323193269494141e-02
-3.191427006733022625e-02
-2.717829334453728679e-02
-2.176093032356639020e-02
-1.578458401863363711e-02
-9.386117981885388345e-03
-2.713423082031753315e-03
4.083291793945153722e-03
1.084853600058056228e-02
1.742663017656246455e-02
2.366885550601009053e-02
2.943076101406853773e-02
3.457735181389816337e-02
3.899263138107435939e-02
4.256648917183471909e-02
4.521722046925310406e-02
4.687691094509642553e-02
4.749736081342108979e-02
4.706163153158753054e-02
4.556154948176811131e-02
4.302469359682564026e-02
3.949244698852527602e-02
3.502688902344291977e-02
2.971618487527077218e-02
2.365559775808027607e-02
1.696525536789069213e-02
9.772853429136084055e-03
2.216617398409181233e-03
-5.554667849080432811e-03
-1.339087740405906293e-02
-2.113879487459412523e-02
-2.864495608811583327e-02
-3.576271112134161989e-02
-4.235085272336906737e-02
-4.827521253209948737e-02
-5.342034474653175463e-02
-5.767609346034956175e-02
-6.095647129522337171e-02
-6.319084717696592246e-02
-6.432379657459959266e-02
-6.433161072869540698e-02
-6.319866003928571729e-02
-6.094303311503360132e-02
-5.759985016056247409e-02
-5.322279918638738588e-02
-4.789631182657115571e-02
-4.171218546073834216e-02
-3.479029786587529288e-02
-2.726173694904183292e-02
-1.926938886956978264e-02
-1.097167501459956132e-02
-2.529410889048413179e-03
5.890171095966238030e-03
1.411811373383137919e-02
2.199062787647702508e-02
2.934934299468813096e-02
3.604170649850443192e-02
4.193575755158894525e-02
4.690575984256404457e-02
5.085067786980575211e-02
5.369007910484360768e-02
5.535748493050172969e-02
5.582446751796767831e-02
5.507226903365113752e-02
5.311725174126226412e-02
4.999907444407138135e-02
4.577419471500900061e-02
4.053548324478133125e-02
3.438399327728285104e-02
2.744975858734418489e-02
1.987805744370564620e-02
1.182532114764718069e-02
3.467215693285308990e-03
-5.017364194018831235e-03
-1.344091289562262051e-02
-2.161248348574716996e-02
-2.934439457440563698e-02
-3.645348570034219471e-02
-4.276097457058582879e-02
-4.810861979034863206e-02
-5.234556215939156765e-02
-5.534502177756334823e-02
-5.700660683849470556e-02
-5.724318987141943649e-02
-5.601407823720476464e-02
-5.329210214974119258e-02
-4.909036147360393287e-02
-4.345706199444183959e-02
-3.645860538443089494e-02
-2.821247577950850710e-02
-1.884856202906877790e-02
-8.533390455445724609e-03
2.541126630768329384e-03
1.417102859040730162e-02
2.612544816892120939e-02
3.816898610589521817e-02
5.005963752286701762e-02
6.155187024026886194e-02
7.240812530190575413e-02
8.240548250356373450e-02
9.132778864625311355e-02
9.899543668562245380e-02
1.052451147787251823e-01
1.099456067791270419e-01
1.130119449737222448e-01
1.143744682436266952e-01
1.140260479438611474e-01
1.119817539985984711e-01
1.082982445610511657e-01
1.030798145605507365e-01
9.644603836871429303e-02
8.856841382180581645e-02
7.963307331858809901e-02
6.985214834092928760e-02
5.946145981202997921e-02
4.870171374445544238e-02
3.782629783844441984e-02
2.709046426465809218e-02
1.674085705636845639e-02
7.017854136557803713e-03
-1.850895897992514520e-03
-9.668543730751467946e-03
-1.624731529202069064e-02
-2.144363547921461152e-02
-2.513947160517563534e-02
-2.724608473484841503e-02
-2.773025065679626810e-02
-2.657317351170535719e-02
-2.381653750380842427e-02
-1.952978918726707910e-02
-1.381545329398287808e-02
-6.825820857668069182e-03
1.275034130355824635e-03
1.027996898368458562e-02
1.996633015542129130e-02
3.009666919217612521e-02
4.041583234144677933e-02
5.066802761649966819e-02
6.059921470169062074e-02
6.995670412009870331e-02
7.850634551192776922e-02
8.603164936154458764e-02
9.233002600276739302e-02
9.724267466612641908e-02
1.006229827462256782e-01
1.023698207708052810e-01
1.024165310759124342e-01
1.007198156322069854e-01
9.729417511323647239e-02
9.216788888774629651e-02
8.541799930445478917e-02
7.715091134256092664e-02
6.749376579267871157e-02
5.661451219249721833e-02
4.468934987101454148e-02
3.192089672134552220e-02
1.852430644138315999e-02
4.720390155160599302e-03
-9.261214050430448264e-03
-2.319135795241596826e-02
-3.684842388528595386e-02
-5.001398407338586427e-02
-6.248482034651636763e-02
-7.407676170343453770e-02
-8.461503611311248230e-02
-9.396208528838545515e-02
-1.019923864248975798e-01
-1.086141293136830832e-01
-1.137690723548828026e-01
-1.174150585538166064e-01
-1.195610137984777360e-01
-1.202295454801263069e-01
-1.194829602321289125e-01
-1.174150085090828882e-01
-1.141354153156466655e-01
-1.097946667619263822e-01
-1.045522330053829246e-01
-9.859199760117173805e-02
-9.211318070279726766e-02
-8.531964203616582143e-02
-7.842450208886030116e-02
-7.164086903138780493e-02
-6.517206237761305476e-02
-5.921634289999218315e-02
-5.395581308790579900e-02
-4.954589882018929636e-02
-4.613236693245365005e-02
-4.381624055685589408e-02
-4.268042452967260592e-02
-4.277379204385232947e-02
-4.410068411223726920e-02
-4.665096989188935450e-02
-5.035974691329789255e-02
-5.514443985390694858e-02
-6.088966344651942919e-02
-6.744588312427843291e-02
-7.465345367792093623e-02
-8.232145678858536486e-02
-9.025123015319250208e-02
-9.823461859358113835e-02
-1.060556141480453740e-01
-1.135006843430487466e-01
-1.203639794809099189e-01
-1.264428400674426634e-01
-1.315564911005603910e-01
-1.355386026621429874e-01
-1.382397349449744628e-01
-1.395471420115316219e-01
-1.393578531963516054e-01
-1.376116145361013787e-01
-1.342705844751544420e-01
-1.293220254306828298e-01
-1.227963614107310392e-01
-1.147348562931611166e-01
-1.052219076760049915e-01
-9.435987756240468705e-02
-8.227298180883906020e-02
-6.911530985421274198e-02
-5.504775713098378209e-02
-4.025459889793539525e-02
-2.492765641811455629e-02
-9.264336311419329312e-03
6.531879817718890847e-03
2.225938484695387520e-02
3.772499756223827300e-02
5.273860022318744428e-02
6.712854996678754849e-02
8.073919827510149527e-02
9.342754619873906707e-02
1.050866836040061092e-01
1.156193420992394222e-01
1.249657106700570730e-01
1.330917748708407844e-01
1.399830431141143861e-01
1.456690166875171111e-01
1.501894484356420534e-01
1.536216551878707426e-01
1.560634844631702267e-01
1.576283486948319712e-01
1.584575292655440726e-01
1.586974774258351761e-01
1.585101381306383561e-01
1.580640378602773399e-01
1.575275609438422098e-01
1.570688534563862981e-01
1.568529817445163121e-01
1.570287885666577232e-01
1.577390671239002062e-01
1.591061805126183226e-01
1.612292536437934520e-01
1.641961332232148574e-01
1.680539314452656474e-01
1.728376121386607789e-01
1.785474337292904112e-01
1.851522539775209142e-01
1.926054995635037848e-01
2.008158441720460374e-01
2.096808983985093688e-01
2.190667658219345448e-01
2.288168864492813315e-01
2.387642419330724131e-01
2.487176324153381191e-01
2.584814797219814331e-01
2.678525318916596953e-01
2.766232195656117554e-01
2.845905076234418463e-01
2.915600722547824764e-01
2.973420040425456268e-01
3.017716643047332892e-01
3.046960990609580699e-01
3.059853456344341360e-01
3.055438373021324150e-01
3.032873639878801986e-01
2.991793279035242503e-01
2.932006543238731000e-01
2.853647224325339127e-01
2.757234933861802961e-01
2.643413637630384616e-01
2.513263197736886334e-01
2.367991445716938481e-01
2.209043605267057564e-01
2.038089408885248865e-01
1.856859310649313366e-01
1.667254614082531450e-01
1.471212258551936602e-01
1.270676983464607834e-01
1.067599257380541927e-01
8.638741501141408707e-02
6.612552201736571211e-02
4.614502664748394017e-02
2.659214203448008115e-02
7.598342240102477947e-03
-1.072229339625381528e-02
-2.828993593683275243e-02
-4.503381223030247793e-02
-6.092195710066068692e-02
-7.594090872735874409e-02
-9.009947932146791794e-02
-1.034412688464369928e-01
-1.160185522597549090e-01
-1.279167339983469653e-01
-1.392337071380139735e-01
-1.500820741592658047e-01
-1.605927094323905402e-01
-1.708995501749654700e-01
-1.811451821689910036e-01
-1.914743860743278181e-01
-2.020265595354106269e-01
-2.129357777072944380e-01
-2.243292614714556821e-01
-2.363112888369102715e-01
-2.489793323348009346e-01
-2.624023965481935838e-01
-2.766270906138835195e-01
-2.916838182090121800e-01
-3.075612374520917958e-01
-3.242376468096268560e-01
-3.416530969777059612e-01
-3.597237202233826703e-01
-3.783479636274806324e-01
-3.973881145019746985e-01
-4.166987153492535123e-01
-4.361079151924473485e-01
-4.554308137604671791e-01
-4.744745676486882835e-01
-4.930334345158849940e-01
-5.109005201371578098e-01
-5.278692215470696114e-01
-5.437332798212498597e-01
-5.582955008127837848e-01
-5.713704791608145150e-01
-5.827791776784710942e-01
-5.923690076960431705e-01
-5.999962312229516481e-01
-6.055420446421030389e-01
-6.089134125952369025e-01
-6.100294868049941366e-01
-6.088494784822936490e-01
-6.053436553005341336e-01
-5.995143564519401780e-01
-5.913902875023896444e-01
-5.810138720736084395e-01
-5.684638919788826961e-01
-5.538276163911066696e-01
-5.372176099809337080e-01
-5.187629588442327355e-01
-4.986011115484902945e-01
-4.768871997363085535e-01
-4.537793589220219248e-01
-4.294414871811961243e-01
-4.040404008633638466e-01
-3.777395376215353928e-01
-3.506964841954920420e-01
-3.230655431321690640e-01
-2.949833186686541264e-01
-2.665789185401532535e-01
-2.379648029129293185e-01
-2.092308144590731001e-01
-1.804587223924983830e-01
-1.516980790561327230e-01
-1.229875666765417735e-01
-9.434358109515238178e-02
-6.575844331174501844e-02
-3.721623732349912256e-02
-8.674072196487744163e-03
1.991818330849013871e-02
4.862449434766052958e-02
7.752071210090194509e-02
1.066854062848696105e-01
1.362040339781009635e-01
1.661630450367550249e-01
1.966454714028171014e-01
2.277319912177138139e-01
2.594974626453996347e-01
2.920034879701577935e-01
3.253076521808893617e-01
3.594476453203866440e-01
3.944503020549483541e-01
4.303286019648331351e-01
4.670707645437511268e-01
5.046581859219140265e-01
5.430430632464967600e-01
5.821648997119367452e-01
6.219448570225256656e-01
6.622780626202161569e-01
7.030520925483766392e-01
7.441252844727028748e-01
7.853457994886975380e-01
8.265442762258478071e-01
8.675315678457973245e-01
9.081124673226736999e-01
9.480716053796172105e-01
9.871880555441659988e-01
1.025231820822398277e+00
1.061964757417555694e+00
1.097147899904163948e+00
1.130540630887787890e+00
1.161902638104760355e+00
1.191001963230485128e+00
1.217612633789551424e+00
1.241517539502505096e+00
1.262520604951758552e+00
1.280431845653378087e+00
1.295090381183400474e+00
1.306351914943880033e+00
1.314091608485845164e+00
1.318220973926126804e+00
1.318661111198123681e+00
1.315373598518109421e+00
1.308338347987364259e+00
1.297558249010160702e+00
1.283070274589764859e+00
1.264919999295190500e+00
1.243185259438573720e+00
1.217955459972440035e+00
1.189334841153226519e+00
1.157445150254161170e+00
1.122411868046719441e+00
1.084372038366051338e+00
1.043465833038134782e+00
9.998346751517231956e-01
9.536211621490915391e-01
9.049660827961697462e-01
8.540041731858749596e-01
8.008682851113454459e-01
7.456819729136109354e-01
6.885618425040289647e-01
6.296189711254225330e-01
5.689508796046780503e-01
5.066517620934126720e-01
4.428032361445319864e-01
3.774794507412203570e-01
3.107487012179045993e-01
2.426679051663735431e-01
1.732915380417548168e-01
1.026655587359609906e-01
3.083192937886419793e-02
-4.217014022889975511e-02
-1.163056934740808873e-01
-1.915401855738735337e-01
-2.678393256240353404e-01
-3.451688269360542738e-01
-4.234913573506392526e-01
-5.027658241668107042e-01
-5.829487078879649342e-01
-6.639866875121724910e-01
-7.458232304154621684e-01
-8.283912162833011461e-01
-9.116131318554439034e-01
-9.954055771509171535e-01
-1.079666439894545693e+00
-1.164288427537388149e+00
-1.249146426812591804e+00
-1.334101406268077383e+00
-1.419005007052186462e+00
-1.503685089668110209e+00
-1.587963615125855155e+00
-1.671640624606979708e+00
-1.754502544521410634e+00
-1.836324862500708921e+00
-1.916860824265209651e+00
-1.995858518484746158e+00
-2.073046545380273109e+00
-2.148143892047346792e+00
-2.220860349973730496e+00
-2.290890822792725157e+00
-2.357926851489527298e+00
-2.421647729565249207e+00
-2.481727976572012828e+00
-2.537837374697321735e+00
-2.589639600879050096e+00
-2.636797689659556188e+00
-2.678973556172662640e+00
-2.715829014541002451e+00
-2.747031366760714910e+00
-2.772253546214468845e+00
-2.791174146807028134e+00
-2.803491283876340834e+00
-2.808909125521054317e+00
-2.807158762310161926e+00
-2.797993269108645542e+00
-2.781184033244197273e+00
-2.756551712020328004e+00
-2.723930361534627753e+00
-2.683210948047035416e+00
-2.634321424950655910e+00
-2.577224420241885916e+00
-2.511956521980036161e+00
-2.438573022829153558e+00
-2.357206657386749615e+00
-2.268030169568383325e+00
-2.171258001801828375e+00
-2.067175224262530087e+00
-1.956083215742697501e+00
-1.838344330426289863e+00
-1.714345736207562476e+00
-1.584496043839975332e+00
-1.449232734696927150e+00
-1.308995047160257164e+00
-1.164220799297614795e+00
-1.015346267905876898e+00
-8.627788546734435071e-01
-7.068949872202356932e-01
-5.480488659730281542e-01
-3.865159946239465905e-01
-2.225485480880840528e-01
-5.631738099083624660e-02
1.120760437549172539e-01
2.825704706892100959e-01
4.552159286793357462e-01
6.300893301452079598e-01
8.073496533605786230e-01
9.872115094550516501e-01
1.169913040857050168e+00
1.355743596878864921e+00
1.544998143720784478e+00
1.737958199825703653e+00
1.934897555101084743e+00
2.136040287341574473e+00
2.341521753161090125e+00
2.551440420917078900e+00
2.765705380525772750e+00
2.984143377523571949e+00
3.206434409032197230e+00
3.432051571906519882e+00
3.660375696748767727e+00
3.890388233903720128e+00
4.120940943442517934e+00
4.350885517065572472e+00
4.579073646472802572e+00
