BVP Signal
3.154225432901251736e-02
4.658170224682617322e-02
5.924402503771880601e-02
7.024324807495548051e-02
8.049263894904465366e-02
8.909357993901131922e-02
9.494021704260766081e-02
9.713871647381736030e-02
9.600263820059659614e-02
9.198516884176941022e-02
8.484674071113348925e-02
7.433773953287681202e-02
6.053859249053206160e-02
4.393616180875992150e-02
2.514007614867327933e-02
4.604596752345202493e-03
-1.743236074297338511e-02
-4.015294239728350867e-02
-6.303639914669811883e-02
-8.529490410551149315e-02
-1.061978495521593291e-01
-1.254294866104478934e-01
-1.420254771541412664e-01
-1.557751770945381975e-01
-1.660384347020145701e-01
-1.724024935097330791e-01
-1.748082019013691979e-01
-1.727807567666892474e-01
-1.666566781932743990e-01
-1.561944667423324495e-01
-1.416988676459022822e-01
-1.234727577458272496e-01
-1.018192217099876951e-01
-7.736819762132188250e-02
-5.052772204826450064e-02
-2.203059452545521116e-02
7.566583130063989082e-03
3.743896028044273183e-02
6.705121903600749778e-02
9.555086598291162581e-02
1.223687218792951781e-01
1.468846870172114127e-01
1.683575789344338158e-01
1.866056417380499988e-01
2.008076840323869683e-01
2.110032149714283212e-01
2.167041951610781392e-01
2.177660208686562071e-01
2.143803772640354155e-01
2.062151898023518726e-01
1.939192900678203824e-01
1.773324337708740428e-01
1.569884055149196045e-01
1.333281014211095961e-01
1.066841780922238581e-01
7.790387214187982634e-02
4.730860735050927690e-02
1.572332978341728360e-02
-1.629774932949201727e-02
-4.797759334018748822e-02
-7.877823033679338949e-02
-1.079249013014024761e-01
-1.348842648979901582e-01
-1.591064928584282612e-01
-1.799116114648708076e-01
-1.972308845227181973e-01
-2.102716482964173683e-01
-2.191500717428082334e-01
-2.234682586837896667e-01
-2.231199008313964893e-01
-2.184357430266325173e-01
-2.090789569870509512e-01
-1.957640187112558716e-01
-1.784085497567031997e-01
-1.575545289574274421e-01
-1.337379536835950899e-01
-1.072601365277294216e-01
-7.899589036904740291e-02
-4.927339780514253947e-02
-1.889787440079409436e-02
1.159486326757938612e-02
4.147864266711548398e-02
7.026601833336561242e-02
9.725939255831131391e-02
1.219599918908515490e-01
1.439589515043167567e-01
1.625780466311722294e-01
1.779347500592029230e-01
1.892459203955885183e-01
1.966519949603897088e-01
1.999177796634822868e-01
1.988408850539653550e-01
1.939303104605150374e-01
1.847454010008144076e-01
1.719631640385373417e-01
1.555668944738342885e-01
1.359271717925559508e-01
1.136560559097429535e-01
8.887897854229705186e-02
6.241476155332443404e-02
3.454133717327182579e-02
5.940781951008819450e-03
-2.287353358752877708e-02
-5.129563851787455331e-02
-7.883105808072496390e-02
-1.048855170475557763e-01
-1.289254508271965860e-01
-1.506218613779459758e-01
-1.692385697395064614e-01
-1.849008801650592337e-01
-1.968306773456297010e-01
-2.050207662693021016e-01
-2.093501087692381246e-01
-2.093959267533128943e-01
-2.057794907529594541e-01
-1.979219635950770773e-01
-1.863666471192972907e-01
-1.712141414230202163e-01
-1.525938416358238459e-01
-1.312519189910583417e-01
-1.071517499124361589e-01
-8.105358462534231756e-02
-5.328763123640264943e-02
-2.438221402371276714e-02
5.066599291927792459e-03
3.457737093734181144e-02
6.361730018487438132e-02
9.163648746221575436e-02
1.181029562505019337e-01
1.426805336184100992e-01
1.646567233981980627e-01
1.840216607272647242e-01
2.000812181674004320e-01
2.126726024312076413e-01
2.216844411414069238e-01
2.265704278623314194e-01
2.278346300346054121e-01
2.248571574717553034e-01
2.179826954768561698e-01
2.072864030392823353e-01
1.927231923234463129e-01
1.749933039451446737e-01
1.539408356261019462e-01
1.302406263003700881e-01
1.042026796459193383e-01
7.632355313086325310e-02
4.722314586253584245e-02
1.738512127431834919e-02
-1.253575253782868160e-02
-4.196011159962448334e-02
-7.020051201643134897e-02
-9.680174093429577686e-02
-1.209796253901737617e-01
-1.424519925339305382e-01
-1.605464097232053855e-01
-1.749297120516116189e-01
-1.854029347082439549e-01
-1.914833161462923261e-01
-1.934560990742778541e-01
-1.909179375463246897e-01
-1.842309632030166844e-01
-1.735203273137046476e-01
-1.590072077108978799e-01
-1.413920121985919875e-01
-1.208043901969976797e-01
-9.812722042113097842e-02
-7.375247688407382540e-02
-4.847512606628645582e-02
-2.297761505153961270e-02
2.141408289191792935e-03
2.605650952226062911e-02
4.829999002039642164e-02
6.810302229917536421e-02
8.512615697455300223e-02
9.878019253935016453e-02
1.088203162650491773e-01
1.149543153757336955e-01
1.170482269662777852e-01
1.151808061665799410e-01
1.092951456973858398e-01
9.983348691943429165e-02
8.686490252100298459e-02
7.103239524556267948e-02
5.270350362009224021e-02
3.247536721913335533e-02
1.111677343362943438e-02
-1.095351643501124572e-02
-3.275399157593145150e-02
-5.388065119570223382e-02
-7.347630735447674422e-02
-9.100353443370406969e-02
-1.059534105364936529e-01
-1.176958635800131048e-01
-1.260393597937953802e-01
-1.305014830839180129e-01
-1.310991377380171796e-01
-1.276307494755447303e-01
-1.202177819851885654e-01
-1.090077660457672848e-01
-9.428685991811151801e-02
-7.648146344810213826e-02
-5.598503526809595066e-02
-3.348020128745956420e-02
-9.410578661485910490e-03
1.536355247440682192e-02
4.033673032129597713e-02
6.470000750629473218e-02
8.777071062119021216e-02
1.090052721531823976e-01
1.275982723515249884e-01
1.432601833311663020e-01
1.553006653183715002e-01
1.635299192367579701e-01
1.675950892353590960e-01
1.673287089619654999e-01
1.627810721441444453e-01
1.539017235918254678e-01
1.410640601826433360e-01
1.243858123370500113e-01
1.044409488949707976e-01
8.158384289356278296e-02
5.653335887788515229e-02
2.986332815065799451e-02
2.265634357717493524e-03
-2.539510011254513325e-02
-5.260568746133425372e-02
-7.830935292535452785e-02
-1.021491377757588193e-01
-1.231805921577587698e-01
-1.408944989813611937e-01
-1.548477360796146896e-01
-1.643733428645780814e-01
-1.695173477370532367e-01
-1.697080318507300789e-01
-1.651489797431453521e-01
-1.557244348623350316e-01
-1.416322471133149574e-01
-1.232736339582941321e-01
-1.008945449181115617e-01
-7.523681067360629693e-02
-4.668356268190612668e-02
-1.615399192145183793e-02
1.579972126144957301e-02
4.819267369844899840e-02
8.032334171438981762e-02
1.113592751120156960e-01
1.403319502015352993e-01
1.667798543978823989e-01
1.895631428737615254e-01
2.085785650278757508e-01
2.228684329012949605e-01
2.321244008525121250e-01
2.361698871553271628e-01
2.344688800856941369e-01
2.275082665418154959e-01
2.148511806719968775e-01
1.970341224886372200e-01
1.742842398445925700e-01
1.470003978080430262e-01
1.159931805916043779e-01
8.166083601038737205e-02
4.499962732061225934e-02
6.641468161911610185e-03
-3.241123171087920141e-02
-7.139473683927177738e-02
-1.093097016951832118e-01
-1.454092222212541863e-01
-1.788286435997510637e-01
-2.087267964220095584e-01
-2.346767249362541052e-01
-2.557136726185765818e-01
-2.718790289631137225e-01
-2.823903723231792617e-01
-2.872031602738668310e-01
-2.863295421916253747e-01
-2.794427639384954309e-01
-2.673689694025743746e-01
-2.497563459165376143e-01
-2.274079095005879791e-01
-2.007138036181349838e-01
-1.701924193125482487e-01
-1.368337559556417893e-01
-1.010292381407248419e-01
-6.383426364675265363e-02
-2.587437260580931209e-02
1.190648751573644692e-02
4.882542814050187807e-02
8.399895394155225403e-02
1.168163671711326956e-01
1.465708471884099862e-01
1.725777951601451254e-01
1.946277350498389902e-01
2.118841888285561137e-01
2.245432547505827880e-01
2.319923033664084699e-01
2.342831789695171141e-01
2.315852588726587113e-01
2.236088714955826173e-01
2.111976769788498354e-01
1.940699661963964651e-01
1.729956668538739362e-01
1.483591214188215435e-01
1.206017225188718844e-01
9.068062622880819490e-02
5.887207368100251526e-02
2.618150633764783006e-02
-6.897899125829880240e-03
-3.944370975778667410e-02
-7.092748952081934233e-02
-1.005157894732748580e-01
-1.276030126605719461e-01
-1.516718706112916426e-01
-1.719290430047973328e-01
-1.883792032135466754e-01
-2.001428491234037987e-01
-2.073644896569434848e-01
-2.096555340118294586e-01
-2.068823707898169717e-01
-1.994572615246050784e-01
-1.870146241892358119e-01
-1.703508149938571803e-01
-1.494056436451110526e-01
-1.247844164038654502e-01
-9.708596968113625270e-02
-6.668274640710686318e-02
-3.452668250286120011e-02
-1.018666430294440373e-03
3.292469516608965974e-02
6.672249941810978746e-02
9.950391872017352868e-02
1.307505204129604526e-01
1.596482815912235731e-01
1.856070970726319824e-01
2.081958827394649048e-01
2.266122470531522493e-01
2.409923699861034052e-01
2.504844186823666496e-01
2.552110801691437336e-01
2.549746944462459308e-01
2.495658665037952528e-01
2.395583890342783961e-01
2.245881491774265881e-01
2.053911311811479901e-01
1.820894059529356013e-01
1.551742352945416625e-01
1.253626352686629253e-01
9.299860866459008779e-02
5.897921494822075394e-02
2.381139746856297812e-02
-1.167425005626720330e-02
-4.684361384615098878e-02
-8.085727953477039875e-02
-1.131963036089480151e-01
-1.430404417583604759e-01
-1.698185466212420724e-01
-1.931088641016289464e-01
-2.121081379178971216e-01
-2.269921872667807761e-01
-2.369112172363095348e-01
-2.419983613743290629e-01
-2.421211058165964602e-01
-2.370666282061306696e-01
-2.275252089143330325e-01
-2.131196339570091691e-01
-1.946380512023817011e-01
-1.722776872517443048e-01
-1.465735593243238100e-01
-1.183074533717500265e-01
-8.783839767815795896e-02
-5.611189687429943285e-02
-2.361869191280310809e-02
8.749451396327920238e-03
4.044041852410273918e-02
7.061808493616332505e-02
9.877098237615486442e-02
1.242402620302221761e-01
1.464021894741192042e-01
1.650721860096335536e-01
1.794548914656816929e-01
1.897880173070797816e-01
1.954444187673558542e-01
1.964924731640776412e-01
1.930705950565442808e-01
1.848794983012764792e-01
1.727621127348272223e-01
1.563729592517347777e-01
1.364317797095466744e-01
1.132879102343463673e-01
8.729321734765188578e-02
5.936153130059049210e-02
2.968648611078217314e-02
-8.357917092964850525e-04
-3.173178598003896511e-02
-6.226589957909234307e-02
-9.187058861658646547e-02
-1.198824748849565830e-01
-1.457702871894270280e-01
-1.690116868292260155e-01
-1.890075513020741393e-01
-2.056319936060594933e-01
-2.181825203865903617e-01
-2.267889791307541592e-01
-2.310225330561963275e-01
-2.308378055539702101e-01
-2.264928458881174111e-01
-2.176789446966278518e-01
-2.051206191181685901e-01
-1.886639152475070857e-01
-1.688498385657549450e-01
-1.461830469195622151e-01
-1.208846491231858056e-01
-9.388108739877532027e-02
-6.538448217450983091e-02
-3.614320408614779545e-02
-6.740641525631372102e-03
2.231290403348461238e-02
5.037389463714653931e-02
7.694698731445592799e-02
1.015990162001421809e-01
1.238219433416626047e-01
1.432716781627926261e-01
1.597750144889848178e-01
1.728781892891055882e-01
1.827323448432238151e-01
1.890108244640311685e-01
1.918490290957309830e-01
1.914320017182058464e-01
1.876474727983582780e-01
1.811033128057361608e-01
1.717063391258386584e-01
1.600199105012754808e-01
1.463713831987099590e-01
1.310325465152996360e-01
1.146796748766941154e-01
9.745529734472349603e-02
7.999786115526900943e-02
6.260031818101183254e-02
4.570855044276961321e-02
2.967736147337263208e-02
1.482586506736721654e-02
1.468810161513178780e-03
-1.020515559341916845e-02
-1.988270898511107498e-02
-2.766259495026240911e-02
-3.318729827643734920e-02
-3.663381138427607153e-02
-3.790196771375786700e-02
-3.704012201654582892e-02
-3.436218007465635660e-02
-2.972453525628865334e-02
-2.362108808093188461e-02
-1.601713275697072558e-02
-7.309792857213281980e-03
2.253942013336993067e-03
1.249194163176264166e-02
2.294511284514143615e-02
3.356397093386098013e-02
4.382128511733945908e-02
5.370091511038564691e-02
6.274288230694091695e-02
7.083093758875796953e-02
7.776724302283871681e-02
8.315218806145341368e-02
8.716165844705198174e-02
8.921306504274051363e-02
8.960096204481615700e-02
8.795528804597030348e-02
8.415132359259658301e-02
7.841298615815212036e-02
7.027274405029493298e-02
6.024050731542895942e-02
4.796291958864046245e-02
3.358448731182628322e-02
1.732841344584498677e-02
-8.866638324957210049e-04
-2.066277554411820316e-02
-4.191676233449813382e-02
-6.438156687327323269e-02
-8.771578772567524551e-02
-1.115423453018724032e-01
-1.356242117561685112e-01
-1.592996503136622222e-01
-1.823437398822435884e-01
-2.041671370290732423e-01
-2.241381107595764866e-01
-2.421397694710772930e-01
-2.571711774658738126e-01
-2.692502663301469257e-01
-2.776586251608272327e-01
-2.819431220549560302e-01
-2.821593394275204170e-01
-2.775373281075391718e-01
-2.684908211269591005e-01
-2.545946871884670060e-01
-2.359535782235656631e-01
-2.129495646654747387e-01
-1.855634532590015040e-01
-1.545275072260599014e-01
-1.201437829273846181e-01
-8.303597527272414680e-02
-4.396809032346653962e-02
-3.677050076617591895e-03
3.713877971886163365e-02
7.744176585008508140e-02
1.166089723342239315e-01
1.536883609757397351e-01
1.878068535953341667e-01
2.185900785659586343e-01
2.448851038177762007e-01
2.666329875520033199e-01
2.830362529561006868e-01
2.938020715265489136e-01
2.990251026027638259e-01
2.981082100112296129e-01
2.917375249271086379e-01
2.795708155573642384e-01
2.621684846654516177e-01
2.400129947495830973e-01
2.133643982720364041e-01
1.833031766875582447e-01
1.500889721322948289e-01
1.147827328623653026e-01
7.804487878056097505e-02
4.076316159216916007e-02
3.767532204672949248e-03
-3.215408130088263233e-02
-6.617134817999112406e-02
-9.766456706329999793e-02
-1.257547244356757576e-01
-1.502665549484883678e-01
-1.702876086036432257e-01
-1.857836905134380157e-01
-1.963369476731468000e-01
-2.016992719623727226e-01
-2.022706567865384109e-01
-1.975596923827726559e-01
-1.883424487330867536e-01
-1.744981967637825315e-01
-1.565673056589455825e-01
-1.352087908979137387e-01
-1.105903603436240584e-01
-8.380656354181265089e-02
-5.506102889099141057e-02
-2.529412875179498296e-02
4.908856992535956705e-03
3.490114340667907489e-02
6.393127631358389018e-02
9.151335213627839749e-02
1.169366413645349795e-01
1.398570922790030036e-01
1.595755097326186367e-01
1.760821558851682067e-01
1.887325184081303231e-01
1.974804339033074396e-01
2.022186523202442188e-01
2.026353339822393462e-01
1.992770987272033667e-01
1.916945117950756006e-01
1.804603740375676502e-01
1.656600531081344752e-01
1.475327752645362311e-01
1.267729215075814875e-01
1.034071434710609194e-01
7.823072550206307263e-02
5.152994679695262203e-02
2.389578398559777384e-02
-4.108089399582626200e-03
-3.199906976256501612e-02
-5.922086146700493436e-02
-8.526793409981904548e-02
-1.096076060437059518e-01
-1.319038928023697488e-01
-1.515099930452499244e-01
-1.684051289439808530e-01
-1.819581725755455848e-01
-1.920690961777495320e-01
-1.986296358388885963e-01
-2.012260612976953522e-01
-2.003744815044558591e-01
-1.955607898611344264e-01
-1.872226973033399022e-01
-1.754665226960245294e-01
-1.603909859915877423e-01
-1.426870581466407051e-01
-1.223114110263889276e-01
-9.996849031219337545e-02
-7.596838652561692384e-02
-5.083631597053850371e-02
-2.512242358900444728e-02
7.120916143463218440e-04
2.611787878390509771e-02
5.062190657552188833e-02
7.365654539408825197e-02
9.494574341750501578e-02
1.138264296490805044e-01
1.302213331060475821e-01
1.435989179565846929e-01
1.537502147090489546e-01
1.606635292426158435e-01
1.638739028871263326e-01
1.638165927809712985e-01
1.600821647880228404e-01
1.529828063021437812e-01
1.427010536865716550e-01
1.292441409230244975e-01
1.133172185289064854e-01
9.484719951518330583e-02
7.449695945332393543e-02
5.258548537451385868e-02
2.959059577253636553e-02
6.083786031287560098e-03
-1.754094997129942296e-02
-4.068580916248121238e-02
-6.295336830552313023e-02
-8.373034910673061992e-02
-1.027815230903662003e-01
-1.194776386691388109e-01
-1.336450540526988306e-01
-1.449057314918622275e-01
-1.529409150059766187e-01
-1.578509654166723730e-01
-1.591790664801172039e-01
-1.572746328532507176e-01
-1.519198169668075638e-01
-1.433116336939578572e-01
-1.317733969511377667e-01
-1.173022716146501360e-01
-1.005495084052494964e-01
-8.158409324438063714e-02
-6.097679754078743491e-02
-3.912187620804497001e-02
-1.645734050056837580e-02
6.475278925364771898e-03
2.927513166828733804e-02
5.139636028766360332e-02
7.248277170524680679e-02
9.193628884520912981e-02
1.096232901817365685e-01
1.249256656271671151e-01
1.376858146066687605e-01
1.476350067913812791e-01
1.544059604705819710e-01
1.582148172699924527e-01
1.585759523918626179e-01
1.557969744943106805e-01
1.497531123316876989e-01
1.405397752776061104e-01
1.285418095062789978e-01
1.137015270757652519e-01
9.659819482311268746e-02
7.735203289816106054e-02
5.645987722213689775e-02
3.432570531452480700e-02
1.138209068319552542e-02
-1.185966635375482192e-02
-3.496202693951250273e-02
-5.734958767212609831e-02
-7.868121868741939640e-02
-9.827078359455551637e-02
-1.159868458735490993e-01
-1.311668212692920499e-01
-1.435604844520835810e-01
-1.529599229394717208e-01
-1.588598491162198922e-01
-1.615826000477655067e-01
-1.605700520786854935e-01
-1.560989729654801705e-01
-1.481707672013213573e-01
-1.368089498577817753e-01
-1.225575946581642373e-01
-1.053521426740867406e-01
-8.582290642040421580e-02
-6.421919264940771643e-02
-4.105102163077986588e-02
-1.684193809299196209e-02
7.954037090634776333e-03
3.275556143742171245e-02
5.710056811059747300e-02
8.036938391476271260e-02
1.022433595411357532e-01
1.220290799808333437e-01
1.395789776439579910e-01
1.543272416546289938e-01
1.659797549390527316e-01
1.744729517688437537e-01
1.792663674532724849e-01
1.807578423419591018e-01
1.784575427572479556e-01
1.726002315135007070e-01
1.633351117945006925e-01
1.505733308115971003e-01
1.350121290108491634e-01
1.165004357650137462e-01
9.564711486156937670e-02
7.277046341466616997e-02
4.827153221125614346e-02
2.274505017760615477e-02
-3.437904483326230474e-03
-2.969744564657499780e-02
-5.557301395167025398e-02
-8.047054024740471490e-02
-1.040707563821860748e-01
-1.256823098278089523e-01
-1.451128013790502491e-01
-1.618255123822401609e-01
-1.754463721025587564e-01
-1.859615262652455636e-01
-1.927435312538343937e-01
-1.961383454020329820e-01
-1.956894193557960904e-01
-1.915139353622776486e-01
-1.838472719968683444e-01
-1.724692668771874160e-01
-1.581076008430739588e-01
-1.405894643468985628e-01
-1.204601989462910638e-01
-9.810823218145302282e-02
-7.381472409600170481e-02
-4.827915087227374613e-02
-2.177003516507394418e-02
5.109737098691377599e-03
3.190441642076405349e-02
5.804249958355274519e-02
8.319417308984364268e-02
1.066976686636540161e-01
1.282956853409590592e-01
1.475177689900548650e-01
1.638934641256177271e-01
1.774718893677476872e-01
1.875411970703380615e-01
1.943537772413162501e-01
1.974995026897870543e-01
1.969120609999674421e-01
1.928890867460978931e-01
1.850306780256946171e-01
1.739813672421235968e-01
1.595391765483889779e-01
1.420870602457057208e-01
1.220357524130058907e-01
9.950056160474590738e-02
7.519136948495416806e-02
4.929562123772694704e-02
2.240917965886352059e-02
-5.011905867566127104e-03
-3.240618308372786305e-02
-5.936768123569582944e-02
-8.524817611817755991e-02
-1.096343417870953019e-01
-1.320693204236864371e-01
-1.519121851492923336e-01
-1.691801586781106481e-01
-1.830528251862970079e-01
-1.935895808951236807e-01
-2.004249207580778847e-01
-2.032683207783706480e-01
-2.024732505667934390e-01
-1.975017423446595588e-01
-1.889066429596875096e-01
-1.765558537966100128e-01
-1.607012570257265183e-01
-1.418748101259515448e-01
-1.200991489761008002e-01
-9.614366162433604646e-02
-7.022319574988783453e-02
-4.294584072351544102e-02
-1.484631838169759438e-02
1.355192311897153445e-02
4.170753832727626398e-02
6.905107574241976798e-02
9.505878003766779494e-02
1.193174542669790950e-01
1.411307791480694018e-01
1.605207113116621231e-01
1.766842662451452162e-01
1.895707185904242920e-01
1.989320473640489584e-01
2.043355901870975710e-01
2.062372262662852118e-01
2.040037518770865255e-01
1.980981069923490323e-01
1.884607833054408876e-01
1.751639036656860160e-01
1.588210367186585759e-01
1.392886963260516753e-01
1.172868161632522194e-01
9.300312733581785063e-02
6.693361627904359512e-02
3.962891719449483652e-02
1.149745718779548315e-02
-1.687859468360510679e-02
-4.500342874641896640e-02
-7.229678160987806912e-02
-9.836599420189753862e-02
-1.224770063488719030e-01
-1.445137423627244067e-01
-1.637266315297770947e-01
-1.798568905257386108e-01
-1.926933172513409787e-01
-2.015920514449786038e-01
-2.070041058741824702e-01
-2.081752109972718756e-01
-2.053976050798418940e-01
-1.986691925608198572e-01
-1.878512449632272485e-01
-1.736463661991544116e-01
-1.557777786355361571e-01
-1.349282797225333230e-01
-1.113425473136399890e-01
-8.544960098837688089e-02
-5.789595873472528492e-02
-2.904726883109752522e-02
4.230456654162745300e-04
3.001927932794908049e-02
5.906593330644785422e-02
8.715779238682663799e-02
1.135099439121826370e-01
1.378686647026911016e-01
1.595592169514590819e-01
1.781313315801765218e-01
1.934589513495522661e-01
2.047769157878163715e-01
2.124214189375984718e-01
2.157255150656901543e-01
2.147820471129104070e-01
2.096961026905397041e-01
2.001494648643600549e-01
1.869045850719692758e-01
1.696108126497817836e-01
1.488813594623623060e-01
1.250279605266663430e-01
9.838880884933329241e-02
6.970649451595688217e-02
3.929098812974879396e-02
7.894195727357652959e-03
-2.396453154056704671e-02
-5.552498446904088891e-02
-8.631665453651068964e-02
-1.154975945169514906e-01
-1.426307773387981981e-01
-1.670621291355597338e-01
-1.881404023730735564e-01
-2.057409965294723087e-01
-2.189987965793805391e-01
-2.280862579931833278e-01
-2.324370498559487630e-01
-2.319884411410847169e-01
-2.269539204163621149e-01
-2.169870926936065536e-01
-2.028266457754065166e-01
-1.842891449210635468e-01
-1.619830351386717937e-01
-1.363811641881483017e-01
-1.078619289545653670e-01
-7.731859874730720450e-02
-4.512354579813059041e-02
-1.214671670857848940e-02
2.102226047087565886e-02
5.355540013846754599e-02
8.492437769185065544e-02
1.143019411211463887e-01
1.411702610119552614e-01
1.649821216151247383e-01
1.850582389513964754e-01
2.013925873137829281e-01
2.131889059875201886e-01
2.206237700605740426e-01
2.233386472837946835e-01
2.212719041525280372e-01
2.148158433046220839e-01
2.036693683584045178e-01
1.885930370797615219e-01
1.695469636231544674e-01
1.471206820985267172e-01
1.218701164724317609e-01
9.414914853075591339e-02
6.483550341221550051e-02
3.429675924942152121e-02
3.371863997377586020e-03
-2.741452110044625967e-02
-5.727890149248882068e-02
-8.576001523612736266e-02
-1.121268718553144750e-01
-1.358669250434564602e-01
-1.565993679540471639e-01
-1.736115494666374826e-01
-1.870739935574530777e-01
-1.961976487956960669e-01
-2.011408537582486944e-01
-2.017226113556637723e-01
-1.977718553400316381e-01
-1.898399053641600664e-01
-1.775660201231083479e-01
-1.616517763788483109e-01
-1.421677964430492214e-01
-1.195744895284575754e-01
-9.449042162952533963e-02
-6.719628100319401109e-02
-3.849996097538108120e-02
-8.783263294666165955e-03
2.117857926174521177e-02
5.090954998897964656e-02
7.964201987971378238e-02
1.069416990378802002e-01
1.321321758504022115e-01
1.546366718686995045e-01
1.741835313676485253e-01
1.899617865811246142e-01
2.021530294372340664e-01
2.099887562326241408e-01
2.134789219523812731e-01
2.125637575842194704e-01
2.069028342297591361e-01
1.971286612595687937e-01
1.828314568971624310e-01
1.646167945957434098e-01
1.426888557590440254e-01
1.174332291622347396e-01
8.955424583774347636e-02
5.938086433494352279e-02
2.774003261880039067e-02
-4.853859570288589220e-03
-3.755092549080714381e-02
-6.979594317926418601e-02
-1.007044022231920744e-01
-1.297273191905308209e-01
-1.561401288897563411e-01
-1.792315224216847469e-01
-1.987373006472638037e-01
-2.137916170038349217e-01
-2.244902431114076946e-01
-2.301988207261317920e-01
-2.308840426094334042e-01
-2.266422124536837113e-01
-2.172157708077808169e-01
-2.033248589783639149e-01
-1.847860394351804603e-01
-1.623106933969189758e-01
-1.363183386691221577e-01
-1.073439046405683245e-01
-7.626835067067005980e-02
-4.355300416809526620e-02
-1.015613882565485557e-02
2.332804565882046210e-02
5.596038870697619960e-02
8.719671641863471767e-02
1.161565406154558555e-01
1.422987134129360121e-01
1.650480414007338137e-01
1.837445793508797331e-01
1.983312426054617550e-01
2.080821386766940062e-01
2.132065317150325101e-01
2.133399069073376175e-01
2.085620653258734025e-01
1.991976513877261601e-01
1.851361149829492125e-01
1.671694336748282272e-01
1.453152288411768689e-01
1.203359655323063271e-01
9.273503270935663789e-02
6.309716581382338041e-02
3.227877225518077653e-02
7.694600342323734687e-04
-3.049671922371735566e-02
-6.100121822684294315e-02
-8.981989584098493129e-02
-1.165472280582003639e-01
-1.403563651522371503e-01
-1.607696126369704825e-01
-1.773877746893188223e-01
-1.895865481476727288e-01
-1.975087327787882208e-01
-2.005165668974068782e-01
-1.988833430751525411e-01
-1.924745572745465427e-01
-1.814147240118452187e-01
-1.662204505170176705e-01
-1.468960435088621508e-01
-1.242688158783429864e-01
-9.857429286189822726e-02
-7.060222717061451214e-02
-4.096650658750085328e-02
-1.032948809668259027e-02
2.047907737828196309e-02
5.088135293330028203e-02
7.998146241149069191e-02
1.073108032891092189e-01
1.319825829221027147e-01
1.537017803986650000e-01
1.717556296921301517e-01
1.857726334021258530e-01
1.955606448437417488e-01
2.005926755229294201e-01
2.012688738785279874e-01
1.970805514791401092e-01
1.884328272112393288e-01
1.754376722734348193e-01
1.583073402849836109e-01
1.377449536247982165e-01
1.138657394577525239e-01
8.753302608585314393e-02
5.913523329732400802e-02
2.946133185922156228e-02
-8.415479193268626812e-04
-3.109554498724974303e-02
-6.054353943135554889e-02
-8.861192770220338577e-02
-1.144937264764017276e-01
-1.378296501305947552e-01
-1.578165295135904866e-01
-1.742789222612397548e-01
-1.866515937535270231e-01
-1.946796148178098207e-01
-1.983592612967463586e-01
-1.972953757898081584e-01
-1.919905267521835879e-01
-1.821563624086602884e-01
-1.682792851641676801e-01
-1.506603851064083621e-01
-1.295831954797389551e-01
-1.058917201376400052e-01
-7.977713193864874319e-02
-5.213052043499181998e-02
-2.342822947075132167e-02
5.558409405014813620e-03
3.420203644908349078e-02
6.185151803145880894e-02
8.784344952886317948e-02
1.116878761776282508e-01
1.326920460458212714e-01
1.506743838521280576e-01
1.649548446502493437e-01
1.755063743265748710e-01
1.819717286056254102e-01
1.842173549663567167e-01
1.824583492388209827e-01
1.764206942557804692e-01
1.666866236340145968e-01
1.531632007722042166e-01
1.363552193200432139e-01
1.166837763327392696e-01
9.445280920375329070e-02
7.045053522913226340e-02
4.494122414874033439e-02
1.871504350216685736e-02
-7.780153418888838268e-03
-3.385029664118018033e-02
-5.900018260890818600e-02
-8.263285245841424376e-02
-1.042075324940558712e-01
-1.233589179748892650e-01
-1.394580514727379039e-01
-1.525107103096855765e-01
-1.618816635591653341e-01
-1.676208999032417490e-01
-1.695284976266262789e-01
-1.674740240319815554e-01
-1.618321442026915691e-01
-1.523508040029635802e-01
-1.396122737479209008e-01
-1.236647111079741956e-01
-1.049608372171218357e-01
-8.400611458050662173e-02
-6.110101475526284742e-02
-3.697269728728977412e-02
-1.195754780105620640e-02
1.322760099139395906e-02
3.815439181697988236e-02
6.215314724874018704e-02
8.481436294416050403e-02
1.055722934491843679e-01
1.239384885991044738e-01
1.396660779494392213e-01
1.521271176682430226e-01
1.614767493282054101e-01
1.671164986770085348e-01
1.691203414392950521e-01
1.674497969337664094e-01
1.619307701765174135e-01
1.530907072444471495e-01
1.406765523523636763e-01
1.252528470759315116e-01
1.069962633156412296e-01
8.629353376613552173e-02
6.372198260380809720e-02
3.957339406144728955e-02
1.453220581051683363e-02
-1.100879371344522240e-02
-3.637486183120244854e-02
-6.115149869300717800e-02
-8.466579256747377991e-02
-1.065383597851133624e-01
-1.262270481134236955e-01
-1.432352789324490006e-01
-1.574033667426957550e-01
-1.680853258504973746e-01
-1.754508097891920027e-01
-1.789929850505019571e-01
-1.787454350190304797e-01
-1.748044613106044531e-01
-1.669489755751036308e-01
-1.558087619066063079e-01
-1.411654186715201043e-01
-1.235756535269710576e-01
-1.033445938844948786e-01
-8.082220185415155134e-02
-5.668317625343559374e-02
-3.122133483703497248e-02
-5.127115205996256309e-03
2.116030022828915835e-02
4.697715061260362979e-02
7.192725838158101070e-02
9.533895753500101766e-02
1.168488925698784320e-01
1.359790892019920594e-01
1.522180978419840069e-01
1.655295840457386425e-01
1.752547378183542115e-01
1.815849286844613275e-01
1.841230257371301582e-01
1.828479283864007654e-01
1.779926070864533971e-01
1.692824188339278890e-01
1.573442327563701615e-01
1.420284205879954742e-01
1.238139730614667700e-01
1.030749360167445144e-01
8.007909682120371853e-02
5.551787827457350943e-02
2.965456474246556257e-02
3.153244744450944825e-03
-2.355131955657160936e-02
-4.980462635189325526e-02
-7.523263189476422919e-02
-9.915331605399202441e-02
-1.211585836904825741e-01
-1.408114348521700421e-01
-1.575042329483851977e-01
-1.712555136548850054e-01
-1.813327497510871522e-01
-1.878461055720912487e-01
-1.904696005671197012e-01
-1.890584564744009766e-01
-1.839335262171479246e-01
-1.747601648951445097e-01
-1.621268946166609382e-01
-1.459858978728498236e-01
-1.267638230902747021e-01
-1.049401620272675806e-01
-8.078402422899104429e-02
-5.502811534099076585e-02
-2.801455029958239279e-02
-4.500077192466974546e-04
2.717454973656432266e-02
5.416408644234411290e-02
8.008384968341747401e-02
1.042579814651408837e-01
1.262018501491670164e-01
1.455361504937176531e-01
1.616009495420854258e-01
1.744926720177311097e-01
1.834965062794283175e-01
1.887030275865683449e-01
1.899356696380047338e-01
1.870259048210458630e-01
1.804349145961601231e-01
1.698576407489540974e-01
1.558992969697245434e-01
1.386461671108585592e-01
1.185161593505363598e-01
9.608496087857379409e-02
7.162226424038492523e-02
4.587933627211414345e-02
1.922706919922891056e-02
-7.630125198120882302e-03
-3.421136577507760679e-02
-5.985391821018950370e-02
-8.411282217122491300e-02
-1.064027222416785295e-01
-1.262258801339266046e-01
-1.433106028460883474e-01
-1.570223483638874540e-01
-1.674942923617051549e-01
-1.741295012342070903e-01
-1.769994711819554145e-01
-1.760794248459897626e-01
-1.711719832033636590e-01
-1.628837836714197573e-01
-1.509153415989282210e-01
-1.358785601253100772e-01
-1.179819014805029709e-01
-9.759528750127077767e-02
-7.538675850706264003e-02
-5.158879893100834502e-02
-2.693901478948600506e-02
-1.819341749536795838e-03
2.312543985807381797e-02
4.745184205142702338e-02
7.057284556751286519e-02
9.209176014345542283e-02
1.115447876846963338e-01
1.284714558629593828e-01
1.427591674015835366e-01
1.538233034344282379e-01
1.618432266510223816e-01
1.663825953509295852e-01
1.674669251066477349e-01
1.652411485512930156e-01
1.594411853815558000e-01
1.506933472998674972e-01
1.387380520405912532e-01
1.240560747391576124e-01
1.069258519427921383e-01
8.753536142438519962e-02
6.656250451631241793e-02
4.411207279550875132e-02
2.079831096534973112e-02
-3.029191465841789277e-03
-2.685125415957562850e-02
-5.028994290454914806e-02
-7.281467108825942502e-02
-9.406175556318296938e-02
-1.136180881811565679e-01
-1.309705370678845016e-01
-1.460679551873632076e-01
-1.582348459123291695e-01
-1.675591182010973679e-01
-1.736291900541325761e-01
-1.762723497116289728e-01
-1.756830001370933703e-01
-1.714278400856536488e-01
-1.640170761157136448e-01
-1.532184045965928609e-01
-1.393286605962726910e-01
-1.226973188763290645e-01
-1.033935054374295892e-01
-8.208379844189389596e-02
-5.890969910463203507e-02
-3.445003305817614936e-02
-9.131162444821455670e-03
1.651692486421343919e-02
4.205294372953430337e-02
6.689682166367330596e-02
9.058946297621563171e-02
1.127003479947897985e-01
1.325913938720299501e-01
1.502193333923673990e-01
1.648216777369958252e-01
1.763760278399170989e-01
1.845325333394756684e-01
1.889689228532880072e-01
1.899626754221908354e-01
1.869945820216147581e-01
1.805144450910786402e-01
1.703723844368280893e-01
1.567691931935341620e-01
1.401449307507489361e-01
1.205189295518889758e-01
9.856838418436578153e-02
7.448136689689788259e-02
4.884783784857332778e-02
2.213562538798691248e-02
-5.101358937581568220e-03
-3.234991641470510298e-02
-5.902930772800207837e-02
-8.456328955224377830e-02
-1.085424151715670138e-01
-1.302015341795773051e-01
-1.495061128492439773e-01
-1.656280106718790446e-01
-1.784232721522024945e-01
-1.876126134641342980e-01
-1.927316088120235027e-01
-1.941333391750570958e-01
-1.912368720030265257e-01
-1.844378612847197285e-01
-1.736852492008032489e-01
-1.591316772568546756e-01
-1.413085904162321715e-01
-1.202540447859120620e-01
-9.667986266280953478e-02
-7.086152125491088083e-02
-4.347013944045561434e-02
-1.501638180640209319e-02
1.384615413185719124e-02
4.252017622141737729e-02
7.039891369734649351e-02
9.674832729038382317e-02
1.212027917913500175e-01
1.428818066841241741e-01
1.616706067197815344e-01
1.768110692482131041e-01
1.880183276139582305e-01
1.951366499472945160e-01
1.976184046349774293e-01
1.959093261868349312e-01
1.894747429659185411e-01
1.787091413339435830e-01
1.637289719722307413e-01
1.447347967458807450e-01
1.223953495795806062e-01
9.687002773571828929e-02
6.897675309742948291e-02
3.914124767288218454e-02
8.197436994544138669e-03
-2.325943948681218759e-02
-5.441629036290294985e-02
-8.455085729118375082e-02
-1.130118935882027248e-01
-1.389080307530697334e-01
-1.619233952280696442e-01
-1.811073667663518905e-01
-1.963183478055859355e-01
-2.069412502051217462e-01
-2.126721271666631718e-01
-2.135783718417085253e-01
-2.092113148924105992e-01
-2.001390359694742715e-01
-1.861229500525335145e-01
-1.676834383973559994e-01
-1.452337052435354048e-01
-1.191334833952124028e-01
-9.029538460450982351e-02
-5.906146973857767657e-02
-2.639808095234754542e-02
7.106190837235425162e-03
4.053069562706039519e-02
7.323622130986270906e-02
1.043816115393022409e-01
1.332697851677435430e-01
1.593442571979233058e-01
1.817782977365119401e-01
2.004831815739805401e-01
2.146115023201396466e-01
2.242059402087129560e-01
2.289043055261913151e-01
2.285220867666670208e-01
2.234437607106197488e-01
2.133010255037106895e-01
1.988284386532739312e-01
1.799749883188775657e-01
1.572791488003186522e-01
1.313410591000225836e-01
1.024612161434326346e-01
7.158285700075922575e-02
3.905695715265099927e-02
5.746507137817440276e-03
-2.775872062552536823e-02
-6.067965108172142935e-02
-9.245500612062700074e-02
-1.223359648788722304e-01
-1.497410499042512999e-01
-1.742153467019653401e-01
-1.949871337698963480e-01
-2.121536589431790298e-01
-2.248470491388183667e-01
-2.331722285058503707e-01
-2.368808819074140759e-01
-2.357055734745056863e-01
-2.302189359853635819e-01
-2.199229502085552068e-01
-2.055482285889752847e-01
-1.871169547487107343e-01
-1.649997677312652622e-01
-1.399324972381479903e-01
-1.120280313175998771e-01
-8.220587092369598115e-02
-5.080115852124926501e-02
-1.852038797841882439e-02
1.401602860670845413e-02
4.620150339284635754e-02
7.747972287439902628e-02
1.072143065892547376e-01
1.348747315252985246e-01
1.600786778794477394e-01
1.820837879191478381e-01
2.010231853814055669e-01
2.160610620151380834e-01
2.272184359646631513e-01
2.343329465474021656e-01
2.369425331314638505e-01
2.357124536472424980e-01
2.299446906722157902e-01
2.202127649135185439e-01
2.065501877850758616e-01
1.890293519282655044e-01
1.684268515632321439e-01
1.445863561010611587e-01
1.183063601282907662e-01
8.986381914586567821e-02
5.977110785497362355e-02
2.867146756679325031e-02
-2.991306442581664893e-03
-3.460863025855074465e-02
-6.560864891314001357e-02
-9.540257863240461655e-02
-1.235731937861281327e-01
-1.493416863596855881e-01
-1.726187813211855770e-01
-1.926161367493856580e-01
-2.090955253953859505e-01
-2.218791457478704043e-01
-2.303083788703401413e-01
-2.348975410492742943e-01
-2.349048266443541644e-01
-2.306693058467013391e-01
-2.222561572852100320e-01
-2.095272305490835929e-01
-1.933121779826134090e-01
-1.733210881437813600e-01
-1.503045656397297147e-01
-1.245726947442262200e-01
-9.657335453740371889e-02
-6.702936640576842575e-02
-3.631686958407664978e-02
-5.148056709425219771e-03
2.594737804755340230e-02
5.628600905119414410e-02
8.544175807958200031e-02
1.126314149378288554e-01
1.375913062804109410e-01
1.596592751597815663e-01
1.784040692924698246e-01
1.937156070900018234e-01
2.048682792014079046e-01
2.121987881594742664e-01
2.150999601913338721e-01
2.137071068415753172e-01
2.081514421986286056e-01
1.981931967944282336e-01
1.845827617665047882e-01
1.670566359946410173e-01
1.462733457145541649e-01
1.225530370494399557e-01
9.631181611262429332e-02
6.828573380140248728e-02
3.882365403061829867e-02
8.712421444491334072e-03
-2.156264646074867661e-02
-5.118413108276875095e-02
-7.974792279941744777e-02
-1.064031795314490797e-01
-1.307191614638809063e-01
-1.521298771350105272e-01
-1.699751612415794366e-01
-1.842325556779042528e-01
-1.940838494125015357e-01
-1.997271695330624097e-01
-2.007241883324407672e-01
-1.970434379494870047e-01
-1.889867880836872127e-01
-1.763007637650565451e-01
-1.597220478849078473e-01
-1.391981179384433609e-01
-1.153723325464209581e-01
-8.874253078227394009e-02
-5.979220059365819573e-02
-2.934711603641707023e-02
2.123890739688064078e-03
3.374384337240154269e-02
6.498204274380649237e-02
9.491938552461545719e-02
1.231721714235036319e-01
1.488590484411169979e-01
1.714900299115007243e-01
1.906469755565661506e-01
2.055857279346641753e-01
2.164901011515366069e-01
2.225543356811230944e-01
2.239989323031082169e-01
2.206356059245448420e-01
2.123672045037333922e-01
1.997676383186302029e-01
1.825726995795571295e-01
1.615703703054073292e-01
1.368965799704888464e-01
1.091196520384523500e-01
7.892153975788099296e-02
4.671740089688042330e-02
1.336734312817761290e-02
-2.061736448113852052e-02
-5.442454548529378211e-02
-8.748066278937022267e-02
-1.189430655545697102e-01
-1.484124203232679851e-01
-1.750691225684623820e-01
-1.984364495086929081e-01
-2.181595174693310435e-01
-2.334687235237485614e-01
-2.446881346909246246e-01
-2.509555980737997460e-01
-2.525002538927028639e-01
-2.492434011653529013e-01
-2.409938148598266827e-01
-2.284931723150633587e-01
-2.113784876381092359e-01
-1.904396666756579815e-01
-1.659018598251894017e-01
-1.382238038302043281e-01
-1.082116684396071116e-01
-7.616552780548153934e-02
-4.295636344598294243e-02
-9.093795299818373257e-03
2.468765615736991104e-02
5.780044005778646465e-02
8.950413937028073308e-02
1.193787266067877217e-01
1.467101140379180324e-01
1.710267146830769247e-01
1.920548546925252564e-01
2.090528404825083286e-01
2.222969727308853338e-01
2.310333068333964290e-01
2.353952683637285936e-01
2.353746606291529930e-01
2.306366885527771915e-01
2.219930258325374939e-01
2.089259081718488897e-01
1.921288672640706907e-01
1.718096800256465884e-01
1.482527826491565337e-01
1.222696383003193249e-01
9.398249319456676576e-02
6.421883224249978761e-02
3.340482347795468987e-02
2.224165788828284113e-03
-2.876274268500831482e-02
-5.888459227705364341e-02
-8.762849201000001698e-02
-1.143801352035308944e-01
-1.385338721233264347e-01
-1.598526691112192311e-01
-1.775396817626709867e-01
-1.916854804713078453e-01
-2.016555010799912784e-01
-2.073644062758706885e-01
-2.088813161532218632e-01
-2.057854504132755613e-01
-1.987444197059258233e-01
-1.873823464100002334e-01
-1.722414652598154572e-01
-1.536356651533185846e-01
-1.317720161570366533e-01
-1.075324360727059059e-01
-8.102400654687594295e-02
-5.308584240534035270e-02
-2.417932461604106742e-02
5.018426628223226355e-03
3.391291333982463657e-02
6.189102190746344212e-02
8.836821402398913061e-02
1.128462512523901867e-01
1.346777863740518111e-01
1.537092488747788532e-01
1.692208017604513171e-01
1.812215505672568894e-01
1.892980904919982221e-01
1.932841725372184960e-01
1.933853057248300922e-01
1.892217896050081560e-01
1.813620497180202795e-01
1.696235810645024822e-01
1.544340922653305581e-01
1.361867366930614165e-01
1.150721473006392631e-01
9.186493649655691485e-02
6.675811095786265970e-02
4.049881616380365812e-02
1.353712955519602301e-02
-1.347874352207230342e-02
-4.001260175903227634e-02
-6.547382268584096832e-02
-8.928341708222090056e-02
-1.110220648405069871e-01
-1.300165261185499133e-01
-1.461912362405519139e-01
-1.588470906943434124e-01
-1.679478233556075395e-01
-1.732115652062604094e-01
-1.744291926660984093e-01
-1.718916427277699666e-01
-1.652751553522169847e-01
-1.550978268959398443e-01
-1.413451013406552548e-01
-1.244405229145033182e-01
-1.048496918147320961e-01
-8.286146622071023649e-02
-5.921704172752056267e-02
-3.424287634986823009e-02
-8.716906639254742850e-03
1.691573370122448350e-02
4.192824578472516273e-02
6.582713893670438798e-02
8.802175967358821795e-02
1.079134747406091388e-01
1.252116171311509485e-01
1.392234408432167503e-01
1.500004163481309383e-01
1.569380179586079282e-01
1.600270811984010888e-01
1.591975070531218561e-01
1.542748401769906130e-01
1.457239644946695667e-01
1.333410826947773187e-01
1.176914344759233400e-01
9.896048396483296539e-02
7.763592684521575249e-02
5.427993411723470996e-02
2.930287046046851918e-02
3.458579740877293363e-03
-2.282136729363053174e-02
-4.871147917377660619e-02
-7.378992049066263048e-02
-9.726626536745369700e-02
-1.186846174518655650e-01
-1.374897791397367564e-01
-1.530858813519857253e-01
-1.653239614535456647e-01
-1.735472049396419858e-01
-1.778913863802368822e-01
-1.779359656147688207e-01
-1.737362060500328154e-01
-1.654486060608056641e-01
-1.530079672785783496e-01
-1.370473143391686133e-01
-1.175660273589647087e-01
-9.523214240048449852e-02
-7.044810750015123579e-02
-4.381376954835691784e-02
-1.600442544804382000e-02
1.243204568425958223e-02
4.071340014523297524e-02
6.832607124987924441e-02
9.442458266234235453e-02
1.186543141800047718e-01
1.402078551842166343e-01
1.587326594522635304e-01
1.737693610442014869e-01
1.848194791309446805e-01
1.919347686839839862e-01
1.945587350278316641e-01
1.929857786649207541e-01
1.869886939484371735e-01
1.767545844293565149e-01
1.626365332171842426e-01
1.446949275791518663e-01
1.236566568889732876e-01
9.968737117394624314e-02
7.352368252276197946e-02
4.565506672841279645e-02
1.674722649456526768e-02
-1.252429842369356949e-02
-4.155588983962257843e-02
-6.957532071657018813e-02
-9.610171827520494481e-02
-1.202753900276517102e-01
-1.418803748189340352e-01
-1.600962976423369322e-01
-1.746579408422873347e-01
-1.852328155344648286e-01
-1.913641418971122332e-01
-1.933137605148083082e-01
-1.905728007947245228e-01
-1.835598383587327131e-01
-1.722290858712153261e-01
-1.568469583449155769e-01
-1.379651126666634198e-01
-1.157255410833145370e-01
-9.095317564142990641e-02
-6.395869701692359632e-02
-3.553432264049942446e-02
-6.250872596881576482e-03
2.318793791627563050e-02
5.210635239475332192e-02
7.989748430975562865e-02
1.058131948598526606e-01
1.294757247947957157e-01
1.500621847214020366e-01
1.675019146232123446e-01
1.810878440765132935e-01
1.906448015855534694e-01
1.960684920608421478e-01
1.969247015155574376e-01
1.937594120996651847e-01
1.860920938309675310e-01
1.744290681073762672e-01
1.589238191462079008e-01
1.397977052783956065e-01
1.177856002680529035e-01
9.298261540816264714e-02
6.620552496753304150e-02
3.783251347255500024e-02
8.549719826352516691e-03
-2.105394640449476801e-02
-5.036193176525810555e-02
-7.876962035805368245e-02
-1.057205349069634537e-01
-1.305462444218169760e-01
-1.529722354026736009e-01
-1.722114430246718120e-01
-1.882560348293345065e-01
-2.004871093660354764e-01
-2.087101604505045838e-01
-2.129658473849567468e-01
-2.127356527916724471e-01
-2.086344530991950108e-01
-2.001943956065326824e-01
-1.878333090150092477e-01
-1.718294756314998339e-01
-1.522151434076806087e-01
-1.298659467759448183e-01
-1.047382200023570242e-01
-7.758390398933898147e-02
-4.883902824814746746e-02
-1.903772231101258372e-02
1.118717623122249955e-02
4.131291569065449754e-02
7.076557236967573328e-02
9.901005725510120259e-02
1.254046973843467305e-01
1.497227929263674762e-01
1.711571152341121727e-01
1.896647276684485794e-01
2.046747173147186738e-01
2.158641865137814198e-01
2.233581515325881728e-01
2.264792290286859466e-01
2.257605515524643558e-01
2.207363841498034274e-01
2.116137212252007793e-01
1.987327395990254875e-01
1.818920277657531115e-01
1.619335742201787609e-01
1.387295051894961162e-01
1.128960405097194919e-01
8.489466555173307005e-02
5.510076451923448526e-02
2.422742502890760929e-02
-7.304103050415454088e-03
-3.886019837705351199e-02
-6.989530038318750305e-02
-9.969809189307267394e-02
-1.279844896515366648e-01
-1.538725758910759744e-01
-1.771328836372646487e-01
-1.971998266732831462e-01
-2.135097783538813521e-01
-2.261989379820957269e-01
-2.344022633888027674e-01
-2.384827915608648818e-01
-2.380069214534437094e-01
-2.329422808178381876e-01
-2.237237625125146900e-01
-2.099650854202987915e-01
-1.924781264782010060e-01
-1.711593810402500804e-01
-1.465305139294804382e-01
-1.191586850055133817e-01
-8.931654251994236571e-02
-5.783128353752559764e-02
-2.507846432198765699e-02
8.227519606347221542e-03
4.152253608405759994e-02
7.406043251852076348e-02
1.054743940095034110e-01
1.349056351184688973e-01
1.619516994651097330e-01
1.861190679622638511e-01
2.066650182440325501e-01
2.237543710505849326e-01
2.364181814658533887e-01
2.448379181478789746e-01
2.486533309200658626e-01
2.475898653734824872e-01
2.421479128381002766e-01
2.317647915819740501e-01
2.171412475092673877e-01
1.981986044094067867e-01
1.753069420064095052e-01
1.491013956812820007e-01
1.197411554750780482e-01
8.810093444444817845e-02
5.455171137583832153e-02
1.986726685218959121e-02
-1.532622375747739844e-02
-5.025110302536754670e-02
-8.433647974619715160e-02
-1.167602230395743540e-01
-1.468865154215320268e-01
-1.742135931843759311e-01
-1.978351144004898421e-01
-2.178378233930514662e-01
-2.332182805426342986e-01
-2.439746373460034978e-01
-2.498466113372440622e-01
-2.504266942599981949e-01
-2.463133861385376489e-01
-2.369271559275012429e-01
-2.229450716236890395e-01
-2.044436034155004689e-01
-1.817771784173797256e-01
-1.557314350967194672e-01
-1.264769847610211218e-01
-9.497359549059007644e-02
-6.165257064154849864e-02
-2.734877122844607197e-02
7.272605991496403771e-03
4.144779316611773429e-02
7.451470225728586139e-02
1.057691566933205152e-01
1.344945512731693105e-01
1.603132430929118390e-01
1.823568643082517371e-01
2.006541897736814906e-01
2.144301392761359115e-01
2.235936589394160734e-01
2.280730870100320384e-01
2.274257768762723009e-01
2.223425551360644625e-01
2.122945153484986913e-01
1.979073738220818446e-01
1.793786367414368366e-01
1.569902202987781825e-01
1.315971082474717835e-01
1.033205987068247372e-01
7.309542997818113674e-02
4.135855412102765194e-02
8.917592875755754600e-03
-2.359082934612377613e-02
-5.543933455216827622e-02
-8.594812043441986404e-02
-1.145084607977070595e-01
-1.403464701928517078e-01
-1.632004931364587907e-01
-1.822010636847787302e-01
-1.973282411541029679e-01
-2.079827866743413356e-01
-2.139659958364864556e-01
-2.153897219421268550e-01
-2.117948033157457943e-01
-2.038380944590560684e-01
-1.911981021960158789e-01
-1.744039575410744891e-01
-1.538416701981372703e-01
-1.297463230716817129e-01
-1.030521578160730201e-01
-7.393544901948556625e-02
-4.329831412666225454e-02
-1.166050624821425574e-02
2.021185760711817492e-02
5.168669181094287524e-02
8.206588919960133843e-02
1.106997715172021446e-01
1.370685187928222803e-01
1.604132022191727680e-01
1.806242367118330305e-01
1.968730520141106777e-01
2.091668362817796223e-01
2.170972010257566642e-01
2.204128643158115297e-01
2.194267783809389083e-01
2.136575524870993059e-01
2.037441252869537367e-01
1.895201667675142643e-01
1.713868759503045514e-01
1.498629692016348880e-01
1.250845570863715617e-01
9.793111303833029746e-02
6.862551128589662597e-02
3.794101296387338007e-02
6.427205130644944586e-03
-2.524832218771042372e-02
-5.648294526940418614e-02
-8.661311639952787300e-02
-1.150200860146930459e-01
-1.412234864782884458e-01
-1.644408761117693296e-01
-1.846444833441014677e-01
-2.009574459850068939e-01
-2.133440178746564830e-01
-2.214795768173088153e-01
-2.249915435523512086e-01
-2.243142474516683360e-01
-2.188738097090762447e-01
-2.092608477302468351e-01
-1.954157136693220331e-01
-1.776116116049827887e-01
-1.565035145178176601e-01
-1.321337672489451553e-01
-1.053811451127323745e-01
-7.652482527927087497e-02
-4.626506401388997408e-02
-1.521508757735108575e-02
1.603744465710797013e-02
4.686103888313089549e-02
7.665458245396580828e-02
1.048004314558858008e-01
1.308883704515291513e-01
1.541518562207439824e-01
1.745958622797927906e-01
1.914213690819164260e-01
2.045341883124630333e-01
2.137514077836981663e-01
2.185747541043134290e-01
2.195823904911483326e-01
2.160934743751702358e-01
2.086075660011902644e-01
1.971440125885062233e-01
1.817594268965951054e-01
1.631841809396183951e-01
1.412648824289549077e-01
1.167819072295927380e-01
8.998586152425602780e-02
6.141164812367060771e-02
3.167391427697293510e-02
1.224094676093648304e-03
-2.930131534284971528e-02
-5.936703079596196420e-02
-8.832251619420808386e-02
-1.157756725414368359e-01
-1.409222493181977176e-01
-1.636246468931631393e-01
-1.831312901659419567e-01
-1.991278175120968219e-01
-2.114633070365984635e-01
-2.194480759706232964e-01
-2.235554765289629597e-01
-2.230807937322543122e-01
-2.183081304922498134e-01
-2.093341535555625355e-01
-1.960079087566857226e-01
-1.791559228179020191e-01
-1.585209229413096776e-01
-1.348436125132830010e-01
-1.084656166403720340e-01
-7.985929895242858956e-02
-4.974835434311365018e-02
-1.855413649511820223e-02
1.300130263239963196e-02
4.437359188929269199e-02
7.483363655779284862e-02
1.039787471510499606e-01
1.309762504762012059e-01
1.555619019265646608e-01
1.770801885967531464e-01
1.950538141248506219e-01
2.094255816264681824e-01
2.194236343912545351e-01
2.254078085618941019e-01
2.267911775984825518e-01
2.236791806704737096e-01
2.162739742813563348e-01
2.043020006870439331e-01
1.885576238449646336e-01
1.688029061879529613e-01
1.456862744655633424e-01
1.195979180438450085e-01
9.093591820148978766e-02
6.048629177227991816e-02
2.862252823149159797e-02
-3.866430078574314283e-03
-3.643781450740772587e-02
-6.826987438274749465e-02
-9.893599285978360580e-02
-1.275414464846268137e-01
-1.536608391937467344e-01
-1.766860557612570659e-01
-1.959401023516409157e-01
-2.114117120330613053e-01
-2.222275229904686067e-01
-2.286126489953393126e-01
-2.301002790175998292e-01
-2.266436258621304933e-01
-2.185826738711960371e-01
-2.056068315931580126e-01
-1.885025443529351474e-01
-1.671947739594892013e-01
-1.423203534060264452e-01
-1.144277198708088389e-01
-8.395119617571135395e-02
-5.178216500177400955e-02
-1.837302121338196467e-02
1.539303457773662925e-02
4.892937895468717213e-02
8.134687599205554787e-02
1.121970135704994931e-01
1.405963052176729400e-01
1.660427192912764804e-01
1.880581058677112116e-01
2.059083030839541084e-01
2.197255198029777756e-01
2.286743590841663343e-01
2.329662175853420281e-01
2.323456406231586557e-01
2.267177539378311124e-01
2.166108778036844040e-01
2.017234542895839644e-01
1.828472062608645365e-01
1.600552917558601407e-01
1.339354794628037915e-01
1.051401648567799468e-01
7.406974525955836719e-02
4.161745592554922518e-02
8.254188702926542470e-03
-2.515912490222613901e-02
-5.805342512227394669e-02
-8.957754661287226083e-02
-1.192705524486242785e-01
-1.463392086829211902e-01
-1.702480782385746294e-01
-1.906267406559430944e-01
-2.067043960715327922e-01
-2.187295687134788724e-01
-2.258737186327600677e-01
-2.283238663632881638e-01
-2.259758929309329534e-01
-2.186771132460105238e-01
-2.070950218622184535e-01
-1.909268196987485844e-01
-1.709527645937527207e-01
-1.473782906839546381e-01
-1.207558913640515846e-01
-9.182017802069729340e-02
-6.097077463233060990e-02
-2.909484299692799078e-02
3.306621863877697715e-03
3.537870718366194212e-02
6.659531747390087797e-02
9.612031373158452796e-02
1.235068415643973405e-01
1.480668763588356418e-01
1.692400682850548899e-01
1.868116406964925591e-01
2.000273213936519245e-01
2.091386367751411346e-01
2.134979855716245267e-01
2.132276655233111273e-01
2.083999223635450426e-01
1.988062604984266457e-01
1.852284916715810914e-01
1.673784123849652028e-01
1.459994039792057996e-01
1.214058654516724650e-01
9.409518241363207247e-02
6.485064455492550728e-02
3.405795611143209306e-02
2.588473504938043623e-03
-2.904447766424239630e-02
-5.998195364672453955e-02
-8.973839039918848903e-02
-1.174717199871329054e-01
-1.427142068403755293e-01
-1.648650463861184301e-01
-1.833011882986869401e-01
-1.979349545380021946e-01
-2.080062321453245433e-01
-2.137441075723735540e-01
-2.146830220701251846e-01
-2.108800400412389198e-01
-2.026017488835377689e-01
-1.896581529408326028e-01
-1.728413993681527927e-01
-1.520690756844432778e-01
-1.280466164661401285e-01
-1.012571847646367984e-01
-7.219137310724474399e-02
-4.170560415231232276e-02
-1.022796453922150683e-02
2.138187083039097547e-02
5.258400850104444357e-02
8.254295212111156799e-02
1.108393062810195673e-01
1.366649073817144400e-01
1.595987424576206237e-01
1.791735133272810421e-01
1.947890130260389041e-01
2.065348075002859107e-01
2.136997964837084596e-01
2.165478096123402696e-01
2.147961517768223749e-01
2.084737522954786537e-01
1.980010757771509811e-01
1.831892072173547104e-01
1.647990377775650772e-01
1.428662865310645347e-01
1.180202787721120056e-01
9.079453622742829355e-02
6.164794541087244284e-02
3.137081743611155882e-02
4.238330663185740921e-04
-3.038292839851478022e-02
-6.054504745675817756e-02
-8.922031637395583248e-02
-1.160585623759781693e-01
-1.402459630928449830e-01
-1.613454107684724748e-01
-1.789767972941443408e-01
-1.924659431684786481e-01
-2.020240672776124624e-01
-2.069024358299401678e-01
-2.073387211286124021e-01
-2.031842552842444416e-01
-1.944102048091874702e-01
-1.815712335399816690e-01
-1.644949360396825710e-01
-1.439475174906162946e-01
-1.201141898421761722e-01
-9.363464097857031321e-02
-6.513522307609000139e-02
-3.513483300761678640e-02
-4.445955001287686670e-03
2.640548538116557764e-02
5.656283145804535950e-02
8.555696882353586163e-02
1.125097562000041129e-01
1.370778198181916430e-01
1.585362548918317627e-01
1.764083127568713549e-01
1.904820777767554651e-01
2.000698705077302852e-01
2.054959197931545689e-01
2.061247165342123266e-01
2.021882507332938284e-01
1.937412916201183277e-01
1.807455326098243997e-01
1.639052836237703814e-01
1.431057589723119527e-01
1.191227749961767668e-01
9.228039261678583349e-02
6.323294957358913115e-02
3.265816466697815668e-02
1.134131908981601822e-03
-3.051908404683565182e-02
-6.173274821016568742e-02
-9.160211881373765685e-02
-1.196982050510978918e-01
-1.450942937186864568e-01
-1.674325053637895355e-01
-1.860569513272428699e-01
-2.004458385209252902e-01
-2.105172926120373877e-01
-2.156073794454718695e-01
-2.160575106113888921e-01
-2.114367355379284108e-01
-2.019984779314903944e-01
-1.880055907466924026e-01
-1.695228994182421400e-01
-1.473775231279214892e-01
-1.216607297490298056e-01
-9.323753056849343190e-02
-6.261047060405756925e-02
-3.055141972527123523e-02
2.189890359936543136e-03
3.492107573971849760e-02
6.678878743964947184e-02
9.721707104139563904e-02
1.252644288196796962e-01
1.506330927534939024e-01
1.724046572572856817e-01
1.903132146884460030e-01
2.038843605967663453e-01
2.126570288084245475e-01
2.168079775524398012e-01
2.157668492375316716e-01
2.100051289719634395e-01
1.993269294105507738e-01
1.840550099520027461e-01
1.646656137705330980e-01
1.413016413168184937e-01
1.148496444546670131e-01
8.555201380281490797e-02
5.428919920617375494e-02
2.163503536095538055e-02
-1.161820141229524123e-02
-4.473713045064763028e-02
-7.701017470981406932e-02
-1.076045634142802909e-01
-1.360083187744941247e-01
-1.612700005378620849e-01
-1.832504301878514485e-01
-2.010315267708349118e-01
-2.144139647591323250e-01
-2.230915069316332100e-01
-2.266095611380856134e-01
-2.253807151777537654e-01
-2.188711645104053360e-01
-2.076431294808288031e-01
-1.917197472260336044e-01
-1.714429615841574495e-01
-1.475148043706949186e-01
-1.201210868547067934e-01
-9.021640772369274308e-02
-5.819699421676527429e-02
-2.493073073375365323e-02
8.915531502827478416e-03
4.257339754602579296e-02
7.532516618517340334e-02
1.064840155746423073e-01
1.352907412682073651e-01
1.613327066458431491e-01
1.837486829629404461e-01
2.025173488333222305e-01
2.168659075364000044e-01
2.266791212321533355e-01
2.318490371911288705e-01
2.319455564651528579e-01
2.276116598365076071e-01
2.183212980376748047e-01
2.046794849301785402e-01
1.868537558114706787e-01
1.651203040114166687e-01
1.402921994913395587e-01
1.124872345942337648e-01
8.261279996205585230e-02
5.109084376736914429e-02
1.868393396756434441e-02
-1.395844169280145361e-02
-4.615218993416106419e-02
-7.723573065635126744e-02
-1.065846738936054583e-01
-1.334865481215483651e-01
-1.576166848936236542e-01
-1.781473464233912229e-01
-1.950606269239123503e-01
-2.076950312050129810e-01
-2.158942673990097150e-01
-2.196760302298166323e-01
-2.185809005459086740e-01
-2.132595175619730887e-01
-2.032849750407992317e-01
-1.891957752167466866e-01
-1.712893525647926352e-01
-1.497490319247131996e-01
-1.255096817976097956e-01
-9.862798984549835113e-02
-6.999000471373635623e-02
-4.006309484159194939e-02
-9.528519192694456796e-03
2.095831369751213757e-02
5.079896690867979903e-02
7.936195008186017197e-02
1.061259264551376036e-01
1.304171853119271973e-01
1.520454767198897716e-01
1.702507511075815883e-01
1.850306559238450443e-01
1.959114267432388312e-01
2.026792374857537271e-01
2.055314219313379986e-01
2.039727283276176750e-01
1.986063752461610099e-01
1.891296498717640884e-01
1.759114021337125633e-01
1.593435358895850251e-01
1.394508017616154782e-01
1.170758099689444415e-01
9.225521488426935424e-02
6.569587939756207917e-02
3.785156739891319677e-02
9.242221270504724639e-03
-1.951426810256284838e-02
-4.791631989940520198e-02
-7.536731784951788971e-02
-1.013995532754712603e-01
-1.253263365034373300e-01
-1.469948164503751264e-01
-1.656148402745631909e-01
-1.810785297173747033e-01
-1.929742216284203171e-01
-2.009163921454666935e-01
-2.051539995139183004e-01
-2.050783277152288531e-01
-2.011556643755010865e-01
-1.931709912062818391e-01
-1.813054809500502795e-01
-1.660509943719764847e-01
-1.473299434099202831e-01
-1.259382319983488041e-01
-1.019955766542043341e-01
-7.612028157217620716e-02
-4.885695372171102585e-02
-2.066705531265623785e-02
7.789998526400748746e-03
3.602561673555591815e-02
6.342886689262978994e-02
8.955533197751058827e-02
1.137115292064770078e-01
1.357777755378123397e-01
1.549963097943391488e-01
1.712034470168705413e-01
1.841128784365832216e-01
1.932394390907150872e-01
1.989500701231950719e-01
2.005757094908000304e-01
1.984987516426318099e-01
1.926032422578540515e-01
1.828925755788818608e-01
1.699389066055599917e-01
1.535138585513025067e-01
1.343207605514433745e-01
1.124739323805303698e-01
8.843677254812704058e-02
6.275637482291762659e-02
3.576386686491696276e-02
8.099017326183021587e-03
-1.981097841326114398e-02
-4.735157233461088216e-02
-7.410532466059520373e-02
-9.936314782917814170e-02
-1.228999568831641714e-01
-1.440023789581471036e-01
-1.623226340185422722e-01
-1.776067328670765388e-01
-1.891767464596099957e-01
-1.973763354619149923e-01
-2.014423543926388560e-01
-2.015782843845554673e-01
-1.977401712377030163e-01
-1.897267068518799782e-01
-1.782058094652328728e-01
-1.628418564476906416e-01
-1.442924424090776259e-01
-1.227702485066765881e-01
-9.865927625187631556e-02
-7.263602871550670081e-02
-4.499080614772254377e-02
-1.644343121052164319e-02
1.254528324980637433e-02
4.130986092258456810e-02
6.939019185862375927e-02
9.607225890145346114e-02
1.210180935667942714e-01
1.436005101733325851e-01
1.633507124098456664e-01
1.801062041291856541e-01
1.931429628993523440e-01
2.027274983660636021e-01
2.082274593725513268e-01
2.097006143169349579e-01
2.072379321940610863e-01
2.004942471663606063e-01
1.902093166614622355e-01
1.759885929615737088e-01
1.584013622645893959e-01
1.377310613181488841e-01
1.142049230815281313e-01
8.859107204622719556e-02
6.104733118002109854e-02
3.229561810944097527e-02
2.792236238005223192e-03
-2.683965738488689606e-02
-5.609383861264928550e-02
-8.430347110878803896e-02
-1.110263882078287578e-01
-1.356787629924073035e-01
-1.576848119932785230e-01
-1.768836587778304659e-01
-1.924907656286970747e-01
-2.046278433493819993e-01
-2.127318037353552738e-01
-2.166907010992001059e-01
-2.166662140793088609e-01
-2.122104049678960880e-01
-2.039928977245574204e-01
-1.916967903527863060e-01
-1.757817673272777381e-01
-1.566419442175199239e-01
-1.343976496647084073e-01
-1.099183249458403761e-01
-8.331284239011244042e-02
-5.531184290307257501e-02
-2.641140114529593602e-02
2.826290181873372664e-03
3.183373102326866877e-02
6.003878488087918686e-02
8.694915605694233940e-02
1.120731483429761588e-01
1.348181281931863651e-01
1.550945769251918238e-01
1.721492532430317079e-01
1.860382924259504356e-01
1.963335962854684813e-01
2.027994019634994372e-01
2.057016841449305633e-01
2.044898286225935446e-01
1.997309122789762970e-01
1.911461444207538940e-01
1.789943023959067181e-01
1.636921767192134336e-01
1.451650925364247890e-01
1.241791191480280110e-01
1.007648418541581270e-01
7.551361253901252291e-02
4.887176519262429603e-02
2.128134509506422745e-02
-6.689640319292700088e-03
-3.455633181111242291e-02
-6.176038542300379963e-02
-8.785467064030563766e-02
-1.121319675702000529e-01
-1.344815389137321016e-01
-1.540627309334911543e-01
-1.707242663684758188e-01
-1.840722065167199606e-01
-1.936059300008648454e-01
-1.996079161345689634e-01
-2.013626725128738193e-01
-1.992567539302126378e-01
-1.930820439281820677e-01
-1.828830255090705958e-01
-1.691764165470218129e-01
-1.517800469171282918e-01
-1.314375145033553904e-01
-1.082660063330920380e-01
-8.281682984571114847e-02
-5.564907966698240394e-02
-2.719289068942852550e-02
1.876724237629939784e-03
3.106660538431758878e-02
5.971218474419198730e-02
8.736439419200117684e-02
1.132559874626190843e-01
1.371947588477066271e-01
1.584027197602267401e-01
1.765755744668983107e-01
1.914381557686569701e-01
2.023462165583627681e-01
2.096720612091584335e-01
2.126505012864912669e-01
2.115568528924706704e-01
2.063104104164945607e-01
1.967946768568580029e-01
1.836244739085176048e-01
1.665269286213925948e-01
1.461836037115707698e-01
1.227714026822908089e-01
9.675648448224838383e-02
6.874997322454101667e-02
3.914063275861399266e-02
8.638232904722275424e-03
-2.225251283843099684e-02
-5.279698371745405322e-02
-8.252613752697998684e-02
-1.106037109951456821e-01
-1.367004757132955772e-01
-1.600543266018516764e-01
-1.801746051510030311e-01
-1.968043729357382698e-01
-2.091752776193891994e-01
-2.175585825011525087e-01
-2.212326222227687933e-01
-2.203377023425515668e-01
-2.148879268564013456e-01
-2.047005235956331770e-01
-1.904958138610866603e-01
-1.720264878627960625e-01
-1.500186208300132440e-01
-1.247833978292605950e-01
-9.687334292381738488e-02
-6.700480745161320473e-02
-3.567015295045661283e-02
-3.696344252090366655e-03
2.836010920657092496e-02
5.961312039361743587e-02
8.961155153130673234e-02
1.174381329585649364e-01
1.426847519711601786e-01
1.646927002907298265e-01
1.828626890710854380e-01
1.970906424073761154e-01
2.066099320594191324e-01
2.116768587913477606e-01
2.117774906746502372e-01
2.070201992783681777e-01
1.975978919570947623e-01
1.833959328774409092e-01
1.651622069578287944e-01
1.428373497472296416e-01
1.171891944502622962e-01
8.863880896850888369e-02
5.784974226625659577e-02
2.559582854889599218e-02
-7.526869825961558097e-03
-4.058560374872704352e-02
-7.300731867501032701e-02
-1.037536244541823471e-01
-1.324158036299268870e-01
-1.579951292668476948e-01
-1.800120330036750482e-01
-1.979204132094448398e-01
-2.110394796203941270e-01
-2.194306481407719278e-01
-2.223772623771112233e-01
-2.201742142301879868e-01
-2.125784245402053685e-01
-1.997699580358266169e-01
-1.822059058070129300e-01
-1.599723036135948240e-01
-1.339459826626464845e-01
-1.043972039642349914e-01
-7.224597499221475927e-02
-3.813026076128071817e-02
-2.910272505568474444e-03
3.255685412691464858e-02
6.750888246165515083e-02
1.009536664762955560e-01
1.323222306563821837e-01
1.605403920041708898e-01
1.853558595859581826e-01
2.058126065825975348e-01
2.215637089604836629e-01
2.322952523334084751e-01
2.374704573003084684e-01
2.374486823282812575e-01
2.317013816049565134e-01
2.207250476578740961e-01
2.045691715304448488e-01
1.835993413045957368e-01
1.585045171519708918e-01
1.295578322864473775e-01
9.774666876375139035e-02
6.353044931892788683e-02
2.792201188404701620e-02
-8.382831393243327101e-03
-4.444753171148467519e-02
-7.944070616642699700e-02
-1.125868039127097264e-01
-1.429359092690410393e-01
-1.700233382539387827e-01
-1.928548343676473875e-01
-2.112871033594998504e-01
-2.245431517112277398e-01
-2.324212830363717175e-01
-2.348231800448976614e-01
-2.313868051144888360e-01
-2.227352418389326183e-01
-2.085302937547402480e-01
-1.894865597065616414e-01
-1.659027661824196420e-01
-1.383575314901880626e-01
-1.077377104332399166e-01
-7.450470213746338000e-02
-3.976882493355136244e-02
-4.123786662816850829e-03
3.132574340553026526e-02
6.589715869290989347e-02
9.862579472495461297e-02
1.287565507228323747e-01
1.556255766930099704e-01
1.784015145214892795e-01
1.968617988510361905e-01
2.102009763823614041e-01
2.184917052424877326e-01
2.212799067390151253e-01
2.185930900507570829e-01
2.106606531612942590e-01
1.973904213503530902e-01
1.795802924126779221e-01
1.572353769215068531e-01
1.312117488366795481e-01
1.020217094406578040e-01
7.036959647709609134e-02
3.720736127020296546e-02
3.092786298349071289e-03
-3.089906335711793683e-02
-6.418262720882586536e-02
-9.571447925199381979e-02
-1.249897048637038377e-01
-1.511178314623181917e-01
-1.735492671542442356e-01
-1.918235205663078036e-01
-2.052881506360837993e-01
-2.140396626973682381e-01
-2.174397659932664484e-01
-2.157988713181816787e-01
-2.089551996796054634e-01
-1.970954658219925271e-01
-1.807544530808342653e-01
-1.599767662171802940e-01
-1.356846214313283949e-01
-1.081114627894809443e-01
-7.812222774573482353e-02
-4.637246618515438595e-02
-1.355429381346849246e-02
1.944719459437979289e-02
5.203943515952828835e-02
8.331640297431702757e-02
1.127731882179391631e-01
1.395177350030833430e-01
1.632899489869176768e-01
1.833120174373849831e-01
1.992731719460974771e-01
2.109339264204407038e-01
2.177766437756285811e-01
2.202159499628055794e-01
2.176767854960567627e-01
2.106172058968132921e-01
1.990704347616568948e-01
1.832102796780665788e-01
1.637536791794717561e-01
1.406923802696860015e-01
1.149110994679201359e-01
8.670949857657049564e-02
5.679359483343191656e-02
2.582947585063571916e-02
-5.623965504554405068e-03
-3.681285653664115309e-02
-6.718600089953177812e-02
-9.600157064980167909e-02
-1.228381425509881553e-01
-1.469074682175607882e-01
-1.680371412910024176e-01
-1.855396437589133252e-01
-1.991537039948134691e-01
-2.087516798137225016e-01
-2.137962181432711273e-01
-2.147993055005631979e-01
-2.111901944377349849e-01
-2.033897865433309804e-01
-1.915398572724001380e-01
-1.756959953142763764e-01
-1.566836048698555528e-01
-1.344085191190967643e-01
-1.096921454781640548e-01
-8.289170582381596986e-02
-5.458824599585565540e-02
-2.546435665195596887e-02
4.008662758263621673e-03
3.314196205153831926e-02
6.143170504495076845e-02
8.820515768755568531e-02
1.131344771582367958e-01
1.354846932936433490e-01
1.551105649374602824e-01
1.714506500058436411e-01
1.842010355259341425e-01
1.933748073714885440e-01
1.983908307636441104e-01
1.997140319980222900e-01
1.968728200803625539e-01
1.901305135303762439e-01
1.797184364421497427e-01
1.655260570987497071e-01
1.483527413666796968e-01
1.280433957688849045e-01
1.052728259821564261e-01
8.040756517248079382e-02
5.387503042895510491e-02
2.635437956993966907e-02
-1.780006722781201853e-03
-2.986374573140358757e-02
-5.742652763313167708e-02
-8.378747292745900022e-02
-1.086348906436290507e-01
-1.312147950908892358e-01
-1.512761210823749536e-01
-1.683148132178993173e-01
-1.818651204091301099e-01
-1.919899205464095648e-01
-1.980081993244436900e-01
-2.002533099846340869e-01
-1.983535501762269671e-01
-1.923899168207846011e-01
-1.827154332988661922e-01
-1.691216712925530941e-01
-1.523743548603802844e-01
-1.324231721823498631e-01
-1.098501581197726118e-01
-8.515512541378640610e-02
-5.868565147402110549e-02
-3.120730564720016267e-02
-3.076785969471836427e-03
2.503299431621038712e-02
5.263018353237917946e-02
7.907273130565906083e-02
1.040391757686910112e-01
1.268440968153492499e-01
1.472029131124667489e-01
1.647296972852788643e-01
1.789276743327751773e-01
1.899728404140292315e-01
1.971898615911704955e-01
2.008649607549289062e-01
2.007599415982016522e-01
1.968208498540327811e-01
1.895173168344680692e-01
1.785086034123955778e-01
1.644812147849634143e-01
1.473975024448558324e-01
1.276423357880623888e-01
1.057457032457097268e-01
8.184488532052466847e-02
5.665171410368342181e-02
3.042341174444927049e-02
3.718243603875084902e-03
-2.299875613942164998e-02
-4.920714353748684156e-02
-7.454365892137948535e-02
-9.841592084973088683e-02
-1.204700589391006216e-01
-1.403475230872714419e-01
-1.574516717917489317e-01
-1.719511918210683554e-01
-1.830721808049799171e-01
-1.909377557731206654e-01
-1.953316138881295017e-01
-1.959660406129633548e-01
-1.933490981583699253e-01
-1.869505479360367706e-01
-1.773285770219447943e-01
-1.644660369466318106e-01
-1.485357541635306255e-01
-1.301565484492811509e-01
-1.092767085683078454e-01
-8.660744685261879960e-02
-6.237834523507063134e-02
-3.706200215204709381e-02
-1.118678199106670768e-02
1.485624439927729634e-02
4.059257504527687133e-02
6.553999111534689059e-02
8.927652023151905203e-02
1.114654694949440694e-01
1.315119913650283912e-01
1.494564702051630056e-01
1.646214247104300921e-01
1.769466905959755365e-01
1.862876304670821048e-01
1.921487970489787755e-01
1.950941100267263861e-01
1.944212160756044194e-01
1.905224386972260708e-01
1.834149513371313156e-01
1.729655325199597193e-01
1.598874561586674514e-01
1.438323251120208479e-01
1.254226820529988351e-01
1.048364038902806217e-01
8.230137240346611927e-02
5.843905387532039725e-02
3.336877281216716479e-02
7.635640851319611122e-03
-1.838208908070063097e-02
-4.429600665051207364e-02
-6.968700565320654072e-02
-9.405608480761920576e-02
-1.172135027813508146e-01
-1.385647533496843775e-01
-1.578475564898805528e-01
-1.748571963424469800e-01
-1.889649607569505729e-01
-2.004831221322689594e-01
-2.086926130715967553e-01
-2.136856641114273647e-01
-2.154592291346739685e-01
-2.135444498156508220e-01
-2.087048337941824205e-01
-2.002948518438860404e-01
-1.887917261160524940e-01
-1.743809393551628006e-01
-1.569743330375046875e-01
-1.373849404861691992e-01
-1.154027917745511084e-01
-9.162438983112453084e-02
-6.640086231051339771e-02
-3.995107132910247216e-02
-1.290495813522378812e-02
1.449946695241041694e-02
4.186293013798975116e-02
6.868693293734619287e-02
9.468187168008197763e-02
1.195090443498074972e-01
1.426239056534238103e-01
1.640602621681292173e-01
1.831732758957804186e-01
1.998388593305471528e-01
2.139730089320434903e-01
2.249361913458026441e-01
2.332376690891038995e-01
2.381358171031469906e-01
2.398001916259796251e-01
2.383129699846802119e-01
2.331702578677501692e-01
2.252050897346038194e-01
2.137573619120895774e-01
1.992654660398888444e-01
1.819473097310781717e-01
1.616574495372286868e-01
1.391685514297929804e-01
1.143024265710678444e-01
8.755727827418813281e-02
5.934087906169448201e-02
2.986636755070352922e-02
-2.813053975270346507e-04
-3.072103174285929772e-02
-6.111371164443275827e-02
-9.081552794816677432e-02
-1.194660459734769864e-01
-1.466977990773314922e-01
-1.717737018847797781e-01
-1.947294371097142707e-01
-2.147598907460545603e-01
-2.316787908769969151e-01
-2.453613461678700869e-01
-2.550823667873124423e-01
-2.613702348332814784e-01
-2.634638481082066663e-01
-2.615872944535959088e-01
-2.558840330778819894e-01
-2.459681751979299613e-01
-2.327701031144639443e-01
-2.158117504988757429e-01
-1.956976190497237145e-01
-1.728156165891185925e-01
-1.472450762947316583e-01
-1.198943752463607071e-01
-9.080811563101218176e-02
-6.061200677962276517e-02
-2.984695906490064665e-02
1.153408384612624599e-03
3.179779668864439468e-02
6.162473079245022606e-02
9.036972487648557706e-02
1.174187225486946068e-01
1.425080057257548383e-01
1.654442026515947906e-01
1.855839314195739942e-01
2.032093193195183556e-01
2.176551303220152223e-01
2.289392266084123717e-01
2.371573587597625155e-01
2.417038054745059839e-01
2.433168463792887426e-01
2.413257143979596342e-01
2.360503135336108893e-01
2.277152549442141294e-01
2.159359822325551126e-01
2.016167599565338586e-01
1.842621805815723712e-01
1.643602218569748807e-01
1.422122631230286760e-01
1.178115067630564339e-01
9.183758548934048416e-02
6.433051173471529549e-02
3.570956080420328860e-02
6.430064930499801434e-03
-2.317132072933311693e-02
-5.273191605703410334e-02
-8.161856000445369408e-02
-1.096733566832846785e-01
-1.362193532284074748e-01
-1.608142663897424440e-01
-1.833446448564833020e-01
-2.028649906795462754e-01
-2.196128793099068610e-01
-2.327848957860151891e-01
-2.421682694684460513e-01
-2.478546011148490269e-01
-2.490523576661192728e-01
-2.464165676865669452e-01
-2.393039472415467994e-01
-2.279620904668538950e-01
-2.126921172364631685e-01
-1.932626518900354695e-01
-1.705519339770038556e-01
-1.444156646216614714e-01
-1.154793046296412329e-01
-8.424740185421267236e-02
-5.115041854181597014e-02
-1.687581359906648384e-02
1.800555678982548868e-02
5.289455810124304297e-02
8.713194835688646556e-02
1.199540940657976423e-01
1.510770142870709598e-01
1.794655467121773762e-01
2.049587025303415133e-01
2.268469883159524580e-01
2.445625278518163692e-01
2.582225028483273177e-01
2.668573118207537287e-01
2.709264121884183418e-01
2.698582105400602060e-01
2.636714743265866634e-01
2.527791258468782831e-01
2.367651430049796946e-01
2.165480566999223866e-01
1.919514170060108160e-01
1.635911484307350228e-01
1.320613759439530355e-01
9.769215545884177287e-02
6.142383603669387959e-02
2.368657637554291706e-02
-1.469852088726540662e-02
-5.304443919210374836e-02
-9.050897970480452359e-02
-1.265974284504607361e-01
-1.603212673920473841e-01
-1.912249841576972309e-01
-2.186449569377972302e-01
-2.418242123896787166e-01
-2.608262541508816201e-01
-2.746339812177117090e-01
-2.835060622440329081e-01
-2.869822401576813675e-01
-2.849235334033443645e-01
-2.778478189722960456e-01
-2.652672011046184886e-01
-2.480874335982565237e-01
-2.262333687722923870e-01
-2.002752158918682523e-01
-1.709565331516335607e-01
-1.385190824370937657e-01
-1.040325483072407353e-01
-6.787912321737085697e-02
-3.091490732928975360e-02
6.151615099299463651e-03
4.259790276874662190e-02
7.781026436772020549e-02
1.110223865924778730e-01
1.417184630270209300e-01
1.693839900684896427e-01
1.933075001303363183e-01
2.136307292179204231e-01
2.294413351763322506e-01
2.409355499679406432e-01
2.478184182657878765e-01
2.498500849686887126e-01
2.476373084186616058e-01
2.405918866768642084e-01
2.294868488447511790e-01
2.142493160955879494e-01
1.952259099446722601e-01
1.731123940965906827e-01
1.479087378162214361e-01
1.205244001273561572e-01
9.117504651558298867e-02
6.054935188211509056e-02
2.920077773952216293e-02
-2.310697643787926192e-03
-3.341066730380709560e-02
-6.351491581619392313e-02
-9.202415013163556257e-02
-1.185544799502475377e-01
-1.422997388716867873e-01
-1.632821803563620500e-01
-1.806350777137938346e-01
-1.942384369207897366e-01
-2.038571272650742117e-01
-2.089327966345015941e-01
-2.100201197068315428e-01
-2.063722197881061593e-01
-1.984798265337892609e-01
-1.863264256279053011e-01
-1.700184419912085521e-01
-1.502617670706747344e-01
-1.269925647209538544e-01
-1.010467464558023470e-01
-7.272793523526106807e-02
-4.274396278832134910e-02
-1.171400124474973603e-02
1.971789901181583704e-02
5.083726635416785378e-02
8.103594705607344850e-02
1.094967089687473027e-01
1.358490200048190766e-01
1.591690803346506033e-01
1.792941215643719666e-01
1.955048367264257125e-01
2.074491067118451326e-01
2.150603844613309668e-01
2.177268531142409480e-01
2.159388323380542762e-01
2.091901725506348786e-01
1.978520473783189626e-01
1.821441710812476966e-01
1.621661741907089449e-01
1.387558723249951165e-01
1.119644833491512115e-01
8.265446551809475795e-02
5.129252139221530948e-02
1.864685554850449914e-02
-1.459401263676737143e-02
-4.770395499854590549e-02
-7.990590880164125109e-02
-1.105758550945507845e-01
-1.388192576746477558e-01
-1.643144328373469243e-01
-1.861174178682783176e-01
-2.040291447488258858e-01
-2.174646434356899971e-01
-2.260405558158926353e-01
-2.298497428246682461e-01
-2.283481990674623707e-01
-2.220550185263822640e-01
-2.107015717395550047e-01
-1.947053517525030863e-01
-1.744873018167062417e-01
-1.502727134271243381e-01
-1.229733262313244674e-01
-9.284876431717710432e-02
-6.083327422828035957e-02
-2.750527853516258545e-02
6.281057840054261876e-03
3.982047347406800220e-02
7.233835625446238815e-02
1.030507282819304454e-01
1.314068567171531310e-01
1.565089805561460934e-01
1.782105654792364158e-01
1.956173507446769266e-01
2.086261044765889139e-01
2.168681544341432288e-01
2.200196487271018353e-01
2.184276428072222109e-01
2.116358437850912044e-01
2.002670649351926402e-01
1.842672280005262231e-01
1.640957908531432419e-01
1.403433118404613933e-01
1.132783668196854637e-01
8.383702540284988791e-02
5.237258768729081970e-02
1.980541938553340153e-02
-1.327710294466104279e-02
-4.603908934828418453e-02
-7.782126455753404781e-02
-1.078965806675117323e-01
-1.355140266587700482e-01
-1.602450983272959428e-01
-1.812028390283735302e-01
-1.984094181076360153e-01
-2.110175209781265937e-01
-2.189720485989373744e-01
-2.221006549799252605e-01
-2.200774757664319126e-01
-2.134565059516926600e-01
-2.018304397224473523e-01
-1.858592177432563108e-01
-1.656918348331071489e-01
-1.417809813121588547e-01
-1.148641556586068729e-01
-8.525685221375550737e-02
-5.389268415886942776e-02
-2.124301884866171969e-02
1.179500454785638308e-02
4.462445630334185842e-02
7.640384363558133662e-02
1.065332211020727227e-01
1.343211721022778971e-01
1.590601777289632202e-01
1.804653828933840409e-01
1.976903890491311655e-01
2.108481202405023680e-01
2.192511168408325939e-01
2.228720452971154065e-01
2.217485508307793785e-01
2.155432477988061812e-01
2.050005958075755419e-01
1.897484357970777857e-01
1.704631261498671113e-01
1.474482016667849615e-01
1.211026413727784440e-01
9.227010986874417675e-02
6.124267911169303108e-02
2.893145585763118657e-02
-4.148678326362863211e-03
-3.714422306827866449e-02
-6.948499247847297888e-02
-1.003455837828960140e-01
-1.291581623864386241e-01
-1.552927962387285199e-01
-1.780334756380825834e-01
-1.972295230564256874e-01
-2.120191595458546241e-01
-2.225470321314845235e-01
-2.282594559664492539e-01
-2.290759775701559364e-01
-2.252373476826059207e-01
-2.163579661104714780e-01
-2.032365941184650637e-01
-1.856364508814635772e-01
-1.641713182866613441e-01
-1.393337023156216159e-01
-1.114124528133692976e-01
-8.138871018467662422e-02
-4.951129222939762431e-02
-1.665576303628174548e-02
1.660651933227319521e-02
4.953884345944851997e-02
8.156686788144093536e-02
1.119662038011342564e-01
1.402173357002094167e-01
1.657947921555053550e-01
1.880337000537713465e-01
2.069230884010933857e-01
2.216385772424402933e-01
2.323372738232067913e-01
2.386105883154050478e-01
2.402866232401419111e-01
2.377548991174918691e-01
2.305158488270477590e-01
2.192995064535093186e-01
2.039144358758998021e-01
1.847637048342953836e-01
1.623957067526116682e-01
1.368778221051528132e-01
1.091001019079029938e-01
7.924103430159203099e-02
4.800183566327091700e-02
1.593930556799637299e-02
-1.637002109577896658e-02
-4.835053246559467555e-02
-7.935948382456112227e-02
-1.088602822849288609e-01
-1.363403765290228109e-01
-1.610722456774330846e-01
-1.830306747746386353e-01
-2.013032469754404419e-01
-2.158894264686010422e-01
-2.263888191455990795e-01
-2.324173598841790256e-01
-2.343765878490584320e-01
-2.316038221232369632e-01
-2.246818532291788018e-01
-2.134544535937340781e-01
-1.981401713181462909e-01
-1.793625386793528120e-01
-1.570574751639429167e-01
-1.321031429679939140e-01
-1.046986072397727840e-01
-7.549989390999148342e-02
-4.512914596294487213e-02
-1.409186201388668014e-02
1.693216917984034786e-02
4.738530669475365942e-02
7.664854577760482623e-02
1.042593957861915610e-01
1.294876482930290562e-01
1.522489862619159917e-01
1.717486251631111516e-01
1.878518223588573344e-01
2.003014647413245697e-01
2.085888675619090582e-01
2.132040346508821960e-01
2.134287534459173297e-01
2.097194585576567516e-01
2.020178940007723578e-01
1.903392577243445960e-01
1.753743374493499929e-01
1.568860933246226663e-01
1.356522075848957398e-01
1.118451052869289530e-01
8.595548981971978808e-02
5.860689708193884961e-02
3.013883777983702300e-02
1.236332045918053790e-03
-2.764991097085565952e-02
-5.589333451911344952e-02
-8.306694099367090134e-02
-1.084696695379985809e-01
-1.318769846660863554e-01
-1.526081437211533331e-01
-1.703324536958404911e-01
-1.848495007837792359e-01
-1.955105635563268718e-01
-2.026944626072182676e-01
-2.057044767831398280e-01
-2.047707651174220100e-01
-1.999256892364468519e-01
-1.909664770414222779e-01
-1.786615386517112491e-01
-1.626598125828703778e-01
-1.436470088919441501e-01
-1.218822921137109189e-01
-9.771632736284910359e-02
-7.187554854505834312e-02
-4.459971290423452028e-02
-1.659918162081699955e-02
1.168117401959564705e-02
3.963305165283140252e-02
6.681707882077467242e-02
9.258518279263713846e-02
1.166326942503875808e-01
1.383963883256950078e-01
1.574455648090071491e-01
1.736863366882575588e-01
1.864199457077470867e-01
1.959400513144628486e-01
2.016666579875475707e-01
2.036339583852226076e-01
2.019972885934380180e-01
1.963475331650919031e-01
1.874268947638013938e-01
1.748168025837130712e-01
1.590008156469044087e-01
1.402731648248186636e-01
1.187067531989753066e-01
9.508808240342192519e-02
6.943179077941845356e-02
4.237989797621363741e-02
1.434425611915790544e-02
-1.417663424005866091e-02
-4.270061528555907371e-02
-7.065256429893040924e-02
-9.761598891435468994e-02
-1.230514948381463136e-01
-1.463755566408355691e-01
-1.674545044449941011e-01
-1.854537744525513177e-01
-2.004379429227745590e-01
-2.118274795440059088e-01
-2.193561516715433202e-01
-2.231875366650746262e-01
-2.226830914101967651e-01
-2.184146379469892041e-01
-2.099723317953193225e-01
-1.976103824505107409e-01
-1.817014894374588407e-01
-1.621452938247797126e-01
-1.397567540931796415e-01
-1.145349523111126033e-01
-8.710227604346582053e-02
-5.795039475310898025e-02
-2.754766173145543895e-02
3.486968333313369972e-03
3.460717174711444577e-02
6.524499514752421514e-02
9.485508710576942559e-02
1.227208153659038459e-01
1.486555890112555289e-01
1.717552702720142599e-01
1.918836820058749948e-01
2.085060067895141700e-01
2.211338353664445699e-01
2.299453135415144012e-01
2.341610836743026891e-01
2.341900491542886487e-01
2.296589526346533294e-01
2.206429104661469798e-01
2.075552477963334419e-01
1.901850477138839202e-01
1.693132945372337328e-01
1.449603777377388991e-01
1.177474519961761446e-01
8.821713858154181520e-02
5.685847311277818228e-02
2.442006794313805740e-02
-8.542193794478222801e-03
-4.126579962220129627e-02
-7.318247377798392517e-02
-1.034028852748676425e-01
-1.316570404319694354e-01
-1.569753367037389769e-01
-1.790131116008205625e-01
-1.973154786660030746e-01
-2.112086040541920617e-01
-2.209616417097065300e-01
-2.257434966403570331e-01
-2.259012914460152566e-01
-2.212406967074287134e-01
-2.117530681237174972e-01
-1.980688885895242057e-01
-1.799515778276768452e-01
-1.582658046861070145e-01
-1.331638782473378857e-01
-1.052695547866662612e-01
-7.528026951476818329e-02
-4.362855366122426332e-02
-1.117578326341656103e-02
2.157834393498210546e-02
5.383947251649458254e-02
8.508069677566353073e-02
1.144983992923990362e-01
1.417600949425967261e-01
1.661099030357016948e-01
1.871409689035238577e-01
2.045833013842771331e-01
2.177305898130414419e-01
2.269831319109540391e-01
2.315403037646567852e-01
2.316752885676079399e-01
2.273609142928543214e-01
2.184185617564039505e-01
2.056114846341343116e-01
1.885693892017757389e-01
1.680531640913495439e-01
1.442724803090993935e-01
1.176410706298468556e-01
8.891428049864408267e-02
5.835269689917749192e-02
2.676019512567112679e-02
-5.394547488616625863e-03
-3.741923466837052820e-02
-6.878241655091901774e-02
-9.876105816515245994e-02
-1.269641962694552095e-01
-1.527023967793434966e-01
-1.754926325617738592e-01
-1.950868946260884418e-01
-2.107294105884785773e-01
-2.226694062366561255e-01
-2.301826876774462072e-01
-2.333545862924732428e-01
-2.322035760225924783e-01
-2.263915880528851732e-01
-2.166870774636512065e-01
-2.026479894576534158e-01
-1.849251769136934787e-01
-1.637774946435451018e-01
-1.395093726856284355e-01
-1.129149870727012839e-01
-8.419383770955116142e-02
-5.414308318861971170e-02
-2.322760050232483553e-02
7.842824917031750859e-03
3.855869219226545908e-02
6.818733163918558327e-02
9.626656074313469369e-02
1.221873758692011980e-01
1.453305785700362562e-01
1.655424444202009682e-01
1.819868677141940061e-01
1.948054037531720128e-01
2.033861552712941112e-01
2.076247781217394894e-01
2.076494712276068799e-01
2.030086945410348731e-01
1.943720084052757702e-01
1.813813372992461037e-01
1.645464741637084061e-01
1.441911410171441144e-01
1.205319021934408985e-01
9.439766810304328626e-02
6.596143344999647051e-02
3.605084600418359542e-02
5.138600274666726975e-03
-2.599751804555192752e-02
-5.681993496055075948e-02
-8.655751537627132119e-02
-1.145960161570403063e-01
-1.403875799968675731e-01
-1.631156670025403210e-01
-1.826843767003811236e-01
-1.981744246778212870e-01
-2.095818452521973629e-01
-2.164557651830608942e-01
-2.185066502926007459e-01
-2.160423331661473489e-01
-2.085716246120982442e-01
-1.967357729631850072e-01
-1.804020700096390095e-01
-1.600069954398346261e-01
-1.361028608239122917e-01
-1.089211975947612654e-01
-7.936572492401676449e-02
-4.776806703457947556e-02
-1.497348817055647180e-02
1.842266789791659545e-02
5.162812641542899317e-02
8.404880938941143576e-02
1.149149266907882744e-01
1.435809998568377543e-01
1.695641388666833116e-01
1.920258231554075878e-01
2.109947971483839835e-01
2.255696479145462008e-01
2.357548512686910569e-01
2.412704356981205389e-01
2.417786435565330017e-01
2.377717517316265683e-01
2.287376869868929519e-01
2.153196192986019109e-01
1.975225089459744232e-01
1.757030861606417860e-01
1.505383243345299049e-01
1.221955083864815494e-01
9.157145683591332019e-02
5.904223710406208969e-02
2.539740982850390363e-02
-8.734777143946853561e-03
-4.260995910340506510e-02
-7.561317701250394596e-02
-1.070072461417284071e-01
-1.361251677645757829e-01
-1.625259359262812564e-01
-1.853370952936855554e-01
-2.046139599088307170e-01
-2.194636259344472373e-01
-2.298393030717787999e-01
-2.355656751492870571e-01
-2.361969926271475506e-01
-2.323990988811908687e-01
-2.235709272337179643e-01
-2.103639641611697586e-01
-1.929072763383243017e-01
-1.714632942354672451e-01
-1.468826295130474247e-01
-1.192335474711125054e-01
-8.945263665795470664e-02
-5.794725699540966002e-02
-2.544477229293922935e-02
7.384289819679305811e-03
3.990693202990877597e-02
7.148654768391446424e-02
1.015135538389489445e-01
1.293315436567375742e-01
1.546346639730801775e-01
1.766079035892409443e-01
1.953058696342410694e-01
2.100227044873008153e-01
2.206178592041879716e-01
2.271085883546875017e-01
2.289204706927885913e-01
2.267647151004903439e-01
2.200225452235696211e-01
2.091601903987143629e-01
1.943935085937740226e-01
1.756776162730315782e-01
1.539322569702114007e-01
1.289671127893258773e-01
1.015604797588143537e-01
7.208559266363431806e-02
4.103486382949141087e-02
9.082140887278086772e-03
-2.330246144119518803e-02
-5.548743826562981679e-02
-8.690905071103802171e-02
-1.168746194158369334e-01
-1.450648012849152235e-01
-1.705921115287032663e-01
-1.933251155483945993e-01
-2.125642525625549006e-01
-2.278884515675946854e-01
-2.393145575489180055e-01
-2.460327618908192959e-01
-2.485385458882152232e-01
-2.462242806625517533e-01
-2.392582584495719922e-01
-2.279372305321628600e-01
-2.119835134818752742e-01
-1.923167528788627401e-01
-1.687296246994396953e-01
-1.419079994354515151e-01
-1.123531800537604930e-01
-8.045448494085891133e-02
-4.706247647881468821e-02
-1.259221224225132857e-02
2.221223011588726801e-02
5.673989478064694891e-02
9.023309616030257552e-02
1.222994637220312930e-01
1.520338528838859615e-01
1.791413911250579472e-01
2.029955375471609313e-01
2.229988130841036309e-01
2.392325411754027131e-01
2.507780260593819865e-01
2.579939153673688756e-01
2.603578522030684517e-01
2.578203061100629578e-01
2.507750848901356688e-01
2.387571334619931207e-01
2.226123521850605913e-01
2.021239149858520268e-01
1.778265474114395783e-01
1.502589638397779093e-01
1.196476531953981903e-01
8.688912041544448461e-02
5.229869225843546132e-02
1.665901807645522176e-02
-1.943202081019873573e-02
-5.518747697447681788e-02
-9.013110196002330210e-02
-1.233543663886474129e-01
-1.543498079909804144e-01
-1.825175640867070515e-01
-2.070251081539599136e-01
-2.279248034541917489e-01
-2.441502443277495660e-01
-2.558234019189172259e-01
-2.624761772237745872e-01
-2.637987302840595349e-01
-2.602458449453121103e-01
-2.512088662091648272e-01
-2.374322408060215162e-01
-2.187881593167959049e-01
-1.957106757074578707e-01
-1.688552681587477677e-01
-1.384151876315693197e-01
-1.053629580018319578e-01
-7.007245642191260726e-02
-3.342598030362732564e-02
3.921013444683041360e-03
4.111421157884265210e-02
7.752319461215553820e-02
1.122888676407381159e-01
1.446989634490721266e-01
1.742353933366164731e-01
1.999130537131831309e-01
2.218234591914038378e-01
2.388873823698199339e-01
2.510801794651966179e-01
2.581034399566911608e-01
2.595060989788998129e-01
2.558626982640602732e-01
2.465433869255678756e-01
2.322240358291678963e-01
2.129243311144759232e-01
1.890212908545456927e-01
1.612656364614143689e-01
1.298632052825077210e-01
9.581213379788322548e-02
5.955800535755800817e-02
2.206052560414831915e-02
-1.599699856786879204e-02
-5.368556567070389973e-02
-9.026103507104682455e-02
-1.248888617961953773e-01
-1.566815229727983594e-01
-1.851795803466147194e-01
-2.093232019582896009e-01
-2.290734869056285372e-01
-2.435156616820917108e-01
-2.524797822669109792e-01
-2.558414884860223948e-01
-2.531257763139989625e-01
-2.450447603414986075e-01
-2.310968777839329247e-01
-2.120084505643907435e-01
-1.880512263588006716e-01
-1.597154863609626108e-01
-1.279442912427964929e-01
-9.311428952549609395e-02
-5.635157850261696827e-02
-1.826388732740737847e-02
2.005554712291444941e-02
5.787553579078170973e-02
9.419808018268749361e-02
1.282348108124691799e-01
1.592426339787735845e-01
1.863198355693660435e-01
2.091941296113989102e-01
2.269194829823190651e-01
2.395390690011957591e-01
2.464576657423891426e-01
2.476004839984060346e-01
2.431479861277246746e-01
2.328286612679905943e-01
2.174473231207997292e-01
1.968511795104490314e-01
1.718402326625623200e-01
1.429001542415438419e-01
1.106248114235797442e-01
7.603371037781897490e-02
3.960240871012425667e-02
2.457713428323946014e-03
-3.477303240498631764e-02
-7.100088200818553685e-02
-1.056015542613817360e-01
-1.376051621319192286e-01
-1.663173643615785957e-01
-1.911451632634010023e-01
-2.112665465967717149e-01
-2.266341624745747407e-01
-2.364209696898834645e-01
-2.407951163018632879e-01
-2.394262431023291837e-01
-2.323520114063778175e-01
-2.200082128564938844e-01
-2.022936526545797420e-01
-1.801063269334191030e-01
-1.535793535690279099e-01
-1.235891373958147160e-01
-9.079863277761728024e-02
-5.591966393446325123e-02
-1.996574749462420861e-02
1.643832491417546171e-02
5.220428119554113705e-02
8.671952026526545676e-02
1.189246508902034316e-01
1.483618220206417149e-01
1.741277510012986807e-01
1.956932704510362386e-01
2.126882447475859361e-01
2.244298651094244201e-01
2.311922485877958566e-01
2.323022964470982110e-01
2.281249435806443904e-01
2.186255193323848600e-01
2.039661510323284854e-01
1.848441053462455685e-01
1.612805699204370169e-01
1.342437776211004019e-01
1.040582045565340841e-01
7.159650486655086410e-02
3.759128542888499208e-02
2.754996601321906338e-03
-3.198619614734082156e-02
-6.600012621818482361e-02
-9.831663928818994147e-02
-1.284431272271280289e-01
-1.554198162849119991e-01
-1.789518917744168380e-01
-1.982864818650212635e-01
-2.130304192266938290e-01
-2.230431707034581656e-01
-2.277255968258253827e-01
-2.275930760838262290e-01
-2.220916329068356454e-01
-2.116834836096679606e-01
-1.965701491012407098e-01
-1.769127439439360239e-01
-1.536261172586207424e-01
-1.267452437525828923e-01
-9.724615815684314879e-02
-6.558764716595698319e-02
-3.255374254561517466e-02
1.082941737494999557e-03
3.467472065236829049e-02
6.740115104097715859e-02
9.867259295682473397e-02
1.276616277362521423e-01
1.540215370126486738e-01
1.769072251484806735e-01
1.961668932747049343e-01
2.112226876533699893e-01
2.217701673850053234e-01
2.278850928900848505e-01
2.290231745657365647e-01
2.257559609472231665e-01
2.176922830462761638e-01
2.052340960796548153e-01
1.887205849049809203e-01
1.682135293743584892e-01
1.446305973364971909e-01
1.179859430244854790e-01
8.911530451925814278e-02
5.849530436547785428e-02
2.675757900022784908e-02
-5.379873205321100693e-03
-3.734829293338828848e-02
-6.842472080412426161e-02
-9.806113747921668677e-02
-1.254823153022461835e-01
-1.504152169648670934e-01
-1.720155429663795532e-01
-1.901131240817284240e-01
-2.041947023775545489e-01
-2.138850059803052983e-01
-2.193272381645555158e-01
-2.199366416388190415e-01
-2.162043039809437017e-01
-2.078511129620218556e-01
-1.951863628225764535e-01
-1.786440079913615697e-01
-1.582755093232529886e-01
-1.349594800396410055e-01
-1.088382615471813614e-01
-8.071414730870349330e-02
-5.113954871112902367e-02
-2.075147505516214408e-02
9.713391422088074600e-03
3.967626088409276219e-02
6.840120930889884154e-02
9.539570107133255039e-02
1.198784971854264247e-01
1.416849380155516536e-01
1.600272450259544454e-01
1.747555107394398455e-01
1.855602918574365545e-01
1.920601125935514353e-01
1.946104938838911225e-01
1.926799235640843100e-01
1.867813245178426840e-01
1.768410894112530940e-01
1.631053494464204945e-01
1.461591976187260333e-01
1.260077416735756739e-01
1.034792787023461891e-01
7.876234388749260573e-02
5.253068723034518689e-02
2.531140463183155498e-02
-2.381397088731723732e-03
-2.991428211033894669e-02
-5.681402774939450784e-02
-8.243174829230898171e-02
-1.064193596195461278e-01
-1.280477547506642111e-01
-1.472290978013597873e-01
-1.632727847070959415e-01
-1.759717101771874903e-01
-1.851522861509389273e-01
-1.902998950852075044e-01
-1.918559681001548167e-01
-1.892073101875410279e-01
-1.827217567969200152e-01
-1.724105631906267810e-01
-1.583283156579025630e-01
-1.410849134567417340e-01
-1.206132189851514547e-01
-9.761616836840694700e-02
-7.236065682059017456e-02
-4.543869473961195671e-02
-1.739802311491445153e-02
1.120821524884541009e-02
3.974813216336653410e-02
6.767426744353807755e-02
9.425682387974593235e-02
1.191360886682995834e-01
1.414707953444248323e-01
1.610760922283244745e-01
1.772682494826649524e-01
1.896922356492302952e-01
1.982284407880430810e-01
2.022896464391454596e-01
2.022574481733939167e-01
1.976334408682277055e-01
1.887159421148512095e-01
1.756546690764197449e-01
1.585310521069012712e-01
1.380659660621637586e-01
1.143093461011630702e-01
8.804747521468725413e-02
5.970033231896652165e-02
3.000318164693920042e-02
-4.102777963998077704e-04
-3.083905792626151499e-02
-6.053870137724100264e-02
-8.891782048358982948e-02
-1.151097155503096325e-01
-1.388037555706591597e-01
-1.591005732830136910e-01
-1.757962766000483734e-01
-1.883455371315965188e-01
-1.963744230019273673e-01
-1.999803437738030543e-01
-1.986502783902399372e-01
-1.928834244551387855e-01
-1.824370818467275779e-01
-1.677044349108854915e-01
-1.491063347000469719e-01
-1.268370759210558640e-01
-1.017858375892588263e-01
-7.417224790162163517e-02
-4.487011208042358812e-02
-1.442427296213094623e-02
1.641441764427618855e-02
4.696409801497357372e-02
7.656934175992397007e-02
1.045127922518823138e-01
1.303168410958250867e-01
1.531895246024214674e-01
1.730157655423794627e-01
1.890091384794446161e-01
2.010917850922149253e-01
2.089582786371684819e-01
2.122901252881493339e-01
2.114569049622029295e-01
2.059826670193987963e-01
1.964481044165796442e-01
1.827834301053096189e-01
1.653097455906994417e-01
1.446147810142198176e-01
1.207830326542164712e-01
9.467456184639437555e-02
6.652792468733681464e-02
3.705096480829858652e-02
6.813233165061022278e-03
-2.360474735447355699e-02
-5.358402349966084888e-02
-8.254313071454227879e-02
-1.098812271301347621e-01
-1.351670233355125872e-01
-1.576649550265945554e-01
-1.773688497383787421e-01
-1.934682889756658142e-01
-2.059029848596739265e-01
-2.144335304373911621e-01
-2.186431284611112802e-01
-2.190278784212079943e-01
-2.149822446816707366e-01
-2.070372773572859149e-01
-1.951845906819109078e-01
-1.795663728449598817e-01
-1.608819646203890619e-01
-1.390448359542308110e-01
-1.148646602059332500e-01
-8.859084821100096652e-02
-6.077592778661482925e-02
-3.203266607905644325e-02
-2.794653229085314328e-03
2.633495835389212947e-02
5.484750392464379787e-02
8.219016049080757336e-02
1.079932308129838148e-01
1.315588009222361798e-01
1.528592972049546694e-01
1.711742729886536196e-01
1.863392679317783518e-01
1.982194452447845201e-01
2.061986590983369005e-01
2.108648185119675333e-01
2.114364889675758585e-01
2.082721690484553856e-01
2.014017252353458853e-01
1.906181995306764909e-01
1.767063518334870131e-01
1.592555862687127233e-01
1.389299180443995807e-01
1.159263244740796756e-01
9.052284254770637251e-02
6.338192694537483907e-02
3.469882946570230359e-02
5.096850870116062526e-03
-2.498206612006427518e-02
-5.498160442166430406e-02
-8.447019551472623178e-02
-1.127401871958277624e-01
-1.395299281873174091e-01
-1.641303362610446459e-01
-1.860839037464604440e-01
-2.051865789363778725e-01
-2.205930197648014179e-01
-2.325821959253044913e-01
-2.403526462639323513e-01
-2.438973955116143788e-01
-2.432441434668989877e-01
-2.378868264116039688e-01
-2.285905244466734376e-01
-2.148149073575379431e-01
-1.970946881333741074e-01
-1.757192157843150138e-01
-1.508293696081354218e-01
-1.232753179564222007e-01
-9.317956418568688892e-02
-6.129935782450127157e-02
-2.817292669285924658e-02
5.568790395172322494e-03
3.931077439214958336e-02
7.232978770526662937e-02
1.041247754992674079e-01
1.339996362958241483e-01
1.613224179360866206e-01
1.858547070068076734e-01
2.067010424566670668e-01
2.239633364018638884e-01
2.369491102392479454e-01
2.454919427712632662e-01
2.497041880495471655e-01
2.490014601576798492e-01
2.440796198107636483e-01
2.344639456508790243e-01
2.205910318681056637e-01
2.028018220365613855e-01
1.811119316855355765e-01
1.564445686011078085e-01
1.287845599171044686e-01
9.891076955697757078e-02
6.730381135190208197e-02
3.455459563863632483e-02
1.313510444903659424e-03
-3.180444641111557225e-02
-6.417174610943585100e-02
-9.520229875808451647e-02
-1.241244023946976444e-01
-1.507298936341666951e-01
-1.740573991754622019e-01
-1.940155114664431080e-01
-2.099993792316802999e-01
-2.215781875206513929e-01
-2.289332218809936870e-01
-2.312995233249997562e-01
-2.292243939518915918e-01
-2.222930168072723145e-01
-2.107296334194659893e-01
-1.949852121042989772e-01
-1.749253860750073775e-01
-1.514848626874387982e-01
-1.246778037377056225e-01
-9.525682411296221286e-02
-6.379974437688906708e-02
-3.084357661410706830e-02
2.796636042278799732e-03
3.657869877050428514e-02
6.972928852726130444e-02
1.016781319753904123e-01
1.315957266948934168e-01
1.592044878503511285e-01
1.836089290919307171e-01
2.045398653192354033e-01
2.215390042087643230e-01
2.340626034404258426e-01
2.423394784081718267e-01
2.456433375955764387e-01
2.443707468717687958e-01
2.382908765277724217e-01
2.275124378744093345e-01
2.125572172345016053e-01
1.933013322402406808e-01
1.705754926244886782e-01
1.445174046417011526e-01
1.158192950995770160e-01
8.508092219030752301e-02
5.285944615168403082e-02
1.993906646018033663e-02
-1.310112483077650880e-02
-4.544869890877534235e-02
-7.657185328002960589e-02
-1.055728166549030067e-01
-1.321750895199622078e-01
-1.554961691143664781e-01
-1.751773270585081921e-01
-1.908655365797250480e-01
-2.019165123382010152e-01
-2.086869303951182086e-01
-2.104267748386964842e-01
-2.075162495124451278e-01
-1.998823133679946684e-01
-1.876031908634872569e-01
-1.713561206752862165e-01
-1.510432415916000415e-01
-1.275423742857453857e-01
-1.011093668687706726e-01
-7.248279049945335895e-02
-4.231792852340252042e-02
-1.121280875747980577e-02
2.001766975349437983e-02
5.082702821907112561e-02
8.032941946676619427e-02
1.081441793220765391e-01
1.333376150404491367e-01
1.556908311980995108e-01
1.744934665093267612e-01
1.893039012378336383e-01
2.000799503343363706e-01
2.060670744492780759e-01
2.078087818161138967e-01
2.046495537081720051e-01
1.968746124326699876e-01
1.847149955871597582e-01
1.679897514168091355e-01
1.476857152611240065e-01
1.235348065977502907e-01
9.635202527674865958e-02
6.656866580140483047e-02
3.463899155427275361e-02
1.434552424670243811e-03
-3.266965595919547882e-02
-6.686801529520053355e-02
-1.005820091453990539e-01
-1.330999782200016912e-01
-1.639261165648677743e-01
-1.922871183422634744e-01
-2.178673736322306875e-01
-2.400293553933788848e-01
-2.583240037655059052e-01
-2.726777002990994347e-01
-2.823854037811917572e-01
-2.878035818721599859e-01
-2.884109958792547279e-01
-2.843437976986167293e-01
-2.758442458732781599e-01
-2.627020209406382700e-01
-2.456994448391495722e-01
-2.246883154420463435e-01
-2.002949982960017805e-01
-1.729302521934250880e-01
-1.430387994380922234e-01
-1.112656491211553023e-01
-7.810423830482132734e-02
-4.421036511128370594e-02
-1.009445343906281711e-02
2.336066012346363352e-02
5.600862023845509796e-02
8.673141525741218105e-02
1.152982356206365688e-01
1.410704648335502909e-01
1.632177415405343668e-01
1.819571429787582573e-01
1.960346281596028750e-01
2.057685349740943637e-01
2.104695579212356726e-01
2.098570503332549131e-01
2.042054537500370137e-01
1.928757279522789192e-01
1.764825788919302529e-01
1.547151532461826795e-01
1.280881691068575245e-01
9.678456171583729728e-02
6.148550784004355729e-02
2.256765108043290446e-02
-1.918070254737243296e-02
-6.267075491232620976e-02
-1.076695012529529094e-01
-1.520074572226385035e-01
-1.961043637585555000e-01
-2.376049656856185355e-01
-2.755378089581614898e-01
-3.094259561415020343e-01
-3.365203556751239500e-01
-3.578052256675191001e-01
-3.703598962462515409e-01
-3.739716334696302491e-01
-3.681009208315687564e-01
-3.508976221637214454e-01
-3.236241893612926690e-01
-2.844885203332930823e-01
-2.343294692323207307e-01
-1.732804777914276895e-01
-1.015286299420797012e-01
-2.046016885250880046e-02
6.914796300025577436e-02
1.658390173022272762e-01
2.679017216365848220e-01
3.732218208140378191e-01
4.803261051679916793e-01
5.857979982219143622e-01
6.886380668381624215e-01
7.853423633010783167e-01
8.733870239438081828e-01
9.514391858335582430e-01
1.015141141596751728e+00
1.065105349609952956e+00
1.097204568822881754e+00
1.110552740125721805e+00
1.104663593647927655e+00
1.077027939457553707e+00
1.029801941279438360e+00
9.610285411647692122e-01
8.723809680292553548e-01
7.651352505184373376e-01
6.401837320034345913e-01
5.009423514872728411e-01
3.489612437535060119e-01
1.876880641199220878e-01
2.038093521719142043e-02
-1.496710820915007067e-01
-3.187891611620642385e-01
-4.830926303414270206e-01
-6.397407619549675406e-01
-7.846021592823735347e-01
-9.150050517275210016e-01
-1.028485723074173297e+00
-1.121733100120032356e+00
-1.194835970375401013e+00
-1.244613630799640713e+00
-1.271630042161258745e+00
-1.275567604420192458e+00
-1.255977487933156889e+00
-1.216185041327679794e+00
-1.155146039794823665e+00
-1.076671434071222011e+00
-9.822774567581997740e-01
-8.744278105780370902e-01
-7.573368557748293428e-01
-6.323246705288804170e-01
-5.038041829822914597e-01
-3.740225248375312894e-01
-2.460964501535368720e-01
-1.229879852589644551e-01
-6.868822822350802160e-03
1.000418401793689849e-01
1.957149749536566397e-01
2.789172895880868697e-01
3.486728964711849899e-01
4.036970577581541764e-01
4.449949489106844180e-01
4.711350582114973151e-01
4.837346535726103069e-01
4.831796941171344062e-01
4.698594578275132605e-01
4.468875900469038709e-01
4.134620709741900768e-01
3.730175405068775762e-01
3.262464352614037888e-01
2.747889372456071011e-01
2.217155941715440171e-01
1.668417212281219086e-01
1.133651345142758227e-01
6.167416097643579898e-02
1.355629784695205897e-02
-2.965588156380094542e-02
-6.751425671558686226e-02
-9.868517536564158643e-02
-1.230934570662440275e-01
-1.399533978953415025e-01
-1.495729972089064330e-01
-1.515078904234361534e-01
-1.464407964551334151e-01
-1.344127573329462200e-01
-1.160135167920863242e-01
-9.226168718853600126e-02
-6.325508640933519278e-02
-3.071907993449163321e-02
5.246440156931819754e-03
4.321616705097802713e-02
8.228614370077141915e-02
1.217943526610308913e-01
1.602344598496278916e-01
1.973568023253450820e-01
2.318648951540961400e-01
2.633123030074195903e-01
2.908829483724774678e-01
3.140871809570301987e-01
3.324876702386370120e-01
3.456381053352241550e-01
3.535062817705350025e-01
3.556426942870434815e-01
3.525268879975002045e-01
3.437853428370680753e-01
3.298816203067336250e-01
3.110642723646260821e-01
2.875222768982731436e-01
2.601095197116047864e-01
2.289229871838739383e-01
1.948346072365640946e-01
1.583481348796206278e-01
1.201039088888954942e-01
8.089583572770364661e-02
4.135101521038675454e-02
2.139413829446212834e-03
-3.595491348458595970e-02
-7.233309773199220194e-02
-1.064262883207006682e-01
-1.374067016907868921e-01
-1.652147291419254205e-01
-1.889037007242976851e-01
-2.084055648258195115e-01
-2.234010308226181962e-01
-2.333791364681099822e-01
-2.389277500544722543e-01
-2.392696323163628902e-01
-2.350381403864008067e-01
-2.261787740095808630e-01
-2.128841400177326482e-01
-1.959884936024332003e-01
-1.753444324817257094e-01
-1.519731204875476860e-01
-1.260999752219392200e-01
-9.853810022642528477e-02
-6.992818018310575923e-02
-4.084825757211518749e-02
-1.213308102612586925e-02
1.575623312538654286e-02
4.191922285826765737e-02
6.607831871171920834e-02
8.735425679565322898e-02
1.055396651119785423e-01
1.200758664797417774e-01
1.305551426050348685e-01
1.370384891667562055e-01
1.389197589393336152e-01
1.366900554868862860e-01
1.299376668274918600e-01
1.190061785856894039e-01
1.041835711591414526e-01
8.553518747696342572e-02
6.392466332423957232e-02
3.936814622785705930e-02
1.274085830144716658e-02
-1.554086566871204500e-02
-4.474843642312975600e-02
-7.418159977460794807e-02
-1.032540007658525327e-01
-1.311262128816171879e-01
-1.573414971581252042e-01
-1.809780938017277185e-01
-2.017992849751030215e-01
-2.189662370461208651e-01
-2.321896689250971813e-01
-2.411161226943876468e-01
-2.452532861294962618e-01
-2.448342174291281981e-01
-2.393515587192801553e-01
-2.292156926889777901e-01
-2.143785036965837332e-01
-1.950944102908445110e-01
-1.719134337808130297e-01
-1.450335583910563608e-01
-1.152557847741282337e-01
-8.298730175827773170e-02
-4.900273231832086296e-02
-1.394841870212870649e-02
2.136508671068571008e-02
5.631840574475077688e-02
9.006678376152299492e-02
1.219178025041313118e-01
1.513128215415198152e-01
1.773293699554846503e-01
1.999371835950868315e-01
2.181354266759445437e-01
2.318482202536920056e-01
2.407268158818068882e-01
2.443622363652049323e-01
2.431915944745037805e-01
2.366481284984351952e-01
2.253354363565813756e-01
2.092212200431784463e-01
1.886842518071505381e-01
1.643634508225118029e-01
1.364714931665591546e-01
1.059340612784376301e-01
7.313494436177769842e-02
3.899929112015199095e-02
4.132123293022704758e-03
-3.057693792103677310e-02
-6.443711386525019513e-02
-9.667012234648342250e-02
-1.264230256035261402e-01
-1.532731010461223509e-01
-1.761951854052350441e-01
-1.951660914532438174e-01
-2.092877670828359182e-01
-2.183860105310146960e-01
-2.223229191930848891e-01
-2.206142632607883680e-01
-2.139186495952110079e-01
-2.017130285296355741e-01
-1.846610744563703665e-01
-1.629755390869074283e-01
-1.370845207703781377e-01
-1.078472973335860008e-01
-7.558206936587086311e-02
-4.133546876253690883e-02
-5.646838092183026347e-03
3.045831800027798408e-02
6.630220668615183222e-02
1.009402612118017739e-01
1.336192988796676140e-01
1.636278304627932778e-01
1.900730036607262141e-01
2.126794169443432247e-01
2.304943726577580732e-01
2.435263322672071296e-01
2.511553369453710105e-01
2.532355741106695479e-01
2.499015011005658871e-01
2.408120977591652889e-01
2.266946377231744414e-01
2.073464044998168943e-01
1.834609210477649022e-01
1.554861697521309760e-01
1.239430161305787315e-01
8.978275066535351678e-02
5.347257724762977116e-02
1.606136111194256255e-02
-2.180862404091410411e-02
-5.906790398527472785e-02
-9.510853610341629683e-02
-1.289007117964972027e-01
-1.597700099290291220e-01
-1.870477215980905772e-01
-2.098605270999407413e-01
-2.281295499457502984e-01
-2.409046304672688432e-01
-2.483354830095885202e-01
-2.499724060935015757e-01
-2.457583341985345449e-01
-2.360903836511916154e-01
-2.207157018870520293e-01
-2.005267066053388891e-01
-1.755374902398598724e-01
-1.465523403326831620e-01
-1.142252041305420462e-01
-7.916390137367157465e-02
-4.241488161115558597e-02
-4.547873670007529512e-03
3.335029217192531092e-02
7.063373699678310302e-02
1.062243184052578115e-01
1.396294662844601575e-01
1.698625396578248292e-01
1.963347288260544055e-01
2.185954739620337151e-01
2.358057042549308591e-01
2.482169463681191957e-01
2.549341821199795355e-01
2.562478113029844629e-01
2.519937459381624834e-01
2.420909015393739594e-01
2.272688260583834996e-01
2.072274036793428920e-01
1.829250245664715280e-01
1.545353969676259709e-01
1.227226762623789824e-01
8.831123343285529614e-02
5.173633790236831231e-02
1.402146462564379803e-02
-2.428824182858990710e-02
-6.227538072195804020e-02
-9.929216679405694634e-02
-1.344415305430537444e-01
-1.672528526566767759e-01
-1.968707910065572442e-01
-2.227693793015985690e-01
-2.445917593484809860e-01
-2.615056098981685118e-01
-2.738958709238752398e-01
-2.808387157227376640e-01
-2.825983468663639808e-01
-2.791373713778328991e-01
-2.702070806036465100e-01
-2.567180137929218064e-01
-2.382042174505594190e-01
-2.155543406287814268e-01
-1.890378489692727815e-01
-1.590775512456257257e-01
-1.266368775030082272e-01
-9.192950972671190546e-02
-5.591821452306797169e-02
-1.913219371200233776e-02
1.771404604865012278e-02
5.395533356383414025e-02
8.888904088483906563e-02
1.220674283176892416e-01
1.527639127082147663e-01
1.805085499842533636e-01
2.050386542209274854e-01
2.255490369197337142e-01
2.423760546203959088e-01
2.546809310513791225e-01
2.625670309003420577e-01
2.660632186971039204e-01
2.646292341187952424e-01
2.592092289252834192e-01
2.490511116820957049e-01
2.347974396373873063e-01
2.166486630176955863e-01
1.945951824707297106e-01
1.696107444078669424e-01
1.414897066458884467e-01
1.110395246956352722e-01
7.864388581762771224e-02
4.477831341673788046e-02
1.011893296948240817e-02
-2.483780802926816023e-02
-5.952900672550764938e-02
-9.331232967150793201e-02
-1.255567159302177771e-01
-1.559239505585141572e-01
-1.834694158310883338e-01
-2.081720858408839803e-01
-2.291803673737007330e-01
-2.461489810313794990e-01
-2.590475631317428196e-01
-2.669850976727108360e-01
-2.705904424018781285e-01
-2.690673000652399338e-01
-2.626614927481298878e-01
-2.516406130104300587e-01
-2.356271122695048348e-01
-2.157194022953232704e-01
-1.915187743887392102e-01
-1.637904855908560720e-01
-1.330605497923640357e-01
-9.960902780960267933e-02
-6.446891221782458103e-02
-2.791038190702899158e-02
9.269136034111724598e-03
4.639642274737099115e-02
8.285282585245212772e-02
1.180597804601113410e-01
1.512548947001031152e-01
1.821301267338926166e-01
2.099896214876775247e-01
2.343752030961816502e-01
2.552394880481516637e-01
2.717362476774329849e-01
2.842657170352094198e-01
2.921900915548594213e-01
2.955220634463073814e-01
2.945817263852523737e-01
2.887854677618078014e-01
2.790605158857482060e-01
2.649340286533501398e-01
2.468740155414068660e-01
2.253565378721302803e-01
2.002593335131854779e-01
1.726016677425794565e-01
1.422869875320313948e-01
1.099616105531081578e-01
7.617453667080063828e-02
4.127764684990875566e-02
5.928428270442487324e-03
-2.936135445231657926e-02
-6.415238797033318008e-02
-9.779266472507908148e-02
-1.297175758125370670e-01
-1.597111465389673413e-01
-1.868292054483431386e-01
-2.110927554996324673e-01
-2.317705301181387512e-01
-2.484914832061830836e-01
-2.613652863966464679e-01
-2.695068680425514174e-01
-2.734547804263769422e-01
-2.725995892181085622e-01
-2.670766493768219618e-01
-2.572254327535912211e-01
-2.427008566386970045e-01
-2.243803843139176024e-01
-2.020770024844420476e-01
-1.764239182376012849e-01
-1.479224396140477182e-01
-1.169428316053711114e-01
-8.429583814830188260e-02
-5.041812575203508118e-02
-1.606015857673703806e-02
1.819519316622297822e-02
5.151411565550390037e-02
8.357338737217112623e-02
1.133921428919517638e-01
1.406219140704028092e-01
1.646983371090140480e-01
1.848902170355017915e-01
2.013883417700554901e-01
2.131789872483089709e-01
2.205680774002889422e-01
2.231278360614208367e-01
2.206978242348665020e-01
2.137904415708717920e-01
2.018829060329334624e-01
1.858065901897898442e-01
1.654333959459535208e-01
1.412713943231942437e-01
1.139351228643477043e-01
8.365419949661756505e-02
5.136220459950990858e-02
1.740183101331105320e-02
-1.737035203569980979e-02
-5.237170789831679940e-02
-8.676785357770810947e-02
-1.200157109014980961e-01
-1.512848188967055307e-01
-1.799306652456476030e-01
-2.054812254149478434e-01
-2.270178225960588492e-01
-2.446536819175477717e-01
-2.573922531765688859e-01
-2.652537829546322001e-01
-2.679873090117670387e-01
-2.652273850132615962e-01
-2.575502835578760141e-01
-2.444577053078402784e-01
-2.266415795703009550e-01
-2.042157104425976755e-01
-1.776102334667744032e-01
-1.475986881588178257e-01
-1.144915026992894269e-01
-7.924573100409482151e-02
-4.240011108293956221e-02
-4.891240835021015698e-03
3.253157920856120100e-02
6.931757798593674025e-02
1.046041180191585873e-01
1.373636393463177896e-01
1.668568659570617285e-01
1.927633431047164336e-01
2.149707019309365919e-01
2.329343090495523683e-01
2.451376031765626351e-01
2.515170052720581140e-01
2.528824186477827141e-01
2.501642236960748278e-01
2.427961094376005491e-01
2.284646585513172568e-01
2.079644130478790487e-01
1.843211925333179124e-01
1.602077529249648080e-01
1.337732770942707816e-01
1.000525902260491762e-01
5.974594515305398090e-02
2.173375244967346021e-02
-1.993439132011332049e-03
-7.294992590745508210e-03
-1.755509619987272174e-03
