BVP Green Neck Signal
9.200844914831373539e-03
4.462002959963407879e-03
-3.355558867374462857e-03
-1.121480321200264696e-02
-1.720370779020223562e-02
-2.156819084805437770e-02
-2.564067849916279451e-02
-2.967240246790649183e-02
-3.290040648587549965e-02
-3.461614131844742426e-02
-3.486437496199269737e-02
-3.423905727766789198e-02
-3.284245857969463750e-02
-3.042384377578796067e-02
-2.680294118725461833e-02
-2.213773389057209842e-02
-1.677500487076771449e-02
-1.086511406668498603e-02
-4.414714240230279384e-03
2.479833344937980820e-03
9.595359520389397726e-03
1.672136586036128067e-02
2.364413080094135769e-02
3.028916464994729080e-02
3.646775447919416852e-02
4.200435812407117553e-02
4.681221633677399435e-02
5.070753917744964812e-02
5.369480012351975085e-02
5.562072033297039281e-02
5.648120031948666159e-02
5.626524465101095940e-02
5.493201098986153635e-02
5.260913360079919054e-02
4.925332062357107299e-02
4.501551659269289324e-02
3.995496667280817871e-02
3.419333005326666286e-02
2.788639336096403534e-02
2.113507200827782415e-02
1.412826492520848423e-02
6.980620417257268548e-03
-1.139412226966824912e-04
-7.045820905835020222e-03
-1.362104370698540012e-02
-1.974173949548006096e-02
-2.525527475212066900e-02
-3.002674430469865624e-02
-3.401411012766808462e-02
-3.703656725491486640e-02
-3.914768795248160099e-02
-4.019838464638465780e-02
-4.020299478391042153e-02
-3.917808338810801344e-02
-3.706380610523389574e-02
-3.403063688851432067e-02
-3.000902318597049173e-02
-2.515793350279035487e-02
-1.954650127680591237e-02
-1.328513695197086619e-02
-6.546052011240355122e-03
5.777778384524791255e-04
7.888261866699617167e-03
1.526729430602392912e-02
2.250398797105162066e-02
2.949457632467954518e-02
3.602468412607653936e-02
4.198239318350107524e-02
4.722399792875899699e-02
5.157976691464628838e-02
5.503966631670672432e-02
5.739728018757606770e-02
5.870369200760292699e-02
5.884410188512273487e-02
5.780687879962753684e-02
5.566834692362627318e-02
5.235742002182253857e-02
4.806491069203413374e-02
4.276863221122328973e-02
3.662066944701387189e-02
2.975054258503491422e-02
2.226146141143020910e-02
1.436520789127379225e-02
6.168870664350985591e-03
-2.124051213725673508e-03
-1.036964308658365128e-02
-1.836102463597179268e-02
-2.599047641395147573e-02
-3.304266830633310198e-02
-3.940680010365713026e-02
-4.495257797460382176e-02
-4.950937101298967524e-02
-5.309462409796933402e-02
-5.550070584568656679e-02
-5.678084864030560203e-02
-5.684834915091801361e-02
-5.568098589522452874e-02
-5.338570078822620080e-02
-4.988215700444533635e-02
-4.535868710581220792e-02
-3.981382601820005612e-02
-3.338701484064558050e-02
-2.622709384358495877e-02
-1.842868448479476062e-02
-1.020778549919916511e-02
-1.681327883260063001e-03
6.944417449893678339e-03
1.551536733236153279e-02
2.382061711433538370e-02
3.174093954861584299e-02
3.905807016954878502e-02
4.564578533592034831e-02
5.137806612192158395e-02
5.607212850484894623e-02
5.975956643368647569e-02
6.222763272333513285e-02
6.352744276838670490e-02
6.359728666175998302e-02
6.241680215984929392e-02
6.012361950899861723e-02
5.664585290380666494e-02
5.218639923338393855e-02
4.677214631734357558e-02
4.055809926408075750e-02
3.371576402930246547e-02
2.634611617273665413e-02
1.868251493711724220e-02
1.083828913339148284e-02
3.032394061127237708e-03
-4.594703436590733513e-03
-1.184816022959064158e-02
-1.860099660106567798e-02
-2.468858383438646276e-02
-2.998116183849732636e-02
-3.440123387922829762e-02
-3.779456305461006971e-02
-4.020369173004119390e-02
-4.147976859397106697e-02
-4.167198511274206041e-02
-4.077099096032790054e-02
-3.877416435654557764e-02
-3.583708153150898940e-02
-3.192170767037563750e-02
-2.722230786475533099e-02
-2.179520307472633187e-02
-1.580071172086066830e-02
-9.401920200857061261e-03
-2.713815192770386957e-03
4.049957704185989764e-03
1.077975286104028256e-02
1.726082574796494740e-02
2.338659143309769831e-02
2.896933564710188480e-02
3.390317222387501800e-02
3.806292421392530601e-02
4.132848228863372081e-02
4.367368231985931104e-02
4.497359527047221223e-02
4.528356230937199967e-02
4.452591907495760670e-02
4.275964340796920005e-02
4.003074120029508770e-02
3.637499710212715315e-02
3.195608132051871303e-02
2.680366869533754026e-02
2.111453130350418594e-02
1.498139397733719985e-02
8.591259731554374765e-03
2.095066963612656277e-03
-4.355771051137551260e-03
-1.056406769947267760e-02
-1.642259967736288406e-02
-2.171444247695765092e-02
-2.637911242657271088e-02
-3.022834838040463351e-02
-3.319131954088681835e-02
-3.518643314340239026e-02
-3.611525866077077568e-02
-3.601695533188346843e-02
-3.479964237129925392e-02
-3.255688415885871906e-02
-2.928128244052317225e-02
-2.506175914517531217e-02
-2.000880056748653713e-02
-1.420250234116384250e-02
-7.831759330217184095e-03
-9.931629344731652057e-04
6.101469179040024116e-03
1.331820595862850259e-02
2.044897071740670036e-02
2.734086054225488838e-02
3.381738332580643686e-02
3.969857882064030397e-02
4.487873695506709726e-02
4.916262031241667302e-02
5.253205842100203832e-02
5.482004603354390798e-02
5.600992281857671701e-02
5.606700321922203356e-02
5.495445899209161489e-02
5.277307738024125672e-02
4.949088313614664891e-02
4.525876367457101063e-02
4.013178224872303301e-02
3.425773632278052150e-02
2.778837098156070398e-02
2.085476959227086646e-02
1.366440593844760534e-02
6.347610138082278308e-03
-8.722229792659502018e-04
-7.866705565616829293e-03
-1.442544656288773791e-02
-2.042611545450729107e-02
-2.570921869515630648e-02
-3.013655890637702978e-02
-3.364651642851348295e-02
-3.609037695373038673e-02
-3.750615316141674149e-02
-3.777873301051027505e-02
-3.695527351421439705e-02
-3.505268356380494138e-02
-3.209189439066256755e-02
-2.823268282850374677e-02
-2.348062274055079043e-02
-1.803622248170718562e-02
-1.198396836117503889e-02
-5.512336187879157169e-03
1.216410434315540363e-03
8.050051381686625790e-03
1.477640103828683354e-02
2.127381947713708962e-02
2.731611555673404274e-02
3.281473097477093787e-02
3.757221520312929025e-02
4.150321287442996360e-02
4.449971526594089649e-02
4.645681886492793178e-02
4.738730634000044850e-02
4.718670373945307167e-02
4.594548695410148598e-02
4.362534581803736294e-02
4.031282526669740379e-02
3.609862867494300492e-02
3.104564897179346722e-02
2.534585016452341188e-02
1.906393297802545794e-02
1.240900569292786165e-02
5.501941080170357976e-03
-1.465321858016031820e-03
-8.335833292478531803e-03
-1.495085942765854436e-02
-2.112933791327863478e-02
-2.676264695020615786e-02
-3.165921757384740354e-02
-3.577792488105629304e-02
-3.895020984165413480e-02
-4.114180260273727491e-02
-4.229062177763393687e-02
-4.233938777867284065e-02
-4.135368333331308766e-02
-3.927256996754460716e-02
-3.621951249895927205e-02
-3.220911466455615019e-02
-2.735812761540232230e-02
-2.178925162979054864e-02
-1.560150766186463658e-02
-8.985353722437264268e-03
-2.047168819325700419e-03
5.004196421409925870e-03
1.204280835123000548e-02
1.886392911204007664e-02
2.534020813497318142e-02
3.129945081096444787e-02
3.659013005213824360e-02
4.112584393697060053e-02
4.472902066077668465e-02
4.742034978953037910e-02
4.903803455305838499e-02
4.959934884361125174e-02
4.908415768938545476e-02
4.747202948763076108e-02
4.488798471094487819e-02
4.129924473373600829e-02
3.687318936774459238e-02
3.166373454260488357e-02
2.582417817018549736e-02
1.950167300381381794e-02
1.282344221719831229e-02
5.990089669515856474e-03
-8.816719408408467407e-04
-7.569564340109973151e-03
-1.397331089328803996e-02
-1.988008481008195216e-02
-2.519029700126550891e-02
-2.975886882852714355e-02
-3.344492545720404580e-02
-3.622505066092111814e-02
-3.793129878960802698e-02
-3.862926606949745878e-02
-3.820520987389134510e-02
-3.669277952581726648e-02
-3.414165220311912025e-02
-3.053440502488250635e-02
-2.605736142651601805e-02
-2.069752286128197921e-02
-1.463613170652431836e-02
-7.976969548444973884e-03
-8.689088087725921339e-04
6.511545068966773792e-03
1.402966434893528416e-02
2.148986355069860271e-02
2.876019507570477113e-02
3.562952977723303494e-02
4.201140834656415246e-02
4.769404473224811425e-02
5.259924677762131684e-02
5.660078616389675049e-02
5.956966721291753752e-02
6.152681817789628499e-02
6.230945342168504875e-02
6.200846897484098980e-02
6.054775830138804660e-02
5.796483682976251439e-02
5.435962199518949017e-02
4.971486670618532888e-02
4.423175961699470082e-02
3.792945786742452086e-02
3.097891032329734562e-02
2.351488735277281958e-02
1.567313486770934711e-02
7.636303864031985383e-03
-4.567094766602447162e-04
-8.425339259346860399e-03
-1.613175120507896743e-02
-2.337338310518463982e-02
-3.008358569030032681e-02
-3.604081023788402449e-02
-4.117971105186446490e-02
-4.538128329793029297e-02
-4.851214225064738594e-02
-5.061895899427153178e-02
-5.152187770625362567e-02
-5.131566744466116436e-02
-4.993443681813031221e-02
-4.740611773214913061e-02
-4.385096093497740932e-02
-3.923857185887037052e-02
-3.377454705090102843e-02
-2.748755309019438459e-02
-2.055092802292518214e-02
-1.311216266972530312e-02
-5.307397542994455979e-03
2.664599845692278927e-03
1.066464882609001463e-02
1.849179599866813961e-02
2.601182563871074979e-02
3.301041944787314747e-02
3.941583927544347471e-02
4.501760563927391379e-02
4.973227620395091753e-02
5.347410931577722265e-02
5.609672305386132624e-02
5.768607248620356148e-02
5.806959405239781047e-02
5.734643038709002355e-02
5.550228160562894336e-02
5.255779222611497298e-02
4.868606045302947827e-02
4.385596225298523526e-02
3.828549947828933236e-02
3.203336458459686564e-02
2.526029958109405824e-02
1.813854609276623758e-02
1.077935759859965231e-02
3.383070879188805700e-03
-3.932738570855865042e-03
-1.098706282194696418e-02
-1.767056086019983333e-02
-2.380760587538442372e-02
-2.933642560251709108e-02
-3.410514459808210164e-02
-3.803743403359537839e-02
-4.109958345825129311e-02
-4.315380814963020589e-02
-4.430855175028242804e-02
-4.441711803956351068e-02
-4.355764133642055919e-02
-4.175361306782265219e-02
-3.898119517261829786e-02
-3.543579444661573707e-02
-3.105041972225248276e-02
-2.600365067102802796e-02
-2.036099868494282289e-02
-1.421876031352332231e-02
-7.748803555941720898e-03
-1.014232537847152560e-03
5.816628842879645322e-03
1.263871833568404844e-02
1.930888031673530167e-02
2.572587795847988343e-02
3.173647804801878192e-02
3.727589222755936516e-02
4.220718950693384819e-02
4.643972845235374430e-02
4.994726775822995457e-02
5.257506435173171094e-02
5.439902667042094409e-02
5.528390736721720822e-02
5.525790087210780133e-02
5.435467592434266304e-02
5.250498478848311668e-02
4.988836949018636557e-02
4.642585272064971708e-02
4.225341834950727821e-02
3.744542346490428025e-02
3.205257678691989659e-02
2.625547577721799170e-02
2.008650089574313610e-02
1.370286262498313264e-02
7.205948940485374689e-03
7.245187106429355067e-04
-5.637837929212969300e-03
-1.174056230579095458e-02
-1.749994944864572896e-02
-2.279527825888700773e-02
-2.751084555671039211e-02
-3.162499422550071881e-02
-3.496953387348647468e-02
-3.758030024496999272e-02
-3.933891729957169486e-02
-4.022324485035009417e-02
-4.027160056073902927e-02
-3.938358096070115194e-02
-3.769821824928001885e-02
-3.514451570504675132e-02
-3.181557550718816518e-02
-2.778695695616616862e-02
-2.308392870445594505e-02
-1.787817017958732643e-02
-1.219645827319956397e-02
-6.194875821584763624e-03
2.641880662968866533e-05
6.331274519172157972e-03
1.260406815023580596e-02
1.870441596317296007e-02
2.451278458931667459e-02
2.991925014393638158e-02
3.477116122568970485e-02
3.904559453902690241e-02
4.256425753809399415e-02
4.532247597283622226e-02
4.722951025487368698e-02
4.822561026404077744e-02
4.836645616231762673e-02
4.754748244888155201e-02
4.588564020136005894e-02
4.334628679720149702e-02
4.000661151968547269e-02
3.596470780770755910e-02
3.125364514590017739e-02
2.604295646536439190e-02
2.038346469958826970e-02
1.443893220449153289e-02
8.313034782373321038e-03
2.156246601161125338e-03
-3.912606468350844115e-03
-9.755849393058936558e-03
-1.523341197077481002e-02
-2.026019707669667394e-02
-2.466000558926721015e-02
-2.843363871050526986e-02
-3.140265693353488929e-02
-3.354599922417271507e-02
-3.481315166167101710e-02
-3.512059490978138715e-02
-3.455730390737876689e-02
-3.301962490477712564e-02
-3.061569899817662838e-02
-2.735012036810549607e-02
-2.328841362217868097e-02
-1.855560230598923138e-02
-1.319358475530714447e-02
-7.372643961665123306e-03
-1.170976811717560143e-03
5.240245985556634713e-03
1.174835385885188849e-02
1.818407728525172837e-02
2.442272980669506210e-02
3.031878510230252496e-02
3.571209559204418377e-02
4.053304698099653020e-02
4.458556741436330711e-02
4.787316596968456406e-02
5.023235653528071443e-02
5.162726654490057410e-02
5.204688973663434276e-02
5.139170440975137505e-02
4.979650632396255550e-02
4.716286345983212308e-02
4.360808880177233227e-02
3.918391180524793266e-02
3.395789769446276585e-02
2.809430362837164741e-02
2.165143941232603592e-02
1.481358681821733775e-02
7.690194701767300543e-03
4.645116728867965464e-04
-6.737240578956907831e-03
-1.372967560760056382e-02
-2.037909153589996872e-02
-2.653674158490409996e-02
-3.203073037895221714e-02
-3.680551699137131483e-02
-4.065932553208167349e-02
-4.359507896773047453e-02
-4.547323159439264212e-02
-4.625521900646761830e-02
-4.596157544848263055e-02
-4.450324104156903882e-02
-4.202292852213136698e-02
-3.846291085001836418e-02
-3.395100655350636459e-02
-2.857438109409103644e-02
-2.241864288633389074e-02
-1.568136680943768221e-02
-8.442168495436122577e-03
-9.111855608886845759e-04
6.778855007075316325e-03
1.442138029564819790e-02
2.187955921648691154e-02
2.895331099416362589e-02
3.549664991342480619e-02
4.136964581752282377e-02
4.639491894864022914e-02
5.054255562701864130e-02
5.362221933985596156e-02
5.565083826974911996e-02
5.653378006743610407e-02
5.625298932650186351e-02
5.487842499085057724e-02
5.235437667951147594e-02
4.885033171080697956e-02
4.436210690342974605e-02
3.904488427351222174e-02
3.302187883808804097e-02
2.640688654042573288e-02
1.940757943286068252e-02
1.212700478231380774e-02
4.783578799157681138e-03
-2.499254006025537940e-03
-9.510787376853374608e-03
-1.614347934133530948e-02
-2.221164660775861582e-02
-2.758645143982980941e-02
-3.217858405906104391e-02
-3.581817392093596120e-02
-3.854054102038909080e-02
-4.017153350611014917e-02
-4.075231989810274708e-02
-4.024522230383024979e-02
-3.863173531935597954e-02
-3.603691354751707016e-02
-3.240825942717514424e-02
-2.792156558249411780e-02
-2.260767608276481599e-02
-1.660773829976683671e-02
-1.006621096984573402e-02
-3.089906025725767773e-03
4.124974718279180060e-03
1.146649988669628910e-02
1.873017365778202603e-02
2.580221773590389914e-02
3.247505548244591922e-02
3.865527453879402664e-02
4.416696450559819132e-02
4.888072663812779994e-02
5.273713703097863970e-02
5.555078875042972902e-02
5.739275563872719282e-02
5.808803973458505354e-02
5.767473815491390432e-02
5.616014735315404821e-02
5.350273183082859818e-02
4.988023800987597539e-02
4.523480913604235876e-02
3.974589164752632270e-02
3.349157167573784538e-02
2.659513443750780373e-02
1.924415560380164994e-02
1.154136073028939197e-02
3.687729158417712375e-03
-4.181241664933401346e-03
-1.187520255258082968e-02
-1.926864962456600536e-02
-2.616538369553789850e-02
-3.247377886694612775e-02
-3.803211734569039021e-02
-4.272177034257090833e-02
-4.650739787003189268e-02
-4.921674748404749472e-02
-5.092902178096754551e-02
-5.150376451546770373e-02
-5.097905743117622096e-02
-4.939796774048026834e-02
-4.670760325991269585e-02
-4.311363133862396169e-02
-3.855236718529021084e-02
-3.319480119152574960e-02
-2.713497772019873855e-02
-2.046343265961023464e-02
-1.338244032353530857e-02
-5.961173668894529341e-03
1.612355070787076065e-03
9.212986496648010309e-03
1.667644170522552052e-02
2.388699966830560087e-02
3.067086849863701059e-02
3.693901432513167077e-02
4.255119308759485602e-02
4.738601941097699000e-02
5.142568217392259194e-02
5.449302554205331245e-02
5.665108594404098113e-02
5.777611193207191076e-02
5.787621469112084333e-02
5.700675201859204538e-02
5.508860854343283764e-02
5.230283349171824248e-02
4.859025026122674312e-02
4.408871265573284515e-02
3.889291495466963566e-02
3.306408617154173168e-02
2.679922274115047187e-02
2.014783826144118245e-02
1.329110400189793123e-02
6.339004572911743733e-03
-5.469850395900099221e-04
-7.261217190581128501e-03
-1.363989983535570868e-02
-1.957555586757101992e-02
-2.495727363674456883e-02
-2.963126126600210825e-02
-3.360206980008192956e-02
-3.667779525854047290e-02
-3.888790042364549671e-02
-4.014020579927744109e-02
-4.038951816207439482e-02
-3.971660504654759422e-02
-3.801240348766557475e-02
-3.542817482811876084e-02
-3.192788524593966060e-02
-2.760633622659036668e-02
-2.257938970848299282e-02
-1.688492893751182555e-02
-1.071392309277403865e-02
-4.125229269674839973e-03
2.706724859320262279e-03
9.662715128593598116e-03
1.658123383951452812e-02
2.334013543174538047e-02
2.978020273724152345e-02
3.576481209464259237e-02
4.119489996511142144e-02
4.588650148577133603e-02
4.985241895759773278e-02
5.289273350234433707e-02
5.500619766353569834e-02
5.613728365559067512e-02
5.620330395496127979e-02
5.532126442737556049e-02
5.337241510258610572e-02
5.049542335141683075e-02
4.669876830290840136e-02
4.204826036824110824e-02
3.670310520838898638e-02
3.068693904120788768e-02
2.419418193999306813e-02
1.730487879287833514e-02
1.017596200623132469e-02
2.946468079976045581e-03
-4.241595069118117393e-03
-1.125687582543998325e-02
-1.795429879393725670e-02
-2.419988413452464973e-02
-2.990501347967762513e-02
-3.489485522311625704e-02
-3.917862676866550736e-02
-4.257689194967526070e-02
-4.507417058107792557e-02
-4.663498821309336462e-02
-4.715459555287176974e-02
-4.676879249407296657e-02
-4.533705282629173217e-02
-4.297888259677702660e-02
-3.971153897015353845e-02
-3.556703428598312344e-02
-3.071305710725372867e-02
-2.514469336432575627e-02
-1.904381741920001953e-02
-1.248896533745094337e-02
-5.621706254790499215e-03
1.415077209536796596e-03
8.490458162034329737e-03
1.546108277947237652e-02
2.218845740275978556e-02
2.852170759671729741e-02
3.437432292077655105e-02
3.956216455839446644e-02
4.406753146317782255e-02
4.772829586497752408e-02
5.049684682847771500e-02
5.235592736137981845e-02
5.318300253871738326e-02
5.310670982857586958e-02
5.200404988789301269e-02
4.997546730235028628e-02
4.706657129788547472e-02
4.328773484920046127e-02
3.884113223894306716e-02
3.370382671016203951e-02
2.806306169665912301e-02
2.200594789506713986e-02
1.566071846449499511e-02
9.179932894027050330e-03
2.668318317780029106e-03
-3.725090426726879005e-03
-9.892575053986597117e-03
-1.568410459136176244e-02
-2.104198235028559641e-02
-2.579927920341414105e-02
-2.993135813123139893e-02
-3.332371779883122609e-02
-3.590192704003820900e-02
-3.769102672366880791e-02
-3.855026648221247798e-02
-3.859027111591713244e-02
-3.771428558382139418e-02
-3.596844546457889785e-02
-3.342472365896628772e-02
-3.004079552381166973e-02
-2.600065989311182296e-02
-2.127067268894926311e-02
-1.598813893614525403e-02
-1.024671194216021999e-02
-4.122925996363679436e-03
2.223467198326601908e-03
8.717917236150240362e-03
1.521756510581942154e-02
2.161431385708523223e-02
2.776094837603323984e-02
3.358932651138937103e-02
3.892746660518512508e-02
4.371671337584724648e-02
4.784489509000480062e-02
5.119473557175155398e-02
5.378724542655378277e-02
5.545248504714293120e-02
5.625685883969057388e-02
5.611690469005626430e-02
5.502716889566109520e-02
5.307505509302753999e-02
5.018991854650826923e-02
4.653592579570295373e-02
4.209982838956598944e-02
3.699204699676949398e-02
3.133250806913655262e-02
2.518312734000694234e-02
1.871627683642884329e-02
1.201415954388584777e-02
5.224686197975360151e-03
-1.531763396795621755e-03
-8.105805936048045279e-03
-1.441752985843093582e-02
-2.029709386656721945e-02
-2.566672828230963377e-02
-3.042652027400503251e-02
-3.443995544853756252e-02
-3.774095271501869131e-02
-4.014822560583868050e-02
-4.170950028536597048e-02
-4.235868879201996895e-02
-4.205928158749173973e-02
-4.091596470286770759e-02
-3.882990541212143903e-02
-3.595083993893329055e-02
-3.226602309035035004e-02
-2.785954891854030419e-02
-2.285566994838855379e-02
-1.728794521693316835e-02
-1.132782149728399704e-02
-5.040679540439278565e-03
1.424466257402315708e-03
7.957307903751376088e-03
1.441287367827484914e-02
2.069297930513455674e-02
2.664849812824695088e-02
3.216528716371348101e-02
3.716169127646792858e-02
4.146432048204119064e-02
4.510775841547208509e-02
4.789708466763930444e-02
4.983728826629626324e-02
5.088601269449961190e-02
5.095302449306468584e-02
5.016700343477022150e-02
4.839897156397429678e-02
4.577655905385969587e-02
4.231097555792957127e-02
3.805022981729553472e-02
3.314811726045305273e-02
2.761586441220541949e-02
2.162953240967737528e-02
1.526308668384226616e-02
8.662115926671695720e-03
1.948467786500697636e-03
-4.738084267233104614e-03
-1.127838173346311021e-02
-1.753715598387556654e-02
-2.337209289080394853e-02
-2.871708180849933539e-02
-3.338161919649787479e-02
-3.737551226919632458e-02
-4.052754686539294937e-02
-4.279497196212069671e-02
-4.416460937838965345e-02
-4.450032285978389179e-02
-4.394040730675949358e-02
-4.234134862862370952e-02
-3.979444919092758187e-02
-3.633551714155439094e-02
-3.196778108524806622e-02
-2.686681845705441579e-02
-2.102224812484274410e-02
-1.460209806209207539e-02
-7.698237386115118312e-03
-4.491404089329315702e-04
7.003801206740942545e-03
1.451260409341798702e-02
2.193325439888352962e-02
2.911704309523304585e-02
3.588559072158821472e-02
4.216426798225401257e-02
4.772779796752842085e-02
5.255082196937588962e-02
5.646205300042811404e-02
5.937076431916708114e-02
6.128064438012157528e-02
6.202068708512423895e-02
6.171804491021772032e-02
6.024628596913930711e-02
5.767335004499190426e-02
5.407340577230733414e-02
4.942726362494878622e-02
4.395399543417188859e-02
3.764081508671764109e-02
3.067344876770596376e-02
2.317450380091485782e-02
1.528178938213798840e-02
7.176133079076613651e-03
-1.002921036788588169e-03
-9.081520299227919396e-03
-1.691398331194815530e-02
-2.430636886866636287e-02
-3.118571927219984663e-02
-3.732744856931835553e-02
-4.268392199425920935e-02
-4.711200818415557656e-02
-5.049351161821144518e-02
-5.286060297179930034e-02
-5.402601748697342943e-02
-5.410297404540519162e-02
-5.298930348918341748e-02
-5.072106735970492025e-02
-4.740068800686553230e-02
-4.297953759428353032e-02
-3.767477475477706839e-02
-3.147741322697119454e-02
-2.455572865096552343e-02
-1.704764279777576733e-02
-9.065323116523252983e-03
-8.142265921769562681e-04
7.585870687907328956e-03
1.594515543853385758e-02
2.411511621420130147e-02
3.189891371730487618e-02
3.920479451038465235e-02
4.581451806030776425e-02
5.164660868619432715e-02
5.657019321520191657e-02
6.044649209169242893e-02
6.330727060303320552e-02
6.496678790766738376e-02
6.551009582623447403e-02
6.486394811486319301e-02
6.305040127738827105e-02
6.018630030580357504e-02
5.623080138341693401e-02
5.138944454702289860e-02
4.568070646258858697e-02
3.927399094653257622e-02
3.231370849209975332e-02
2.492057689273996512e-02
1.729858973414460238e-02
9.567426261922933398e-03
1.927936781352386324e-03
-5.492334714603031888e-03
-1.249325608299618057e-02
-1.898921691307039333e-02
-2.479029134376416199e-02
-2.980151812367583253e-02
-3.393539864924133287e-02
-3.704680542138884258e-02
-3.919713597229581431e-02
-4.021737115579796656e-02
-4.018317321512500373e-02
-3.906270754065024192e-02
-3.687265102103381986e-02
-3.374817406696026950e-02
-2.966084233702736411e-02
-2.480620936345147992e-02
-1.922538929830987231e-02
-1.309199784430508870e-02
-6.546716517702755832e-03
2.756232852838694583e-04
7.176335653797235800e-03
1.403803063895772696e-02
2.064179337154127894e-02
2.689024879935197204e-02
3.257008016870432260e-02
3.760042903168523548e-02
4.182591689421134851e-02
4.513055256998157322e-02
4.748657062522264327e-02
4.874298346260698411e-02
4.898660559876757276e-02
4.810019588870150659e-02
4.615047217541821956e-02
4.318196113334959313e-02
3.920884818654685883e-02
3.441899967125981730e-02
2.881609008468897018e-02
2.259773114048638926e-02
1.586371136215930164e-02
8.784654170771922024e-03
1.522642121378589737e-03
-5.772589527815843828e-03
-1.291548200475361313e-02
-1.977804051784787590e-02
-2.615466059559625606e-02
-3.197356148959992067e-02
-3.702790728291247002e-02
-4.126330695393000403e-02
-4.455572824199866000e-02
-4.680133810466823030e-02
-4.802332375460385133e-02
-4.808017079916157566e-02
-4.707822505172573613e-02
-4.494360874589622967e-02
-4.173928942093095562e-02
-3.755614713386760256e-02
-3.240548079862685948e-02
-2.648588782233964045e-02
-1.982895177067589554e-02
-1.261878084108383410e-02
-4.985547253556041510e-03
2.909591683457246093e-03
1.089805180983233548e-02
1.881765692983865604e-02
2.649275174210217326e-02
3.378032210399550817e-02
4.047748267184574089e-02
4.652232796941716680e-02
5.169524675682332648e-02
5.595072611930008988e-02
5.916986201932274841e-02
6.125343166091790775e-02
6.224870141450676575e-02
6.201630842326146670e-02
6.067638568925479148e-02
5.818138975497978704e-02
5.460928421257393861e-02
5.008030412475266563e-02
4.462162816098422941e-02
3.844775143641932652e-02
3.161527424362704786e-02
2.432554614930821507e-02
1.672077186733622253e-02
8.971353458551219184e-03
1.255558116648134229e-03
-6.270993179006061589e-03
-1.342343415936015152e-02
-2.007801336298106407e-02
-2.603576096976571719e-02
-3.125572106004303324e-02
-3.554123360697988843e-02
-3.885297044586458887e-02
-4.111461997998131640e-02
-4.224448705801143317e-02
-4.232099396268158148e-02
-4.123814691564545859e-02
-3.912454131177497962e-02
-3.597608464182458499e-02
-3.189232382319087677e-02
-2.700992752774138833e-02
-2.138801018894232603e-02
-1.524017204916943910e-02
-8.646636714772948373e-03
-1.825492314056652819e-03
5.093940556489834175e-03
1.192211979099390418e-02
1.849596694261278207e-02
2.467123627608543146e-02
3.025925786549336222e-02
3.518427839294507864e-02
3.925177442941766431e-02
4.245126547438891895e-02
4.463695026759464946e-02
4.578010107223759451e-02
4.587682816545708697e-02
4.485978350672717441e-02
4.286843212938309944e-02
3.983647405007594011e-02
3.591087066074834244e-02
3.115130876718490149e-02
2.567156730492089339e-02
1.963847448286083763e-02
1.314083096011393718e-02
6.386912507733769756e-03
-5.188687188245853787e-04
-7.357143041187778031e-03
-1.402221400568813559e-02
-2.031152699939628090e-02
-2.609513184587845119e-02
-3.124712861827163429e-02
-3.558451654431264016e-02
-3.909549499788805144e-02
-4.157761986404098775e-02
-4.306263578929336866e-02
-4.344234820855515794e-02
-4.268454334546535611e-02
-4.085895976932882312e-02
-3.788143769603590644e-02
-3.392703228727145942e-02
-2.896378188927548752e-02
-2.312459390959620276e-02
-1.653315639851418717e-02
-9.274436360715891670e-03
-1.561359074537942669e-03
6.512109069115917283e-03
1.474528872637142010e-02
2.298968331110015292e-02
3.104767922232184660e-02
3.879269047270190313e-02
4.601778203712946630e-02
5.260112456317561636e-02
5.840350140632213916e-02
6.325586188644570507e-02
6.715627467401757977e-02
6.990275220510237808e-02
7.153844218078406203e-02
7.197281112416195614e-02
7.118182032758238464e-02
6.926690174200725303e-02
6.614629090761402208e-02
6.200757967238151869e-02
5.684559044037001962e-02
5.079192364049374409e-02
4.399910875576902580e-02
3.654304745519471737e-02
2.864371133013772150e-02
2.040095870447530477e-02
1.200349031268085551e-02
3.606581703086021023e-03
-4.613747353344697759e-03
-1.253308209790255853e-02
-1.995947182032511633e-02
-2.678339300574182624e-02
-3.287471398067189771e-02
-3.807886060939092571e-02
-4.241018377303498732e-02
-4.566806640518482341e-02
-4.790115471790441087e-02
-4.902566559535588564e-02
-4.902001694998849024e-02
-4.799210959591931197e-02
-4.584953254493275010e-02
-4.277585756541799761e-02
-3.875868128208681540e-02
-3.392874407133651682e-02
-2.842839865150609269e-02
-2.231943364691195419e-02
-1.582114355940149666e-02
-9.008606944475600758e-03
-2.081115055841677337e-03
4.831713327811032292e-03
1.156424224403416155e-02
1.798054098227708925e-02
2.393585951450056745e-02
2.929633878149322940e-02
3.397766626686005847e-02
3.782631860416464653e-02
4.086683889510477757e-02
4.294443335976659559e-02
4.408864769825114605e-02
4.427984415996126522e-02
4.348325000932758838e-02
4.185376588069535109e-02
3.931138870150244907e-02
3.603291915779560650e-02
3.205876742815037123e-02
2.748506120698370955e-02
2.250112586409063267e-02
1.713270778382163656e-02
1.159308293377974211e-02
5.956643302865931300e-03
3.638581118737323900e-04
-5.043767925539343298e-03
-1.018630859602815547e-02
-1.493835024809941903e-02
-1.922373875902715773e-02
-2.296754243132199946e-02
-2.612208260531556636e-02
-2.862218943011547029e-02
-3.050070424666537910e-02
-3.169628614773540437e-02
-3.225289085310174136e-02
-3.220829742520871924e-02
-3.153916863465275333e-02
-3.041247097044751796e-02
-2.876841575287160391e-02
-2.673138882954388673e-02
-2.436859364867664801e-02
-2.167757661366218752e-02
-1.883969699202465639e-02
-1.579338476490695434e-02
-1.264278273811884554e-02
-9.427530016751287795e-03
-6.134563747586216885e-03
-2.845560180526556827e-03
4.728264851448695655e-04
3.810857467164730904e-03
7.149471003451877797e-03
1.050790901647559103e-02
1.390234691985647864e-02
1.728476083709592701e-02
2.072325489912965960e-02
2.414141721094318835e-02
2.752181621730024480e-02
3.088776352554623017e-02
3.407388189188979843e-02
3.715470230857749467e-02
3.994477723718065088e-02
4.237734376501674921e-02
4.441146193302350498e-02
4.583495621329256725e-02
4.668142108256061878e-02
4.674546448156596812e-02
4.597496297476289656e-02
4.431152829376211466e-02
4.167428863524197391e-02
3.806899604098219064e-02
3.348525739526925921e-02
2.797206551571300784e-02
2.158425128481638797e-02
1.449760530615851195e-02
6.758663045331267209e-03
-1.344997571067502000e-03
-9.658986013808188581e-03
-1.795982190224412051e-02
-2.590126942184285685e-02
-3.338639863888140380e-02
-3.998931621256426872e-02
-4.557951351115992200e-02
-4.989005547728022488e-02
-5.266984627949647391e-02
-5.387674303558833561e-02
-5.325895305624935711e-02
-5.087143841590758414e-02
-4.662649630544975221e-02
-4.059246229422248248e-02
-3.289142980213018846e-02
-2.365493003712037731e-02
-1.314019691287553887e-02
-1.559765284401009970e-03
1.073362871911491892e-02
2.347345649034124002e-02
3.623326000224350724e-02
4.873609236104597259e-02
6.057592248106769689e-02
7.140618415082695958e-02
8.097273090902036563e-02
8.889113911430573944e-02
9.506973626851430992e-02
9.919774259029984220e-02
1.012250711018765487e-01
1.010727534529640842e-01
9.869277993325721587e-02
9.425283492987043821e-02
8.774501705193840650e-02
7.946391099360650134e-02
6.954553584468392557e-02
5.828855673379463448e-02
4.601218422742381353e-02
3.297726021340933317e-02
1.959788409551474139e-02
6.131579132926872483e-03
-7.040465865715660708e-03
-1.963373411834863289e-02
-3.134306408603197008e-02
-4.193342797262034072e-02
-5.116295428172508430e-02
-5.887507453683307052e-02
-6.493559579429124262e-02
-6.922540037559314630e-02
-7.181629072503586952e-02
-7.258297137319662251e-02
-7.170406738847595607e-02
-6.919178875087807212e-02
-6.519975945810099760e-02
-5.997086312029995675e-02
-5.356047156318335251e-02
-4.633172908764020964e-02
-3.837775699361631321e-02
-3.000682706277455619e-02
-2.144886581839447470e-02
-1.287802066746642285e-02
-4.594382002596837829e-03
3.287042515235777656e-03
1.051886497493703318e-02
1.698829476930297303e-02
2.253318778715451137e-02
2.708220286027964580e-02
3.053501462612397827e-02
3.286284765708766265e-02
3.406666506267246042e-02
3.411234935422121500e-02
3.315184520595025608e-02
3.113177119195404893e-02
2.824485249490300484e-02
2.454906020127941776e-02
2.016775317753310634e-02
1.533234250619240277e-02
1.006590978686342647e-02
4.642731784269547510e-03
-8.746804330556452386e-04
-6.276213460610502969e-03
-1.142390656906728738e-02
-1.620977605902624782e-02
-2.045560081475736661e-02
-2.411860416824828171e-02
-2.703519080376418082e-02
-2.920352710349722464e-02
-3.051209437411012138e-02
-3.096049846416861623e-02
-3.053364145482100056e-02
-2.920521479755603528e-02
-2.706958675166792200e-02
-2.409150150028712550e-02
-2.041116973276657989e-02
-1.605112322966976979e-02
-1.111445072309971693e-02
-5.724119040873926374e-03
5.300434749750965874e-05
6.051313099147379547e-03
1.219520557463096150e-02
1.834193584218832968e-02
2.438519777324402171e-02
3.019257797306973759e-02
3.568328608625454673e-02
4.072233068027332481e-02
4.523149751533223073e-02
4.913334518791923067e-02
5.231178333525571961e-02
5.479201142340466013e-02
5.643414791294585481e-02
5.727306566059730403e-02
5.726580668380107375e-02
5.638774172286893649e-02
5.472753081327082908e-02
5.222381907076802110e-02
4.899887860948577700e-02
4.506319828171773817e-02
4.049888583801080494e-02
3.541274770082105533e-02
2.986569657594675617e-02
2.399357356530339158e-02
1.788504869703605102e-02
1.167451280621306133e-02
5.462901931234376979e-03
-5.943162656561517057e-04
-6.427251695670437200e-03
-1.187145386774153197e-02
-1.683439958478354440e-02
-2.123326285162099869e-02
-2.491011370997255059e-02
-2.790575596401544817e-02
-3.003568965691504056e-02
-3.132552634024721172e-02
-3.172883959151254207e-02
-3.119710793071411858e-02
-2.984110660718632124e-02
-2.757514819569584219e-02
-2.453901672857145347e-02
-2.074760548600384016e-02
-1.630186283765945252e-02
-1.133114221020265974e-02
-5.904315253285492664e-03
-2.004885483607643168e-04
5.694772468236979426e-03
1.159606049708767142e-02
1.740313008712609036e-02
2.294092909517458923e-02
2.810105223542566644e-02
3.275417521604782195e-02
3.675825702109673104e-02
4.007784271457687231e-02
4.254532292860166431e-02
4.419845868188546772e-02
4.491843346003458748e-02
4.470477893967029354e-02
4.359368906256388954e-02
4.152492377085794523e-02
3.866538817206006257e-02
3.496165110334033266e-02
3.055096632921969549e-02
2.551903653584162296e-02
1.994119558082991378e-02
1.399664014877334550e-02
7.743971682287084136e-03
1.352169881104141325e-03
-5.073056098767581186e-03
-1.138642492417869106e-02
-1.748295880646631370e-02
-2.322045524203974684e-02
-2.851021367814299268e-02
-3.324314001245829570e-02
-3.730498453945951809e-02
-4.068215314734145022e-02
-4.322417927059776788e-02
-4.497361934498325664e-02
-4.583377908216958174e-02
-4.579353575854092084e-02
-4.490631268196881853e-02
-4.309236843622776120e-02
-4.050011415245159674e-02
-3.708023856950436181e-02
-3.293001395000698384e-02
-2.814160029974473870e-02
-2.274769433050387313e-02
-1.692158500926570219e-02
-1.070480908166166617e-02
-4.238834526829711284e-03
2.361435791681756446e-03
8.973377339043105486e-03
1.548876610786628291e-02
2.176197352124267445e-02
2.770457256129733870e-02
3.319343557328779948e-02
3.810528586062399831e-02
4.242273489050527036e-02
4.597211224448375516e-02
4.878161340911323085e-02
5.074649521658944340e-02
5.183400015590385740e-02
5.210031967818534726e-02
5.144024846747816127e-02
4.999091371421680863e-02
4.769788315521552441e-02
4.464440242703650308e-02
4.092101822373803155e-02
3.654291550142817896e-02
3.167986431228969613e-02
2.635763229048153009e-02
2.072290920988579740e-02
1.486923042858587229e-02
8.919778834039215898e-03
2.981840497027041410e-03
-2.821953917997786603e-03
-8.374515350596158786e-03
-1.358991814440574722e-02
-1.830890666185396032e-02
-2.253358832313684390e-02
-2.607975484830069718e-02
-2.893434129412287420e-02
-3.102518048377925913e-02
-3.225807621202175096e-02
-3.271014688329323961e-02
-3.224142627586137205e-02
-3.095112486059278106e-02
-2.880421392971995592e-02
-2.583328255502792548e-02
-2.214690740200761510e-02
-1.773514301765246465e-02
-1.275804863229694497e-02
-7.254619089339850967e-03
-1.366902596319784918e-03
4.797611928655033317e-03
1.110600616854401194e-02
1.742778545034069995e-02
2.363257727925448248e-02
2.956118251882373579e-02
3.512898379557619077e-02
4.013495839956699590e-02
4.456124929592135409e-02
4.821956477774906602e-02
5.104539351161049149e-02
5.299638139093952593e-02
5.392914215160050234e-02
5.394934117917000310e-02
5.290854525545913428e-02
5.088634446127270061e-02
4.790031339500686741e-02
4.395873549354767373e-02
3.921849213301555059e-02
3.367702420261699248e-02
2.750282442890828599e-02
2.078204275643861718e-02
1.365858389987910718e-02
6.275256009210682454e-03
-1.219854336709743671e-03
-8.678119695797140154e-03
-1.594884527811800748e-02
-2.285618497540606309e-02
-2.931014667663017076e-02
-3.509298906582469096e-02
-4.017330678955827877e-02
-4.436767239319611145e-02
-4.759282019706251310e-02
-4.982348778250084154e-02
-5.089869764045610451e-02
-5.093407884020612758e-02
-4.978513878556389827e-02
-4.752755835403145446e-02
-4.420326667317110714e-02
-3.980928286488756573e-02
-3.454261915148263556e-02
-2.839182557568550869e-02
-2.154820111459436471e-02
-1.412009174992420388e-02
-6.265700307655466990e-03
1.842486551229134337e-03
1.004613441114731581e-02
1.816392102251502758e-02
2.603693887465605150e-02
3.346109717272324757e-02
4.034349129949291873e-02
4.645280141635902554e-02
5.173817666392561271e-02
5.603546115677328354e-02
5.924404109309133748e-02
6.137065820174063269e-02
6.225286209424398670e-02
6.201527054437790815e-02
6.055145160273246036e-02
5.794063087496071490e-02
5.427094416268444382e-02
4.954167339220143240e-02
4.398415935725497050e-02
3.760182401097614258e-02
3.060116793041643690e-02
2.311119761269785772e-02
1.528279589121606802e-02
7.311430201547167683e-03
-6.701465001276527694e-04
-8.471895703184420534e-03
-1.596111191782305372e-02
-2.294156130405112376e-02
-2.934799416125587895e-02
-3.497348596025944001e-02
-3.976915684520811872e-02
-4.362148005715538873e-02
-4.641971108128379458e-02
-4.821787599019455167e-02
-4.884984351435429223e-02
-4.843330487087301600e-02
-4.689751218262263460e-02
-4.428509124091146304e-02
-4.071590696175610147e-02
-3.615492170958076873e-02
-3.081563583841841203e-02
-2.470664749194982288e-02
-1.799288605954165246e-02
-1.080980365037434096e-02
-3.271302047557060090e-03
4.437028718802782032e-03
1.219723248321702078e-02
1.983246798539566730e-02
2.722018873447315870e-02
3.416362787284094038e-02
4.061255288581889361e-02
4.635216606909974696e-02
5.131596910460806821e-02
5.541001063779712327e-02
5.848228073441312513e-02
6.061198879250968147e-02
6.160103519676279199e-02
6.153777518000456970e-02
6.037562929499044190e-02
5.810273175793847361e-02
5.486744522746096059e-02
5.059773828714993205e-02
4.548577281606543121e-02
3.955610518414045401e-02
3.293646328039590704e-02
2.577854568057573459e-02
1.817397881114715674e-02
1.030659049684747031e-02
2.295088808675039942e-03
-5.681324447585807576e-03
-1.350140524971159620e-02
-2.095900388534292780e-02
-2.798253370474399621e-02
-3.436348294251120872e-02
-3.999176255199535235e-02
-4.478443257513159415e-02
-4.853719326924964272e-02
-5.133428440729040365e-02
-5.294384821072527225e-02
-5.340939176734121885e-02
-5.269943983623495004e-02
-5.074883634437824670e-02
-4.772262142979812050e-02
-4.352180389099048752e-02
-3.832313232114809703e-02
-3.217465445813928043e-02
-2.519320179376822663e-02
-1.756178695999963124e-02
-9.378436911183042624e-03
-8.587228701067263839e-04
7.854324898282832867e-03
1.654442714962841079e-02
2.506168289661672363e-02
3.317556518249042269e-02
4.076111379574979404e-02
4.761520701307422193e-02
5.358170467293576350e-02
5.858310692830800970e-02
6.241058504313797689e-02
6.511479859706320594e-02
6.651674763569455362e-02
6.664330108133648123e-02
6.550634172337549410e-02
6.305699234808255504e-02
5.949657664374802951e-02
5.476177291320285384e-02
4.905487680458145427e-02
4.246725757894141001e-02
3.514450024273581275e-02
2.729991974173731975e-02
1.904881495899996002e-02
1.062947495155736402e-02
2.184933196291971840e-03
-6.053656727925123097e-03
-1.395194064963188596e-02
-2.129063204992583808e-02
-2.794465510379992579e-02
-3.375778578843847966e-02
-3.857691134622940471e-02
-4.237377162544356951e-02
-4.496722692438800961e-02
-4.641778566924624483e-02
-4.661098180714529776e-02
-4.558136930439363188e-02
-4.338986621076593164e-02
-4.001429799732098697e-02
-3.565786538338448081e-02
-3.030981449795790150e-02
-2.417432464824414984e-02
-1.736520457368643730e-02
-1.003909321611844152e-02
-2.408470661861406188e-03
5.403633586086098624e-03
1.316125930053873780e-02
2.073755008987089241e-02
2.789676643594428407e-02
3.454371550370579497e-02
4.046628694241491409e-02
4.555470318753816056e-02
4.970496500887154612e-02
5.276276422217108381e-02
5.476738402067768408e-02
5.555260768938211774e-02
5.519778931474270123e-02
5.365688640525471953e-02
5.095896948628571982e-02
4.722993377127784193e-02
4.245746227754317731e-02
3.684903140339754885e-02
3.044576001242845636e-02
2.343328729246252698e-02
1.595566489369931382e-02
8.165090517162293740e-03
2.565440815197328472e-04
-7.630790390706612171e-03
-1.528542029464602034e-02
-2.259103021088544605e-02
-2.931879314699306627e-02
-3.540924922173492584e-02
-4.065312730554736936e-02
-4.495625768295165303e-02
-4.824837751519382018e-02
-5.036777421677828687e-02
-5.140009147310203169e-02
-5.117445730743328675e-02
-4.977148577157459314e-02
-4.718323985084974664e-02
-4.342378674959437856e-02
-3.865014489434825257e-02
-3.285333430846701375e-02
-2.623299185460629956e-02
-1.886795260821525627e-02
-1.093897544158512272e-02
-2.610146257725576811e-03
5.946391576844020123e-03
1.453423789917307474e-02
2.298227904867050295e-02
3.106720225585207079e-02
3.866365622306608407e-02
4.552186301669901292e-02
5.157319643922268076e-02
5.660699537003817394e-02
6.052063703762677882e-02
6.326092253373401253e-02
6.466710370717390632e-02
6.484825729401103023e-02
6.365766279773876768e-02
6.119833838968138928e-02
5.750694430481220060e-02
5.262933913448935436e-02
4.677332138039771992e-02
3.996538381647658095e-02
3.244750639149996535e-02
2.433933078660109953e-02
1.586317760259641288e-02
7.207880819325752052e-03
-1.429141249901300266e-03
-9.828896796736281277e-03
-1.782515067682697435e-02
-2.518094293429083003e-02
-3.179836984021927604e-02
-3.744310068024869070e-02
-4.206031235936859985e-02
-4.549885253696205750e-02
-4.767762656714105707e-02
-4.860990331725454500e-02
-4.818063463593004470e-02
-4.653191856109929747e-02
-4.359705334854056813e-02
-3.951026060827927261e-02
-3.437221644914138785e-02
-2.826323835815053309e-02
-2.142750142292001309e-02
-1.392848087421452372e-02
-6.023008456720582195e-03
2.147526497510202168e-03
1.036180358281039993e-02
1.843415829734574782e-02
2.618269148375658092e-02
3.340907750763100204e-02
3.998248982228835152e-02
4.569840878565408632e-02
5.051592806552152731e-02
5.424368572102800795e-02
5.687121477969855898e-02
5.831956163886408556e-02
5.854327822776157070e-02
5.763153023258570096e-02
5.550615208492132996e-02
5.234026507691911384e-02
4.813153868309331257e-02
4.301651950782081624e-02
3.714323521595054578e-02
3.058905304072977518e-02
2.358664509025022379e-02
1.621689593999998263e-02
8.693607943844140762e-03
1.151730904274133119e-03
-6.230180131021515778e-03
-1.331222968810420737e-02
-1.994073019928411725e-02
-2.597350605844978011e-02
-3.132126624880236798e-02
-3.581295623952055612e-02
-3.947458012740205635e-02
-4.212556549321953142e-02
-4.378711272876640442e-02
-4.441951825756984551e-02
-4.396727657604200534e-02
-4.256486496496178495e-02
-4.011084469195278640e-02
-3.676731995297469191e-02
-3.254874642309087129e-02
-2.754293653659271174e-02
-2.191363463914555026e-02
-1.569418880056167032e-02
-9.087971124714277343e-03
-2.173613375816279593e-03
4.883446222624210353e-03
1.194938241375924706e-02
1.888010916568912817e-02
2.554947620532210112e-02
3.181727892183357220e-02
3.755581821911897072e-02
4.268775975427682029e-02
4.704719465757146307e-02
5.065910005897032026e-02
5.335703238515901448e-02
5.514322490708323254e-02
5.600052646855055438e-02
5.584092474926088956e-02
5.482190943102142194e-02
5.281871000475628353e-02
4.996703876397905891e-02
4.630116758075161071e-02
4.186217357598106398e-02
3.682804367866182593e-02
3.119855034198890445e-02
2.515266120846131048e-02
1.876988281235359227e-02
1.217884517568281269e-02
5.513273419130695387e-03
-1.112014198995444833e-03
-7.574285939713221345e-03
-1.375090243118713695e-02
-1.951730779171589533e-02
-2.480297199252679691e-02
-2.944843743093691901e-02
-3.345024735547117573e-02
-3.666327173243168897e-02
-3.905442662085698013e-02
-4.060870980677308562e-02
-4.121833338601216257e-02
-4.099880845306918403e-02
-3.983663180541777149e-02
-3.782286382446435613e-02
-3.499173386915292033e-02
-3.135643062045374158e-02
-2.709073019564407769e-02
-2.218091122374316396e-02
-1.679634280834561844e-02
-1.101913641981736719e-02
-4.979078994439276214e-03
1.186133448866982451e-03
7.359387481891584148e-03
1.339895875118201143e-02
1.918992510128877255e-02
2.458211476295727241e-02
2.951358555264225331e-02
3.381821278877893827e-02
3.747006347646746754e-02
4.035677502081216200e-02
4.241815293858278851e-02
4.367511910184069396e-02
4.401805454094394332e-02
4.355803836388075917e-02
4.222622552819561836e-02
4.009698641552517095e-02
3.724642776409638201e-02
3.368076826271106800e-02
2.957906051516153226e-02
2.494377693214555256e-02
1.993034744183955556e-02
1.462692935266942176e-02
9.141517536447919118e-03
3.606041478124956661e-03
-1.891693387936080675e-03
-7.221148376266956111e-03
-1.230500496435515956e-02
-1.699995560356720378e-02
-2.128511604019254003e-02
-2.500791952475230062e-02
-2.814150109498180646e-02
-3.061886780419979109e-02
-3.234458661329927404e-02
-3.338194806351349464e-02
-3.359007374187242267e-02
-3.305360140993167384e-02
-3.172355527380597146e-02
-2.960370299000817523e-02
-2.679264737535663743e-02
-2.323773746421063310e-02
-1.908514927321690660e-02
-1.433811643050319357e-02
-9.093700595258671915e-03
-3.455162377326508917e-03
2.505324749939808349e-03
8.658151979416852523e-03
1.490709587033006017e-02
2.112391192067492734e-02
2.720905223747115825e-02
3.299837763810910263e-02
3.845166878665174509e-02
4.338053771151113847e-02
4.771646597865656508e-02
5.137515333355305303e-02
5.420469781836426137e-02
5.626104430295665593e-02
5.735970644268287288e-02
5.754651826911787865e-02
5.677972606123050242e-02
5.502017803797021323e-02
5.238676255269415771e-02
4.880895976922363516e-02
4.443059714691808409e-02
3.928389802424252925e-02
3.346406227312740539e-02
2.711114200236785718e-02
2.030775258189390642e-02
1.321472494886530985e-02
5.952606035447853029e-03
-1.321255025378615354e-03
-8.483207030406329785e-03
-1.534939044112609494e-02
-2.184152678622972368e-02
-2.777170305869704203e-02
-3.303787076955128771e-02
-3.755725788732942882e-02
-4.115619467015919214e-02
-4.389481304832815178e-02
-4.558101964208550322e-02
-4.625305386617501596e-02
-4.588575326512284863e-02
-4.443067648539360953e-02
-4.203875913013218474e-02
-3.862782906493310298e-02
-3.436222456519483909e-02
-2.928715405376692421e-02
-2.350884303257416014e-02
-1.719531834236277812e-02
-1.042268326284219448e-02
-3.386123031324823375e-03
3.800996600605657284e-03
1.095755441007826431e-02
1.795608113385727470e-02
2.461894598423594593e-02
3.083797971056371351e-02
3.646029755198453015e-02
4.136176009720006486e-02
4.548809991923114665e-02
4.867614326886362391e-02
5.097543544464225307e-02
5.224733015854488710e-02
5.251837356938619111e-02
5.181010988773982612e-02
5.007271324794854844e-02
4.748810084557178457e-02
4.398784238495715565e-02
3.973638540946924230e-02
3.480848386282586748e-02
2.929082643086763221e-02
2.337650239575008934e-02
1.711428848915372281e-02
1.069412480109623031e-02
4.216937829095013593e-03
-2.164508930632220475e-03
-8.335063849749111548e-03
-1.415805394129315484e-02
-1.953484584765224213e-02
-2.435774158387226870e-02
-2.851641620916203074e-02
-3.199236594307865861e-02
-3.464531359124789489e-02
-3.652102229125555460e-02
-3.752564936896417985e-02
-3.766421611258640584e-02
-3.698897388436192535e-02
-3.543373932163934592e-02
-3.315608780641434578e-02
-3.010549749314780227e-02
-2.639662159359087990e-02
-2.211415643031093212e-02
-1.729756173177091766e-02
-1.212262277513772440e-02
-6.616521333959014296e-03
-9.282043153040200542e-04
4.850184809271842687e-03
1.059998977778158803e-02
1.622681737821049519e-02
2.160957269876327344e-02
2.666363312271834499e-02
3.130010175841244774e-02
3.539939903691648876e-02
3.897009963852448439e-02
4.185276964167344155e-02
4.407839099927159804e-02
4.556827917650715237e-02
4.627559574168889356e-02
4.627554920683713685e-02
4.545069930904471756e-02
4.392755253468935694e-02
4.165506048229367791e-02
3.868271277314659640e-02
3.510316817165533981e-02
3.090034974424120395e-02
2.622321724433096524e-02
2.108553024274674795e-02
1.559962255003039672e-02
9.851438133120780580e-03
3.941742692940893716e-03
-2.038716936394092787e-03
-7.970191970863949732e-03
-1.374546486291053360e-02
-1.927895645711339215e-02
-2.439722255227213393e-02
-2.910569798103068706e-02
-3.319213859684640167e-02
-3.662323734237407646e-02
-3.931400578546571239e-02
-4.112250303666629969e-02
-4.212247669456710419e-02
-4.212671115019828855e-02
-4.120726295987416771e-02
-3.931714290937440154e-02
-3.643964014295918152e-02
-3.269354622911354452e-02
-2.803093047107658997e-02
-2.260808665549260757e-02
-1.646902686576474581e-02
-9.735755924531887262e-03
-2.548955975258784638e-03
4.966783142738432841e-03
1.265372542207951478e-02
2.035648407357537604e-02
2.790268859605661567e-02
3.516355219759375456e-02
4.191883548389113007e-02
4.811664649901881141e-02
5.353300640462128196e-02
5.808186639725984590e-02
6.168649120745396675e-02
6.417303453416429992e-02
6.564141051972192942e-02
6.589957675370203272e-02
6.502499807330544557e-02
6.301608936754900248e-02
5.985682757063065518e-02
5.572530293324098188e-02
5.057702043087462795e-02
4.460220631837386734e-02
3.787516624325412001e-02
3.053039802085912371e-02
2.274162367266807996e-02
1.462685155249869584e-02
6.368761271347558699e-03
-1.888774904998247531e-03
-9.962898371037691436e-03
-1.773680685569847121e-02
-2.499778448993492802e-02
-3.168366432225916407e-02
-3.759968569004924765e-02
-4.264253480091547560e-02
-4.675989139857814059e-02
-4.976261782211270635e-02
-5.174646010901805260e-02
-5.252184502823910306e-02
-5.214174140330271601e-02
-5.061134937264105682e-02
-4.788028348265972733e-02
-4.414324151732761103e-02
-3.931978739265289818e-02
-3.359763198505952286e-02
-2.704706255461955533e-02
-1.980010405574103571e-02
-1.203850131405320018e-02
-3.877879568060117917e-03
4.471809428555107400e-03
1.286881525039578443e-02
2.108698634199624583e-02
2.900611974646376268e-02
3.638456887524404298e-02
4.311293178813655619e-02
4.900953747589484322e-02
5.391316119841189913e-02
5.778813476811509725e-02
6.042515897766410210e-02
6.188829666801134999e-02
6.203523373510406308e-02
6.089239535401638759e-02
5.851194145047548811e-02
5.485970978583108726e-02
5.014132336647521976e-02
4.434017034243128291e-02
3.766182876961295806e-02
3.022675345604284788e-02
2.220158476966965777e-02
1.380580947299163072e-02
5.184220001558430269e-03
-3.417972108476475222e-03
-1.184900240137274144e-02
-1.985587333318611716e-02
-2.732258317079321736e-02
-3.401172526354757225e-02
-3.980258577236100298e-02
-4.455977626420928178e-02
-4.812515025530424151e-02
-5.051016579550248603e-02
-5.154552366475234626e-02
-5.130827499127012942e-02
-4.973549465753470539e-02
-4.687791840432364854e-02
-4.284552150216304478e-02
-3.765530347600794941e-02
-3.152763938996014370e-02
-2.451698399777219387e-02
-1.684954835849152704e-02
-8.678597933707149492e-03
-2.035406681938625381e-04
8.359051378589821973e-03
1.683551723789725868e-02
2.498276995642094087e-02
3.266158881308951767e-02
3.961609522508033332e-02
4.578002309878248521e-02
5.092358422873356077e-02
5.496325165576887439e-02
5.782234899546333240e-02
5.936719597455893810e-02
5.969711783928439985e-02
5.867106381786355018e-02
5.642007835925013509e-02
5.295534114959334765e-02
4.835195176378700305e-02
4.279914508396738537e-02
3.632910553937868103e-02
2.919226323086770991e-02
2.148172386088703645e-02
1.341517203547169801e-02
5.166596938170973929e-03
-3.087035001567384369e-03
-1.114946018825626814e-02
-1.886935913384691146e-02
-2.604522126218059008e-02
-3.258668504021016571e-02
-3.827706651158878370e-02
-4.310738989693312095e-02
-4.689909250966529247e-02
-4.960311808931990030e-02
-5.121931930595179788e-02
-5.160157037536264313e-02
-5.094084352921726677e-02
-4.907429807854072484e-02
-4.613389229487385029e-02
-4.218069617273623173e-02
-3.720990425155439735e-02
-3.147243784526880528e-02
-2.491887744711391781e-02
-1.776327850700986852e-02
-1.010508313898460936e-02
-2.056727565256473954e-03
6.185574525074960181e-03
1.453246784893056850e-02
2.282011416921225430e-02
3.091306067778834196e-02
3.867183897932641862e-02
4.600077072618650315e-02
5.271775656162665247e-02
5.880325995855902044e-02
6.408454851685779774e-02
6.849097161842979120e-02
7.201322144520921897e-02
7.446285476740106823e-02
7.597692068833038215e-02
7.637188061631450253e-02
7.569464379274423727e-02
7.398839483709454545e-02
7.114748428860642737e-02
6.739850791776934302e-02
6.261782164489897162e-02
5.694872240254671147e-02
5.047516983260824652e-02
4.323164141936813865e-02
3.541603675170187232e-02
2.707116301039333775e-02
1.835592796304707716e-02
9.413637031170958916e-03
3.876191689489889847e-04
-8.584593475899886944e-03
-1.730267541762487218e-02
-2.566835640546658720e-02
-3.347498867683289248e-02
-4.057785377641379143e-02
-4.689276776593281904e-02
-5.218648242668450649e-02
-5.647858107756222740e-02
-5.956341550523173295e-02
-6.142195148994807757e-02
-6.203468865627329715e-02
-6.130024956520446072e-02
-5.936729587382826717e-02
-5.614455144057806102e-02
-5.179246210342905443e-02
-4.637934231834747040e-02
-4.002059599683732011e-02
-3.293217096568912955e-02
-2.520973433295857144e-02
-1.711414154289518999e-02
-8.793006924819268821e-03
-5.024551442789427017e-04
7.585641071702098857e-03
1.524234589230277770e-02
2.227805414735000572e-02
2.853125352445010435e-02
3.380906017587072959e-02
3.805109482017115380e-02
4.108145800974470629e-02
4.290922475402134117e-02
4.344673393816043949e-02
4.272755311429962677e-02
4.080858695518234380e-02
3.771351278918011474e-02
3.363613723310067416e-02
2.861191270934003439e-02
2.289223949993240276e-02
1.659456520653599873e-02
9.938387151751246901e-03
3.156283147405573170e-03
-3.612318335810113003e-03
-1.006812497962715838e-02
-1.611177604133138055e-02
-2.147263404575146251e-02
-2.604542030715076284e-02
-2.966675149729235822e-02
-3.218975246064317841e-02
-3.358932867632240249e-02
-3.372896101697404891e-02
-3.268143922150235775e-02
-3.037779005201005772e-02
-2.690190266278911363e-02
-2.231977132517410853e-02
-1.672270409224504290e-02
-1.028191965540526179e-02
-3.103911976705870691e-03
4.587113488279405925e-03
1.265063551309728723e-02
2.083912155628736898e-02
2.899112497330591856e-02
3.687204335262965482e-02
4.429461357163453489e-02
5.108897276727090292e-02
5.703240548822093720e-02
6.205375392177754634e-02
6.593140845427182539e-02
6.865579130004204056e-02
7.009408590017156271e-02
7.020569166624557322e-02
6.903190769858494336e-02
6.650142719683642401e-02
6.278973214663251257e-02
5.786726734260431299e-02
5.189408625799531855e-02
4.499613597874410620e-02
3.729308532912809643e-02
2.901344045320448928e-02
2.027419711035469141e-02
1.130388522360793388e-02
2.266572800082050209e-03
-6.619308416818126851e-03
-1.520587604736228088e-02
-2.327413822182722303e-02
-3.069484067271437827e-02
-3.730530940394127110e-02
-4.294609367290601332e-02
-4.758823555428556840e-02
-5.103393161416618085e-02
-5.333641288132760783e-02
-5.437177160565847406e-02
-5.415083920622431463e-02
-5.273869831897369520e-02
-5.007379470973365859e-02
-4.635869713148800531e-02
-4.155815010275917126e-02
-3.585238895416036770e-02
-2.936023608517632916e-02
-2.219421699423654998e-02
-1.458681061674867163e-02
-6.629317046248673316e-03
1.443598158802039157e-03
9.494698424730137545e-03
1.731059811664657430e-02
2.476053943771788779e-02
3.164813269126157125e-02
3.784020540247003822e-02
4.321508724779966198e-02
4.761082976237295677e-02
5.103434198388161896e-02
5.330679841684764914e-02
5.447959237882394473e-02
5.448430359956959318e-02
5.332868644096810246e-02
5.112081631312426211e-02
4.781790258600176341e-02
4.361979417886655691e-02
3.854031798897856326e-02
3.275186134676942584e-02
2.639746561659502347e-02
1.959080632009158746e-02
1.255335219810201595e-02
5.384075581794822707e-03
-1.699645428313407806e-03
-8.575196178980601380e-03
-1.505482463128155271e-02
-2.102282852100835139e-02
-2.632713955816229356e-02
-3.084975766178439660e-02
-3.451615306255308158e-02
-3.719467415445164987e-02
-3.892252804192163074e-02
-3.957162635920103561e-02
-3.919837218041505311e-02
-3.779205519360469279e-02
-3.537934860548906657e-02
-3.208895973452318556e-02
-2.792113117662436278e-02
-2.306151148797749156e-02
-1.757163427933686878e-02
-1.162236803062946869e-02
-5.362321403092787202e-03
1.075621062835274873e-03
7.495839580625553514e-03
1.378053412001998407e-02
1.973503334600758621e-02
2.525290995621770618e-02
3.016410948064385603e-02
3.438686326512375990e-02
3.779953066836013592e-02
4.032642005963594373e-02
4.194143927241855696e-02
4.256372446228151585e-02
4.227492854720635296e-02
4.101469563416849234e-02
3.888408039009996070e-02
3.593603020674607934e-02
3.223795166592619693e-02
2.796942604970113766e-02
2.316546356730283043e-02
1.802759375145467774e-02
1.264681400261763629e-02
7.188331369817593276e-03
1.791507012950413653e-03
-3.427256885522043765e-03
-8.317891335817419879e-03
-1.280009835735692811e-02
-1.673400130400307106e-02
-2.009071541899506985e-02
-2.275117746186125847e-02
-2.471329511891892303e-02
-2.592763428622740091e-02
-2.636621790855269570e-02
-2.609491631712917981e-02
-2.505061275005545859e-02
-2.336342271542926272e-02
-2.100911853905476981e-02
-1.806856851820983975e-02
-1.463727412259932872e-02
-1.072583832293346959e-02
-6.499640441274685300e-03
-1.965374017756266710e-03
2.755557074494020386e-03
7.583905006045596475e-03
1.244693603707857157e-02
1.724555986152619819e-02
2.191360865993297741e-02
2.636941104343036926e-02
3.055158862920582391e-02
3.436120023571430371e-02
3.779981538433863086e-02
4.073922696528783916e-02
4.318178307985443692e-02
4.506847097662493307e-02
4.632536904134573752e-02
4.701851392934629920e-02
4.701499264693655838e-02
4.639722186073737265e-02
4.511688431466018973e-02
4.316539532290418479e-02
4.063787514151384617e-02
3.746664952164793089e-02
3.377943625309434705e-02
2.957497753709437474e-02
2.491324580898372082e-02
1.989793492633554900e-02
1.456259610714196601e-02
9.019127096578405042e-03
3.346180973972107640e-03
-2.373170508009596162e-03
-8.039028938824008264e-03
-1.353625062030227449e-02
-1.883224738843913837e-02
-2.376289629625069275e-02
-2.828919128867325716e-02
-3.232306729839919818e-02
-3.573773056256979164e-02
-3.858448947071002610e-02
-4.067642233890667036e-02
-4.205812969087168590e-02
-4.266634608138196449e-02
-4.243823583859780008e-02
-4.147811320503513172e-02
-3.966286747632701004e-02
-3.711345527291803892e-02
-3.381452589769767814e-02
-2.980074602434765185e-02
-2.519587001692854752e-02
-1.999553755672792837e-02
-1.434496618403735199e-02
-8.304155402052128265e-03
-1.977215723532183868e-03
4.517256367876865131e-03
1.106711291670149123e-02
1.757882451304802057e-02
2.390529956856444344e-02
2.995000989187066032e-02
3.561519905781087431e-02
4.073461463261006388e-02
4.532947087446396323e-02
4.919160281054634626e-02
5.231395251046006695e-02
5.463291370232183086e-02
5.602898291446783974e-02
5.661931653160764272e-02
5.623112516999902860e-02
5.496856494298917734e-02
5.281677216091585497e-02
4.977159286671492544e-02
4.598846498310692199e-02
4.141494951293018395e-02
3.621786580697274049e-02
3.044470882865913872e-02
2.419606182335910446e-02
1.761408530722999993e-02
1.078092571937407269e-02
3.837031949591057124e-03
-3.099894627571995846e-03
-9.900433270597426560e-03
-1.646243666878392103e-02
-2.261984350344102904e-02
-2.833543657237286989e-02
-3.343178783046114183e-02
-3.784261186460450427e-02
-4.150815269346452147e-02
-4.427117106766464277e-02
-4.622190718602185722e-02
-4.717505846557672883e-02
-4.718502007076942617e-02
-4.623829696402192296e-02
-4.428642568304088506e-02
-4.148637026128284416e-02
-3.775448948503679764e-02
-3.324349946052664734e-02
-2.800078710139838195e-02
-2.211744808088459899e-02
-1.574856860258766825e-02
-8.969083050873283974e-03
-1.947618073392919265e-03
5.198507917175735314e-03
1.230458743441995711e-02
1.925504363587153892e-02
2.586635965016991293e-02
3.205026430849649416e-02
3.764213250659138171e-02
4.252395511104401643e-02
4.664146646145017616e-02
4.982142390083676292e-02
5.211577442359179024e-02
5.337437723172466092e-02
5.362043532017127245e-02
5.286746816749515743e-02
5.106398648422105085e-02
4.837860890721230878e-02
4.474812955126808434e-02
4.033306020301796746e-02
3.520374364987068072e-02
2.946471475121295938e-02
2.329192310376738267e-02
1.676334229005788448e-02
1.007117384818368225e-02
3.322703404780463256e-03
-3.294313739183088972e-03
-9.680620706758617799e-03
-1.565505142251049503e-02
-2.111578121025794660e-02
-2.594291166471211774e-02
-2.999253866001938551e-02
-3.326122731166090973e-02
-3.557271160930387116e-02
-3.697752363993603991e-02
-3.737729209374311690e-02
-3.676581656904703149e-02
-3.521389430628166922e-02
-3.265181116897628022e-02
-2.925380632473063153e-02
-2.498782089244622889e-02
-1.998773948966114586e-02
-1.436330335367324088e-02
-8.188934222570644350e-03
-1.660237867831822201e-03
5.152691714880104808e-03
1.206751278807913046e-02
1.896716120096879343e-02
2.568242196545543476e-02
3.211122073456434273e-02
3.808592795373046819e-02
4.350172672703016968e-02
4.825796414255568295e-02
5.220368592064238145e-02
5.536059498884000896e-02
5.754984329777652202e-02
5.881292452204769233e-02
5.908676265011342937e-02
5.833413919811119425e-02
5.666804414592466199e-02
5.399495387414971620e-02
5.048055878374387712e-02
4.612064632098320655e-02
4.100498215530929552e-02
3.528019033850966768e-02
2.897816949232445358e-02
2.229058477596414234e-02
1.528780737324164293e-02
8.113112002856047444e-03
8.996164799990272881e-04
-6.225389288593325028e-03
-1.315396840867581393e-02
-1.973674149536079614e-02
-2.588048070251040139e-02
-3.148153470889651639e-02
-3.639525033430776602e-02
-4.064484140242278359e-02
-4.403792790246919414e-02
-4.659937363918124215e-02
-4.825875620263560956e-02
-4.894874195932933519e-02
-4.877409121532854525e-02
-4.760320709168662512e-02
-4.556872310654340452e-02
-4.264947590618577145e-02
-3.889775656529505937e-02
-3.444658659382018179e-02
-2.929369884067228869e-02
-2.361448285000622774e-02
-1.746345766857125559e-02
-1.097853329700614403e-02
-4.286505837833913708e-03
2.489536169562678661e-03
9.220118682356833600e-03
1.576756208925984837e-02
2.200221315643367814e-02
2.782298043330552056e-02
3.306312084295674053e-02
3.770950894703495315e-02
4.158205802678707763e-02
4.465782054328045619e-02
4.687818069879320926e-02
4.814695987237112978e-02
4.856996095495509647e-02
4.801131393076026738e-02
4.658488913063454223e-02
4.428729958343625289e-02
4.116668044524257608e-02
3.736395229629388415e-02
3.288203330691096687e-02
2.790202917578492314e-02
2.247954708001012603e-02
1.677337073291961314e-02
1.089869300203825248e-02
4.985851031998125849e-03
-8.208276967802330057e-04
-6.414820968258526206e-03
-1.163186190684052657e-02
-1.640961487732621460e-02
-2.057535338556366195e-02
-2.409773383921746254e-02
-2.684977515269446752e-02
-2.876806455774168908e-02
-2.984159500725631908e-02
-2.996877081800804199e-02
-2.923880211100416543e-02
-2.756950638867431552e-02
-2.504338363624185673e-02
-2.169901342930892485e-02
-1.758606888340085578e-02
-1.285316223159811005e-02
-7.538258523092170212e-03
-1.820290429466068192e-03
4.212869594422010040e-03
1.037711251431881407e-02
1.655508235595391439e-02
2.257733849388754432e-02
2.828800394344896385e-02
3.357147727259032766e-02
3.823371274840555584e-02
4.223189018094189451e-02
4.537675774550884583e-02
4.763722630672593411e-02
4.892179863974924908e-02
4.916388553010565821e-02
4.840601616074020896e-02
4.657327872028047683e-02
4.377882570359701436e-02
4.001531680097999283e-02
3.538980377491532381e-02
3.000606127806639684e-02
2.396250122635838753e-02
1.743213779749056697e-02
1.052240018952839071e-02
3.431724152572523338e-03
-3.717159603431586211e-03
-1.070835712588086644e-02
-1.743502753045973394e-02
-2.369549764504168265e-02
-2.934587741253089077e-02
-3.428165842582733824e-02
-3.831070056866881651e-02
-4.143989299285885664e-02
-4.348213190387132526e-02
-4.444504559299828489e-02
-4.427665912854623215e-02
-4.293846043984074490e-02
-4.052896523930683836e-02
-3.699855927757277063e-02
-3.250059307389721597e-02
-2.707092221283975697e-02
-2.085194980604544376e-02
-1.398510772217735967e-02
-6.601631148064329192e-03
1.099435801834870371e-03
8.979526949543594622e-03
1.681375756839061444e-02
2.446742059533883740e-02
3.170413944196470019e-02
3.841041397752840980e-02
4.438402172126332257e-02
4.947988450563713808e-02
5.361389179925712262e-02
5.660094744946870399e-02
5.849187740616145631e-02
5.911837089607571011e-02
5.852715686365496384e-02
5.671655908171255311e-02
5.369099056110424040e-02
4.960860684779185015e-02
4.446393498917220605e-02
3.845969322656384720e-02
3.168262260858198398e-02
2.432329416416505879e-02
1.655630889701049588e-02
8.549178643804770938e-03
5.229668309549668700e-04
-7.370738350550613653e-03
-1.489191708953093926e-02
-2.192231712853211223e-02
-2.823105958937294213e-02
-3.372217226702804715e-02
-3.823389624058610992e-02
-4.164757086994084340e-02
-4.393426893690385859e-02
-4.495582382912911845e-02
-4.479809999939688564e-02
-4.336745135307641663e-02
-4.075265964611966829e-02
-3.701202497077309139e-02
-3.220027521226778711e-02
-2.652110953849812214e-02
-2.001716794038136890e-02
-1.292491140446610023e-02
-5.365143023312662733e-03
2.440018702426573032e-03
1.031164894605442889e-02
1.806135070076699337e-02
2.547323730890740240e-02
3.240787125278216801e-02
3.863053873052928189e-02
4.407426318261662562e-02
4.852370874201990258e-02
5.193006743914969220e-02
5.419098040237807501e-02
5.522419152829419892e-02
5.508860515069973623e-02
5.368390161651003661e-02
5.115633302134259264e-02
4.748609657719987664e-02
4.279391814917846149e-02
3.721461430069498977e-02
3.082395643851469982e-02
2.385455231526342756e-02
1.638793840146066105e-02
8.651623460570268334e-03
7.856863994330325063e-04
-7.008962639259301401e-03
-1.457880619239434669e-02
-2.175171996395065463e-02
-2.835952481673628678e-02
-3.430211158250717068e-02
-3.937785371074502272e-02
-4.359989278783107242e-02
-4.676662310307923287e-02
-4.888053389215737260e-02
-4.989258185291318287e-02
-4.972065459480525668e-02
-4.849996986149662792e-02
-4.610674597888304860e-02
-4.270209422627686824e-02
-3.829302804131298060e-02
-3.295334321194616500e-02
-2.685885540143426869e-02
-2.002852763144275308e-02
-1.267937083891407940e-02
-4.891038945208154264e-03
3.168560109759872151e-03
1.134570098341827413e-02
1.949013668211002984e-02
2.745888387146301277e-02
3.508882923904474427e-02
4.223739625136053999e-02
4.879971658440988846e-02
5.457755442029911530e-02
5.958961375454042975e-02
6.361641932502827557e-02
6.664643048010319981e-02
6.863108408227319712e-02
6.944295034952426005e-02
6.923934902823587756e-02
6.784426047377556390e-02
6.539385757201991722e-02
6.190037474488714608e-02
5.738119392091035192e-02
5.203337226070587490e-02
4.582590948586305613e-02
3.896028476599457807e-02
3.151567831647159729e-02
2.362577703896042575e-02
1.545623536612073662e-02
7.129022697953565219e-03
-1.202279616894474414e-03
-9.384391280664376028e-03
-1.726481478071405923e-02
-2.473501441997791664e-02
-3.158940632199085108e-02
-3.780534487163995233e-02
-4.317280580066466811e-02
-4.762893823573392804e-02
-5.111936501141937234e-02
-5.347220166728718083e-02
-5.481118906324178308e-02
-5.493853844287398258e-02
-5.393976949999949866e-02
-5.181737856080021604e-02
-4.854365381783130179e-02
-4.431709239161186337e-02
-3.907102928623006066e-02
-3.300391487653601269e-02
-2.619172085161355218e-02
-1.877380744001460808e-02
-1.093446909492342897e-02
-2.795819959305363180e-03
5.440396966973444146e-03
1.362439015025375399e-02
2.155052706903128751e-02
2.909648797123323347e-02
3.603899904516134900e-02
4.229360037354547297e-02
4.768169250269041481e-02
5.208549094574090738e-02
5.547462353655797235e-02
5.767460992141203863e-02
5.878146670365688026e-02
5.866154679916697062e-02
5.737967113696845756e-02
5.499519203476539025e-02
5.148866465735957992e-02
4.708821208049792512e-02
4.176373296022692361e-02
3.572483161073824326e-02
2.908535536420677262e-02
2.197829530711561258e-02
1.462304925179058399e-02
7.114046526041255432e-03
-3.376923758826276545e-04
-7.607095915102287699e-03
-1.451247807055284361e-02
-2.095137580058060653e-02
-2.675550460970467503e-02
-3.184686136727229999e-02
-3.611767515034951248e-02
-3.946540812068147219e-02
-4.191199269419104007e-02
-4.331690694580501988e-02
-4.377414847602613401e-02
-4.321248861071635278e-02
-4.167235005528586306e-02
-3.925456868193315935e-02
-3.591925249021049593e-02
-3.187097203790430905e-02
-2.709556781235614858e-02
-2.174255170984449453e-02
-1.593573597659582106e-02
-9.743605847399600811e-03
-3.362333920074687781e-03
3.147886892846183619e-03
9.631273086495344832e-03
1.597677152135822121e-02
2.205979757536273220e-02
2.779676169134490116e-02
3.305448550185710599e-02
3.777435089107139543e-02
4.187070541995668860e-02
4.524858998510682823e-02
4.794718749479243841e-02
4.982216267545367533e-02
5.094709537884039435e-02
5.126600449619915512e-02
5.077259191953271966e-02
4.957694852538706287e-02
4.759230740803122028e-02
4.497973622075306793e-02
4.171863009602106570e-02
3.788535570577081929e-02
3.359925718584251542e-02
2.886137042379414291e-02
2.383120997131657134e-02
1.853954991112836959e-02
1.309002917404508692e-02
7.577892990699871233e-03
2.082858788510435263e-03
-3.316959648040208701e-03
-8.518783111338402297e-03
-1.345809858099503500e-02
-1.806284359865782674e-02
-2.221503290212745521e-02
-2.595049540518595821e-02
-2.909860032035208738e-02
-3.167785802923561711e-02
-3.362922110325742425e-02
-3.486475174767054985e-02
-3.548233011476589066e-02
-3.532638044254738513e-02
-3.449191299843105962e-02
-3.294243691607808000e-02
-3.066954210319697283e-02
-2.779004988976965795e-02
-2.423915729222855461e-02
-2.015332128331545278e-02
-1.554953091808664381e-02
-1.050250641273317923e-02
-5.125441213058073466e-03
5.263765679674615311e-04
6.332537555579392449e-03
1.219838806957243560e-02
1.801672858505196442e-02
2.368936605544081156e-02
2.907768152835877098e-02
3.413905441232611970e-02
3.871304993148039220e-02
4.274040481532194458e-02
4.615350558568850903e-02
4.881470694164623952e-02
5.079899792685271115e-02
5.193397425628978187e-02
5.226998687828100787e-02
5.179010472430965045e-02
5.044692931046232398e-02
4.838660611408227702e-02
4.552214401995007681e-02
4.199407955260876096e-02
3.784202562572114292e-02
3.312066085433677809e-02
2.799142647247029186e-02
2.247378380930665359e-02
1.672266868054934907e-02
1.082290244676521046e-02
4.872411037708741614e-03
-1.005973660866544064e-03
-6.720798984748141587e-03
-1.219298935052033281e-02
-1.730842058645508386e-02
-2.200777461023720530e-02
-2.623194228289657537e-02
-2.987433494951021590e-02
-3.298141852732434931e-02
-3.542244004474127961e-02
-3.722579390105022756e-02
-3.838426612718268821e-02
-3.882062762988517518e-02
-3.868496270228653777e-02
-3.784582080142785687e-02
-3.640787432256064465e-02
-3.438912178229609068e-02
-3.177149881765583411e-02
-2.870806550909404953e-02
-2.513127669109460616e-02
-2.115893786045180275e-02
-1.682819371873411213e-02
-1.217522526198563937e-02
-7.306656371749720331e-03
-2.248899064677460820e-03
2.918927238341463733e-03
8.118971163992714374e-03
1.328711052004530671e-02
1.835843667311673130e-02
2.322089147164183368e-02
2.785976084439898554e-02
3.214009310347680504e-02
3.601123976954075795e-02
3.942980390874523122e-02
4.225336083413878258e-02
4.454050562187667622e-02
4.613111241222660197e-02
4.703698312954823768e-02
4.724189974855510371e-02
4.665777898814735952e-02
4.541239147621740913e-02
4.339570264751707596e-02
4.070508708086838928e-02
3.737570084346503868e-02
3.343324063550373593e-02
2.902365366614836906e-02
2.416182473555088944e-02
1.898583174968796958e-02
1.358604131581519006e-02
8.070399765837838260e-03
2.556987221073258373e-03
-2.841362949570591483e-03
-8.028642723900001471e-03
-1.288897932278821115e-02
-1.732529203353376512e-02
-2.128531650178214565e-02
-2.464179335404851137e-02
-2.740962313066977463e-02
-2.948556290931295815e-02
-3.086163614937084687e-02
-3.155859631919177843e-02
-3.150263669012206419e-02
-3.082258341102361160e-02
-2.944878037753132644e-02
-2.747047347384807409e-02
-2.495351222793835630e-02
-2.189498974536033954e-02
-1.847232732568849720e-02
-1.465645176894288942e-02
-1.057494843529396822e-02
-6.302797739616437279e-03
-1.885610688722502010e-03
2.548826868596872509e-03
6.973573981512818341e-03
1.130607923965344999e-02
1.547866701519325441e-02
1.944245364087980252e-02
2.315481432366225598e-02
2.654451006330153101e-02
2.961558710211421863e-02
3.229906301170091393e-02
3.457431592938736004e-02
3.646133072347361448e-02
3.786845410806060491e-02
3.887792058724227895e-02
3.941064422839598430e-02
3.948319902250863739e-02
3.914417733580815434e-02
3.831049513022279779e-02
3.710843968422692513e-02
3.546278234104747323e-02
3.341981846721246707e-02
3.103730421358404795e-02
2.826790519132702656e-02
2.523718571721167078e-02
2.190651122870688333e-02
1.833009084874691330e-02
1.457132199258429073e-02
1.063493196146079317e-02
6.597514702468207370e-03
2.497049393118436992e-03
-1.635355871777386186e-03
-5.724081217757801161e-03
-9.722200342380037802e-03
-1.361026525501006848e-02
-1.727557344947876217e-02
-2.073044592855876125e-02
-2.388003686786458260e-02
-2.666473247103006566e-02
-2.910497541411722483e-02
-3.105094878390562974e-02
-3.256508379236257300e-02
-3.354076292742624865e-02
-3.394310638139497183e-02
-3.381606679916494829e-02
-3.303208516860339089e-02
-3.169718981243304506e-02
-2.972917643074187571e-02
-2.714765350888986156e-02
-2.401810033022307861e-02
-2.029523029917840865e-02
-1.610228371313333906e-02
-1.143560018817976059e-02
-6.365398110467878311e-03
-9.849562790827520731e-04
4.645143411055510825e-03
1.043315148143011614e-02
1.626635702310214385e-02
2.207211440440727535e-02
2.773046860720091225e-02
3.311867508830045048e-02
3.820226818024785587e-02
4.279250081638735076e-02
4.687584095806800882e-02
5.032753873932246935e-02
5.304978635174935342e-02
5.507321988618957970e-02
5.622550550231205507e-02
5.659047751711582946e-02
5.607783749334570994e-02
5.468491117412811048e-02
5.249758032873570041e-02
4.944107304741637843e-02
4.567362716355055641e-02
4.117750304305452941e-02
3.604594004501972260e-02
3.039326130828513481e-02
2.426891035251487957e-02
1.782527193116976647e-02
1.114406179468566647e-02
4.346539566730103776e-03
-2.447565586208095591e-03
-9.100766792391065674e-03
-1.554880268150779163e-02
-2.161146848242971596e-02
-2.722899330257758793e-02
-3.228692385551193422e-02
-3.664875121290854521e-02
-4.034199950601018853e-02
-4.316534248481317115e-02
-4.516593825908376408e-02
-4.624912156977212946e-02
-4.636609019559409517e-02
-4.560179461456001504e-02
-4.383553293057033950e-02
-4.120796758416916256e-02
-3.768194273167294744e-02
-3.333227358112147293e-02
-2.826966851904291755e-02
-2.252339731973698397e-02
-1.626145233686972225e-02
-9.550857462103976014e-03
-2.547069790392900331e-03
4.632782804593497950e-03
1.182067544723706086e-02
1.891460554709694861e-02
2.573090220278195436e-02
3.213906382969943659e-02
3.803313902217911324e-02
4.320417428448516950e-02
4.768048842639724394e-02
5.122201026122726736e-02
5.382448950375639390e-02
5.541857543851004542e-02
5.589390123916770925e-02
5.537200143269312147e-02
5.370168648607472756e-02
5.101690601157084226e-02
4.731319503407578619e-02
4.264738070620342769e-02
3.717293533715306658e-02
3.091257671647509170e-02
2.405979454088904776e-02
1.669629931301286688e-02
9.003086778556015218e-03
1.107007690924095844e-03
-6.802783305780242019e-03
-1.459575420964916853e-02
-2.209603556240510511e-02
-2.911843161261361973e-02
-3.558624468642068023e-02
-4.123788698926260377e-02
-4.609384804302886496e-02
-4.991646690516397117e-02
-5.264032805866061121e-02
-5.424020024744623941e-02
-5.452510953726572712e-02
-5.366435886073429862e-02
-5.146052639564335091e-02
-4.801871628036928630e-02
-4.337520186731259886e-02
-3.753404218634862760e-02
-3.069970900322065155e-02
-2.287514429605420202e-02
-1.426775967635445300e-02
-5.000519082542708056e-03
4.733630549313612781e-03
1.475774724277354941e-02
2.485099135989305222e-02
3.482621209054313077e-02
4.446808738858964993e-02
5.352692294496057962e-02
6.189214583348950222e-02
6.924579641039213529e-02
7.554782536635284984e-02
8.054952644972958320e-02
8.412639130928463438e-02
8.626154754643809708e-02
8.673535771549964468e-02
8.570667845024534937e-02
8.301077088466310427e-02
7.875221926928288596e-02
7.302208907146222339e-02
6.583866025299220381e-02
5.748856670906475619e-02
4.800012489252246384e-02
3.764731738777515879e-02
2.661646169520585914e-02
1.514763713704799994e-02
3.490206194766122538e-03
-8.109624861540456336e-03
-1.940176199485741521e-02
-3.015320722028195372e-02
-4.009065853158112064e-02
-4.908737014426906714e-02
-5.684265716421094822e-02
-6.329904367675319443e-02
-6.825282059063013385e-02
-7.160574052433811565e-02
-7.337719289125460564e-02
-7.340529660822851798e-02
-7.187191578811953641e-02
-6.868373522550404175e-02
-6.399994902330916058e-02
-5.795449736406844271e-02
-5.062285188806253666e-02
-4.231987553244084127e-02
-3.311165817160475339e-02
-2.331263064711117106e-02
-1.310866821255656303e-02
-2.750653040490355465e-03
7.505406774745422387e-03
1.745478879921361082e-02
2.684431458427987555e-02
3.550322690841684059e-02
4.319109413736123976e-02
4.983685838516933170e-02
5.521336899630288619e-02
5.929631043059832574e-02
6.198026448719546472e-02
6.321512906912635232e-02
6.309396976574263571e-02
6.152170547492834263e-02
5.870283718756764968e-02
5.462263223047794658e-02
4.945725317587738173e-02
4.337123128292540847e-02
3.645777437526432491e-02
2.900438637886267740e-02
2.108936604844537099e-02
1.299311328602063657e-02
4.861506603181799460e-03
-3.090015971779199420e-03
-1.067135283090528061e-02
-1.773086870907104179e-02
-2.406681844324290789e-02
-2.959349048602118865e-02
-3.411139640661096234e-02
-3.762723385338262450e-02
-3.997244106039165440e-02
-4.114755590875419922e-02
-4.113467052235741245e-02
-3.988722571408265943e-02
-3.755571127958527711e-02
-3.407202431590360819e-02
-2.962073837434754664e-02
-2.425236921700297740e-02
-1.810601760521248632e-02
-1.136865004083617570e-02
-4.132643980823314141e-03
3.361983394392750474e-03
1.100235382523189615e-02
1.856169358887871032e-02
2.590002836839637793e-02
3.282222786518175506e-02
3.918547656674706281e-02
4.484479020160721946e-02
4.964471044624220453e-02
5.353629194343268588e-02
5.635145129213571524e-02
5.813332712924138002e-02
5.876221556351476916e-02
5.826191496115586121e-02
5.667585213071792832e-02
5.396860977871641846e-02
5.033764777264329582e-02
4.574322602906708696e-02
4.036562385449048856e-02
3.430841381380073801e-02
2.768139922760162047e-02
2.069683728150067265e-02
1.343315078968721279e-02
6.093167801900396807e-03
-1.196852752661966592e-03
-8.272954177510744717e-03
-1.500781358740223628e-02
-2.125105325531846667e-02
-2.690829074453243708e-02
-3.185871481768864227e-02
-3.600607267927462968e-02
-3.933067836136899115e-02
-4.170380132090153319e-02
-4.319209283153543910e-02
-4.370524923976457782e-02
-4.328293538760887016e-02
-4.198579951021121082e-02
-3.977803609167344934e-02
-3.684312803461093494e-02
-3.314678570075328679e-02
-2.883853586898559029e-02
-2.401586709322107646e-02
-1.874406977633533838e-02
-1.321622393624678066e-02
-7.470971653080971976e-03
-1.668671611606605681e-03
4.091516067044699556e-03
9.696998536160227403e-03
1.504980950167330439e-02
2.004364124877103942e-02
2.461214814451158708e-02
2.867192344266389706e-02
3.214669074342478561e-02
3.504771456362564680e-02
3.725933715413950326e-02
3.884278963771933130e-02
3.973427397810922607e-02
3.994436723508029002e-02
3.954622733810052998e-02
3.847353855111684123e-02
3.686927853107082459e-02
3.469417556867351177e-02
3.203424978993510419e-02
2.896595458459000003e-02
2.549866681041173047e-02
2.176844094454596923e-02
1.777984067806714225e-02
1.363928808536206058e-02
9.400479405514548803e-03
5.144319411791958667e-03
9.298766193596109605e-04
-3.162298990015975468e-03
-7.060733143186473555e-03
-1.071802231514144485e-02
-1.401455083585154485e-02
-1.697573719330608411e-02
-1.945106995187165580e-02
-2.143656889978381302e-02
-2.287753515071037913e-02
-2.368438688011872614e-02
-2.392286510196389715e-02
-2.346168124307835071e-02
-2.236809080438504488e-02
-2.060745317486528325e-02
-1.818203368965999253e-02
-1.517591201431369927e-02
-1.156506731194956172e-02
-7.465456807376158639e-03
-2.910269177364129510e-03
1.999888593845285892e-03
7.172250196387813803e-03
1.249965957432348437e-02
1.787625515838274851e-02
2.318293057339684132e-02
2.828854285902883056e-02
3.311213853927792022e-02
3.747976130938514283e-02
4.137113679883425155e-02
4.462015717200850523e-02
4.716743226581826542e-02
4.897489540815565257e-02
4.991383765658196497e-02
5.007611521493943174e-02
4.933169794750724702e-02
4.774434690594649144e-02
4.533515817663288927e-02
4.209923500951148062e-02
3.818012242334876266e-02
3.356464580937873476e-02
2.839305016746099947e-02
2.274098549583191201e-02
1.671170655592353615e-02
1.043567045176049465e-02
4.017520120119110090e-03
-2.419872540313366092e-03
-8.754494024407644126e-03
-1.485581148363776874e-02
-2.064235687807476974e-02
-2.594645765241959667e-02
-3.074089249859200679e-02
-3.487075036083674140e-02
-3.826963309013207970e-02
-4.090552926659866972e-02
-4.263622661847827483e-02
-4.355020529928370354e-02
-4.350508697527192409e-02
-4.255159524526008069e-02
-4.070414215790131574e-02
-3.793329422543354618e-02
-3.439477731459262416e-02
-3.004326432718119888e-02
-2.502545983970541274e-02
-1.941043433110162253e-02
-1.330807739569544665e-02
-6.857725299851460780e-03
-1.689088678341133312e-04
6.606631053361068998e-03
1.334459303527948601e-02
1.987128798439732197e-02
2.610395689534060482e-02
3.183968468283784881e-02
3.701923637759181596e-02
4.149129566696927590e-02
4.514114639782605687e-02
4.796168954976576249e-02
4.977622099220562618e-02
5.067159540470186213e-02
5.052564055482065830e-02
4.936891001084830338e-02
4.726516933748294014e-02
4.416333549585405027e-02
4.026106071266204178e-02
3.552036871991739314e-02
3.010011252584154570e-02
2.410663346793592149e-02
1.763149264511726724e-02
1.086924021432152977e-02
3.897216545247163613e-03
-3.106519099331873750e-03
-1.002423750560189203e-02
-1.669012747113280196e-02
-2.301465954528518487e-02
-2.882576162957518895e-02
-3.404581799811053772e-02
-3.856615001823712058e-02
-4.225853651127652044e-02
-4.515000474331666569e-02
-4.706445099473914595e-02
-4.807517729370702764e-02
-4.810024384893939881e-02
-4.712559852761587925e-02
-4.526057021903037020e-02
-4.240664758160123810e-02
-3.875430673026963868e-02
-3.427158718483335614e-02
-2.905684669971658751e-02
-2.325412348362651538e-02
-1.687507840141673834e-02
-1.013180935568661067e-02
-3.067347347583381130e-03
4.181314577213001565e-03
1.147155540424349765e-02
1.870877253911365848e-02
2.576626673759405128e-02
3.251584659698524005e-02
3.888193365901607135e-02
4.474309265879077013e-02
4.999510113144958051e-02
5.463755679189705866e-02
5.850007736462031066e-02
6.162628839950216181e-02
6.392443219020210732e-02
6.535199671517721853e-02
6.599905327685379186e-02
6.572863329348116457e-02
6.468578363874644133e-02
6.281583009829028175e-02
6.015927318772892884e-02
5.683731145723332906e-02
5.279816853488924350e-02
4.821272416070661315e-02
4.308185259341121981e-02
3.749577554865975160e-02
3.156332843224136236e-02
2.533487165766417151e-02
1.891920167708112735e-02
1.240765258704871338e-02
5.881459170776272803e-03
-5.640132025137361768e-04
-6.794125983270158688e-03
-1.281161789314065602e-02
-1.841167674958515965e-02
-2.357536261985257800e-02
-2.820016257639704205e-02
-3.214109678763933664e-02
-3.546643305210052388e-02
-3.794223186093302613e-02
-3.962732499523564933e-02
-4.042016319710908107e-02
-4.026078264450857341e-02
-3.922742454458681693e-02
-3.719195782158300767e-02
-3.427479747888484418e-02
-3.043589224668979965e-02
-2.575978833343051111e-02
-2.032169833005338308e-02
-1.419931296789943287e-02
-7.530270428399632975e-03
-4.136024231487242867e-04
6.947953382984722696e-03
1.446546943730468715e-02
2.186998959827739578e-02
2.907453606989691269e-02
3.583221050743946173e-02
4.194403281904012654e-02
4.731358533735391392e-02
5.163613693636556756e-02
5.494276355552759478e-02
5.695560544668053227e-02
5.762969378583011199e-02
5.692054491550811723e-02
5.470819309773132522e-02
5.113063570196230145e-02
4.609947981756285645e-02
3.977584613940263886e-02
3.224152531286827994e-02
2.365969125890486635e-02
1.423871201338650777e-02
4.167470337634173599e-03
-6.277897834925613187e-03
-1.688254386614464198e-02
-2.731861145588462131e-02
-3.738951364729317661e-02
-4.675696489049278870e-02
-5.522724107956089590e-02
-6.255102503846343698e-02
-6.849116878337942194e-02
-7.296761093860718028e-02
-7.573460122709474440e-02
-7.684152269305842553e-02
-7.614559287984237756e-02
-7.368891521270630462e-02
-6.955879801299628962e-02
-6.376736619341623336e-02
-5.659535896822668471e-02
-4.808666063681019814e-02
-3.852970647216173716e-02
-2.813452264231054017e-02
-1.713915877762276288e-02
-5.860146255730387492e-03
5.493316227916965507e-03
1.661805506298716720e-02
2.728660275527180698e-02
3.724335566074754578e-02
4.631295638625265026e-02
5.426830756660439709e-02
6.101711851818619747e-02
6.640230697897585299e-02
7.035631040657597257e-02
7.289532985547249322e-02
7.391740335324055444e-02
7.359747250198259150e-02
7.187541912688281964e-02
6.891905204562244480e-02
6.486326353643774578e-02
5.976751644360548538e-02
5.393943350825930461e-02
4.739657488550606118e-02
4.041340900675335912e-02
3.313046411528480090e-02
2.569820608492376368e-02
1.834915788305547038e-02
1.115854413951963831e-02
4.319686934265707864e-03
-2.077491430609952096e-03
-7.895387101212302666e-03
-1.309167750095145341e-02
-1.754224193264667178e-02
-2.123921366689662804e-02
-2.412493544179371979e-02
-2.615441570049445441e-02
-2.741470519096349950e-02
-2.779072887040992534e-02
-2.742661740734612247e-02
-2.627024228236696235e-02
-2.438634437859286963e-02
-2.188708760114718363e-02
-1.872929083289681315e-02
-1.510590496200342470e-02
-1.098930301229758197e-02
-6.515925257574546429e-03
-1.768992210897797970e-03
3.189826422394384867e-03
8.218655259638810509e-03
1.327156247068759370e-02
1.820925914938899617e-02
2.297549561290927397e-02
2.742708049794964631e-02
3.153399149407722785e-02
3.515957646633019462e-02
3.823622715411966605e-02
4.072482329611052526e-02
4.248346351334580939e-02
4.359327469310679548e-02
4.389291394912032268e-02
4.342657908062060035e-02
4.218359789183740577e-02
4.011494512740328838e-02
3.735421081912390640e-02
3.382724107212416176e-02
2.966226782864507527e-02
2.489846894450065476e-02
1.960243373659534966e-02
1.390873982768223160e-02
7.874726356005461517e-03
1.635666914601009540e-03
-4.707007775993047628e-03
-1.102650717609316572e-02
-1.722628126245201799e-02
-2.314773021314187745e-02
-2.873765317034419203e-02
-3.383820840137787694e-02
-3.835511349067816794e-02
-4.224436357638119977e-02
-4.532484058159587381e-02
-4.767364672120820435e-02
-4.910828791694523549e-02
-4.963795742664878913e-02
-4.926901968360385131e-02
-4.788961235939286076e-02
-4.567400644267032711e-02
-4.249293269935695144e-02
-3.846211632146961934e-02
-3.363879368629787980e-02
-2.803698931894252344e-02
-2.184023318251742535e-02
-1.505838784119178583e-02
-7.844559755002908363e-03
-3.130510196059366201e-04
7.424718267313755622e-03
1.522524106314514930e-02
2.294600220600012327e-02
3.048658229111128257e-02
3.767754280567010838e-02
4.439867091719394698e-02
5.057019371904903499e-02
5.599162724990111584e-02
6.068753989303381918e-02
6.446304443636746706e-02
6.728613167841046572e-02
6.914630486314100877e-02
6.989047756393917954e-02
6.968044846566623374e-02
6.835549971566556859e-02
6.601280739525003383e-02
6.270440370999881552e-02
5.840110543594767556e-02
5.332644879197835641e-02
4.742859427950334161e-02
4.088195093662352897e-02
3.378942182540709688e-02
2.624816644491421991e-02
1.843362481312264475e-02
1.044782072896990877e-02
2.435160639611607183e-03
-5.457955735673880766e-03
-1.308950374361909572e-02
-2.036484364812341311e-02
-2.709009419826309550e-02
-3.323218603266980820e-02
-3.861692327539075625e-02
-4.316233236682533170e-02
-4.684703628901457084e-02
-4.949333168618812867e-02
-5.120219107421870863e-02
-5.181637087767304584e-02
-5.138161785299324991e-02
-4.993007077328324994e-02
-4.740302493042629350e-02
-4.398787169103352684e-02
-3.961809802646403672e-02
-3.445650525457642083e-02
-2.858103102306124715e-02
-2.209344326082747154e-02
-1.517150263882492689e-02
-7.903551677515566198e-03
-4.783283498264690944e-04
6.983350318279688343e-03
1.428079348809972032e-02
2.132127815873767138e-02
2.788944636891220116e-02
3.388645306578286220e-02
3.917092285123321971e-02
4.358268365282275819e-02
4.712131539213407216e-02
4.958252181056997665e-02
5.102040672400877386e-02
5.132565348257106530e-02
5.049546844066264695e-02
4.860271303510609042e-02
4.558810939306048859e-02
4.163165021144484695e-02
3.671893631111419753e-02
3.101462526508622086e-02
2.463036260717804335e-02
1.769484018756143154e-02
1.040248946035339517e-02
2.869084861106325178e-03
-4.680698157977188252e-03
-1.213049094660952065e-02
-1.923642056570656206e-02
-2.591355752354804892e-02
-3.193788620461907035e-02
-3.717490727289019664e-02
-4.153113464748155875e-02
-4.480420652445749746e-02
-4.704061458948668312e-02
-4.803912133676329493e-02
-4.783923058704626224e-02
-4.640531344262330965e-02
-4.370929930468873958e-02
-3.989171828941393688e-02
-3.490791007056100875e-02
-2.894690140750141166e-02
-2.206828102631036917e-02
-1.443273855900281677e-02
-6.215012132852227277e-03
2.436944145097780928e-03
1.130598075445515133e-02
2.022799617295589422e-02
2.897196838793415774e-02
3.738817744391602360e-02
4.522657277531838549e-02
5.238678416004027838e-02
5.864565698047138897e-02
6.387378109241025059e-02
6.799175749243616118e-02
7.080838694683529166e-02
7.241511611974628393e-02
7.262468844244499011e-02
7.151236449883975610e-02
6.909104468727368664e-02
6.536048977015673778e-02
6.052076058859568591e-02
5.455012984386896358e-02
4.767184319970065726e-02
3.998598586495341611e-02
3.167066899902741539e-02
2.292824298373714181e-02
1.391244892314651149e-02
4.846138589250128560e-03
-4.105873370929313641e-03
-1.272152115814676604e-02
-2.086849105437189530e-02
-2.831585170679276620e-02
-3.498095984256701513e-02
-4.067474365813773807e-02
-4.529055196875536593e-02
-4.878622810912690982e-02
-5.099762163643279528e-02
-5.202945654894174793e-02
-5.173539402108417312e-02
-5.020506308978273102e-02
-4.747633111990676863e-02
-4.355734689052146585e-02
-3.867442455362345849e-02
-3.280216498964558247e-02
-2.617779647192552961e-02
-1.890295555471397521e-02
-1.116087704075598847e-02
-3.155322826089579889e-03
4.971509792277103990e-03
1.298916003200363545e-02
2.075861512440720091e-02
2.805137238548195688e-02
3.476612955592397330e-02
4.068893915429817876e-02
4.573788402754536131e-02
4.978174702031672866e-02
5.271034247725019106e-02
5.453943793699125853e-02
5.513077969484800334e-02
5.459463487818361216e-02
5.286118173213750354e-02
5.001575906822743056e-02
4.615497295074987016e-02
4.130821410692705337e-02
3.569586246562623383e-02
2.935031551713937828e-02
2.249045226009401335e-02
1.523903119126760602e-02
7.774370235092534914e-03
2.777238104689910836e-04
-7.107744815100731743e-03
-1.418050931546764246e-02
-2.083011400134449770e-02
-2.684215914045402079e-02
-3.217130424034835012e-02
-3.661802477224952029e-02
-4.012526667516320283e-02
-4.261457306063476391e-02
-4.397567979901475382e-02
-4.427945345073785316e-02
-4.339623955181529796e-02
-4.143627755020752590e-02
-3.838011818107709555e-02
-3.429440553237524808e-02
-2.930925274980369921e-02
-2.345862155263005525e-02
-1.694332285749955772e-02
-9.837071073619443190e-03
-2.339457376611950475e-03
5.414096952321327885e-03
1.323197576354355129e-02
2.095464716893440105e-02
2.840886803566788216e-02
3.539888803368770182e-02
4.182187246753134302e-02
4.743841374873143668e-02
5.223899333147376256e-02
5.600336484592938896e-02
5.867982228452590238e-02
6.022444941530442214e-02
6.050519013254498230e-02
5.965661694594943248e-02
5.753800785759252689e-02
5.427816367514146784e-02
4.990865147600041796e-02
4.449094155361289771e-02
3.821193334186469975e-02
3.111142185551574527e-02
2.340865863318412551e-02
1.521464411062747185e-02
6.733397320390639706e-03
-1.876247662934168656e-03
-1.041376694765159053e-02
-1.871121796590625996e-02
-2.659043835589174065e-02
-3.384721101637750557e-02
-4.039405795744989425e-02
-4.598410942918900596e-02
-5.061024684716632083e-02
-5.407453827476101788e-02
-5.631538887988791348e-02
-5.732846275084752669e-02
-5.696689166126981535e-02
-5.540013440567150005e-02
-5.249589886419939871e-02
-4.838544480534199416e-02
-4.314507434252514567e-02
-3.682015960655733722e-02
-2.965302978643513665e-02
-2.167474808633511330e-02
-1.312302974587708712e-02
-4.141611883517296554e-03
5.070417703689344448e-03
1.431987712952879216e-02
2.341293338351319725e-02
3.216401295625292284e-02
4.039438303435597538e-02
4.790250663294919747e-02
5.460585825141876792e-02
6.027236653358607893e-02
6.489221512104315082e-02
6.830383310627954896e-02
7.045222186013642973e-02
7.137112624812469441e-02
7.092984748934760830e-02
6.930621063696286444e-02
6.641101247224957815e-02
6.237605017285486469e-02
5.731124992239550880e-02
5.125396541948643025e-02
4.446115046322894615e-02
3.695798255750948336e-02
2.897203815878120203e-02
2.064167284450364390e-02
1.213686001701519412e-02
3.640310134637142047e-03
-4.693289300471507712e-03
-1.269355122138855416e-02
-2.022073477112858522e-02
-2.709112327669339904e-02
-3.325615847174740597e-02
-3.850496945167217189e-02
-4.282481331854756657e-02
-4.609165096459401367e-02
-4.823303566868462205e-02
-4.930336356693965777e-02
-4.916047390748724127e-02
-4.795025586008190566e-02
-4.560075051042192240e-02
-4.220451184725151211e-02
-3.786997930416893809e-02
-3.261266893533232986e-02
-2.665395171226742771e-02
-2.002362928350089402e-02
-1.292727850749121957e-02
-5.491627133967496611e-03
2.117039147492069152e-03
9.724215369538364781e-03
1.718093665462232592e-02
2.429916828156930206e-02
3.095979042649126683e-02
3.695362589291029815e-02
4.224346278704898400e-02
4.661977719007446425e-02
5.003849041707930656e-02
5.241888023288367865e-02
5.366092904673651354e-02
5.384824776619659414e-02
5.285424413645431474e-02
5.080551845972644531e-02
4.769211968613533414e-02
4.359567991086243238e-02
3.866107489695759514e-02
3.292747860937377674e-02
2.661013006116857635e-02
1.978462331252912529e-02
1.265623674821079320e-02
5.364024777559236838e-03
-1.914854205343314089e-03
-9.011538381830542371e-03
-1.577871792933158504e-02
-2.202833322146173500e-02
-2.766957534152798132e-02
-3.250160992555773537e-02
-3.650260956032502085e-02
-3.950631060508313225e-02
-4.147051335239040210e-02
-4.237093603690345739e-02
-4.211539861698324061e-02
-4.083373954380623699e-02
-3.842865229580690739e-02
-3.503340150033465439e-02
-3.069483161398942062e-02
-2.549800061313245436e-02
-1.962132051625453330e-02
-1.312464636672043550e-02
-6.220749660590339618e-03
9.808364455545712235e-04
8.280736999196475906e-03
1.553442356541740593e-02
2.256197542307328621e-02
2.920994335941082959e-02
3.533576116302999254e-02
4.076904676011641054e-02
4.545026038502284621e-02
4.919646159232988342e-02
5.201500269417387579e-02
5.378158253784513093e-02
5.447677897820909360e-02
5.413220700000739155e-02
5.267674035426501977e-02
5.027314190624316420e-02
4.686784376482822784e-02
4.260336748608138657e-02
3.757137191365927942e-02
3.184865251978266643e-02
2.564488401232255591e-02
1.901063047107016610e-02
1.214718395612667673e-02
5.168395161742595986e-03
-1.757564290625502484e-03
-8.502710351635040659e-03
-1.491545959227226145e-02
-2.087347119140720367e-02
-2.626448789282559426e-02
-3.094689837073094640e-02
-3.490171005449908825e-02
-3.796501034288440185e-02
-4.016228034041922912e-02
-4.140226835459387411e-02
-4.166230965379800338e-02
-4.100605899589232495e-02
-3.935101602405497584e-02
-3.685174815691633771e-02
-3.347024685959225365e-02
-2.931714428495482000e-02
-2.449946331156563697e-02
-1.906175092409903918e-02
-1.319950973134069797e-02
-6.960294045612338242e-03
-5.146238547666260460e-04
6.019947215719367167e-03
1.250608102819072802e-02
1.881707764114654707e-02
2.481963251015215088e-02
3.039987167331445472e-02
3.545563024811682756e-02
3.985527697028528465e-02
4.359092449442847350e-02
4.650882091699135717e-02
4.862825224635257404e-02
4.988389686698160852e-02
5.024410142959040426e-02
4.979258209245737699e-02
4.844673266924338223e-02
4.634629980239555330e-02
4.347806392314382262e-02
3.992847525701397060e-02
3.581540843159491255e-02
3.116534811257781756e-02
2.615138588596296193e-02
2.081898627496764700e-02
1.530836774620752960e-02
9.721443562247723824e-03
4.167808678133880056e-03
-1.247423100320456044e-03
-6.419199935008115636e-03
-1.124733543043775555e-02
-1.566295521702055354e-02
-1.953745523799563927e-02
-2.288894425916093711e-02
-2.557051685967067639e-02
-2.758853162026763534e-02
-2.890537889090849522e-02
-2.945248478597751324e-02
-2.933438013848473080e-02
-2.843724826177470438e-02
-2.686952750774001392e-02
-2.462655021437039349e-02
-2.173916211678980984e-02
-1.833402569742305019e-02
-1.439260667068583549e-02
-1.006405966578664130e-02
-5.386833031433931572e-03
-4.658016324423580948e-04
4.595307296831227864e-03
9.714891990869830435e-03
1.478411822564544911e-02
1.971404535828540777e-02
2.439671850981689483e-02
2.877205279435219795e-02
3.270632672776152550e-02
3.619431907932641607e-02
3.910888061617584510e-02
4.141294636073852842e-02
4.309282270556599043e-02
4.403361395753777746e-02
4.434711392295612870e-02
4.390335231947987277e-02
4.276693167795378447e-02
4.096381667127739490e-02
3.845745966566060936e-02
3.540905784567950632e-02
3.175434980007457719e-02
2.761910808625245642e-02
2.306074267518831711e-02
1.812435135330468447e-02
1.295004952604004653e-02
7.567853006277043375e-03
2.091419524638760564e-03
-3.393182800526959621e-03
-8.806190216982930086e-03
-1.405916916281896994e-02
-1.905167537510019105e-02
-2.374117134783095689e-02
-2.801328097010893220e-02
-3.181362658782697916e-02
-3.510395492383337757e-02
-3.776713302958153995e-02
-3.985417685921474606e-02
-4.124171095526060066e-02
-4.194545379562689830e-02
-4.196880948521664739e-02
-4.124179192877176076e-02
-3.988994979435889904e-02
-3.782703673525440041e-02
-3.514225383964173638e-02
-3.187800325535151275e-02
-2.805197068446540348e-02
-2.379729354220316839e-02
-1.912374168102922573e-02
-1.414285412550461349e-02
-8.935651336192871469e-03
-3.587732073280913182e-03
1.807250901304882119e-03
7.143203121230956576e-03
1.235148710745555614e-02
1.731811258520364258e-02
2.195579741153566231e-02
2.622028425190075368e-02
2.997148492130839378e-02
3.322620498136568540e-02
3.586048735822216366e-02
3.785450401952684951e-02
3.920494797900763578e-02
3.981985690099584807e-02
3.979642715146589071e-02
3.904368064654074877e-02
3.763545318213507018e-02
3.559502441590203098e-02
3.293700166523040596e-02
2.978273333043298526e-02
2.612709476347505749e-02
2.210213644722912665e-02
1.775294849631761304e-02
1.320510705570929200e-02
8.531070567702509974e-03
3.846731895326803083e-03
-7.340330633276116387e-04
-5.140625237624359654e-03
-9.203371327687247250e-03
-1.291683546493067186e-02
-1.609527566494943843e-02
-1.870752782101254078e-02
-2.066891574035851706e-02
-2.186650689353894159e-02
-2.234775736740986229e-02
-2.196567572592912632e-02
-2.079567068628917353e-02
-1.878388269886716727e-02
-1.594766378184908975e-02
-1.237319644556057058e-02
-8.048644171196470826e-03
-3.123355588603713047e-03
2.368194107413151405e-03
8.286867328671131822e-03
1.452164543778565117e-02
2.093478201556084675e-02
2.738721589122850714e-02
3.373735986912280993e-02
3.982147636810291769e-02
4.553052762660336067e-02
5.066618963926987351e-02
5.518463676240811799e-02
5.889537318362270818e-02
6.173106410514131448e-02
6.362553889290904763e-02
6.446090859603657852e-02
6.430142319145189245e-02
6.303506227216330859e-02
6.074023697911994091e-02
5.743090306897370018e-02
5.314833774639789177e-02
4.803005630376309260e-02
4.211685641481194287e-02
3.557767087260405720e-02
2.851706206287329612e-02
2.109312874814267200e-02
1.345477797166524242e-02
5.769837532663717704e-03
-1.823467946582349453e-03
-9.150014204823739283e-03
-1.606067215226193029e-02
-2.244299159784945291e-02
-2.810444149306456918e-02
-3.303499510663673172e-02
-3.703806318026626326e-02
-4.009122846984116556e-02
-4.213855503898249200e-02
-4.308419823970641160e-02
-4.304762377469897178e-02
-4.189746366278395556e-02
-3.976583666256750665e-02
-3.665978624055903773e-02
-3.265090339868020192e-02
-2.789312544278893524e-02
-2.241537910682852783e-02
-1.642036471748229906e-02
-9.981883207640620398e-03
-3.295462362734177635e-03
3.520359790525782670e-03
1.028886473309828867e-02
1.686123963835342923e-02
2.310384234589023256e-02
2.882146008100413062e-02
3.396808015186350560e-02
3.831678098987552350e-02
4.187190601091820424e-02
4.447581675285026265e-02
4.606070405019240671e-02
4.665626953908402763e-02
4.611116851307013598e-02
4.459382321068182387e-02
4.198441779388437101e-02
3.838536687300163341e-02
3.388184339758212871e-02
2.847546266227297257e-02
2.240484163943007312e-02
1.565707827976528868e-02
8.433197982941237000e-03
8.507453449357067071e-04
-6.949080922792660701e-03
-1.479030692639506442e-02
-2.254245542812141276e-02
-3.003951575654972145e-02
-3.714752912185704387e-02
-4.369322357189402151e-02
-4.960390480373016997e-02
-5.468746421747706921e-02
-5.890621742023357393e-02
-6.213334962307390935e-02
-6.428347013948115807e-02
-6.537780655181849032e-02
-6.528267801779644164e-02
-6.410364114026038951e-02
-6.177040682785635978e-02
-5.834479139116616891e-02
-5.391513246781325097e-02
-4.849867907379208642e-02
-4.227422732452981724e-02
-3.529188254407969461e-02
-2.771893806950472688e-02
-1.968746388542192208e-02
-1.137031061523649522e-02
-2.900288074215090668e-03
5.520061946863608071e-03
1.374150156500320366e-02
2.161040097489698789e-02
2.890418865003883259e-02
3.559916495032233036e-02
4.141852295639709969e-02
4.634423243091034122e-02
5.023213536039103366e-02
5.295845098397240769e-02
5.459446181476977633e-02
5.493864633383263585e-02
5.413173619694412048e-02
5.208661721066147610e-02
4.886580947894020310e-02
4.458659376940494329e-02
3.923980416520625458e-02
3.304754117552703013e-02
2.603612763737933253e-02
1.842151823037451938e-02
1.032116233092266952e-02
1.937378601593302101e-03
-6.563259202499889360e-03
-1.500104058588886194e-02
-2.313833901757636480e-02
-3.087612772917743692e-02
-3.789335021978543910e-02
-4.419326685351539219e-02
-4.946719409241363136e-02
-5.361061619904623071e-02
-5.655650727681313383e-02
-5.805096319135000932e-02
-5.824633537845152337e-02
-5.687947466881550923e-02
-5.404791857606417588e-02
-4.975373124122087209e-02
-4.395735328756527477e-02
-3.690036876185450593e-02
-2.852364889964140865e-02
-1.908299062577395108e-02
-8.693678151103414325e-03
2.465171326259875395e-03
1.412801337060938175e-02
2.612423751374869443e-02
3.817941091822552035e-02
5.006433075239576785e-02
6.152989991034386874e-02
7.235218999487202929e-02
8.226494139611648104e-02
9.113301404911677839e-02
9.869486100303842546e-02
1.048345391843459318e-01
1.094289180185530619e-01
1.123257672355799514e-01
1.135970302550301236e-01
1.130884579178063204e-01
1.109199608418693639e-01
1.071021240043528860e-01
1.017384856687198885e-01
9.500968548542391978e-02
8.700823854986276806e-02
7.800060237202724456e-02
6.812880863486134309e-02
5.770186656819892290e-02
4.688930191309319262e-02
3.600799144750125441e-02
2.527788732802235816e-02
1.493828976027566577e-02
5.302340881759237678e-03
-3.545523417760065334e-03
-1.123098794276062781e-02
-1.774648169623739558e-02
-2.282644307783680479e-02
-2.636756884647747934e-02
-2.838631427790137829e-02
-2.866121228221168993e-02
-2.743045438507468736e-02
-2.450923522892479653e-02
-2.008954885840864152e-02
-1.426900254482321023e-02
-7.108876072851644072e-03
1.031626004764152511e-03
1.015368043505326424e-02
1.987892863447904973e-02
3.006675067429505355e-02
4.040873528257866998e-02
5.065172353456237619e-02
6.057561886602001039e-02
6.986251609420568442e-02
7.837784425852591108e-02
8.576987797758077459e-02
9.200465427961745934e-02
9.677708264623317846e-02
1.000219981313821282e-01
1.016538269104029918e-01
1.014869682932105915e-01
9.969608456494126469e-02
9.606328246424117312e-02
9.080787623869394920e-02
8.392353719124866218e-02
7.546531901345181204e-02
6.573186228630979733e-02
5.468015157383228353e-02
4.268809667865978291e-02
2.984340700855479117e-02
1.635009399606684316e-02
2.537461813858258534e-03
-1.150306118292658900e-02
-2.541835147121180444e-02
-3.904250017774680420e-02
-5.219703871162720971e-02
-6.458318355226645713e-02
-7.610858497045559778e-02
-8.656083570769179669e-02
-9.577143081923270018e-02
-1.037184275538252098e-01
-1.101783559616795749e-01
-1.152074337114225161e-01
-1.187183982594787468e-01
-1.206910279241584366e-01
-1.212604702929868800e-01
-1.203363223163566725e-01
-1.181736164705381731e-01
-1.147575470822158883e-01
-1.103062666535976066e-01
-1.049978261920778283e-01
-9.892705408630701747e-02
-9.244741523551233686e-02
-8.557453338143439225e-02
-7.870952491796395778e-02
-7.191263207385105438e-02
-6.545808601398366011e-02
-5.959785517957637974e-02
-5.434946991554728823e-02
-5.011401145703781729e-02
-4.672307208599789374e-02
-4.453707137933553273e-02
-4.353445482289442642e-02
-4.371343443515255528e-02
-4.526169891659993783e-02
-4.784308905968449183e-02
-5.171889481840235420e-02
-5.659053984613734295e-02
-6.243060362040434713e-02
-6.912189608555875664e-02
-7.633896124963121532e-02
-8.410667658055946683e-02
-9.202037593227940793e-02
-1.000375101615490481e-01
-1.078377606718669696e-01
-1.152379394348346381e-01
-1.220658702021286263e-01
-1.280278366225430786e-01
-1.330814133059165794e-01
-1.368998334504960557e-01
-1.395022786449891528e-01
-1.406442131080199720e-01
-1.402901262840922370e-01
-1.384136510853014312e-01
-1.348416623936338210e-01
-1.297775825320747478e-01
-1.230263593402517869e-01
-1.148225014638206976e-01
-1.051761460021989475e-01
-9.410688947460170428e-02
-8.194656186351453875e-02
-6.860118418629407300e-02
-5.446647457899637251e-02
-3.961139840320991590e-02
-2.416519573423174874e-02
-8.524691317667136559e-03
7.354469438211308149e-03
2.304817653017302015e-02
3.846598502861219016e-02
5.349383797939628177e-02
6.774760179252220516e-02
8.134579986507452232e-02
9.389789017521515957e-02
1.054283524038115288e-01
1.158964147016975921e-01
1.250331452907085528e-01
1.331140865840845233e-01
1.398073460691574010e-01
1.453738328338398944e-01
1.497966926864775228e-01
1.530318498676180583e-01
1.554683663409848760e-01
1.568434593590665727e-01
1.576672803027668601e-01
1.578124149045392610e-01
1.575302098246139371e-01
1.571539997659678611e-01
1.565013495529331833e-01
1.562000030111632409e-01
1.559081621584542110e-01
1.561345301691662857e-01
1.569674658213141838e-01
1.583182866686681234e-01
1.606938072789446392e-01
1.636244319875703734e-01
1.676482295954088986e-01
1.725418574380030989e-01
1.783066751679764084e-01
1.851503979167588854e-01
1.925800620614409042e-01
2.009783806682559903e-01
2.098674827646331564e-01
2.193086299496414815e-01
2.291734176049904370e-01
2.390641450705648929e-01
2.491167650422057289e-01
2.587768520460718702e-01
2.681308833189992580e-01
2.768341453357477389e-01
2.846796342229832022e-01
2.915922859849192084e-01
2.971567320505288379e-01
3.014695785648378035e-01
3.041657688204267851e-01
3.052794640962312456e-01
3.046356750138413672e-01
3.021167164180196263e-01
2.978304049193537528e-01
2.915475837853439556e-01
2.835422742568249888e-01
2.736342044883639524e-01
2.620355347180232108e-01
2.488620035571302014e-01
2.340567718390545449e-01
2.180781365612372291e-01
2.007497247026790999e-01
1.825276207268617390e-01
1.634976670226292728e-01
1.437132118477214282e-01
1.237141148722438050e-01
1.032526160092287620e-01
8.293637215229419934e-02
6.270205123068126052e-02
4.266281608797471009e-02
2.329473224665642647e-02
4.209021176191081112e-03
-1.391443997209311847e-02
-3.142604389155320699e-02
-4.811992050350747535e-02
-6.376735853548143318e-02
-7.886942222399663527e-02
-9.275508408104464475e-02
-1.061303820160491573e-01
-1.185738704233960661e-01
-1.302885667485860210e-01
-1.417248410881836174e-01
-1.523151906603250894e-01
-1.630136411183278344e-01
-1.731619166982417690e-01
-1.833810401169072846e-01
-1.938675686856942693e-01
-2.042512537405311579e-01
-2.154963765112697938e-01
-2.267442733170290103e-01
-2.388905142310675800e-01
-2.517016570836148603e-01
-2.650658891165384445e-01
-2.796851421617590483e-01
-2.946091222834449908e-01
-3.107868199686266708e-01
-3.275062630429648181e-01
-3.449293946095620123e-01
-3.633188392165425662e-01
-3.817900225559320293e-01
-4.011508928787089201e-01
-4.203300085041449252e-01
-4.397375205135681253e-01
-4.591880489353589168e-01
-4.780217123258133638e-01
-4.968046152624339684e-01
-5.143439400419629326e-01
-5.312404144122750971e-01
-5.469935826143019764e-01
-5.612803288554899517e-01
-5.743567892241232542e-01
-5.853448842011216291e-01
-5.947785741265957382e-01
-6.020870311708877987e-01
-6.073265513497568824e-01
-6.104990051159155939e-01
-6.111748909842228406e-01
-6.097916622864165692e-01
-6.058445215730263733e-01
-5.997474904004268526e-01
-5.913001459892707201e-01
-5.805542112002067823e-01
-5.678151103990521920e-01
-5.527209063808007361e-01
-5.359583133080306760e-01
-5.171372331833206104e-01
-4.967635215674320315e-01
-4.749162486247359705e-01
-4.514307826975125781e-01
-4.270991676206098431e-01
-4.013413031538352604e-01
-3.750368261772875633e-01
-3.478969520813666727e-01
-3.200400078050050223e-01
-2.920999153287252015e-01
-2.633634115200702008e-01
-2.349428838907796357e-01
-2.060548052601616498e-01
-1.772533615683624386e-01
-1.486740423516784704e-01
-1.196496112662184669e-01
-9.132256894017008741e-02
-6.244617962805436989e-02
-3.404131015943016175e-02
-5.580136552252049943e-03
2.330182026849707266e-02
5.167407016975057027e-02
8.103658532276299120e-02
1.099505812377988417e-01
1.396136963477778437e-01
1.697903376557685085e-01
2.000164543500613512e-01
2.317068639623224569e-01
2.631559752306322220e-01
2.960950659803122664e-01
3.294577202556331352e-01
3.634732632882053394e-01
3.991091286126067228e-01
4.346367167389941777e-01
4.720822778860560565e-01
5.094730277392545137e-01
5.478688184252645810e-01
5.875085694171182649e-01
6.269165734691977132e-01
6.680161954438874616e-01
7.083824544978528648e-01
7.495596841677492073e-01
7.910442440618922211e-01
8.318471103119595700e-01
8.734484590836488760e-01
9.134620885296058646e-01
9.535460238325389470e-01
9.925746671239235042e-01
1.030189753293881072e+00
1.067240238799159746e+00
1.101724179228326106e+00
1.135185689149508681e+00
1.166076527471389568e+00
1.194716291103810724e+00
1.221269867082360738e+00
1.244401618924793063e+00
1.265365877138986850e+00
1.282475552807307073e+00
1.296676538147314428e+00
1.307512323536942356e+00
1.314504108499614299e+00
1.318473675050692018e+00
1.317918614039643055e+00
1.314236600906414587e+00
1.306488028283284253e+00
1.295109771909664254e+00
1.280282347503419738e+00
1.261197899769711972e+00
1.239184496915864964e+00
1.213073650247586954e+00
1.184108346296874004e+00
1.151684253401963565e+00
1.115970873122483775e+00
1.077762882270379308e+00
1.035929760567516622e+00
9.922444265156740162e-01
9.453158010039567349e-01
8.963207309056611116e-01
8.452155720502078085e-01
7.912242557301015777e-01
7.362301653434796256e-01
6.782223959409051650e-01
6.193014233272955416e-01
5.583648148230831998e-01
4.954090572079234978e-01
4.318876213432537026e-01
3.655385676400155770e-01
2.991559690511423897e-01
2.305043660971194397e-01
1.608176030128367351e-01
9.050337496259167058e-02
1.759369674515308402e-02
-5.481360211455468812e-02
-1.299161505124398208e-01
-2.050186124279872457e-01
-2.811759197977346525e-01
-3.594898336280573647e-01
-4.370778441213418741e-01
-5.176112613961046938e-01
-5.972724780033487058e-01
-6.784630087803669163e-01
-7.610119608682490711e-01
-8.428186804731891968e-01
-9.274256580224259361e-01
-1.010370306679271524e+00
-1.095140387420421746e+00
-1.180015500019054420e+00
-1.264181252557198487e+00
-1.350419289376280307e+00
-1.434235858890318127e+00
-1.519757962913703686e+00
-1.603675395462393238e+00
-1.686787004985233818e+00
-1.770578428446211605e+00
-1.851171320980196544e+00
-1.932761827620721240e+00
-2.010703478755623053e+00
-2.087460001906040752e+00
-2.162908238021749696e+00
-2.234348190110912569e+00
-2.305306372032259077e+00
-2.370752726312082892e+00
-2.434128643868909592e+00
-2.493831614892722648e+00
-2.548697434002292095e+00
-2.600833799740039698e+00
-2.646216645437411419e+00
-2.688034289376126207e+00
-2.723742757414053806e+00
-2.753786500952891902e+00
-2.778572281524624543e+00
-2.795682763087985911e+00
-2.807497740775542816e+00
-2.811091060397724384e+00
-2.808301915469126886e+00
-2.797879686563674806e+00
-2.779401137655981291e+00
-2.754006438363419740e+00
-2.719135795595922556e+00
-2.677546902509200244e+00
-2.626695280364148122e+00
-2.568292812732224206e+00
-2.501931998774664212e+00
-2.426298675518552717e+00
-2.344306736731340379e+00
-2.252740593861029872e+00
-2.155282085319800256e+00
-2.049699364691261572e+00
-1.936935497458472488e+00
-1.818853658213576141e+00
-1.692413447389759629e+00
-1.562687712551285024e+00
-1.425491914668246096e+00
-1.284621578782376705e+00
-1.139659419127419193e+00
-9.886529239110037892e-01
-8.369916184186864117e-01
-6.787745156861454410e-01
-5.204180850524312563e-01
-3.584562958615755135e-01
-1.929196767260951684e-01
-2.802316114403102104e-02
1.456793465005290500e-01
3.232922100310090530e-01
4.895926823616405521e-01
6.507378085638083620e-01
8.268979275127441575e-01
1.033950659565888497e+00
1.237423173577750113e+00
1.395020823227194562e+00
1.536408649599309006e+00
1.737397731128682787e+00
2.015368422503467372e+00
2.260228366534869693e+00
2.379778307633029666e+00
2.471472504304663698e+00
2.726963410649467789e+00
3.146947240383120459e+00
3.450555547516731991e+00
3.441995254881436317e+00
3.381577089678960313e+00
3.754890470512679101e+00
4.570597907225229406e+00
5.055681832028010803e+00
4.332051317004492752e+00
2.422580824585967019e+00
3.976675390144229216e-01
