BVP Signal
3.152098086687624839e-02
6.428269333806027608e-02
8.835551425094770317e-02
9.698146855198466754e-02
8.629935688593032284e-02
5.616095293459300031e-02
1.026856708347284597e-02
-4.440351755215449225e-02
-9.880426640632877788e-02
-1.433995950243882045e-01
-1.698728238494484066e-01
-1.726217890296614654e-01
-1.497785130071599136e-01
-1.035661042828221468e-01
-3.994068906834692678e-02
3.238596165011543848e-02
1.033310025177552050e-01
1.629694842850953895e-01
2.029602119486882406e-01
2.176755520534434107e-01
2.049084632153714836e-01
1.660961312604042339e-01
1.060642690066346261e-01
3.235404630906631163e-02
-4.576614352164676963e-02
-1.184828196457690108e-01
-1.766837066643569820e-01
-2.131280302418291639e-01
-2.233908626747626580e-01
-2.064401119381514826e-01
-1.647475252437038962e-01
-1.039099653635948417e-01
-3.184369282686422276e-02
4.231294073173823278e-02
1.094109732702937821e-01
1.614336824861519193e-01
1.924186353385960446e-01
1.990649440759834077e-01
1.809965590800839408e-01
1.406992066750468173e-01
8.316837643884508746e-02
1.531153639039087300e-02
-5.484185939993124759e-02
-1.190488079172119240e-01
-1.697860841000751742e-01
-2.011069711426136664e-01
-2.093242727251749258e-01
-1.934337076454157589e-01
-1.552129060559938045e-01
-9.897313103944770096e-02
-3.100280200715455070e-02
4.119951223662271511e-02
1.097785884076514229e-01
1.673518769734188283e-01
2.077391367992673377e-01
2.265505197257649539e-01
2.216132808314991987e-01
1.932282324152183040e-01
1.442461169626314543e-01
7.993809820593261728e-02
7.610552405139803245e-03
-6.409221255964514530e-02
-1.262107797456170633e-01
-1.707319192853915535e-01
-1.918814510438832388e-01
-1.871705432218592202e-01
-1.579414035187406973e-01
-1.092678127137054478e-01
-4.920876556585818129e-02
1.246046494016683770e-02
6.582685437428914543e-02
1.024641449888336886e-01
1.168293445954112497e-01
1.071920885107167515e-01
7.593338469335356167e-02
2.915160857540549655e-02
-2.437332203794573271e-02
-7.469280752276480362e-02
-1.124188507782316604e-01
-1.303595173675061170e-01
-1.247667287141566161e-01
-9.598061966318319205e-02
-4.836990367028924653e-02
1.040831719260781885e-02
7.069357672258891334e-02
1.224291898560096459e-01
1.568208479583398929e-01
1.677786406236038697e-01
1.529242982495634673e-01
1.140215150067799277e-01
5.676878601009298364e-02
-1.002356326765770078e-02
-7.576415411748768647e-02
-1.297272171644524574e-01
-1.627615050374674743e-01
-1.687881794205338681e-01
-1.458432745309173051e-01
-9.648977276268835834e-02
-2.752166522128134118e-02
5.100408979928963693e-02
1.272586989705766225e-01
1.894190709723992394e-01
2.274546932238458441e-01
2.346575024626259276e-01
2.086954399282158201e-01
1.520355185509226215e-01
7.165961657694144837e-02
-2.190775285018241314e-02
-1.161259619160766449e-01
-1.982775833894083461e-01
-2.573187688968904818e-01
-2.854481595860959842e-01
-2.791652885357471248e-01
-2.396775744524989593e-01
-1.726139287366230679e-01
-8.711148055453332706e-02
5.553649845500163718e-03
9.355182352779412014e-02
1.660533454829593580e-01
2.145466902887687988e-01
2.337862515926743823e-01
2.222988950707048827e-01
1.824322650760509812e-01
1.199729345878033093e-01
4.339736127771072483e-02
-3.716066820414239136e-02
-1.111301960983351045e-01
-1.687973768277750697e-01
-2.025330417248617509e-01
-2.077909104383838246e-01
-1.837216962508333440e-01
-1.332975845472604837e-01
-6.292097206239877227e-02
1.842421507832429917e-02
1.003524221720819842e-01
1.724193149856906304e-01
2.254448120594275684e-01
2.526470342421270332e-01
2.504559690034948161e-01
2.189267441365190248e-01
1.617217263523464954e-01
8.567069419353129378e-02
-4.675530979529607389e-05
-8.501463463302344481e-02
-1.588682889429683665e-01
-2.126049950576627823e-01
-2.397547742531895287e-01
-2.372543373905248165e-01
-2.058873309654022932e-01
-1.501980619282036189e-01
-7.786445393443777729e-02
1.380984369440244053e-03
7.710209811165191773e-02
1.395596283470592613e-01
1.809547026747167775e-01
1.963601290603980698e-01
1.842438343276286972e-01
1.465455635275202395e-01
8.832577546535480550e-02
1.706108641617865018e-02
-5.830460891189843953e-02
-1.284409190272095547e-01
-1.847427205923586890e-01
-2.203710838684284357e-01
-2.311046311069724912e-01
-2.158745479429100556e-01
-1.768828637746698851e-01
-1.192664436801115779e-01
-5.034825906683994268e-02
2.141079410885592810e-02
8.759586108137618066e-02
1.409716319759379000e-01
1.763905238164337752e-01
1.913480278137494883e-01
1.861289174806913804e-01
1.635588884065983517e-01
1.284285422905495078e-01
8.669131334185603555e-02
4.456273776663871589e-02
7.661598735732189080e-03
-1.968092538910093392e-02
-3.486286608699806777e-02
-3.717794486313646951e-02
-2.772255498561437825e-02
-9.082476678265866132e-03
1.514049692508385482e-02
4.087435139119173499e-02
6.408866969124735191e-02
8.118294708808254656e-02
8.921948903449555823e-02
8.603770022965012698e-02
7.032689721652385373e-02
4.172988476898953358e-02
1.010101430949345014e-03
-4.973821456881860614e-02
-1.069087846208383874e-01
-1.653421464467814128e-01
-2.185496337778735920e-01
-2.592966249001146251e-01
-2.805539807078259451e-01
-2.767063583203520638e-01
-2.447922987867825750e-01
-1.854829986211090354e-01
-1.035122952497522092e-01
-7.366154842027766714e-03
9.178514096491838248e-02
1.817297758137137453e-01
2.511037006612762967e-01
2.911555754206890390e-01
2.970744554052239250e-01
2.686826084817241500e-01
2.104198471550809413e-01
1.306523543500461293e-01
4.042780839407483784e-02
-4.812614300191411787e-02
-1.235117475398805065e-01
-1.764218824096260296e-01
-2.009312354328358086e-01
-1.951644068121221876e-01
-1.613656727906045141e-01
-1.053813496996212351e-01
-3.566016670450553039e-02
3.803929158055222026e-02
1.060059309973309105e-01
1.597917623814533172e-01
1.931429556839820982e-01
2.025749012311315045e-01
1.875776352508087275e-01
1.504805002166627326e-01
9.603547984820148820e-02
3.079432399896299410e-02
-3.764740370733987707e-02
-1.014772704871278464e-01
-1.535062078060357993e-01
-1.879550540910217005e-01
-2.011063435976009062e-01
-1.917374598232075011e-01
-1.612689211371012010e-01
-1.135959794274189749e-01
-5.461380172474526729e-02
8.509177207208951099e-03
6.821389381849539413e-02
1.174671331547472303e-01
1.505904457599637758e-01
1.639070313503855347e-01
1.561487861756647444e-01
1.285934554925828865e-01
8.491697654848168186e-02
3.076246816111270072e-02
-2.694170505993524062e-02
-8.084157406624892239e-02
-1.240886087384197450e-01
-1.512210524652787547e-01
-1.588752553753569052e-01
-1.462204226954785247e-01
-1.150433446634807483e-01
-6.946734918792912827e-02
-1.535978921228087213e-02
4.046188729701796771e-02
9.109518629643446885e-02
1.303731970150895925e-01
1.535568444984399261e-01
1.578447980652497029e-01
1.426691741647222178e-01
1.097623754302733401e-01
6.299418634617001689e-02
7.986105838188029687e-03
-4.848473935654729061e-02
-9.926343165968343207e-02
-1.377116258152935591e-01
-1.586068532672514630e-01
-1.589041673930763621e-01
-1.382215882765640558e-01
-9.895159227337753383e-02
-4.596640346177022912e-02
1.404053490072029904e-02
7.346679883348475326e-02
1.248134708196510234e-01
1.616394342070843759e-01
1.793315299630237891e-01
1.756154503498404407e-01
1.507775074829697803e-01
1.075966180105869946e-01
5.100532277104238149e-02
-1.248148206754179021e-02
-7.551013264269260117e-02
-1.307281178269411592e-01
-1.716367380388718611e-01
-1.933677030328347923e-01
-1.932872697739758394e-01
-1.713322027038249873e-01
-1.300110133464879303e-01
-7.406591797970868418e-02
-9.861406877421190903e-03
5.538998656020666100e-02
1.144499186349727249e-01
1.608321091229047983e-01
1.894683339839483005e-01
1.972118818214479430e-01
1.831434662679220504e-01
1.486644229358187741e-01
9.737853754048865496e-02
3.476903179750329143e-02
-3.232153324649986170e-02
-9.638722391017526259e-02
-1.500793877513379448e-01
-1.870674613262082731e-01
-2.028336917516957993e-01
-1.952892406132047953e-01
-1.651070646272454479e-01
-1.156950638751800819e-01
-5.278933898813195635e-02
1.627617619864107912e-02
8.349982945022385583e-02
1.411889359268840849e-01
1.828453691899666333e-01
2.038635318132579477e-01
2.019857222874474889e-01
1.774912581434196501e-01
1.331213655149328379e-01
7.376556229329009340e-02
5.951541402470526820e-03
-6.281570115526718956e-02
-1.248216350653205964e-01
-1.729663885392844214e-01
-2.015744724669171206e-01
-2.070958513538418422e-01
-1.885954582362664167e-01
-1.479435462400665591e-01
-8.965700979007625027e-02
-2.039571007368480571e-02
5.182172292139247682e-02
1.185678516407158711e-01
1.719863792277348535e-01
2.056815875745983124e-01
2.154343252471510595e-01
1.996955648105767089e-01
1.598228066312634421e-01
1.000262196442338603e-01
2.700084888234777214e-02
-5.075021557272924033e-02
-1.238565718459224418e-01
-1.832010382846972485e-01
-2.211005591573001472e-01
-2.323929132721161972e-01
-2.152494800046409473e-01
-1.715458839957827164e-01
-1.066899594696061604e-01
-2.891518090522976481e-02
5.184547508213657729e-02
1.253207044040871576e-01
1.822862130223801835e-01
2.157712348899729904e-01
2.219216238296644328e-01
2.004203328986841615e-01
1.544415260614332985e-01
9.017576724092674079e-02
1.600098926619013262e-02
-5.860026535923532065e-02
-1.242474150641612596e-01
-1.728349535877181653e-01
-1.985123864803059468e-01
-1.983469745472832002e-01
-1.726061794664175419e-01
-1.246557534195822242e-01
-6.051070197418353253e-02
1.189614856309048618e-02
8.364093776672526515e-02
1.458287478771080892e-01
1.906044606024696608e-01
2.120657852744857186e-01
2.070030846007307468e-01
1.753910036956062568e-01
1.205507369938318835e-01
4.891210764121294713e-02
-3.065297853990264776e-02
-1.078876544734238829e-01
-1.724891365202748938e-01
-2.155593792837753320e-01
-2.309502973409985338e-01
-2.162674603115117278e-01
-1.733267143947092304e-01
-1.079503701932985615e-01
-2.912439077792751407e-02
5.233093419120977974e-02
1.253403774074429156e-01
1.801436948516830228e-01
2.096223041314039803e-01
2.102071399256120743e-01
1.822707683179327631e-01
1.299908115017152366e-01
6.074015611282841676e-02
-1.590114653457326555e-02
-8.939966723396963744e-02
-1.496583672549707811e-01
-1.883847351311767060e-01
-2.002536287388933522e-01
-1.836829815493593587e-01
-1.410856463124956495e-01
-7.854171811808938197e-02
-4.930941852289913441e-03
6.934664640172551187e-02
1.338660059686881953e-01
1.796572804570678028e-01
2.004477560780697498e-01
1.934936293217929815e-01
1.599059896903802791e-01
1.044508162691065167e-01
3.486389632904350611e-02
-3.922660580815007236e-02
-1.076288596646283735e-01
-1.609899440807948390e-01
-1.920841375378024574e-01
-1.968141844888785519e-01
-1.747837656780827920e-01
-1.293434109057009507e-01
-6.708049627800966030e-02
3.178978047822404729e-03
7.168814411314471113e-02
1.291861740858710195e-01
1.681668454473570495e-01
1.838353616153095837e-01
1.746507040115552467e-01
1.424143487920431494e-01
9.192138377389288961e-02
3.024250395348997839e-02
-3.425105516227983787e-02
-9.298675557939983793e-02
-1.382846731540594565e-01
-1.643281674573817963e-01
-1.679000634619661481e-01
-1.487833719280181599e-01
-1.097596602568732399e-01
-5.620107603953421183e-02
4.677409586098475736e-03
6.478899171810362234e-02
1.162331626548528118e-01
1.523056486793794295e-01
1.683359410432128944e-01
1.622519155662423829e-01
1.348108561675853134e-01
8.948339276156053179e-02
3.201600790574261890e-02
-3.027669803435650842e-02
-8.941805423006143894e-02
-1.377762436446227923e-01
-1.690490097976150019e-01
-1.790931680671256077e-01
-1.664816905641428590e-01
-1.327070909461522397e-01
-8.199536799010331833e-02
-2.074697450877290711e-02
4.331929412654239586e-02
1.021877875974504246e-01
1.485720755046034125e-01
1.767985435637033087e-01
1.834481037720039620e-01
1.677100417430685830e-01
1.314386588498069885e-01
7.892328975741438879e-02
1.639924763213369829e-02
-4.865237184740867082e-02
-1.083503775144903092e-01
-1.553284339683193849e-01
-1.836335938809635915e-01
-1.895078676441348253e-01
-1.719397776500957153e-01
-1.328823503129505090e-01
-7.707661982011278223e-02
-1.148448229284482550e-02
5.560020080393474062e-02
1.156418698318389948e-01
1.610005238115873039e-01
1.859493898957581270e-01
1.874235507129918543e-01
1.653978381231238637e-01
1.228575044746033351e-01
6.538552410336868903e-02
4.312108548247123307e-04
-6.365006981400711528e-02
-1.186742703692538620e-01
-1.576902268330895029e-01
-1.758846304588370657e-01
-1.712048561540875369e-01
-1.446091734082578795e-01
-9.990116619902386641e-02
-4.316399722744676537e-02
1.812048116691573202e-02
7.611915463664054027e-02
1.236831995208854396e-01
1.552130136398662263e-01
1.672501143280881453e-01
1.587570697618140292e-01
1.310960391729075192e-01
8.774994539556070505e-02
3.385255076071830294e-02
-2.439784534259979709e-02
-8.037741843074261427e-02
-1.276889767415465837e-01
-1.608045292542553129e-01
-1.756682253857855813e-01
-1.702022933651575753e-01
-1.446346699921594037e-01
-1.015700401023384436e-01
-4.576138853600167367e-02
1.640739633286439347e-02
7.766581260975397027e-02
1.307286588766627400e-01
1.691781260223801930e-01
1.882420304984838422e-01
1.853774110706317146e-01
1.606011207546880482e-01
1.165369628300498561e-01
5.816890462732464406e-02
-7.688551088042880344e-03
-7.315961408767999996e-02
-1.302350797039594776e-01
-1.717500613557114697e-01
-1.922947697465064443e-01
-1.889476863007396590e-01
-1.617314531520069876e-01
-1.137117008498810811e-01
-5.070077795322719405e-02
1.940976152485578143e-02
8.760485044343399585e-02
1.448716818276319651e-01
1.833660620394698959e-01
1.974866007004954238e-01
1.847206489364230930e-01
1.461311427873386581e-01
8.638220143354158331e-02
1.325782452972978573e-02
-6.329846765759297722e-02
-1.325205772202381338e-01
-1.843641625263949813e-01
-2.110338383819380381e-01
-2.082366300953601146e-01
-1.759211512711974790e-01
-1.183439614122508698e-01
-4.343821402459369097e-02
3.839822069544907707e-02
1.158709174720443658e-01
1.784381886969417519e-01
2.177728077010765984e-01
2.288243398893022029e-01
2.103625352538368853e-01
1.649825042129439145e-01
9.863119824872935981e-02
1.975890144667965392e-02
-6.178300591523642332e-02
-1.359692565156408461e-01
-1.938176083738393229e-01
-2.284585439843961063e-01
-2.359325815272125815e-01
-2.156177843272069072e-01
-1.702314402296974116e-01
-1.054047291854482427e-01
-2.889621522735790274e-02
5.042529039419235692e-02
1.236617122405334890e-01
1.828736327984435694e-01
2.218672387921087619e-01
2.367335055763453433e-01
2.261377988035069286e-01
1.913753641737108158e-01
1.362074423714694504e-01
6.649109313914297603e-02
-1.037875464544016704e-02
-8.618599025606780983e-02
-1.527253592792376380e-01
-2.026851172355993158e-01
-2.304885728860910921e-01
-2.329829522765564931e-01
-2.098672458247595740e-01
-1.637815639594139838e-01
-1.000301714739499082e-01
-2.596668465765034073e-02
4.987671231578041237e-02
1.187943343956675279e-01
1.729108082044793770e-01
2.060653928345751451e-01
2.144953329111675966e-01
1.972701506027642049e-01
1.564443937386334749e-01
9.690144541672413014e-02
2.587515422047106939e-02
-4.783097433251359831e-02
-1.148643042862300262e-01
-1.664813611270363758e-01
-1.957101844263010038e-01
-1.983573650882731187e-01
-1.736899898144980137e-01
-1.246485621780119291e-01
-5.752137085708777797e-02
1.888331967883893903e-02
9.443375326950026460e-02
1.590504052567306426e-01
2.040595228967734265e-01
2.233387495445872395e-01
2.141021219123200314e-01
1.772249951203488938e-01
1.170829880276497009e-01
4.095496652803148896e-02
-4.190750502723816773e-02
-1.214219318474565046e-01
-1.879031082863028279e-01
-2.332486830669509847e-01
-2.519447591215498994e-01
-2.417569493797474267e-01
-2.040005180254938488e-01
-1.433391995592686041e-01
-6.713751518181866607e-02
1.552967562827509140e-02
9.504661386326576644e-02
1.624221911138600261e-01
2.102961572076171015e-01
2.336874639184388924e-01
2.304444601511837221e-01
2.013946695018349331e-01
1.502068455205673170e-01
8.298342214160589481e-02
7.611276208326608721e-03
-6.708469498379601714e-02
-1.323214070677784793e-01
-1.803852813439431046e-01
-2.055956513879218239e-01
-2.050672558074352614e-01
-1.791335047876678466e-01
-1.313333012488251128e-01
-6.794484449556399686e-02
2.860564806089652828e-03
7.210738286725068558e-02
1.311828072883775009e-01
1.729188593662713269e-01
1.924495108887487871e-01
1.877470315155239378e-01
1.597990420969090386e-01
1.124372420703229347e-01
5.185546538099018027e-02
-1.413457625567077214e-02
-7.704761342632039656e-02
-1.287802070720933112e-01
-1.626573235522477123e-01
-1.743321746313283294e-01
-1.624066524974810966e-01
-1.286683808388180417e-01
-7.788917319407764883e-02
-1.719488405457851588e-02
4.491098892897120443e-02
9.972568131513823153e-02
1.395507103757942791e-01
1.587492447898357917e-01
1.545211220944092412e-01
1.273047224992105708e-01
8.075659669735203716e-02
2.130077329882079651e-02
-4.271034737679640925e-02
-1.021256891847696635e-01
-1.482719089506243093e-01
-1.742065991782954515e-01
-1.757695139879323076e-01
-1.522607325554715951e-01
-1.066119745216075609e-01
-4.499663769980068173e-02
2.406667480229804368e-02
9.096121928861033989e-02
1.463576052205737554e-01
1.825240213801050948e-01
1.943832461907295250e-01
1.801884797387788006e-01
1.417441785169913648e-01
8.415636651182241412e-02
1.515453823690323526e-02
-5.592697168676291630e-02
-1.193897022626117382e-01
-1.664905264286669906e-01
-1.906712742412370598e-01
-1.885160411866444452e-01
-1.602724635728105806e-01
-1.098351819767228177e-01
-4.418344026047078821e-02
2.763647035973101906e-02
9.581534528637708492e-02
1.511609646529043227e-01
1.863409957229439362e-01
1.968130536522943175e-01
1.813330888250545558e-01
1.420109970545806455e-01
8.394671921598785558e-02
1.451973985503091438e-02
-5.757095464883067726e-02
-1.233979478835783572e-01
-1.748933152041236838e-01
-2.058024431846147695e-01
-2.123977063527388298e-01
-1.938799697015310686e-01
-1.524278152240414741e-01
-9.288869895725140879e-02
-2.215267598631086993e-02
5.169840567841485490e-02
1.203386274965519004e-01
1.761160023116996320e-01
2.128453533818337462e-01
2.264187273188382754e-01
2.152013219157099810e-01
1.801926926646003069e-01
1.249427382879819831e-01
5.522629873233918241e-02
-2.150479246447639659e-02
-9.686126367873620913e-02
-1.624007437837540202e-01
-2.105812855859768573e-01
-2.356725983441522454e-01
-2.344924458831347536e-01
-2.068476734282314600e-01
-1.556033034404672999e-01
-8.636446846061354710e-02
-6.819735422211533477e-03
7.415228780576274548e-02
1.474824639263705717e-01
2.048921039093932750e-01
2.397653642868685098e-01
2.478614337975681425e-01
2.278295059466081129e-01
1.814753368690250612e-01
1.137109871847766240e-01
3.213263549424037052e-02
-5.377606613130821167e-02
-1.337471482899214859e-01
-1.980089660241957927e-01
-2.385749635203619490e-01
-2.503510984175503773e-01
-2.318779124427714777e-01
-1.855682028863446242e-01
-1.173891608248410906e-01
-3.604535672126699813e-02
4.819302253031022831e-02
1.248300576289606001e-01
1.844667411921929179e-01
2.199460901281143910e-01
2.271946866696845646e-01
2.056759418444419896e-01
1.584179999694483310e-01
9.162517817665155606e-02
1.391841928255555666e-02
-6.471990712475149399e-02
-1.341894541358084059e-01
-1.855612156648919209e-01
-2.122453853066518237e-01
-2.108709591515384174e-01
-1.817415692953757989e-01
-1.287892635195885260e-01
-5.902313633983348462e-02
1.844691256622524311e-02
9.365567498507369748e-02
1.570973544719870274e-01
2.009135774996604340e-01
2.198074705276626961e-01
2.116031339645925435e-01
1.774246213278725948e-01
1.215022103060302561e-01
5.063840425254544086e-02
-2.660612349796239937e-02
-1.009189396658251164e-01
-1.633300172603502909e-01
-2.062831092116054199e-01
-2.245691832036246505e-01
-2.160005040907484186e-01
-1.817104596033835562e-01
-1.260051370269102411e-01
-5.577247427645751210e-02
2.045265513380682687e-02
9.360418957059371547e-02
1.552029296400127545e-01
1.983242270262973728e-01
2.183096538997192637e-01
2.131721483588551458e-01
1.836978079969584232e-01
1.332844632099814963e-01
6.756490184983254821e-02
-6.152155545008274051e-03
-7.960273747332870242e-02
-1.444190559740152480e-01
-1.930499210387636444e-01
-2.196555619464712339e-01
-2.208620472576715565e-01
-1.962566385625707788e-01
-1.485225910368274116e-01
-8.316024510699121519e-02
-7.819908775439345094e-03
6.864577361647891673e-02
1.372547604699821677e-01
1.899426120618410430e-01
2.204701165744970548e-01
2.251179479131383554e-01
2.031187596790693384e-01
1.567898670213049017e-01
9.134445462585942532e-02
1.438151556887667937e-02
-6.491879162807744075e-02
-1.368380047016938827e-01
-1.923066641238465047e-01
-2.240979703923306199e-01
-2.278541733331436170e-01
-2.027685566218750957e-01
-1.517875706419774817e-01
-8.127779808444092480e-02
-1.981640440019104277e-04
8.109695916533006532e-02
1.522405192417004560e-01
2.042152711293922507e-01
2.305041931649750575e-01
2.278850006077479673e-01
1.967901367836020765e-01
1.412141106450955919e-01
6.819544139662150894e-02
-1.306358203699013038e-02
-9.234126274071563500e-02
-1.596741920465265252e-01
-2.066156093347314981e-01
-2.273177497290938542e-01
-2.192957495359345033e-01
-1.837613602887833708e-01
-1.254644985841530669e-01
-5.205242274877563274e-02
2.696037586476278392e-02
1.014505850224472483e-01
1.619849150800879434e-01
2.009887617997953568e-01
2.136556935661277079e-01
1.985116607782556608e-01
1.575835321014487644e-01
9.615559194819177369e-02
2.213547392636263517e-02
-5.490982748615230724e-02
-1.249508730963226344e-01
-1.787940588725621116e-01
-2.093171558753390560e-01
-2.124597201763307464e-01
-1.878020100250521185e-01
-1.386261617344958785e-01
-7.144512288608426132e-02
4.919792497157321476e-03
8.055897598751315947e-02
1.458007697762262467e-01
1.924512654508130916e-01
2.147869348237531062e-01
2.101956421965482935e-01
1.794246788831148354e-01
1.264434636677245483e-01
5.795435923494035579e-02
-1.740134927076028570e-02
-9.007497751390836083e-02
-1.507799524239534228e-01
-1.916690624464729709e-01
-2.073743523169259695e-01
-1.957670668319015372e-01
-1.583122053537193985e-01
-9.993225718493903287e-02
-2.836912863958815367e-02
4.686801865473987083e-02
1.157962603690482761e-01
1.692867947067039913e-01
2.002419740418561744e-01
2.044875957428333169e-01
1.812975415922982170e-01
1.335067499973668914e-01
6.720111141553064549e-02
-8.992931484442325679e-03
-8.495989286186360345e-02
-1.503910649488015838e-01
-1.961854771007870424e-01
-2.157707410705265172e-01
-2.061279235608630966e-01
-1.683200707607867552e-01
-1.074015762933308027e-01
-3.170781303057869371e-02
4.835139965224266589e-02
1.217851066950433048e-01
1.785603632692296105e-01
2.109622247219965219e-01
2.145985654795273256e-01
1.889409181787735925e-01
1.373617716068515626e-01
6.668572661860006079e-02
-1.368722587563847570e-02
-9.299421226422743825e-02
-1.605275020566911126e-01
-2.070860601334906237e-01
-2.262591987438675178e-01
-2.153432089518945158e-01
-1.757355376778974576e-01
-1.127312408065682670e-01
-3.474766505030783131e-02
4.789472058583228720e-02
1.244281798305874875e-01
1.850902388369643214e-01
2.223580109620883483e-01
2.318188508143339543e-01
2.126117164865773124e-01
1.674340119300209151e-01
1.021434822738829240e-01
2.500797914919464932e-02
-5.431789991392810268e-02
-1.259802776962140325e-01
-1.811446903267438513e-01
-2.131032652874346733e-01
-2.181304467619195886e-01
-1.959615759012863778e-01
-1.498045859295853433e-01
-8.586439151205296771e-02
-1.245202475278227305e-02
6.116775306454821926e-02
1.259970664122755657e-01
1.744095860704568679e-01
2.009988871555394851e-01
2.030905837565119276e-01
1.809012296228140471e-01
1.373799091278341267e-01
7.779804258638854664e-02
9.152336617186465628e-03
-6.057320407457353340e-02
-1.232511127271253282e-01
-1.715098923670013153e-01
-1.996052566797213434e-01
-2.041506559009415300e-01
-1.845886251439514125e-01
-1.433066630911853934e-01
-8.535056682315714238e-02
-1.776006972769890446e-02
5.136838094115267483e-02
1.139270415701780781e-01
1.627742917066184181e-01
1.925103297763699761e-01
1.999883092738097834e-01
1.845579095140938986e-01
1.480645433651887610e-01
9.462832315310233666e-02
3.022456317050240329e-02
-3.790773655614680659e-02
-1.019955608515150380e-01
-1.545574603162844229e-01
-1.892650769668609012e-01
-2.017487412753507792e-01
-1.902235510470573487e-01
-1.558087488730358072e-01
-1.024549371196153691e-01
-3.647026095587719424e-02
3.428192473356128644e-02
1.013828675280964708e-01
1.569006249973366462e-01
1.943283561697430051e-01
2.093071653827876522e-01
2.000717097105462750e-01
1.676042187769161695e-01
1.155112194626074507e-01
4.964441705067531435e-02
-2.251231541725167568e-02
-9.265473358696238448e-02
-1.526031844809370153e-01
-1.952811016998858284e-01
-2.156055653470083655e-01
-2.111625920151568303e-01
-1.825503453723614500e-01
-1.333099976041624557e-01
-6.943540595318389852e-02
1.455195493638816728e-03
7.112839603903275965e-02
1.317474615495193846e-01
1.767419719512072218e-01
2.014498829226902821e-01
2.035020037286023875e-01
1.829576676288666992e-01
1.422229147556021700e-01
8.578906820756410090e-02
1.981969814556688858e-02
-4.840451875899104417e-02
-1.111817399481648261e-01
-1.612046250766911992e-01
-1.924277511765601911e-01
-2.008682647541257804e-01
-1.851980812836385992e-01
-1.470062542764514479e-01
-9.066635250613638841e-02
-2.281595518122788574e-02
4.847392615582148123e-02
1.147070232297561776e-01
1.679914893006782817e-01
2.019514154509833292e-01
2.124278026814625520e-01
1.979273820353459334e-01
1.598064515301551580e-01
1.021817050743518973e-01
3.155971365475990914e-02
-4.381129067365484991e-02
-1.148364379064820279e-01
-1.726480677887592130e-01
-2.097482380908213262e-01
-2.210685247600422954e-01
-2.047705893253461418e-01
-1.626245910546269546e-01
-9.986809696719642360e-02
-2.455080984247420828e-02
5.352871950503391985e-02
1.241240699260537650e-01
1.778901138553858063e-01
2.076041780270820591e-01
2.091151565237824583e-01
1.819193702920452460e-01
1.293062714694419857e-01
5.805205175370768689e-02
-2.233539853687716362e-02
-1.007833954721983061e-01
-1.661355246415214537e-01
-2.087654201859379943e-01
-2.220702702433230424e-01
-2.035727679504515664e-01
-1.554126990311014145e-01
-8.411816061334352612e-02
3.202665258521045222e-04
8.592198167465985026e-02
1.604885168773365622e-01
2.133830772820577704e-01
2.370426447780577539e-01
2.280185366677455749e-01
1.874339113089195930e-01
1.208280572403501452e-01
3.741677079169590525e-02
-5.115001855959301624e-02
-1.323927169410960836e-01
-1.947666206314538906e-01
-2.293427834024508449e-01
-2.311548618659418630e-01
-1.999922878430461237e-01
-1.404874004813859711e-01
-6.145006902448877512e-02
2.546159511140255044e-02
1.075150861713766726e-01
1.728198961446432425e-01
2.120743641122610212e-01
2.198840381800994948e-01
1.954786726719770218e-01
1.427485526900331425e-01
6.961372369236584756e-02
-1.317026819749741659e-02
-9.359026160240307979e-02
-1.601096092661518921e-01
-2.033162858880850354e-01
-2.172534002291605371e-01
-2.002345462360367034e-01
-1.550127123453985123e-01
-8.827538661398232067e-02
-9.562854757215313861e-03
7.018736074529186020e-02
1.402154079054784841e-01
1.913894262373551092e-01
2.173399945295534375e-01
2.151573243674848868e-01
1.856033363902764299e-01
1.328598034453826460e-01
6.388714544381329796e-02
-1.250291018604528237e-02
-8.675016549900757545e-02
-1.497119229961852427e-01
-1.937717480504987932e-01
-2.137618841897944710e-01
-2.075774619727163983e-01
-1.763941262312002101e-01
-1.244558765286219032e-01
-5.846469074018832701e-02
1.333381958558302327e-02
8.222546498591562503e-02
1.400985753185017557e-01
1.803635924287906311e-01
1.986251062438513793e-01
1.930720252646568325e-01
1.645938746014335152e-01
1.166430742898403317e-01
5.485961017679735763e-02
-1.352223833235764380e-02
-8.044863473632167528e-02
-1.379432671906505037e-01
-1.790459662741850089e-01
-1.986903270254620768e-01
-1.943969321035011188e-01
-1.666532739283718145e-01
-1.188837134622031944e-01
-5.698907941487645068e-02
1.146937047634171911e-02
7.829366713315186188e-02
1.357055584466680398e-01
1.772759151639015374e-01
1.986089710287422816e-01
1.977200837968024760e-01
1.751076007990824135e-01
1.335679865402456534e-01
7.782036471914262343e-02
1.399305788536305689e-02
-5.099599161935795821e-02
-1.101361775813992638e-01
-1.570518010391467600e-01
-1.866903868578040082e-01
-1.958898524992397361e-01
-1.837460620406255740e-01
-1.517195844632110158e-01
-1.034528288707167870e-01
-4.431657803228612746e-02
1.924285306560602482e-02
8.045025646625117433e-02
1.329354476919031025e-01
1.713734425775725601e-01
1.919793567524498423e-01
1.928252046218095761e-01
1.739591123432269182e-01
1.373281995306583347e-01
8.653365984849344106e-02
2.646431755524183277e-02
-3.714840871957178492e-02
-9.822776683708811518e-02
-1.508848737296766829e-01
-1.899634115191578543e-01
-2.115509862288781628e-01
-2.133952059755248321e-01
-1.951593783509845137e-01
-1.584660314037305007e-01
-1.067067342168854377e-01
-4.464223300626156410e-02
2.213481874127994076e-02
8.777440691655462313e-02
1.466900631226591700e-01
1.939748500058752767e-01
2.257055116063547973e-01
2.391544962217134473e-01
2.329351227409442449e-01
2.070992921653356800e-01
1.631957498728731359e-01
1.042778301127418594e-01
3.482473081098486078e-02
-3.947528869463816370e-02
-1.121199069124874798e-01
-1.763660342893723920e-01
-2.259314317434597263e-01
-2.557350935088399391e-01
-2.625644859636324102e-01
-2.455507179969124154e-01
-2.063452440918737141e-01
-1.489355311100080681e-01
-7.911494051458675680e-02
-3.711278310152308496e-03
7.026194405721594705e-02
1.363668382388741052e-01
1.893023721441703944e-01
2.252243443436299786e-01
2.418444685365819247e-01
2.383710562034526692e-01
2.153755134433529839e-01
1.746634662375192715e-01
1.191920431792851676e-01
5.301940460251143572e-02
-1.877256487801114843e-02
-9.025620814485049714e-02
-1.549952078783163878e-01
-2.065646580964121404e-01
-2.392305667447679474e-01
-2.487092068134587608e-01
-2.328746848820384407e-01
-1.922604993113059546e-01
-1.302284295321084751e-01
-5.274854814830355620e-02
3.218553483943292076e-02
1.154225785801831633e-01
1.876863872999008087e-01
2.406497199488736860e-01
2.679235846973328505e-01
2.658467431125084990e-01
2.339846260135604594e-01
1.752802219733263778e-01
9.583176849634927885e-02
4.300266965584692569e-03
-8.901803030879371081e-02
-1.733755892450873637e-01
-2.388857400475098425e-01
-2.777941224901556705e-01
-2.855236308157682590e-01
-2.613203969279989658e-01
-2.083741329639765549e-01
-1.333669162567072963e-01
-4.551433967689669235e-02
4.472698593853896565e-02
1.270462812609637615e-01
1.925283822841094006e-01
2.346031671302904464e-01
2.496179260706444802e-01
2.370260581734324745e-01
1.992314763595500748e-01
1.411592596974857727e-01
6.964251343856678322e-02
-7.286590175329135666e-03
-8.114253753278616310e-02
-1.437493115186775916e-01
-1.880192645854700806e-01
-2.087256870874369952e-01
-2.031962114461351998e-01
-1.718062294810888957e-01
-1.181378406869381670e-01
-4.870613131135659996e-02
2.776516609551463177e-02
1.014371639289410321e-01
1.626528522178816716e-01
2.032326564482552222e-01
2.175773415344094408e-01
2.034362897282224192e-01
1.622545005407655949e-01
9.905705849321677636e-02
2.187101139986936948e-02
-5.926601161586080024e-02
-1.336030895490689929e-01
-1.911188539471994075e-01
-2.239165393354740907e-01
-2.273705405485856590e-01
-2.008420910655998037e-01
-1.478299910886992086e-01
-7.550681140277075432e-02
6.297363917183433635e-03
8.649565587479011997e-02
1.542990350525973164e-01
2.006887827166186911e-01
2.196066403784751320e-01
2.087176564550066171e-01
1.696640645301044636e-01
1.077970356052613404e-01
3.143977754209029141e-02
-4.921204962013220330e-02
-1.234153239469799879e-01
-1.812769659135879952e-01
-2.150605295243332438e-01
-2.202326535025946885e-01
-1.960931870679209765e-01
-1.458798941959485174e-01
-7.631951879659927551e-02
3.308422010305400729e-03
8.244886396770503834e-02
1.506965971223713785e-01
1.991657842310637916e-01
2.216193154837513002e-01
2.152212623440606376e-01
1.808414807959481951e-01
1.229048188494014371e-01
4.882126503349552837e-02
-3.193897399882728028e-02
-1.090327023112289406e-01
-1.725625728492329036e-01
-2.143620947409605737e-01
-2.290693251458472413e-01
-2.148308804557755303e-01
-1.735245945039341764e-01
-1.104587176222469325e-01
-3.359324169686055128e-02
4.758139564822090606e-02
1.233111188497541810e-01
1.847847443695503356e-01
2.251189793472470058e-01
2.400318731938755057e-01
2.281793976414646652e-01
1.911707173314919350e-01
1.332990441433616058e-01
6.103780536863109146e-02
-1.764146970831106942e-02
-9.407604763012139548e-02
-1.597973246594065755e-01
-2.074434262384418637e-01
-2.316212387891218305e-01
-2.296041793778040851e-01
-2.017362910785094054e-01
-1.514407260423503709e-01
-8.480039291407023838e-02
-9.766897078818961853e-03
6.487020001109819467e-02
1.305817212893739809e-01
1.800971820525157641e-01
2.081781072323921900e-01
2.121034634609479941e-01
1.918602866224179970e-01
1.500633865452913329e-01
9.163417494615738734e-02
2.326794717682366398e-02
-4.727264347591447757e-02
-1.119828782904224163e-01
-1.634889972871253760e-01
-1.958871838344131144e-01
-2.054563101772128308e-01
-1.911428817521607093e-01
-1.547237921858264365e-01
-1.005929787929700087e-01
-3.518907018387817942e-02
3.384271235859967475e-02
9.861051592240599462e-02
1.519049660823975079e-01
1.879726850794777027e-01
2.030569703091638922e-01
1.956795165973427009e-01
1.666815074956596310e-01
1.190702500116338214e-01
5.771906127928463914e-02
-1.105504494426046147e-02
-8.003749338702179084e-02
-1.417883672372459436e-01
-1.894102088383052829e-01
-2.173350828039045946e-01
-2.220226771553384937e-01
-2.024563723748692146e-01
-1.603465046464800925e-01
-9.999507045787314752e-02
-2.783567257075626744e-02
4.827963287114006574e-02
1.199402809894187238e-01
1.790789237982240989e-01
2.188369743253944510e-01
2.343398691732508088e-01
2.233259129097478757e-01
1.865505457990844773e-01
1.278751742507827915e-01
5.397070033949027956e-02
-2.638015208512893561e-02
-1.033284845478408404e-01
-1.672306951916332496e-01
-2.099648647288294145e-01
-2.260775677730388344e-01
-2.135580917272343338e-01
-1.741023206769023723e-01
-1.128319247608885467e-01
-3.754058341748908040e-02
4.238604220568392700e-02
1.171982276790834998e-01
1.779829314565478104e-01
2.176888125238813920e-01
2.318704862184710613e-01
2.190993681412108096e-01
1.810344200621867294e-01
1.221736143056123824e-01
4.932044328553278345e-02
-2.918461947484054381e-02
-1.043936711452012334e-01
-1.677470196238788902e-01
-2.120344183493372003e-01
-2.322261102482728878e-01
-2.260810726421907668e-01
-1.944444261025036758e-01
-1.411700888649143615e-01
-7.265995247503129195e-02
2.916862864635372948e-03
7.660476983188635458e-02
1.397058446521996788e-01
1.847680492285502518e-01
2.064258724084894470e-01
2.020225540274397380e-01
1.719572077709959068e-01
1.197150561125708834e-01
5.155812604333030735e-02
-2.412245970308267429e-02
-9.775896596401431604e-02
-1.597837474356043064e-01
-2.018926280458029632e-01
-2.182105398046043088e-01
-2.061634954198293401e-01
-1.668978339383841158e-01
-1.051655669799577419e-01
-2.869117117013383900e-02
5.287506231174433219e-02
1.292477208084163443e-01
1.908431574056725644e-01
2.299758911325682220e-01
2.417724883869193098e-01
2.247197485578660281e-01
1.808142987413899339e-01
1.153136501209324621e-01
3.611432752043857580e-02
-4.718565213887462861e-02
-1.244445163708440549e-01
-1.862260100665285301e-01
-2.249920467170629101e-01
-2.360842276562442610e-01
-2.183460198076863645e-01
-1.742679455173242187e-01
-1.096088780009062263e-01
-3.255180964030290197e-02
4.744616074276145068e-02
1.208977318304549631e-01
1.794234998915474888e-01
2.166405125208502036e-01
2.287276978208614975e-01
2.146611510362376740e-01
1.761644066918169882e-01
1.174429567604139413e-01
4.476009444843143115e-02
-3.412363777791328073e-02
-1.106499971229488177e-01
-1.762944704406615437e-01
-2.234813512770864596e-01
-2.464856708380806505e-01
-2.421933219434973528e-01
-2.105873861145324266e-01
-1.548555745125249072e-01
-8.106976673473870187e-02
2.531996264952988268e-03
8.654868899137015126e-02
1.615399298783778692e-01
2.191039873536285154e-01
2.527852460749490104e-01
2.587390862234212885e-01
2.361200991029023255e-01
1.871785084998480453e-01
1.170616789911660127e-01
3.333225728941973526e-02
-5.476892697821247880e-02
-1.372708727775061033e-01
-2.045658674973559465e-01
-2.485500108548976406e-01
-2.636737061394080484e-01
-2.477415035641171992e-01
-2.023135346119179778e-01
-1.326156097147648816e-01
-4.694850455838431302e-02
4.432523408944852306e-02
1.300696675498033972e-01
1.997558473191767825e-01
2.447525182312981773e-01
2.593785588608445991e-01
2.416157031620417561e-01
1.934191569948775780e-01
1.205865856320287727e-01
3.216711955723260824e-02
-6.056778928120257199e-02
-1.455074107146320239e-01
-2.112869456306627758e-01
-2.488709205593872542e-01
-2.529039650678701623e-01
-2.226012139315676208e-01
-1.619932050718063676e-01
-7.943424641338457659e-02
1.357820940734304205e-02
1.040816735763639977e-01
1.795351915054936298e-01
2.296035032818835586e-01
2.475738671371353339e-01
2.312250074469925920e-01
1.830623300531482867e-01
1.099214893995155429e-01
2.201516865262830719e-02
-6.844859506922505721e-02
-1.489125711078702619e-01
-2.081901440867050257e-01
-2.380422317905539487e-01
-2.343797639932774790e-01
-1.978829374468461522e-01
-1.339099663632558057e-01
-5.169666051888179709e-02
3.701903058269413044e-02
1.197188268302773473e-01
1.849019264357701364e-01
2.236918858934486831e-01
2.310255972868909824e-01
2.062699892970755733e-01
1.532070045312179107e-01
7.942285723349915005e-02
-4.788463072122030317e-03
-8.785165108516869437e-02
-1.584834498692311577e-01
-2.072125224042327130e-01
-2.276439650920714652e-01
-2.172928743557082654e-01
-1.778672546383564257e-01
-1.149579797534006492e-01
-3.718320297995650336e-02
4.507494028581271461e-02
1.211316937427604767e-01
1.814201370455298945e-01
2.186596935898180716e-01
2.286382612308175966e-01
2.105653993120248646e-01
1.670226967884593516e-01
1.035670344648871588e-01
2.804654515175256102e-02
-5.030860923692503928e-02
-1.219463907758596144e-01
-1.781117426217745381e-01
-2.119156956902545907e-01
-2.192334301815847541e-01
-1.993013247938735799e-01
-1.548911558207781425e-01
-9.198584709526314018e-02
-1.897033571162146104e-02
5.454455537894284389e-02
1.190696960466521293e-01
1.665337040246258615e-01
1.913241977295258023e-01
1.909259672835899035e-01
1.660889109464283586e-01
1.205500332206206754e-01
6.040827671878455651e-02
-6.714160542694386224e-03
-7.259603486022186969e-02
-1.293273072808937552e-01
-1.701371270961688498e-01
-1.900933580598804240e-01
-1.866365989443184992e-01
-1.599086855318636036e-01
-1.128278076429664462e-01
-5.086382332762867664e-02
1.850816987746919939e-02
8.664887085020026025e-02
1.448047714186869450e-01
1.852365218950336734e-01
2.022778510492879711e-01
1.931832429792409433e-01
1.586380920590437782e-01
1.028276129895993318e-01
3.300439454894997515e-02
-4.142998037147005430e-02
-1.102190497951203718e-01
-1.637291578562015126e-01
-1.943765427118681055e-01
-1.977724968339038547e-01
-1.733936340600346349e-01
-1.246541881882439196e-01
-5.836029817588112706e-02
1.635140555080240310e-02
8.938526473051797150e-02
1.511178426491263660e-01
1.936623466924998205e-01
2.118067034470214327e-01
2.035417337106829039e-01
1.701612291613272820e-01
1.159679182874885361e-01
4.765769056979719809e-02
-2.652591838719976780e-02
-9.777257499677169394e-02
-1.577284448302536946e-01
-1.994631516692092488e-01
-2.182724414876845986e-01
-2.122112607870128842e-01
-1.822785134733076740e-01
-1.322252097435641927e-01
-6.801980190120461567e-02
2.939176331557005750e-03
7.273608178062862528e-02
1.338390450044724955e-01
1.798695769778712039e-01
2.061664095789856876e-01
2.101253147624284057e-01
1.913398115664323718e-01
1.515798373596174420e-01
9.463191289190825417e-02
2.600719298664780355e-02
-4.748237050691883621e-02
-1.182779575876394262e-01
-1.787517073795737155e-01
-2.219868821769628575e-01
-2.426021410983694171e-01
-2.375117609981680644e-01
-2.064783876703594201e-01
-1.523225398270674769e-01
-8.071011158195784407e-02
4.754632875863251673e-04
8.208818597099434844e-02
1.548569537605228308e-01
2.105341617232202034e-01
2.428871521709473902e-01
2.483995245956446829e-01
2.266125539207988759e-01
1.801068551213800273e-01
1.141727105575560675e-01
3.623213272645824795e-02
-4.493049342715906003e-02
-1.200778014143195765e-01
-1.805102569199618368e-01
-2.190602714707574061e-01
-2.309856899274049802e-01
-2.146365362258291776e-01
-1.717669100800953697e-01
-1.074007180788866533e-01
-2.923910291828650532e-02
5.330608464273850489e-02
1.302966416015454432e-01
1.924932556755272750e-01
2.324665165567524894e-01
2.454755077681986530e-01
2.300293545267311779e-01
1.880769510249444554e-01
1.248025291151649008e-01
4.804111137272729093e-02
-3.263577766569987493e-02
-1.070799122616567789e-01
-1.658528938359567495e-01
-2.014835330436205441e-01
-2.095120410461328020e-01
-1.891412178009602152e-01
-1.433676804512014069e-01
-7.855949536969644709e-02
-3.551591162021222603e-03
7.158419528827103528e-02
1.368914709866339563e-01
1.838003490887855917e-01
2.061525057967966701e-01
2.008774486732011755e-01
1.682786511177773725e-01
1.119313341838976406e-01
3.821881532244269380e-02
-4.444253948877897875e-02
-1.266069891759505628e-01
-1.989145987189722131e-01
-2.531827097268699034e-01
-2.833433083020512333e-01
-2.861158325811534175e-01
-2.613340084230708626e-01
-2.118895495597960532e-01
-1.433202080219392049e-01
-6.313840897987621492e-02
1.996553692104524602e-02
9.692839660665597545e-02
1.590683635311908595e-01
1.987909471587375188e-01
2.102783553351952328e-01
1.901843622155832136e-01
1.383167295520750795e-01
5.823227723865942451e-02
-4.239196966362984709e-02
-1.517952760610463692e-01
-2.547652000522646620e-01
-3.339898299603610843e-01
-3.721241859899426241e-01
-3.543953438377215326e-01
-2.714069830715771792e-01
-1.216853471012233345e-01
8.653967877883575466e-02
3.347897594473808747e-01
5.953766167712719604e-01
8.341583346592942316e-01
1.014864720177743429e+00
1.104525038366458212e+00
1.079225639396145020e+00
9.291893505500157247e-01
6.620800496916396938e-01
3.035790427719057272e-01
-1.052960785589293624e-01
-5.139903428933757512e-01
-8.704188238390724308e-01
-1.129633818916238264e+00
-1.261330924271315990e+00
-1.254599369386748320e+00
-1.118989675310450238e+00
-8.818562969219452263e-01
-5.827549055636418451e-01
-2.662189497450302977e-01
2.558555757473542080e-02
2.590024131862954104e-01
4.129172901782732774e-01
4.802901721363644350e-01
4.672927847683480129e-01
3.905445477076409100e-01
2.731816793637447671e-01
1.405681299272100726e-01
1.636961454553570450e-02
-8.049353075292092763e-02
-1.377474216399893203e-01
-1.504738233648091339e-01
-1.207453714624924235e-01
-5.641335161171923129e-02
3.066320389476009933e-02
1.266391729093539753e-01
2.176680904983761544e-01
2.916142049755479637e-01
3.393289510934458519e-01
3.554120377083531679e-01
3.384596495435912011e-01
2.908692712021316851e-01
2.183057009039812701e-01
1.289299060847786116e-01
3.246720717687012758e-02
-6.082824727773683549e-02
-1.412530906057352098e-01
-2.006995691845426810e-01
-2.335669210413383046e-01
-2.374306148410753603e-01
-2.133644323945425025e-01
-1.658351525187963249e-01
-1.021459943957566674e-01
-3.148859409256254960e-02
3.625644561677643374e-02
9.178989784221036619e-02
1.275634112415322541e-01
1.387130999853445346e-01
1.236612468314850499e-01
8.432393395853754470e-02
2.589743173989883518e-02
-4.376213526187150427e-02
-1.151065782938467397e-01
-1.781113169566030108e-01
-2.236051407931635426e-01
-2.445490137851971668e-01
-2.370764642165807401e-01
-2.011156709245738305e-01
-1.404701881556352783e-01
-6.233407585514394444e-02
2.367689265894812323e-02
1.068192161896691639e-01
1.766468157867986388e-01
2.243723085195259426e-01
2.439925380132785815e-01
2.330489669438491340e-01
1.929487004903187586e-01
1.288255373126221404e-01
4.895960991858427924e-02
-3.619767096341197643e-02
-1.153122126445296214e-01
-1.776386826861535706e-01
-2.144930216157805436e-01
-2.205153481495174539e-01
-1.945197212406191145e-01
-1.397713529693147549e-01
-6.361097201041054916e-02
2.354430933282181115e-02
1.096735694808076422e-01
1.828542388227844540e-01
2.329189939345532312e-01
2.528300740062056073e-01
2.396091517859915143e-01
1.947336787608656139e-01
1.239648604768029960e-01
3.662141606022217832e-02
-5.562767260516743306e-02
-1.403129973752437198e-01
-2.058637071764439774e-01
-2.432292558914312952e-01
-2.471897010204302525e-01
-2.171418624953320720e-01
-1.572116401530687657e-01
-7.565352378090084429e-02
1.636481662277677884e-02
1.063786016158845271e-01
1.823710407491159202e-01
2.343817106890830892e-01
2.557606618972929624e-01
2.439212759622333415e-01
2.005282201920040031e-01
1.311426892305171954e-01
4.441730722925552044e-02
-4.902848485157118574e-02
-1.379133795278626451e-01
-2.116430367270327739e-01
-2.615640204739444474e-01
-2.819804969325332422e-01
-2.708028408927156683e-01
-2.297336869257532443e-01
-1.639569221064698379e-01
-8.137244936494328340e-02
8.497779463475463313e-03
9.574220754953333135e-02
1.712213526094973348e-01
2.274896993840402892e-01
2.593932567179435544e-01
2.643490013303844144e-01
2.423711657985356815e-01
1.959208450211216146e-01
1.296332095290404496e-01
4.994587496449920394e-02
-3.537229181284828883e-02
-1.178080659235751781e-01
-1.888238065375213992e-01
-2.407010911460636393e-01
-2.674406765635151118e-01
-2.655858929334566909e-01
-2.348016175198868183e-01
-1.780599393664274999e-01
-1.013528654644959559e-01
-1.295112167831558025e-02
7.766996585502727868e-02
1.610397851091018850e-01
2.288146274887266074e-01
2.746310128252513749e-01
2.945995753334589295e-01
2.874502469952089356e-01
2.544080211152222049e-01
1.988967351727510824e-01
1.261493646788150458e-01
4.277081600044196907e-02
-4.373332354258141486e-02
-1.254757817258629338e-01
-1.947804828019692458e-01
-2.448602576233946948e-01
-2.705449219373985414e-01
-2.689674361043863371e-01
-2.400762608779292151e-01
-1.868437393296265014e-01
-1.150850383382735487e-01
-3.287431087523451367e-02
5.037617791182746885e-02
1.250411323649807116e-01
1.824409122834413921e-01
2.158674010912555730e-01
2.213540652610852533e-01
1.981259193359843351e-01
1.487096992186849320e-01
7.870551835327255219e-02
-3.767492486918655459e-03
-8.892040234319331660e-02
-1.663772789709696553e-01
-2.263960534466207264e-01
-2.611006884071720435e-01
-2.655712334996769286e-01
-2.386212330231094469e-01
-1.831026852440191810e-01
-1.056388949956592604e-01
-1.579331943095940716e-02
7.519925097553192828e-02
1.559330198985433569e-01
2.163372962146485889e-01
2.489871209837417609e-01
2.500585996432480584e-01
2.198174336424791875e-01
1.625874420333168757e-01
8.621069839409756241e-02
1.068677492650493832e-03
