BVP Signal
3.152005039092228844e-02
4.543793030378644182e-02
5.863555555475072345e-02
7.061835953236844654e-02
8.089177562519285491e-02
8.896126324967604249e-02
9.438165320161627514e-02
9.685981508195276590e-02
9.614232407236249223e-02
9.211513999068357550e-02
8.476314783196614577e-02
7.414554469542436466e-02
6.049412679305835039e-02
4.408005150731700295e-02
2.531072923182012269e-02
4.670253350763264866e-03
-1.730949175801571593e-02
-4.000872682712153239e-02
-6.279505533266638295e-02
-8.501468308166715282e-02
-1.060050318837528205e-01
-1.251357953777266219e-01
-1.418244145582729931e-01
-1.555147436314431308e-01
-1.657745126181939255e-01
-1.722173990432402935e-01
-1.745714816470883002e-01
-1.726989266292205394e-01
-1.665145731349511049e-01
-1.561228245259985714e-01
-1.416842742087775775e-01
-1.234880034970037566e-01
-1.019428855310095527e-01
-7.750133942866035963e-02
-5.074197491259123394e-02
-2.227254055638899777e-02
7.247745637340520519e-03
3.712155845354057904e-02
6.665373654896172839e-02
9.515679654134642784e-02
1.219508167608821525e-01
1.464211336116609530e-01
1.679917898216707894e-01
1.861461230269901290e-01
2.004828154697103071e-01
2.106334141020340112e-01
2.163777871664977481e-01
2.175656670102967816e-01
2.141404415615068002e-01
2.061897491583055131e-01
1.938399480017679033e-01
1.773697968142768921e-01
1.571150560069560220e-01
1.334917514457522603e-01
1.070142194665649193e-01
7.822065074313996891e-02
4.772828239359799829e-02
1.617706341053566643e-02
-1.577484096770040423e-02
-4.745151474957821219e-02
-7.818569289321794513e-02
-1.073420803327212875e-01
-1.342967677249551350e-01
-1.584950972985356976e-01
-1.794361374796642206e-01
-1.966681604026074281e-01
-2.098653330074983225e-01
-2.187348863930741460e-01
-2.231207764888022971e-01
-2.229513149577014297e-01
-2.182290820749763494e-01
-2.091068245023278704e-01
-1.957723973633277992e-01
-1.785477403077973257e-01
-1.578203797522035601e-01
-1.340357719160797378e-01
-1.077324406968927645e-01
-7.946631005951526605e-02
-4.984765554806873389e-02
-1.950722767034383104e-02
1.092423348139102968e-02
4.081604909246699942e-02
6.954879903174754352e-02
9.655554340580818629e-02
1.212874670079327477e-01
1.432633192264238242e-01
1.620706831631196776e-01
1.773343323517483638e-01
1.888012008194815405e-01
1.962521336685931761e-01
1.995741083894785883e-01
1.987401205180747699e-01
1.937719432866530367e-01
1.848194356867067234e-01
1.720629915329660864e-01
1.557820090897577558e-01
1.363196586559924650e-01
1.140583041237346190e-01
8.946252175966837306e-02
6.301313496073801534e-02
3.523834909948791311e-02
6.690412767571096708e-03
-2.207311697087549485e-02
-5.048600518695947614e-02
-7.798613515003705032e-02
-1.040432548193444273e-01
-1.281407726436801231e-01
-1.498062162047810175e-01
-1.686262185635591937e-01
-1.842125263049271822e-01
-1.962798383969788230e-01
-2.045777108807066980e-01
-2.089414528836683882e-01
-2.092976952185651440e-01
-2.056114035437824061e-01
-1.979753394611599715e-01
-1.865175858723038815e-01
-1.714566366345187387e-01
-1.530875745880541094e-01
-1.317385544823791443e-01
-1.078268229282776797e-01
-8.178952869231900791e-02
-5.411061139025449829e-02
-2.530547468590996218e-02
4.103260710039441372e-03
3.357797967841491538e-02
6.258123742251553434e-02
9.059570163603980486e-02
1.171150175340249788e-01
1.416608320082339834e-01
1.638042897512358986e-01
1.831331884099856311e-01
1.993137705995820519e-01
2.120461405608195238e-01
2.210904492195882032e-01
2.262908999451995473e-01
2.275195482758002874e-01
2.247599138619781889e-01
2.180342282203714677e-01
2.074437377964769291e-01
1.931776464806928550e-01
1.754576941702752357e-01
1.546164257627217209e-01
1.310176974400860672e-01
1.050969236843414256e-01
7.735288444246701811e-02
4.830685365961195910e-02
1.854213324413178654e-02
-1.134514291114335771e-02
-4.074536093553360327e-02
-6.903949250358604184e-02
-9.562535506571367971e-02
-1.199411781629825535e-01
-1.414407183504547694e-01
-1.596701442152150818e-01
-1.742276654734523644e-01
-1.847861845822126314e-01
-1.911563568175831951e-01
-1.931874053637069322e-01
-1.908972750590347545e-01
-1.843793347427061247e-01
-1.738268924956665740e-01
-1.595794172477172923e-01
-1.420130691838303316e-01
-1.216402983589642273e-01
-9.902141963335298058e-02
-7.476956674421320059e-02
-4.955931510226119219e-02
-2.407026885650465076e-02
1.011421647845289762e-03
2.500044821115654514e-02
4.726273622382343165e-02
6.721164508985638664e-02
8.430351196212293452e-02
9.812697329911923561e-02
1.083075556304397002e-01
1.146158807544131186e-01
1.169294438198408143e-01
1.152019431692472284e-01
1.095705751848927434e-01
1.002157060312432180e-01
8.747079041424427048e-02
7.175880221402283765e-02
5.356249500622312087e-02
3.347884057163119653e-02
1.212473764001947840e-02
-9.831770065085732035e-03
-3.169951576433516216e-02
-5.280172766832957887e-02
-7.248391382168756225e-02
-9.011087541021983727e-02
-1.051472063802281753e-01
-1.170960681457201003e-01
-1.255638655527980263e-01
-1.302826089841094825e-01
-1.310349462951948540e-01
-1.277926470149407800e-01
-1.205856894160729775e-01
-1.095803090671974844e-01
-9.507459011183005959e-02
-7.741685085744368089e-02
-5.710686235697299412e-02
-3.468135491527133546e-02
-1.075192963977175675e-02
1.401222953252515002e-02
3.893369565005116995e-02
6.331736356601877502e-02
8.647004474805897178e-02
1.077498507703043007e-01
1.265465212442660747e-01
1.423071582965816928e-01
1.545949805479556738e-01
1.630073932504865208e-01
1.673017932905367933e-01
1.673138021160240352e-01
1.629832227911543474e-01
1.544164423433242173e-01
1.417641827741462357e-01
1.253542379347390712e-01
1.055830260734557657e-01
8.293771869889604575e-02
5.802084171943498736e-02
3.146019255485749122e-02
3.965876112240757610e-03
-2.372802714949083513e-02
-5.088276299350405485e-02
-7.675485303372171775e-02
-1.006209564952620233e-01
-1.218300377954172481e-01
-1.397541528525385601e-01
-1.538778990662914292e-01
-1.637764633107958723e-01
-1.690952581452818959e-01
-1.696653767695354420e-01
-1.653652948927906152e-01
-1.562543053431891538e-01
-1.425074267299176189e-01
-1.243873129733838734e-01
-1.023400668999669139e-01
-7.685192281321148733e-02
-4.854841872512470624e-02
-1.812562371886027035e-02
1.367683878231522321e-02
4.604699251977036056e-02
7.816595630439530928e-02
1.092150474771982210e-01
1.383768943562495579e-01
1.648847788852199348e-01
1.880394009089887963e-01
2.071773977390168886e-01
2.217876114403980470e-01
2.314106608598373582e-01
2.357280848689614905e-01
2.345704255285925022e-01
2.278345323320244420e-01
2.156384509186414777e-01
1.981613851286455064e-01
1.757449569316901772e-01
1.488673956707988744e-01
1.180669796185924159e-01
8.404286962059295818e-02
4.752956803479587572e-02
9.340905328748001085e-03
-2.965636678239885748e-02
-6.859114596349605297e-02
-1.065847312385403839e-01
-1.427653036942996556e-01
-1.763318066079763158e-01
-2.065212980074746241e-01
-2.326473243285632486e-01
-2.541575206030654011e-01
-2.705415245305018979e-01
-2.814796169031794082e-01
-2.867334569659846233e-01
-2.861943713911837550e-01
-2.799338578421007306e-01
-2.680761202502239260e-01
-2.509471674770775151e-01
-2.289414575092087734e-01
-2.025635673650068025e-01
-1.724397754940336924e-01
-1.392275325390359697e-01
-1.036821654406445969e-01
-6.658409069023493720e-02
-2.873252487809802719e-02
9.056799304893073388e-03
4.598285347684696878e-02
8.129087234883436430e-02
1.142417523000870128e-01
1.441862378547483226e-01
1.705379889798400994e-01
1.927729765374297244e-01
2.105107731720794462e-01
2.234080950201944860e-01
2.312779537461241985e-01
2.340203740032671120e-01
2.316223642934725768e-01
2.242296770867422961e-01
2.120263274918482155e-01
1.953463504045359345e-01
1.745900340353485902e-01
1.502292399474707552e-01
1.228396862474313567e-01
9.301916960833415959e-02
6.144042300282284014e-02
2.880179553686100513e-02
-4.184851436218564591e-03
-3.679206149732060227e-02
-6.830093458632804926e-02
-9.803159553377249757e-02
-1.253178723062571276e-01
-1.495651154685933848e-01
-1.702444185142585886e-01
-1.868734104877309843e-01
-1.991101969517175552e-01
-2.066509434445294446e-01
-2.093321265471208004e-01
-2.070928285341502306e-01
-1.999430703524904818e-01
-1.880622850404410906e-01
-1.716696023491494083e-01
-1.511247802634008153e-01
-1.268692376952686995e-01
-9.940170548651477977e-02
-6.932973917652024420e-02
-3.728142150272537036e-02
-3.945536613634503809e-03
2.996158076383215185e-02
6.372206508610339659e-02
9.661592675528499208e-02
1.279330636052808390e-01
1.570206128010497582e-01
1.832480732436563564e-01
2.060566211404755987e-01
2.249740183610806632e-01
2.395670316367013442e-01
2.495498425505159878e-01
2.546824722168188337e-01
2.548469290669235221e-01
2.500424226162858421e-01
2.403220476070327960e-01
2.259035761766708950e-01
2.070472080292798944e-01
1.841310202112548255e-01
1.576231608164135878e-01
1.280344617135044105e-01
9.598051598608015045e-02
6.209837043769761422e-02
2.707515417418153436e-02
-8.371739489305661530e-03
-4.352546943187751011e-02
-7.767116344790539473e-02
-1.101015492951857161e-01
-1.401676252366300668e-01
-1.672490737672055472e-01
-1.907890777176750041e-01
-2.103318102747616658e-01
-2.254559524219695854e-01
-2.358928827923376659e-01
-2.414336682358765862e-01
-2.419815019464860439e-01
-2.375811360370448932e-01
-2.283240880357154112e-01
-2.144747618227811903e-01
-1.963515688966495643e-01
-1.743765742837641852e-01
-1.490759403904214908e-01
-1.210071450819030781e-01
-9.082196419787544328e-02
-5.919454994685677263e-02
-2.682454332738837266e-02
5.568084893256233792e-03
3.727448924931771324e-02
6.761765666618774206e-02
9.593280831569515887e-02
1.216329206397480794e-01
1.441805050557822820e-01
1.630972498996858810e-01
1.780287901803850881e-01
1.886538530768223643e-01
1.947956492810236639e-01
1.963505446600531390e-01
1.932996429854266784e-01
1.857646107230842558e-01
1.739024040346383582e-01
1.580086114959470267e-01
1.384344916869356679e-01
1.155994806487875004e-01
9.001294159268730111e-02
6.220420046857985663e-02
3.276919631764899088e-02
2.324436364390974896e-03
-2.850120928839053325e-02
-5.906589531761886891e-02
-8.873608850632694334e-02
-1.169113606322077503e-01
-1.430026836681593527e-01
-1.664842388120203742e-01
-1.868830130166661274e-01
-2.037688707949471545e-01
-2.168296900784027759e-01
-2.257845966457921461e-01
-2.304765699234311294e-01
-2.308308939590332787e-01
-2.268383376553245179e-01
-2.186321580526830455e-01
-2.063788067744229959e-01
-1.903684584385118006e-01
-1.709565153691389172e-01
-1.485503890707852992e-01
-1.236474036579399971e-01
-9.676148207151999414e-02
-6.845678971014343417e-02
-3.931799785142066350e-02
-9.928365644062377843e-03
1.913088408346343833e-02
4.728936546895465970e-02
7.403101966529797295e-02
9.885942649641273061e-02
1.213443879234785139e-01
1.411283818453488159e-01
1.578888854033140554e-01
1.714254588023534920e-01
1.815728474608657717e-01
1.882643220746956225e-01
1.915191654936178600e-01
1.913979038055978465e-01
1.880763611844039895e-01
1.817578438542896968e-01
1.727214329041125429e-01
1.612987809625446578e-01
1.478442838678054039e-01
1.327629810878856453e-01
1.164682317341964451e-01
9.938375872581908799e-02
8.193881447786280359e-02
6.454878938895186602e-02
4.760359595565047397e-02
3.148230338076837831e-02
1.650686863000971893e-02
2.973820437895846602e-03
-8.866901760809731137e-03
-1.883257859184894745e-02
-2.676182878977001467e-02
-3.257938599940768398e-02
-3.624053068209159845e-02
-3.775590585906213326e-02
-3.719965893359533649e-02
-3.466605174124232081e-02
-3.031760028620383851e-02
-2.433611311938183031e-02
-1.693817480561221611e-02
-8.372102444550055811e-03
1.106074532835052415e-03
1.121962877118679383e-02
2.168792814429177165e-02
3.223272070826999069e-02
4.257750316697958559e-02
5.245390056993430583e-02
6.161335832923747757e-02
6.981306386410177089e-02
7.683767432016930243e-02
8.248773377610879587e-02
8.658080740049511892e-02
8.896674040651308957e-02
8.950386278024874409e-02
8.808639042676280617e-02
8.462511329282423889e-02
7.905482022000231979e-02
7.134648427749906707e-02
6.148280091361912891e-02
4.949559004071457657e-02
3.543507019910699385e-02
1.939061913109732527e-02
1.498572758774879832e-03
-1.808599319727328958e-02
-3.913900683044918560e-02
-6.141526007944708015e-02
-8.461664752131010936e-02
-1.083946043465740250e-01
-1.323798191436009741e-01
-1.561407182950838302e-01
-1.792307815126473192e-01
-2.011738284400814702e-01
-2.214712059041250847e-01
-2.396264038551704223e-01
-2.551498599634836051e-01
-2.675583963292292866e-01
-2.764245833668409480e-01
-2.813548466139976223e-01
-2.820119650839099101e-01
-2.781710363917005435e-01
-2.696406172079304775e-01
-2.563862670667018673e-01
-2.384492586151033267e-01
-2.159745899496125499e-01
-1.892707596404757386e-01
-1.586894473986799614e-01
-1.247529310624826276e-01
-8.804846190411978746e-02
-4.924296345995461677e-02
-9.103183384541926881e-03
3.158711269195317584e-02
7.199552481303865548e-02
1.112770636497484034e-01
1.486149273116055269e-01
1.832204244571377094e-01
2.143405887664965870e-01
2.413430926228271878e-01
2.636312595841925899e-01
2.807539422696489484e-01
2.923754603175671152e-01
2.982405444929627780e-01
2.983025661360990677e-01
2.925662719475031204e-01
2.812213732920393339e-01
2.645742305243172221e-01
2.430133204064991170e-01
2.170962896117825114e-01
1.874159838356061480e-01
1.546795977102414787e-01
1.196512539866985692e-01
8.312170506672433845e-02
4.592515888918533018e-02
8.895340722662289229e-03
-2.716264233972816300e-02
-6.145631814989935271e-02
-9.325595348085681524e-02
-1.219140885878743363e-01
-1.468212946942605013e-01
-1.675235216616980938e-01
-1.836184679749800208e-01
-1.948353179346463127e-01
-2.010403088161865637e-01
-2.021576620454312856e-01
-1.983012796082473383e-01
-1.896364161760042688e-01
-1.764583102872400999e-01
-1.591699703309147895e-01
-1.382189223044262005e-01
-1.141697809496320382e-01
-8.761204993511990946e-02
-5.918606578578951283e-02
-2.956556754778602233e-02
5.765260878352264536e-04
3.057040047315848566e-02
5.975282414086396932e-02
8.751469511563221559e-02
1.132755999110477002e-01
1.365074904827641156e-01
1.567727468443586014e-01
1.736613434759262109e-01
1.868859298665926094e-01
1.962107748064995105e-01
2.014823475448391521e-01
2.026597062841117292e-01
1.997356158900586154e-01
1.928316256365485981e-01
1.821125900264773945e-01
1.678193835545239154e-01
1.502757062441853197e-01
1.298306146885919443e-01
1.069151151307417835e-01
8.198206605350390197e-02
5.552084643174470813e-02
2.805248234333398982e-02
1.023116597731951738e-04
-2.779459285897901977e-02
-5.510323886634269780e-02
-8.131259262667682453e-02
-1.059282007498473649e-01
-1.284824342051161528e-01
-1.485690577800209411e-01
-1.657997100337395002e-01
-1.798715612944793985e-01
-1.905288246456755541e-01
-1.975730299105624421e-01
-2.009089951139573504e-01
-2.004690939361347957e-01
-1.963015992204430737e-01
-1.885054693244593293e-01
-1.772463013524319397e-01
-1.627850746599394660e-01
-1.454072431990520164e-01
-1.254890363679643794e-01
-1.034380214966713896e-01
-7.970104286982489239e-02
-5.476967008115224411e-02
-2.914228251956439697e-02
-3.335088874699118633e-03
2.213211084540971096e-02
4.675787255653275631e-02
7.005738921701945565e-02
9.156616147549050122e-02
1.108814650005559288e-01
1.276182756030642129e-01
1.414677709571943443e-01
1.521760812953261433e-01
1.595341708153634741e-01
1.634390665464897363e-01
1.638142013299346000e-01
1.606874050976512813e-01
1.541463579051209620e-01
1.443322581688325501e-01
1.314868483050843362e-01
1.158747751585849084e-01
9.784631647973408841e-02
7.779059757298978361e-02
5.613051919154653929e-02
3.333943361092604057e-02
9.898311078816165315e-03
-1.369251675591925260e-02
-3.692646146392061790e-02
-5.931205857924946867e-02
-8.037586624384551737e-02
-9.966034248261929074e-02
-1.167715854060041303e-01
-1.313361513456253460e-01
-1.430518430249186068e-01
-1.516839440637244851e-01
-1.570355704377336958e-01
-1.590257985314655620e-01
-1.576043645055094089e-01
-1.528193393975159631e-01
-1.447928791498661050e-01
-1.336897324280114652e-01
-1.197787269387566300e-01
-1.033518107685475751e-01
-8.477156565635887708e-02
-6.444279020809075276e-02
-4.279088212912833533e-02
-2.028120177904053217e-02
2.615734033333032282e-03
2.542617339381147978e-02
4.767515081052522974e-02
6.890646225553397064e-02
8.869339847686860678e-02
1.066227204681789165e-01
1.223453245174466186e-01
1.355371144478100254e-01
1.459306802009859017e-01
1.533291694444176567e-01
1.575627596608745185e-01
1.585636202187561683e-01
1.562960340583992025e-01
1.508003043569459967e-01
1.421919974587241842e-01
1.306180192182367361e-01
1.163227987173072880e-01
9.957605188236653970e-02
8.071190549749357457e-02
6.011520289706509534e-02
3.819157598979878998e-02
1.539869522535870783e-02
-7.795737008616777930e-03
-3.090840208647054055e-02
-5.344631033737438919e-02
-7.492666937273979866e-02
-9.488831047042486921e-02
-1.128800895204937205e-01
-1.285109625943844369e-01
-1.414201454160147198e-01
-1.513004578625988250e-01
-1.579325481492433458e-01
-1.611244255701207717e-01
-1.608032308062455062e-01
-1.569438042570199254e-01
-1.496005616514085035e-01
-1.389314374181099820e-01
-1.251252879256053996e-01
-1.084848252362078519e-01
-8.934894249026557878e-02
-6.811580691627312778e-02
-4.524492694657941683e-02
-2.121004968949380745e-02
3.473476596690679152e-03
2.828106375022702151e-02
5.269216499116612801e-02
7.618957924409300309e-02
9.827328329777479388e-02
1.184913299274384935e-01
1.364062933694761559e-01
1.516530350139242700e-01
1.639138159964409480e-01
1.729179220242150206e-01
1.784959279867228410e-01
1.805042331859507687e-01
1.789070401373747121e-01
1.737247436934137024e-01
1.650371828840213329e-01
1.530257671421237087e-01
1.378964682689909349e-01
1.199503691262946287e-01
9.952784098480897679e-02
7.701316836530545940e-02
5.285030977254370071e-02
2.749513737677272002e-02
1.441691034101384196e-03
-2.480408529690053890e-02
-5.073620984629004238e-02
-7.584866419223906808e-02
-9.964557884528912890e-02
-1.216700502933711209e-01
-1.414777596963302519e-01
-1.586819740023371617e-01
-1.729455277404158553e-01
-1.839670451872511270e-01
-1.915462388307219987e-01
-1.955093730664986817e-01
-1.957826252947336976e-01
-1.923605822760763862e-01
-1.852881285939265155e-01
-1.747227485928406765e-01
-1.608478047219218110e-01
-1.439397888823260030e-01
-1.243257885743858787e-01
-1.023704536002046223e-01
-7.850528785793231545e-02
-5.317412905199292439e-02
-2.685761878215276940e-02
-5.195340503148793143e-05
2.674614800165302231e-02
5.303930008984475419e-02
7.833657955862502464e-02
1.021813489610235992e-01
1.241297223639913627e-01
1.437816444228242896e-01
1.607866302082151255e-01
1.748186356508128203e-01
1.856395873508654426e-01
1.930376459718664006e-01
1.968779852032059297e-01
1.970950620202382431e-01
1.936595455851827241e-01
1.866470303969263445e-01
1.761596901830917716e-01
1.623833683753028445e-01
1.455637733193465011e-01
1.259821311412788469e-01
1.040022288144894086e-01
8.000579604497198849e-02
5.443060938304580820e-02
2.774622404638667564e-02
4.374332211055376174e-04
-2.698286241513314643e-02
-5.399951800695054760e-02
-8.010378762612310743e-02
-1.047902485721701749e-01
-1.275798914765511327e-01
-1.480330621672075186e-01
-1.657280222143840964e-01
-1.803245793674743136e-01
-1.915129504820045625e-01
-1.990566257832112051e-01
-2.028057177495303787e-01
-2.026452086822988496e-01
-1.985870478018739171e-01
-1.906814413751344861e-01
-1.790719315804227829e-01
-1.639898306032195052e-01
-1.457024510700266062e-01
-1.245836785728453300e-01
-1.010333418536506628e-01
-7.551130252514311192e-02
-4.852229517714677642e-02
-2.058372598873582301e-02
7.757642923928789735e-03
3.595172547954766928e-02
6.346139198703629192e-02
8.975737059859428824e-02
1.143362142171076845e-01
1.367453894010696169e-01
1.565489532850951049e-01
1.733926911759002265e-01
1.869613457323644479e-01
1.969994346424989717e-01
2.033443898156163665e-01
2.058611525016507127e-01
2.045282787601412355e-01
1.993675318218736670e-01
1.904728488725384861e-01
1.780273417384163337e-01
1.622415393293885344e-01
1.434239136057292308e-01
1.219127508038800600e-01
9.810058903436091882e-02
7.243329430143184700e-02
4.537195336374678922e-02
1.742226993102706512e-02
-1.089994944136349342e-02
-3.907096276656475686e-02
-6.656084708524073745e-02
-9.284966809850256353e-02
-1.174444851945372070e-01
-1.398619454620215197e-01
-1.596753242706819842e-01
-1.764932228565735395e-01
-1.899684536711143124e-01
-1.998444612509739926e-01
-2.058896509063294911e-01
-2.079839660846183047e-01
-2.060626914918670949e-01
-2.001305991853085109e-01
-1.903053133228398974e-01
-1.767340818868551322e-01
-1.596824832587084853e-01
-1.394626980436547981e-01
-1.164484940606390490e-01
-9.109316122448268827e-02
-6.386846227353099037e-02
-3.530830224387288691e-02
-5.965408552709217105e-03
2.359430543561628901e-02
5.279137958734064773e-02
8.105302918172357929e-02
1.078328595705139448e-01
1.325936703766695257e-01
1.548511609576654902e-01
1.741642893117431590e-01
1.901282145856157402e-01
2.024356564427672867e-01
2.108052159513821855e-01
2.150604804424792738e-01
2.150933395381945390e-01
2.108543748197801715e-01
2.024193306208077192e-01
1.898943545435406721e-01
1.735058620470185942e-01
1.535424294524230793e-01
1.303524075545953731e-01
1.043854713841520787e-01
7.611360891860874389e-02
4.608927483952030696e-02
1.489763098756209658e-02
-1.685155040724931053e-02
-4.851532957347190478e-02
-7.945059560063910675e-02
-1.090250558018840410e-01
-1.366114841195344987e-01
-1.616278249424390467e-01
-1.835405451855630643e-01
-2.018488269523096013e-01
-2.161673017511758776e-01
-2.261448208298887930e-01
-2.315489445166948324e-01
-2.322486756708012634e-01
-2.281736143098876679e-01
-2.194216145957149644e-01
-2.061323379352552332e-01
-1.885835820284388065e-01
-1.671469931753611082e-01
-1.422502865381271020e-01
-1.144450316173247495e-01
-8.430778658911355916e-02
-5.248627122675166012e-02
-1.966636228809717779e-02
1.345797254357253281e-02
4.617892879283305718e-02
7.779404475153139931e-02
1.076473023035731669e-01
1.351034418511774249e-01
1.595886595170205591e-01
1.806159885624566697e-01
1.977322485414997055e-01
2.106263093305380529e-01
2.190370891481438209e-01
2.228136046108497026e-01
2.219284895024701276e-01
2.164009662870820250e-01
2.064106113075856730e-01
1.921827065506260535e-01
1.740475392982434311e-01
1.524291829550693811e-01
1.277871897328518580e-01
1.006803819964180308e-01
7.168984677999208632e-02
4.143891147708901601e-02
1.058084568559901351e-02
-2.023237957048704128e-02
-5.035342261956840537e-02
-7.914109027291171827e-02
-1.060070675854822564e-01
-1.303931442403206409e-01
-1.517918833784300259e-01
-1.697904217744428679e-01
-1.840039246618197510e-01
-1.941749912349077234e-01
-2.001038406710194395e-01
-2.016751180634319685e-01
-1.988980481674280931e-01
-1.918173381431721447e-01
-1.806175055236462768e-01
-1.655334247174218842e-01
-1.468800920767085461e-01
-1.250665293380233689e-01
-1.005279377754944303e-01
-7.378726049027009570e-02
-4.539221339750822148e-02
-1.592417135542140150e-02
1.400406802028451858e-02
4.377893069782054503e-02
7.278822678975110927e-02
1.004228000371542029e-01
1.261124700589533187e-01
1.493160495211293126e-01
1.695273052308615691e-01
1.863260983204109711e-01
1.993162322612586634e-01
2.082105752722896996e-01
2.127865374580368840e-01
2.128906487002910630e-01
2.085036083120638817e-01
1.996406663800451564e-01
1.864616009711433930e-01
1.691941745434584199e-01
1.481461037302244377e-01
1.237483606184981572e-01
9.646158483535860473e-02
6.685693978560527939e-02
3.554650045494724131e-02
3.183887851775278610e-03
-2.952633626040831322e-02
-6.187582153207443758e-02
-9.315325995341200427e-02
-1.226486365250274435e-01
-1.496984733255909139e-01
-1.736847152326168320e-01
-1.940280793968980899e-01
-2.102750972219518677e-01
-2.220083197465976266e-01
-2.289497681340611490e-01
-2.309297735472472524e-01
-2.278532216592694115e-01
-2.198141835002444533e-01
-2.069524407977380021e-01
-1.895697869331960106e-01
-1.680679793284617918e-01
-1.429162581859831915e-01
-1.147198090184113617e-01
-8.411030925114929002e-02
-5.179808027382019897e-02
-1.853156075223334406e-02
1.493443837637536270e-02
4.783518030903566309e-02
7.941475273582576655e-02
1.089766565951304222e-01
1.358488318142844486e-01
1.594357556426128364e-01
1.792401069106610567e-01
1.948059223555317909e-01
2.058402984727509821e-01
2.121033117370755283e-01
2.134841270096139443e-01
2.100036075933398028e-01
2.017371703258353799e-01
1.889347088926136564e-01
1.718923986249338010e-01
1.510224136665585248e-01
1.268310572441922468e-01
9.986312897526784804e-02
7.076256373185410564e-02
4.019359789543909545e-02
8.858363036812772623e-03
-2.251669123368234271e-02
-5.321331646310500929e-02
-8.253183386996325310e-02
-1.097839119216177661e-01
-1.343574570745628138e-01
-1.556799313891627512e-01
-1.732503332099826210e-01
-1.866885163669207426e-01
-1.956519380277625397e-01
-1.999646855285747704e-01
-1.995195447622252205e-01
-1.943217726454847250e-01
-1.845274047081895685e-01
-1.703372341826330794e-01
-1.521200814539602764e-01
-1.302997904179691580e-01
-1.053900292543706041e-01
-7.800025495201914905e-02
-4.876313644689857230e-02
-1.838138080062873270e-02
1.242573133385605280e-02
4.293814037856804461e-02
7.243514684289760475e-02
1.002187851557371223e-01
1.256573286489324481e-01
1.481396246431809782e-01
1.671602732840762606e-01
1.822853251573310907e-01
1.931503284601354675e-01
1.995451533180361281e-01
2.012987876439118473e-01
1.984019037748056546e-01
1.909319807551511650e-01
1.790522073122948754e-01
1.630766307179954966e-01
1.433541076576935192e-01
1.203645049942232981e-01
9.464327859236468243e-02
6.677767529271597113e-02
3.742742126182603546e-02
7.262630664087429966e-03
-2.302092344907263194e-02
-5.272011899919880340e-02
-8.115806007431544677e-02
-1.076870979210206164e-01
-1.316857582865754162e-01
-1.526304773678440752e-01
-1.700278730737108668e-01
-1.834941935327462359e-01
-1.927429179085988764e-01
-1.975459922582629702e-01
-1.978439496540910780e-01
-1.936204664933852682e-01
-1.850037208325396310e-01
-1.722238115771558831e-01
-1.555731667097623727e-01
-1.354872048398069739e-01
-1.124318099657958259e-01
-8.696575897563574298e-02
-5.969969578116178510e-02
-3.126536854540781785e-02
-2.332759960571369195e-03
2.642702780371177992e-02
5.436474514218204296e-02
8.084157603327625508e-02
1.052655951252835370e-01
1.271137056522102238e-01
1.458909267499419460e-01
1.612255960625656737e-01
1.727910942786695936e-01
1.803601404107341988e-01
1.838212162750682832e-01
1.831060940843406981e-01
1.783002494590873732e-01
1.695344227402051929e-01
1.570419104544225342e-01
1.411510791470295123e-01
1.222260735739276460e-01
1.007345870100041368e-01
7.716858366535857272e-02
5.206889261322070195e-02
2.601232961135629962e-02
-4.199719627761659690e-04
-2.663819953447169042e-02
-5.205480657877877004e-02
-7.611876191232916367e-02
-9.830063258867596798e-02
-1.181115989614728856e-01
-1.351415006772067606e-01
-1.490041316009053096e-01
-1.594258972160769172e-01
-1.661860562614012327e-01
-1.691412880927236351e-01
-1.682668715380045699e-01
-1.635717238974980225e-01
-1.552000460448831887e-01
-1.433465270693990434e-01
-1.282828972521801725e-01
-1.103747168814630392e-01
-9.001243031702048369e-02
-6.767097260709005468e-02
-4.384985430141396384e-02
-1.907769875414088226e-02
6.088661693023154908e-03
3.109381360054631893e-02
5.539106265839199850e-02
7.843853328272190617e-02
9.973890655166495200e-02
1.188292428472876028e-01
1.352822285216639664e-01
1.487614695154301225e-01
1.589549769599747087e-01
1.656554980329947857e-01
1.687200519402748677e-01
1.680656551936526022e-01
1.637300468302653189e-01
1.557802280220960123e-01
1.443993766792302513e-01
1.298272713985166582e-01
1.123606219986715005e-01
9.238716060706581024e-02
7.031444673481317131e-02
4.662023810224424913e-02
2.180908833170975766e-02
-3.595161899158080820e-03
-2.904414877005524753e-02
-5.399128744024804527e-02
-7.790560972643334470e-02
-1.002625168109815279e-01
-1.205809806385702010e-01
-1.384241100109158129e-01
-1.533847976579671701e-01
-1.651549588291865434e-01
-1.734547157783415672e-01
-1.781033154899669957e-01
-1.789998916616859226e-01
-1.760936236992944881e-01
-1.694650127904553660e-01
-1.592264184990950238e-01
-1.455989683140155866e-01
-1.288734592528351097e-01
-1.093856837816692823e-01
-8.756540470113502450e-02
-6.386112588126385825e-02
-3.877729065624781896e-02
-1.284657142859761680e-02
1.339113073991512332e-02
3.938410057620563010e-02
6.458463294496814833e-02
8.847786153808678833e-02
1.105629352951243427e-01
1.303846262918959276e-01
1.475484761989255267e-01
1.616853697657778810e-01
1.725291909613467234e-01
1.798484386050119843e-01
1.834951122605451013e-01
1.834096271906870412e-01
1.795692260227584325e-01
1.720731504210536167e-01
1.610542496268150825e-01
1.467322230313856113e-01
1.293999234631993955e-01
1.093828362334460236e-01
8.709409299853770881e-02
6.296654436009353761e-02
3.748169701864914605e-02
1.115359066809418903e-02
-1.549532667838082745e-02
-4.192505275548184807e-02
-6.759556328731120001e-02
-9.198807276902171148e-02
-1.145953640883021762e-01
-1.349430446998101107e-01
-1.526144255590097809e-01
-1.672130280715653783e-01
-1.784388569792220713e-01
-1.860333688151887266e-01
-1.898132493484422367e-01
-1.896998896364773812e-01
-1.856487585481230995e-01
-1.777504166046081913e-01
-1.661418065158274671e-01
-1.510474649360727395e-01
-1.327888780831657789e-01
-1.117185442109969173e-01
-8.829136782895292967e-02
-6.299001987827380911e-02
-3.634412105081824551e-02
-8.924623183190705245e-03
1.869245102510785905e-02
4.591997241770248706e-02
7.217137165389037046e-02
9.689461620722752966e-02
1.195619367115990234e-01
1.396818081728739003e-01
1.568469529786542804e-01
1.706738806644439999e-01
1.808897023361898115e-01
1.872832677634412024e-01
1.897127389461073788e-01
1.881631017500677572e-01
1.826515820019846970e-01
1.733271627338419663e-01
1.603972231960175410e-01
1.441383804701101834e-01
1.249278962664888692e-01
1.031666199720393529e-01
7.933990505555174599e-02
5.396244743844945402e-02
2.757668911272950774e-02
7.571605594825780994e-04
-2.592170071067493448e-02
-5.189326983742283128e-02
-7.659507832445393294e-02
-9.950705736068653218e-02
-1.201481687886916394e-01
-1.380693961177962281e-01
-1.529192664571588089e-01
-1.643732801303987023e-01
-1.722116812933706109e-01
-1.762914279218171232e-01
-1.765252317513230085e-01
-1.729593672755861955e-01
-1.656720042234976209e-01
-1.548580647499307461e-01
-1.407803908616592492e-01
-1.237524278116976656e-01
-1.041839425057937141e-01
-8.250379458259793353e-02
-5.920144755755282762e-02
-3.479404228519921566e-02
-9.807666153457010594e-03
1.521815153315440178e-02
3.974828435796746995e-02
6.327913225109838002e-02
8.531963973883133212e-02
1.054253609851127926e-01
1.232082378439568748e-01
1.383061850323753783e-01
1.504557387122276990e-01
1.594241310271327927e-01
1.650600850479301551e-01
1.672907294046276361e-01
1.660789622168918622e-01
1.614970636917012758e-01
1.536455347764165702e-01
1.427033655583661298e-01
1.289096088568733589e-01
1.125329142979120123e-01
9.391483099596845130e-02
7.341255767268144161e-02
5.142569312531525966e-02
2.837956362033857219e-02
4.708643924231190048e-03
-1.913476673660599592e-02
-4.269742120045244560e-02
-6.553565820022269617e-02
-8.721071065123375821e-02
-1.073052716612661051e-01
-1.254362610260904010e-01
-1.412345346347894659e-01
-1.543962031856575545e-01
-1.646431703413588354e-01
-1.717544693290931068e-01
-1.755813722357433826e-01
-1.760027317804412350e-01
-1.730027959237827040e-01
-1.665994300121557137e-01
-1.568888122963038589e-01
-1.440458829144212194e-01
-1.282769853597316989e-01
-1.098871135804519727e-01
-8.920679303809936345e-02
-6.662634239495965338e-02
-4.258390428104738556e-02
-1.753359549912857085e-02
8.030553327094069882e-03
3.360771543317066928e-02
5.869642926830889729e-02
8.279493335012684530e-02
1.054190195203757174e-01
1.261218050899290399e-01
1.444695151524028609e-01
1.600982396083831527e-01
1.726796706754520350e-01
1.819396806253937571e-01
1.876942825788550373e-01
1.897860197909176649e-01
1.881710627121908619e-01
1.828517131914605964e-01
1.739038926092676407e-01
1.615008086167063761e-01
1.458446313336828892e-01
1.272452675068093120e-01
1.060474878427460355e-01
8.265507295479361527e-02
5.753383917731760833e-02
3.116572418921344234e-02
4.081602467194300754e-03
-2.317599789522515816e-02
-5.005956203629130519e-02
-7.601742023623755951e-02
-1.005109748427575334e-01
-1.230394438900643400e-01
-1.431144539599776555e-01
-1.603161729310608186e-01
-1.742704431769167561e-01
-1.846523218755995732e-01
-1.912447542420902535e-01
-1.938592021941827892e-01
-1.924307667433232671e-01
-1.869600615390751841e-01
-1.775197125301885559e-01
-1.643073968418093389e-01
-1.475516254969077568e-01
-1.276024656703469429e-01
-1.048610255326880569e-01
-7.978584031187978265e-02
-5.291472003554423265e-02
-2.480137987624936313e-02
3.949105458022197923e-03
3.271535139863573916e-02
6.087582779637724928e-02
8.780885182316439108e-02
1.129063596943488401e-01
1.356135530723831806e-01
1.553929526515597515e-01
1.717856989755525698e-01
1.844016761304538843e-01
1.928995364136409651e-01
1.970777979430868854e-01
1.967719408856390406e-01
1.919555805345182775e-01
1.826984129723677741e-01
1.691397759653212596e-01
1.515773479107883626e-01
1.303452564679914161e-01
1.059078141210464674e-01
7.880117142247497486e-02
4.961160199905653712e-02
1.901591848601358672e-02
-1.229414855267824472e-02
-4.359002862925671906e-02
-7.412769972147782715e-02
-1.031820008272288647e-01
-1.300551672269867343e-01
-1.540705780908890876e-01
-1.746534860015177548e-01
-1.912667449157085253e-01
-2.034811362913159505e-01
-2.109914359745284906e-01
-2.135469198387130452e-01
-2.110929188466114381e-01
-2.036327791764227790e-01
-1.913194314496916848e-01
-1.744425048242191634e-01
-1.533498584084206362e-01
-1.285577692351068668e-01
-1.006226075080404458e-01
-7.019466676528196558e-02
-3.799244466060933134e-02
-4.752018308340599795e-03
2.875115085255683725e-02
6.173883621676829608e-02
9.346435404851038964e-02
1.231995444120963790e-01
1.502654491178997964e-01
1.740771806777796082e-01
1.940797567318627848e-01
2.098613309267812199e-01
2.210763264231306591e-01
2.274787883809791245e-01
2.289732015239021035e-01
2.255071381297252542e-01
2.172007026955437570e-01
2.042375631093577004e-01
1.869015264080735594e-01
1.655966331674325331e-01
1.407604812561920049e-01
1.129451039282491076e-01
8.273571214957546605e-02
5.076455805775045849e-02
1.770882807976061069e-02
-1.575017882847252332e-02
-4.892345373838519890e-02
-8.112305059351694603e-02
-1.117000641062235733e-01
-1.400353009105903268e-01
-1.655468498359279339e-01
-1.877469384475636272e-01
-2.061738857604332176e-01
-2.204837884762702593e-01
-2.304040232768317653e-01
-2.357335146540744386e-01
-2.364132235416912808e-01
-2.324194306612003547e-01
-2.238721259475309755e-01
-2.109603658521018721e-01
-1.939468792962523724e-01
-1.732105474333614226e-01
-1.491565384126335991e-01
-1.222851748280409934e-01
-9.313272807030602285e-02
-6.226752212025674083e-02
-3.029807876997346605e-02
2.164406306488907833e-03
3.450818735559767897e-02
6.612276436955531744e-02
9.642980789509604522e-02
1.248831147841151790e-01
1.509607879245392081e-01
1.742211612286908573e-01
1.942454505144171062e-01
2.106984375155153411e-01
2.233112992275672615e-01
2.318594405232892175e-01
2.362329753298144652e-01
2.363504980315986603e-01
2.322347658407336868e-01
2.239743493653651996e-01
2.117087279143536616e-01
1.956826227209133573e-01
1.761647714764404682e-01
1.535125855313123899e-01
1.281279212053985650e-01
1.004502748346353530e-01
7.098107883546755925e-02
4.023344804975897276e-02
8.757185622130906483e-03
-2.288370903037345236e-02
-5.412525036275369489e-02
-8.440351150095233568e-02
-1.131629661106536150e-01
-1.398883582530362768e-01
-1.640787294388172946e-01
-1.852888324948943344e-01
-2.031315751294058558e-01
-2.172527073167196399e-01
-2.274089229906362530e-01
-2.333885639494261421e-01
-2.350825459950207086e-01
-2.324669667229023740e-01
-2.255671672299936481e-01
-2.145411118447513865e-01
-1.995789362389410460e-01
-1.809755522792705074e-01
-1.590950331112609695e-01
-1.343428779214453361e-01
-1.072135386552613839e-01
-7.821901770991077085e-02
-4.792084127635765772e-02
-1.690629502903715289e-02
1.423312724575913693e-02
4.489900125486665644e-02
7.449778136368827297e-02
1.024727920221028127e-01
1.282834047214248818e-01
1.514363248867540979e-01
1.715032379031774801e-01
1.880821032115456426e-01
2.008797198053450528e-01
2.096404493079558617e-01
2.141976680291594881e-01
2.144818798670879711e-01
2.104637486514172318e-01
2.022505661575209612e-01
1.899882544774509907e-01
1.739224436621742698e-01
1.543853096683701631e-01
1.317475922542365452e-01
1.064866334745530885e-01
7.910438838974714892e-02
5.016385928823434426e-02
2.027013160418875137e-02
-9.960290982879961563e-03
-3.988633738689026376e-02
-6.886612009221618202e-02
-9.628251046596091045e-02
-1.215322615895063352e-01
-1.440523883021385676e-01
-1.633529135768846119e-01
-1.789690316958486571e-01
-1.905576599899686807e-01
-1.978294942209873619e-01
-2.005884534572927314e-01
-1.987721733073008479e-01
-1.923601152375987722e-01
-1.814990567867102444e-01
-1.663946779062177028e-01
-1.473563186304151784e-01
-1.248115444622800163e-01
-9.922285218183410360e-02
-7.116895725120567229e-02
-4.126057173869342176e-02
-1.015428182759212788e-02
2.145170996482027859e-02
5.285849406758835745e-02
8.336967621683330498e-02
1.122933155948946105e-01
1.389912186836827490e-01
1.628640547033530506e-01
1.833597416116708456e-01
2.000391595071225881e-01
2.124939763466839326e-01
2.204532668205067547e-01
2.237250923636587840e-01
2.221992020929152711e-01
2.159193054038175408e-01
2.049670459367594622e-01
1.895762829593230503e-01
1.700503155679085610e-01
1.467682483555093065e-01
1.202227051578250855e-01
9.093152565041409674e-02
5.950130837733401401e-02
2.657030517904320280e-02
-7.198321543658416609e-03
-4.111173224874613286e-02
-7.447958039899170435e-02
-1.066296869296787797e-01
-1.368973032630197151e-01
-1.646712127294524819e-01
-1.893909759763408029e-01
-2.105339416443890999e-01
-2.276956130418459900e-01
-2.405043232697019751e-01
-2.487112718880729045e-01
-2.521603832855442429e-01
-2.507597169654661728e-01
-2.445754548448798027e-01
-2.337116670289156040e-01
-2.184084224676141328e-01
-1.989873338628294630e-01
-1.758285519354697013e-01
-1.494269752022879261e-01
-1.203005656811978602e-01
-8.904071276127099865e-02
-5.627345769006177056e-02
-2.263838604672465532e-02
1.120391379322304565e-02
4.459587228592892805e-02
7.690861988071281963e-02
1.075251306878325375e-01
1.358764425826679278e-01
1.614535219775076746e-01
1.837752376253482256e-01
2.024695340341509664e-01
2.171992813146570445e-01
2.277208882735300144e-01
2.338835040592519010e-01
2.355793404592807228e-01
2.328363796501694560e-01
2.257187658038063705e-01
2.143946104661183794e-01
1.991140210682917633e-01
1.801697521328243234e-01
1.579630620308729305e-01
1.329196232667910760e-01
1.055362877813607603e-01
7.635446766893203008e-02
4.593553759530120961e-02
1.488124587957663503e-02
-1.620175317466699544e-02
-4.670818587746732031e-02
-7.603382138013145553e-02
-1.036003160606459583e-01
-1.288719586482147683e-01
-1.513315208952984714e-01
-1.705520134376680152e-01
-1.861431235835891984e-01
-1.977942676442503156e-01
-2.052987591535127554e-01
-2.084879067159981503e-01
-2.073405138893882615e-01
-2.018834386712684559e-01
-1.922478345460972571e-01
-1.786729450254757323e-01
-1.614375105225262508e-01
-1.409462945303410486e-01
-1.176369541997312196e-01
-9.201554337587615484e-02
-6.464448925005193691e-02
-3.610068581988423730e-02
-6.997075460210576414e-03
2.204832361749534120e-02
5.043205989021092711e-02
7.756034528705307851e-02
1.028682341463869332e-01
1.258537320870699583e-01
1.460343786280488554e-01
1.630250586699433790e-01
1.764916432387868828e-01
1.861677317293348177e-01
1.919030020804506353e-01
1.935789457471585040e-01
1.912103490608700884e-01
1.848675356374446799e-01
1.746996334302910459e-01
1.609630674325392974e-01
1.439434205561919145e-01
1.240336765895235643e-01
1.016622877164378436e-01
7.730897977240477892e-02
5.150902168071883058e-02
2.480856858927959693e-02
-2.215048885796173234e-03
-2.897775268545772082e-02
-5.490874230058172267e-02
-7.944867307189087957e-02
-1.020603219385602806e-01
-1.222708989289802012e-01
-1.396266585591510179e-01
-1.537641237565001984e-01
-1.643817598460092233e-01
-1.712352792584921068e-01
-1.742094474466137355e-01
-1.732215572593329145e-01
-1.683220013506010748e-01
-1.596337541032967766e-01
-1.473491439467753683e-01
-1.317844798746040103e-01
-1.132840900584799471e-01
-9.229612853082518054e-02
-6.931343992054003755e-02
-4.486630372658800131e-02
-1.953819217081820270e-02
6.081630686339628555e-03
3.139486656592087310e-02
5.580132174143717649e-02
7.873199526803467685e-02
9.965322175487548173e-02
1.180567039485442837e-01
1.335290901279376219e-01
1.456861789462391976e-01
1.542423769374205444e-01
1.590009301286839927e-01
1.598155953606230639e-01
1.566875600844040151e-01
1.496557968374790382e-01
1.388823378531010011e-01
1.246173908069725389e-01
1.071637160832288743e-01
8.694642764134501156e-02
6.441690693856766403e-02
4.010628598045519466e-02
1.459095159400385089e-02
-1.153432684581791323e-02
-3.764097341108200989e-02
-6.309946042547076583e-02
-8.730079097297899215e-02
-1.096459123358385357e-01
-1.295810474538014179e-01
-1.466199485914327916e-01
-1.603045505611618571e-01
-1.703026733770460488e-01
-1.763288799853983124e-01
-1.782025823468229297e-01
-1.758673167394007864e-01
-1.693131789561815315e-01
-1.586979231426781101e-01
-1.442292818952871092e-01
-1.262258617870367083e-01
-1.051106793187415733e-01
-8.134364577429034626e-02
-5.549219668187707621e-02
-2.814862007160278540e-02
5.357727412509671883e-05
2.845006615193684807e-02
5.638093852025946595e-02
8.319938242018057317e-02
1.082669275820449251e-01
1.310104113214699273e-01
1.508957728280712340e-01
1.674464060037823554e-01
1.802985865624893158e-01
1.891205341973477838e-01
1.937244478208131893e-01
1.939910136902069926e-01
1.898915903392526250e-01
1.815385990753728696e-01
1.690820940628024183e-01
1.528205894169877566e-01
1.331086484439755191e-01
1.103781162037834329e-01
8.515644308316427935e-02
5.799347451986246182e-02
2.951280794218465869e-02
3.592445016849799000e-04
-2.881009180480766096e-02
-5.732594904308205980e-02
-8.453118443631843504e-02
-1.098121339939826246e-01
-1.325697444635243749e-01
-1.522855485505790474e-01
-1.685042198178837713e-01
-1.808250299710631170e-01
-1.889881566638492993e-01
-1.927703570846756309e-01
-1.920957932124981171e-01
-1.869804668447738183e-01
-1.775172774981322310e-01
-1.639560533649876140e-01
-1.465823773449756728e-01
-1.258141086465403569e-01
-1.021343852694748811e-01
-7.607777966144194104e-02
-4.826224937095717482e-02
-1.931895431182707734e-02
1.008703581894643958e-02
3.927819987379536221e-02
6.759496248099473859e-02
9.440101935602140948e-02
1.190797906447472188e-01
1.411004409101855317e-01
1.599611602563943413e-01
1.752513890376976025e-01
1.866544664154026478e-01
1.938998720383999508e-01
1.968687362816169406e-01
1.954839286000191467e-01
1.897897933178600283e-01
1.799301117841494713e-01
1.660996179862297417e-01
1.486273967715394384e-01
1.278735117315613345e-01
1.042878311073241887e-01
7.837861074815009876e-02
5.068119050112596113e-02
2.178776210471386476e-02
-7.700907380289695459e-03
-3.717462355377020022e-02
-6.601862924402909782e-02
-9.363872548477747415e-02
-1.194759698747186877e-01
-1.429872549721468711e-01
-1.637099752647847573e-01
-1.812153671997878968e-01
-1.951451376463656795e-01
-2.052363153176693933e-01
-2.112595786017238686e-01
-2.131190568146920927e-01
-2.107638222867208033e-01
-2.042376115185778884e-01
-1.936859846107987504e-01
-1.792916550168559275e-01
-1.613598342962591359e-01
-1.402290378376354896e-01
-1.163101986093315332e-01
-9.007620834436870505e-02
-6.202016497129425598e-02
-3.268868635971983183e-02
-2.638900897399485898e-03
2.756299232182463435e-02
5.734469286493742990e-02
8.614680771615726429e-02
1.134397015089168709e-01
1.387045790213705387e-01
1.614839081685356947e-01
1.813535011006280617e-01
1.979371888685158565e-01
2.109443155476121434e-01
2.201088929145044171e-01
2.252731601688819918e-01
2.263262760047813904e-01
2.232285137228654237e-01
2.160406656525721281e-01
2.048531950622731190e-01
1.898718323498575222e-01
1.713422566170942629e-01
1.495789692156305750e-01
1.249738495857784931e-01
9.794206210519854072e-02
6.897568436300814676e-02
3.858781713123377727e-02
7.324391569711617700e-03
-2.423930115774872857e-02
-5.552598842554546527e-02
-8.595547221486182776e-02
-1.149495496594775679e-01
-1.419640133998770759e-01
-1.664789042727525537e-01
-1.880078960533720367e-01
-2.061440543533663017e-01
-2.205029347000432294e-01
-2.308050750186531053e-01
-2.368305522979066713e-01
-2.384266979113270346e-01
-2.355658904611339644e-01
-2.282527143067278885e-01
-2.166251984041241974e-01
-2.008814921247716323e-01
-1.812920659487400332e-01
-1.582341922590965733e-01
-1.321108548538102445e-01
-1.034190738372862267e-01
-7.268921117137834564e-02
-4.048748104380742868e-02
-7.422220210986922584e-03
2.589383941943888129e-02
5.883958743922805545e-02
9.079302609367639887e-02
1.211592194313088067e-01
1.493685382658587191e-01
1.748755690949281016e-01
1.972104078403932592e-01
2.159247133565571630e-01
2.306588954298135763e-01
2.411194068719002825e-01
2.470648772985593600e-01
2.483812864666194442e-01
2.449867881165011807e-01
2.369275296274935272e-01
2.243254040845156783e-01
2.073700267538649278e-01
1.863823465620832454e-01
1.617138387106374919e-01
1.338322839282997945e-01
1.032599907021905794e-01
7.056804464831846480e-02
3.640272401368460642e-02
1.422964917977999691e-03
-3.367640421516170102e-02
-6.818805560893326234e-02
-1.014189408699547601e-01
-1.326935879949612263e-01
-1.613559485654744718e-01
-1.868315103956576240e-01
-2.085727847409724611e-01
-2.261289298803134118e-01
-2.391435674633067276e-01
-2.473130658817797589e-01
-2.505005554654639588e-01
-2.486142309454595634e-01
-2.417060417678920103e-01
-2.299397086326337158e-01
-2.135421760316862927e-01
-1.928996733400583918e-01
-1.684345191278888154e-01
-1.406790777243670243e-01
-1.102336292268927403e-01
-7.773180969770435156e-02
-4.387398989091017415e-02
-9.369928236029730073e-03
2.506131261141675975e-02
5.869656495072834296e-02
9.083994308394301165e-02
1.208398890154760152e-01
1.480653153424179580e-01
1.719855246030975171e-01
1.921100950081391090e-01
2.080373803464271865e-01
2.194797735812605288e-01
2.261917435183550262e-01
2.280895066747459787e-01
2.251414051417469642e-01
2.174320843186793584e-01
2.051650135566233657e-01
1.885894970888063460e-01
1.681002991127978352e-01
1.441302578559583714e-01
1.171999667086479902e-01
8.790132488120329379e-02
5.685041140248078828e-02
2.472467923564528047e-02
-7.787436924821505846e-03
-3.999259928262897251e-02
-7.119443938738480304e-02
-1.007198525462752736e-01
-1.279461362751254105e-01
-1.522687349583619065e-01
-1.731820722781179378e-01
-1.902318012016296078e-01
-2.030411762043842216e-01
-2.113646342724027349e-01
-2.149947031437584033e-01
-2.138873543399751609e-01
-2.080658385279872957e-01
-1.976553799759572516e-01
-1.829180879339852850e-01
-1.641542821717208167e-01
-1.418050458402524694e-01
-1.163573078400403082e-01
-8.836513982470262096e-02
-5.845431562657397995e-02
-2.726441561375105016e-02
4.525997105010129418e-03
3.623010971683233300e-02
6.717793274507648238e-02
9.671378687416266884e-02
1.242081846588434929e-01
1.491066818269287109e-01
1.708765516014723040e-01
1.890852042442471292e-01
2.033677825935807648e-01
2.134206765746529399e-01
2.190762754958363034e-01
2.202009272157349484e-01
2.167987718153137899e-01
2.089480284492004070e-01
1.967994062204146410e-01
1.806313776323398845e-01
1.607521922856953445e-01
1.375830956274560757e-01
1.115934165611121853e-01
8.330035056187916342e-02
5.328819112101831901e-02
2.215285108049638851e-02
-9.475632666816495575e-03
-4.095656909070096580e-02
-7.165982807514813258e-02
-1.009670781613935531e-01
-1.282768485335478714e-01
-1.530523077689908695e-01
-1.747770711584973602e-01
-1.930165702428280061e-01
-2.074089051531100569e-01
-2.176394740251619275e-01
-2.235308909191794924e-01
-2.249416795735093566e-01
-2.218580949391109336e-01
-2.143566329077281063e-01
-2.025744997309812945e-01
-1.867888272757106671e-01
-1.673082465970062438e-01
-1.445483056380316156e-01
-1.189844629383784713e-01
-9.112962141896008283e-02
-6.156526186226765618e-02
-3.088351589192946806e-02
3.007859453008077111e-04
3.136319660524625186e-02
6.169509937069726779e-02
9.071122893801281117e-02
1.178411622334320230e-01
1.425853286954432697e-01
1.644704590180808557e-01
1.830923811112775135e-01
1.981275646828640491e-01
2.092862843412496288e-01
2.164013004108289451e-01
2.193421182920148038e-01
2.180727077133796654e-01
2.126447347615802175e-01
2.031498710594903112e-01
1.897979947783235699e-01
1.728287129261026622e-01
1.525653606940478024e-01
1.293930873568463480e-01
1.037280913523202924e-01
7.606049217373461735e-02
4.689559581103283636e-02
1.677779231897823589e-02
-1.372570897726167055e-02
-4.404495077012933468e-02
-7.360516661748400802e-02
-1.018356180758812346e-01
-1.282003314413595330e-01
-1.521800075597817270e-01
-1.732989947310991652e-01
-1.911487058654281479e-01
-2.053454937985261242e-01
-2.156163277693733948e-01
-2.217302482590944868e-01
-2.235441213761518719e-01
-2.210219542757690947e-01
-2.141665406339633426e-01
-2.031229703596926783e-01
-1.880798749587020979e-01
-1.693205647210541398e-01
-1.472202272894793107e-01
-1.221868867772104572e-01
-9.472703326805105573e-02
-6.537095769803424883e-02
-3.469338670106973666e-02
-3.303317023136968095e-03
2.818730389832894978e-02
5.916111399367862678e-02
8.900331316840515150e-02
1.171362392578287059e-01
1.430051686442902759e-01
1.660937341830385772e-01
1.859633905867138781e-01
2.021985362670587760e-01
2.144911610988204931e-01
2.225860584877044079e-01
2.263014500471459967e-01
2.255733305080740159e-01
2.203710450199351245e-01
2.108014648128470336e-01
1.970252595555430919e-01
1.792866394351892156e-01
1.579363260851407436e-01
1.333555093356095234e-01
1.060345885255336296e-01
7.649782065524028674e-02
4.532154575624116472e-02
1.313493498374905533e-02
-1.942338459628432240e-02
-5.168947546883843891e-02
-8.299519875254063317e-02
-1.126954950284108081e-01
-1.401639582748996360e-01
-1.648045999270714990e-01
-1.861037080335275484e-01
-2.035715181018645514e-01
-2.168320473832368589e-01
-2.255824428409980431e-01
-2.295925684894633556e-01
-2.287857463098854349e-01
-2.231239773781082125e-01
-2.127289206346260064e-01
-1.978037463803136720e-01
-1.786349002416352805e-01
-1.556482421777812264e-01
-1.293011218348243951e-01
-1.001664446953104970e-01
-6.886356305006878509e-02
-3.605122347982510356e-02
-2.440610592914435606e-03
3.125336003213553121e-02
6.431537535817656581e-02
9.603169935850747185e-02
1.257321127363626445e-01
1.527925446577817481e-01
1.766218533774086552e-01
1.967440785688853722e-01
2.127171105251079442e-01
2.242168038733917679e-01
2.310185314761876163e-01
2.329578467694785049e-01
2.300353660754159701e-01
2.222927645030045030e-01
2.099108409157100230e-01
1.931637175540806828e-01
1.723860722734606998e-01
1.480449800560136586e-01
1.206357083670517860e-01
9.074420352303534665e-02
5.900454657293470462e-02
2.607503602504953819e-02
-7.344025364430163683e-03
-4.054972036093895671e-02
-7.285042143330761055e-02
-1.035600671974996889e-01
-1.320340027718077125e-01
-1.576853626535099362e-01
-1.799545564429927968e-01
-1.984001739138614995e-01
-2.126224627892559504e-01
-2.223270025324436960e-01
-2.273361284172880636e-01
-2.275213387312228219e-01
-2.229242480381398717e-01
-2.136351578680159846e-01
-1.998687017693043244e-01
-1.819491434906220784e-01
-1.602478429596768950e-01
-1.352679208073639672e-01
-1.075429628297958073e-01
-7.767838604775489930e-02
-4.632991460861413807e-02
-1.416551129335101231e-02
1.812041365504433316e-02
4.983267909089431069e-02
8.030502608125371367e-02
1.088875986793617079e-01
1.349726944964920461e-01
1.580302662736400299e-01
1.775556779341203317e-01
1.931653621512177677e-01
2.045299733000170150e-01
2.114087671986510097e-01
2.136900970003766942e-01
2.113017852080474324e-01
2.043300161838877416e-01
1.929175996634161783e-01
1.773067933987632627e-01
1.578550741475372998e-01
1.349553770644489059e-01
1.091211714828655560e-01
8.090008947225529878e-02
5.089692829355874082e-02
1.976917139988885325e-02
-1.181702325335377834e-02
-4.317406300695683652e-02
-7.361233934075789298e-02
-1.024735939914188099e-01
-1.291226202329175954e-01
-1.529617109274034881e-01
-1.734847428506040845e-01
-1.902119753895120113e-01
-2.027891074699725571e-01
-2.109351332559007142e-01
-2.144493946335248313e-01
-2.132852094488055794e-01
-2.074349576036803033e-01
-1.970520301712042066e-01
-1.823645016745130409e-01
-1.636843036865803791e-01
-1.414509545738229235e-01
-1.161329797839673883e-01
-8.830298602435768252e-02
-5.857140203383708055e-02
-2.758095130634065362e-02
3.986558006441931479e-03
3.544957426648381871e-02
6.613793021750311030e-02
9.538689571090691599e-02
1.225818312757741002e-01
1.471563631446651810e-01
1.685797902732804054e-01
1.864347339947758364e-01
2.003354046641165898e-01
2.100118205004354310e-01
2.152827807359395940e-01
2.160268338501807328e-01
2.122720473152214793e-01
2.040826016102967044e-01
1.916523218670214412e-01
1.752540259728062044e-01
1.552188587756283267e-01
1.319941774221407849e-01
1.060519015802009191e-01
7.794715297794166387e-02
4.827508536205786516e-02
1.765388726725362900e-02
-1.326180383985181566e-02
-4.381597974379988769e-02
-7.336405550542329790e-02
-1.012668248133912763e-01
-1.269266324104504351e-01
-1.497984670990660239e-01
-1.693653311477560375e-01
-1.852235445655260326e-01
-1.970065770540864181e-01
-2.044544987679886572e-01
-2.074147461734808240e-01
-2.057861661533909592e-01
-1.996326793669702115e-01
-1.890626609930101676e-01
-1.743113203930803379e-01
-1.557154806775896960e-01
-1.336613323845424472e-01
-1.086621163092467701e-01
-8.125876247787214290e-02
-5.206265106124475378e-02
-2.172991926037836155e-02
9.073100958326828225e-03
3.965989010194138908e-02
6.934570337762716030e-02
9.748243564419226126e-02
1.234409610648416755e-01
1.466416024215845826e-01
1.665872386764915558e-01
1.828091370219958045e-01
1.949686431059882152e-01
2.027803080440525596e-01
2.060560629265731358e-01
2.047367322050749339e-01
1.988055604962976064e-01
1.884082850557557420e-01
1.737439120302587958e-01
1.551160038908007133e-01
1.329381999335104980e-01
1.076607796392762273e-01
7.985084364776939836e-02
5.010581304937587743e-02
1.907688104430230180e-02
-1.253974164742339970e-02
-4.404318929095992624e-02
-7.472322162318248417e-02
-1.038717998508782298e-01
-1.308277120013020267e-01
-1.549610705782059894e-01
-1.756917135773662930e-01
-1.925492426974385052e-01
-2.050949569376990800e-01
-2.130398095865624897e-01
-2.161742766367604207e-01
-2.143856299076645766e-01
-2.077296040970120217e-01
-1.963054757119591653e-01
-1.803897418652339601e-01
-1.603335759212800304e-01
-1.365788849773039437e-01
-1.096930330478267934e-01
-8.027116691795813108e-02
-4.900307055711570353e-02
-1.660927824594446434e-02
1.617156313884885246e-02
4.858088359561513192e-02
7.987045865802246125e-02
1.093365767153906265e-01
1.362908969088401367e-01
1.601270320957700333e-01
1.803103571968272256e-01
1.963587797390764778e-01
2.079413231614575253e-01
2.147669671412459347e-01
2.166939069321427991e-01
2.136842739396878910e-01
2.057753359077079680e-01
1.931754283337450417e-01
1.761325557174189815e-01
1.550379642461616192e-01
1.303620985168902624e-01
1.026346080837993030e-01
7.249234554359115790e-02
4.059215567894772225e-02
7.650859615584173351e-03
-2.558893841462080154e-02
-5.838580446756112124e-02
-9.000014707724285357e-02
-1.197052019245599397e-01
-1.468423215618356592e-01
-1.707784799224192074e-01
-1.909663332780207612e-01
-2.069571200359028307e-01
-2.183489821723424984e-01
-2.249108629142275162e-01
-2.264628920928608569e-01
-2.229671012820683140e-01
-2.145153874717328768e-01
-2.012606480193769309e-01
-1.835340088373335066e-01
-1.617104867992079920e-01
-1.362839915828046033e-01
-1.078349341942505812e-01
-7.697991040507816407e-02
-4.441966558850999475e-02
-1.086943239872877921e-02
2.293765885681411237e-02
5.625838268345258880e-02
8.837175438600824995e-02
1.185997994765184138e-01
1.462825634453604751e-01
1.708579728849494994e-01
1.918095612262062655e-01
2.087018131751823269e-01
2.212216954004910252e-01
2.290946992360115564e-01
2.322063934228552617e-01
2.305018080912539236e-01
2.240322285310827333e-01
2.129767098409119930e-01
1.975552700538314166e-01
1.781326532651434924e-01
1.551166416558085737e-01
1.289962174268295125e-01
1.003380401815684719e-01
6.973087382791445799e-02
3.782680084242141805e-02
5.291593611383441087e-03
-2.720149473099158638e-02
-5.897356353464409950e-02
-8.936311889070606973e-02
-1.177539446145143831e-01
-1.435451359714364217e-01
-1.662216777180534621e-01
-1.853206926166967861e-01
-2.004429882054988010e-01
-2.113162953330794125e-01
-2.177025279835682892e-01
-2.195126684233502656e-01
-2.167296228491867316e-01
-2.094241934888335654e-01
-1.978060579867637336e-01
-1.821198299429661327e-01
-1.627448460422118437e-01
-1.401118588421314537e-01
-1.147130629284669467e-01
-8.711785316287193326e-02
-5.791002372021362976e-02
-2.771665722484607797e-02
2.823225647128627114e-03
3.307990307412438102e-02
6.243295435609839961e-02
9.028047902770289235e-02
1.160841144878078934e-01
1.393246244570972292e-01
1.595645300479096584e-01
1.764314095534660343e-01
1.895998828553275561e-01
1.988671695589569188e-01
2.040612690458224188e-01
2.051251648734106758e-01
2.020745968527289660e-01
1.949817238603231417e-01
1.840355123411420712e-01
1.694515434486354999e-01
1.515434328788065610e-01
1.306740098221952362e-01
1.072481172050481907e-01
8.173983443437478347e-02
5.463675302886388668e-02
2.647031320164289214e-02
-2.210943128597653295e-03
-3.085416758048686869e-02
-5.890089490777755676e-02
-8.579935605605346072e-02
-1.110317886494347206e-01
-1.340927217161723140e-01
-1.545288751834691388e-01
-1.719415272588167842e-01
-1.859637751897554314e-01
-1.963366657146437544e-01
-2.028321858223438579e-01
-2.053241329297921802e-01
-2.037709735630131025e-01
-1.981805039226846588e-01
-1.886936227699196611e-01
-1.754835075703008451e-01
-1.588281216517856143e-01
-1.390746904970028841e-01
-1.166108243008970730e-01
-9.191090128774598300e-02
-6.546597453543243073e-02
-3.781139679633083867e-02
-9.505554488799541901e-03
1.889300127051395106e-02
4.682577585281569310e-02
7.374082458440800458e-02
9.912958431729673725e-02
1.225022305800442524e-01
1.434172803114455441e-01
1.614996998257400562e-01
1.763995586444077335e-01
1.878694339718386397e-01
1.956971230788754346e-01
1.997488021954009207e-01
1.999762915764181359e-01
1.963650971022196101e-01
1.890146536074432670e-01
1.780564556537440335e-01
1.637017508800759913e-01
1.462311107887670492e-01
1.259553669250194907e-01
1.032689732546933914e-01
7.858577678568524905e-02
5.236837203452027190e-02
2.511301311979353273e-02
-2.673220655107050661e-03
-3.045964186519613259e-02
-5.771345993028047933e-02
-8.391347507742324963e-02
-1.085450680228471076e-01
-1.311195877925625530e-01
-1.511955857499358291e-01
-1.683488349869141643e-01
-1.822405069042246084e-01
-1.925696341941889045e-01
-1.991046063171163227e-01
-2.017134507247056729e-01
-2.002967129039583127e-01
-1.948869363273600386e-01
-1.855633882736215934e-01
-1.724928138725636828e-01
-1.559418726485525264e-01
-1.362092619131255455e-01
-1.137022917809152461e-01
-8.885877714101100833e-02
-6.217034220320245830e-02
-3.417749996154129111e-02
-5.430508581356727205e-03
2.349531338026640548e-02
5.202111811021596643e-02
7.958688372286298884e-02
1.056462493420973203e-01
1.296790873719577686e-01
1.512285098219645907e-01
1.698560164972293951e-01
1.852114053186781906e-01
1.969953481537726481e-01
2.049660546882884904e-01
2.089904420302659271e-01
2.089637612131280409e-01
2.049002060589671104e-01
1.968684706903896797e-01
1.850054620341650968e-01
1.695504390643194359e-01
1.507691222822860611e-01
1.290282041324491424e-01
1.047310773348001656e-01
7.833016379710948385e-02
5.033641062421198575e-02
2.127301989828274745e-02
-8.298878538616386719e-03
-3.780814792736293672e-02
-6.668757746825675070e-02
-9.437368843795353179e-02
-1.203182659836347368e-01
-1.440230872461362999e-01
-1.650053709325711437e-01
-1.828567113229156160e-01
-1.972249332373812447e-01
-2.078056212656829715e-01
-2.144130873182495678e-01
-2.168920343844335241e-01
-2.152095221436806927e-01
-2.094061618419368886e-01
-1.995862630222192124e-01
-1.859795843505175350e-01
-1.688443914510735777e-01
-1.485448475784289235e-01
-1.254955110195757617e-01
-1.001521405683928057e-01
-7.303497294984827304e-02
-4.467448595231043179e-02
-1.562816464294324026e-02
1.353695649380434740e-02
4.226592467310752443e-02
7.001889636673275241e-02
9.626992872511619392e-02
1.205516922937129587e-01
1.424162240540144120e-01
1.614789319602936146e-01
1.774181445431097237e-01
1.899449975339470575e-01
1.988753597602491707e-01
2.040535710000764835e-01
2.054127079063698957e-01
2.029559386158389933e-01
1.967271062550972061e-01
1.868742789702378393e-01
1.735702684581931499e-01
1.570704664090538105e-01
1.376821083499664700e-01
1.157472125940694763e-01
9.167906885669777073e-02
6.590571318174838489e-02
3.890280970851759529e-02
1.116962447857637597e-02
-1.678381308303253383e-02
-4.442998911592191402e-02
-7.124244838088894527e-02
-9.671151879803233098e-02
-1.203348839487843880e-01
-1.416457343755396225e-01
-1.602236217082436687e-01
-1.756709382332264369e-01
-1.876840138211315345e-01
-1.959906193925115003e-01
-2.004045817710563560e-01
-2.008290438362357322e-01
-1.972079484055148102e-01
-1.896193831813199338e-01
-1.781781689329061946e-01
-1.630998851921974524e-01
-1.446832975319007342e-01
-1.232658635450446100e-01
-9.928727917358462496e-02
-7.320992229820139086e-02
-4.555262191620842310e-02
-1.687118817058477077e-02
1.226966023000827799e-02
4.128702521894130062e-02
6.959854947256191582e-02
9.664770245120171688e-02
1.218917214613647326e-01
1.448239585885251757e-01
1.649999453786814563e-01
1.819962888560011094e-01
1.954875552213397039e-01
2.051895429620893552e-01
2.108916943411089928e-01
2.124839065356760037e-01
2.098890689623756911e-01
2.031592724357746960e-01
1.923902832034166954e-01
1.777649353142381483e-01
1.595605215449369674e-01
1.380875360486344128e-01
1.137661026526583796e-01
8.704619300071712862e-02
5.843961851256163076e-02
2.851155401623477886e-02
-2.157959004971215372e-03
-3.294995516975365163e-02
-6.323892795451735438e-02
-9.240751869312752165e-02
-1.198440510996392483e-01
-1.449626383955502085e-01
-1.672366142368120479e-01
-1.861585507308504139e-01
-2.013219281645205472e-01
-2.123755651791232602e-01
-2.190428800404761178e-01
-2.211812439420115517e-01
-2.186850580178233416e-01
-2.116077681950547240e-01
-2.000721334646780036e-01
-1.842949377996186688e-01
-1.646269800691426699e-01
-1.414536095568499074e-01
-1.152882783584315840e-01
-8.668843204961879101e-02
-5.626569040925320786e-02
-2.469309820484362483e-02
7.347925942928247578e-03
3.915546860458331280e-02
7.002405623782215205e-02
9.927959728460813982e-02
1.262763210854071505e-01
1.504004449405437760e-01
1.711348094132971454e-01
1.879897505329025664e-01
2.005927617099769744e-01
2.086554606543359058e-01
2.119576885039840819e-01
2.104399483753646161e-01
2.040824840677223362e-01
1.930214666206027940e-01
1.774820597341655037e-01
1.577676291710448930e-01
1.343277902743403029e-01
1.076447785100693166e-01
7.832029566903492279e-02
4.700990583305887649e-02
1.441089032618316640e-02
-1.871746059085993910e-02
-5.160992104277746517e-02
-8.349648471725364118e-02
-1.136069242233843923e-01
-1.412167577732795776e-01
-1.656557600053335522e-01
-1.862894340271776805e-01
-2.026222458231956569e-01
-2.142024934314355200e-01
-2.207192729215769200e-01
-2.219944652324973566e-01
-2.179197501230037970e-01
-2.085987758788854507e-01
-1.941901174356421289e-01
-1.750180009513717938e-01
-1.515308993511301494e-01
-1.242412182223571332e-01
-9.381612154299180661e-02
-6.095479146102997930e-02
-2.643760318461502168e-02
8.906891977522434639e-03
4.424493938427519202e-02
7.873370899500481412e-02
1.115380842304725395e-01
1.418908796062375577e-01
1.690578498441523136e-01
1.923833070279169222e-01
2.113341858646187454e-01
2.254197247986212682e-01
2.343345273752331370e-01
2.378443641352263049e-01
2.358496341518169781e-01
2.284175701582273066e-01
2.156709481698519948e-01
1.979352574636213946e-01
1.755983120811021869e-01
1.491704677533296219e-01
1.192828804094145934e-01
8.660426223585886152e-02
5.191525150279945044e-02
1.602262380032226305e-02
-2.023588388242891084e-02
-5.599830457178905929e-02
-9.041760741139398538e-02
-1.226883267817864553e-01
-1.520213504520853964e-01
-1.777323966522329768e-01
-1.992027699166240284e-01
-2.158965658005187471e-01
-2.274481177138450994e-01
-2.335379396784844630e-01
-2.340504295735525986e-01
-2.289713371778765438e-01
-2.184068048282033214e-01
-2.026590044749395636e-01
-1.820786204368465833e-01
-1.572039480871318951e-01
-1.286469771855515698e-01
-9.710178360964555333e-02
-6.336870733579574866e-02
-2.826558432802321608e-02
7.340548366634051802e-03
4.256927893790028727e-02
7.656796724120797093e-02
1.085125957158314947e-01
1.376134155481142374e-01
1.632003115308275631e-01
1.846389402334525087e-01
2.014371029087427545e-01
2.132191471709439790e-01
2.196874382565760786e-01
2.207532941449548147e-01
2.163800779100768790e-01
2.067157302245203887e-01
1.920285089891035912e-01
1.726688557713181027e-01
1.491620682110950113e-01
1.220703729831422446e-01
9.207596794322463196e-02
5.992287212521082290e-02
2.638553622137871160e-02
-7.710275171866984995e-03
-4.153702592024686308e-02
-7.428849852323535230e-02
-1.051683988400653053e-01
-1.334398359788943889e-01
-1.584464536577843419e-01
-1.795694381561305231e-01
-1.963481824491519201e-01
-2.083763424900969274e-01
-2.153839532969454296e-01
-2.172479566693017172e-01
-2.139062141081110591e-01
-2.055014927781356193e-01
-1.922334158787622482e-01
-1.744418841106131213e-01
-1.525869953918549959e-01
-1.271766372144713109e-01
-9.884794603722692197e-02
-6.826604146974261933e-02
-3.614998279396335057e-02
-3.255476338275152884e-03
2.966481015316285372e-02
6.186676485507675710e-02
9.261498047332641925e-02
1.212428406823771315e-01
1.471213357500157914e-01
1.696857935766449277e-01
1.884864041420034608e-01
2.031075214994102207e-01
2.132860515673548618e-01
2.188251141781978326e-01
2.196274235199016100e-01
2.157366681253912455e-01
2.072368559292516732e-01
1.943670337328460007e-01
1.774198222684001403e-01
1.567737606155315266e-01
1.329041232327954347e-01
1.063123975674244853e-01
7.758468909924967627e-02
4.732972443831494347e-02
1.618211437480866766e-02
-1.520035247896611014e-02
-4.616520668339956640e-02
-7.607897348407832716e-02
-1.043162234692302237e-01
-1.303098833663814682e-01
-1.535345233529580855e-01
-1.735105298528470397e-01
-1.898661607447661992e-01
-2.022585595080293175e-01
-2.104712915639908588e-01
-2.143596565378695917e-01
-2.138528347906560600e-01
-2.090174417362684056e-01
-1.999537252678730559e-01
-1.868958527102747569e-01
-1.701382671950483205e-01
-1.500402577765839740e-01
-1.270569722101790866e-01
-1.016639346769975250e-01
-7.440622679229866310e-02
-4.585322692693445668e-02
-1.658819271836149689e-02
1.278930026341583426e-02
4.168543025769917698e-02
6.953467702457825916e-02
9.578155441127933489e-02
1.199228477445226093e-01
1.415042897706598746e-01
1.601042924867782102e-01
1.754014690304867008e-01
1.871015954361358036e-01
1.950073632959392067e-01
1.989936657479977611e-01
1.989844168037097072e-01
1.950227444992862491e-01
1.871803430121395939e-01
1.756326500322783479e-01
1.606165285414494492e-01
1.424164221583431034e-01
1.214089735854190499e-01
9.799057358244900318e-02
7.262636370476935332e-02
4.581363758346505832e-02
1.807084614129973385e-02
-1.005096962166470570e-02
-3.799848820432678853e-02
-6.522147108068855614e-02
-9.117164816021414153e-02
-1.153303878765764012e-01
-1.372155477023034031e-01
-1.563666431229976672e-01
-1.724096139804706662e-01
-1.849983420744273355e-01
-1.938730097425259702e-01
-1.988582700223194832e-01
-1.998220872303257400e-01
-1.967685633664832401e-01
-1.897380732956703286e-01
-1.788800317541009155e-01
-1.644287479027405074e-01
-1.466627436893301328e-01
-1.259716195099269964e-01
-1.027692387212785913e-01
-7.753613792146465955e-02
-5.079401823046598985e-02
-2.307820089553920540e-02
5.049112351533185938e-03
3.302468141978062016e-02
6.030378266979503910e-02
8.635116512542424794e-02
1.106653149995108776e-01
1.327994598333201159e-01
1.523267476636898654e-01
1.689116196088082944e-01
1.822548929436300091e-01
1.921267750964021082e-01
1.983867266859956069e-01
2.009242524590602597e-01
1.997420714978581091e-01
1.948791439330849473e-01
1.864489043786192179e-01
1.746409844496854824e-01
1.596727297632776765e-01
1.418488433823380523e-01
1.214967978718145825e-01
9.899479206384062535e-02
7.476230170042627576e-02
4.923272498835545852e-02
2.287482690659613932e-02
-3.836204334908041580e-03
-3.042136537442181876e-02
-5.639926018414992415e-02
-8.130098297486056114e-02
-1.046847580308736814e-01
-1.261188514095841207e-01
-1.452271968326352969e-01
-1.616626018311607127e-01
-1.751231910082870213e-01
-1.853838211550309922e-01
-1.922423059171552706e-01
-1.955965039447759846e-01
-1.953856029704055253e-01
-1.916149983769915854e-01
-1.843790953400507582e-01
-1.737987574608551855e-01
-1.600944182825717044e-01
-1.435192765976441576e-01
-1.243816084005751887e-01
-1.030485925288044113e-01
-7.990324298024323313e-02
-5.537764633785669660e-02
-2.991615920095380687e-02
-3.974506849927075813e-03
2.198192239005437865e-02
4.749382452643743924e-02
7.212056326173973964e-02
9.542819455273929274e-02
1.170236132199000412e-01
1.365413989019763630e-01
1.536461795931766683e-01
1.680696396118153413e-01
1.795612556598709386e-01
1.879479365715859274e-01
1.930983372215542282e-01
1.949270620169420432e-01
1.934299045236445025e-01
1.886232375650632176e-01
1.806065478935692248e-01
1.695149429204500513e-01
1.555282089364840858e-01
1.388888945647160089e-01
1.198554127019790527e-01
9.874404720605581276e-02
7.589072850413945692e-02
5.165735655923157227e-02
2.643486030860019848e-02
6.196677260099509033e-04
-2.537597313591022363e-02
-5.113620965276885477e-02
-7.625152701810518352e-02
-1.003180516132126388e-01
-1.229427959979801088e-01
-1.437655859377386935e-01
-1.624361134119646499e-01
-1.786513948576726740e-01
-1.921419588460226702e-01
-2.026695402051910122e-01
-2.100685457616306151e-01
-2.141921895735618142e-01
-2.149726697255500418e-01
-2.123866651909134817e-01
-2.064551505826020261e-01
-1.972808761439148739e-01
-1.849862716052206313e-01
-1.697709634730079076e-01
-1.518690519620043144e-01
-1.315507932137262581e-01
-1.091395047530845513e-01
-8.496954612999416123e-02
-5.941239890459126816e-02
-3.285241211921877819e-02
-5.681301934600199027e-03
2.170061497010920132e-02
4.889556161954923541e-02
7.551846347706382689e-02
1.011887341527931555e-01
1.255492072147913751e-01
1.482644908013468210e-01
1.690138453287261810e-01
1.875211527036491910e-01
2.035224498450384500e-01
2.167983564426775589e-01
2.271624738052304415e-01
2.344525856368250560e-01
2.385650156198768357e-01
2.394107482877877169e-01
2.369584749135497659e-01
2.312108560461482720e-01
2.222028078681421992e-01
2.100314911451038324e-01
1.948097451223059495e-01
1.767147414686564555e-01
1.559537997665841058e-01
1.327707530906807043e-01
1.074654882101633291e-01
8.035216030809280707e-02
5.179957420017060332e-02
2.219679364236819968e-02
-8.042565399830253758e-03
-3.847490513622494474e-02
-6.865212342909091103e-02
-9.811428797149519820e-02
-1.263988831863094853e-01
-1.530582772795590907e-01
-1.776593044248398201e-01
-1.997854066398722928e-01
-2.190743751529335703e-01
-2.351801131343350948e-01
-2.478255433932601282e-01
-2.567869675263220186e-01
-2.618819479584300058e-01
-2.630327399171666358e-01
-2.601879760790564711e-01
-2.533980697509112812e-01
-2.427760138725920114e-01
-2.284846025666567026e-01
-2.107868562994844042e-01
-1.899677330442288703e-01
-1.663897139810862902e-01
-1.404529747495694980e-01
-1.125834052226994952e-01
-8.324800034913673596e-02
-5.291870979702666122e-02
-2.207491053608661574e-02
8.801691711463000001e-03
3.924665669233950993e-02
6.881761931502825003e-02
9.708502561748365289e-02
1.236721713254378685e-01
1.482197209406501404e-01
1.704163045976288537e-01
1.899992787770897751e-01
2.067280835934960370e-01
2.204332396683056916e-01
2.309644702356857815e-01
2.382253064349216243e-01
2.421627625567184805e-01
2.427468163895058484e-01
2.400073387648077317e-01
2.339885717684163091e-01
2.247823386772422327e-01
2.125110464721290393e-01
1.973201105560525304e-01
1.794033120727934194e-01
1.589660989954892745e-01
1.362597884253202440e-01
1.115591591005762745e-01
8.516369108823869383e-02
5.741428664623413752e-02
2.866177374442833298e-02
-7.050280732072977674e-04
-3.028195942294256704e-02
-5.964996047518038302e-02
-8.837010187024341157e-02
-1.160019153648287893e-01
-1.421041840008139268e-01
-1.662362873154948628e-01
-1.879788058877561174e-01
-2.069348357839005670e-01
-2.227260117635124215e-01
-2.350395388472347746e-01
-2.435824639707561134e-01
-2.481385741478230877e-01
-2.485564933085667172e-01
-2.447283725653204844e-01
-2.366665703754216032e-01
-2.244141403551379033e-01
-2.081249327279316441e-01
-1.880272428299236132e-01
-1.644012818698560585e-01
-1.376411616772920399e-01
-1.081660367677081680e-01
-7.648006047265136498e-02
-4.313262566862556546e-02
-8.700562030879422509e-03
2.619149723270889144e-02
6.091318656825197436e-02
9.482844747450894229e-02
1.272994233971928568e-01
1.577140107892860688e-01
1.854961241106131420e-01
2.100894133565633926e-01
2.310253735090739002e-01
2.478667442295934276e-01
2.602613327200419269e-01
2.679513762185242731e-01
2.707214209738175725e-01
2.685038510651268084e-01
2.612739469839258089e-01
2.491250455871534264e-01
2.322547328164901170e-01
2.109111547780501694e-01
1.854855086807626896e-01
1.564036870541005431e-01
1.241902631602072316e-01
8.943907578195739450e-02
5.277595392506283234e-02
1.489897583989875651e-02
-2.348132502177863179e-02
-6.163519988994863030e-02
-9.882244587718150286e-02
-1.343218548367346998e-01
-1.674476129911139088e-01
-1.975307764106846997e-01
-2.239953332617402593e-01
-2.463072686403877110e-01
-2.640170291311357831e-01
-2.767983614723019126e-01
-2.843667877306227942e-01
-2.866113511943211289e-01
-2.834836130147390665e-01
-2.750559772927664848e-01
-2.615410609310811485e-01
-2.431980474028190842e-01
-2.204471834048810086e-01
-1.937549618350608016e-01
-1.636749946754707530e-01
-1.308413045635310468e-01
-9.590844547880880699e-02
-5.958705753543437622e-02
-2.259852671536677349e-02
1.434208570707276587e-02
5.052442475330973931e-02
8.526355362322070308e-02
1.179373302664904477e-01
1.479427383950883690e-01
1.747732325926332209e-01
1.979787358388352403e-01
2.171733283388135871e-01
2.320942673598667683e-01
2.425107806483875472e-01
2.483263693530639027e-01
2.495070074934171434e-01
2.460945378307545228e-01
2.382464410419840029e-01
2.261496713174654949e-01
2.101037558029607011e-01
1.904498209296156541e-01
1.675850783892892937e-01
1.419747480318014343e-01
1.141004979194484847e-01
8.449810113042635629e-02
5.371883257934365052e-02
2.232896472983685043e-02
-9.090760786591212117e-03
-3.996308581874333243e-02
-6.972446514428107256e-02
-9.781690052154090598e-02
-1.237220133914971876e-01
-1.469518662308237911e-01
-1.670506988419817040e-01
-1.836445428689303938e-01
-1.963821121967599947e-01
-2.050143109385240137e-01
-2.093545271317444612e-01
-2.092807581284561458e-01
-2.048006311453561823e-01
-1.959548427472789234e-01
-1.829219644058118210e-01
-1.659475488824384837e-01
-1.453511673756427702e-01
-1.215702905947358969e-01
-9.506953417417152163e-02
-6.641316586579579240e-02
-3.620346715384577252e-02
-5.075426398400612049e-03
2.629454225116975574e-02
5.722913063089915542e-02
8.705922654018244389e-02
1.151201609225364630e-01
1.407959290944613695e-01
1.635196123763547615e-01
1.827598891922360691e-01
1.981038440505816234e-01
2.091724478394189068e-01
2.157089952496670238e-01
2.175549450335322321e-01
2.146151547244286584e-01
2.069603589233819374e-01
1.947019068066114245e-01
1.780936019569427653e-01
1.574801207259061142e-01
1.332683728898947650e-01
1.059948714802378816e-01
7.622296335880544838e-02
4.460177726361596456e-02
1.182362691541285170e-02
-2.140136596118084877e-02
-5.433375944774078425e-02
-8.623636926636633893e-02
-1.164041273471596027e-01
-1.441459979801353597e-01
-1.688308269281718343e-01
-1.899068911293094464e-01
-2.068587772793510915e-01
-2.193206541535767107e-01
-2.269770645490858108e-01
-2.296410991859800244e-01
-2.272613812113826459e-01
-2.198441950808433243e-01
-2.075866017609046266e-01
-1.907378446414447482e-01
-1.696794667529763767e-01
-1.449039646272428095e-01
-1.169491545923732750e-01
-8.647324250722893124e-02
-5.415998897396583078e-02
-2.074235151941701549e-02
1.301402539775085160e-02
4.634886195142849663e-02
7.851519424480872533e-02
1.087762622697894532e-01
1.364700944526242854e-01
1.609747658934014836e-01
1.817382224734458429e-01
1.983304583145651112e-01
2.103584259446165672e-01
2.175937933364198440e-01
2.198782881751124574e-01
2.171630806095302679e-01
2.095509677422764949e-01
1.971889748461002623e-01
1.803929820235984638e-01
1.595360281602450359e-01
1.350844357478159230e-01
1.076073287291354486e-01
7.770104227879259806e-02
4.604786725598961072e-02
1.335221357795994546e-02
-1.966223764860304535e-02
-5.225492233543033160e-02
-8.369742614124234259e-02
-1.132997606927908518e-01
-1.403856015310111227e-01
-1.643617164927755336e-01
-1.846929059452904753e-01
-2.009051013940834074e-01
-2.126648777407363911e-01
-2.196758477668298570e-01
-2.218010130092192278e-01
-2.189918724663557081e-01
-2.112901970596533785e-01
-1.989020613228535128e-01
-1.820728572724115146e-01
-1.612011588371415338e-01
-1.367529033514562897e-01
-1.092624341105892793e-01
-7.936304851714262587e-02
-4.770654889975785296e-02
-1.500245102540367914e-02
1.802056481531810750e-02
5.063859798494418918e-02
8.213327201475073558e-02
1.118035308497526414e-01
1.390185384903417365e-01
1.631702063492662669e-01
1.837419833797154789e-01
2.003012162587878842e-01
2.124672039248221567e-01
2.200143812037445579e-01
2.227581126128382882e-01
2.206542977623232593e-01
2.137612979942284108e-01
2.022035710958960397e-01
1.862625856390548729e-01
1.662557510381587056e-01
1.426226342841543648e-01
1.158734999339508936e-01
8.656450763516601588e-02
5.533859261174220445e-02
2.285366117105220446e-02
-1.019430536909519264e-02
-4.309231373480296168e-02
-7.513871677636145552e-02
-1.056492335928568560e-01
-1.339548005013589671e-01
-1.594643566638157817e-01
-1.816168283989376131e-01
-1.999350708777728469e-01
-2.140430292684202818e-01
-2.236078235516431589e-01
-2.284579674300819541e-01
-2.284717036544729185e-01
-2.236534886980063308e-01
-2.141286937345051045e-01
-2.000746276722039085e-01
-1.818258226528833843e-01
-1.597563210436919179e-01
-1.343391561503908815e-01
-1.061227677375345541e-01
-7.568373426407778992e-02
-4.366646607948530823e-02
-1.072712466340439152e-02
2.246814710583730501e-02
5.524733632872176614e-02
8.695862596437539671e-02
1.169911308075299583e-01
1.447494675805403030e-01
1.697216594018323421e-01
1.914362839395528371e-01
2.094874796010831597e-01
2.235732448359432079e-01
2.334228149754148940e-01
2.388967572615542656e-01
2.399065403758805781e-01
2.364492539967665008e-01
2.286297638706132895e-01
2.165865402058951283e-01
2.005802405876421779e-01
1.809095147792793845e-01
1.579444321791911021e-01
1.321265828478121185e-01
1.039200714174611240e-01
7.385714510782517839e-02
4.248661150061207314e-02
1.038254327199840399e-02
-2.186088061008030492e-02
-5.365197920009762145e-02
-8.440736257937034304e-02
-1.135488893839966262e-01
-1.405418974658737274e-01
-1.648793873147027800e-01
-1.860945087688495869e-01
-2.038044548219112295e-01
-2.176506802519290185e-01
-2.273877777239294851e-01
-2.328275810463303341e-01
-2.338570467773376238e-01
-2.304874776785951485e-01
-2.227637742998807846e-01
-2.108683243489278270e-01
-1.950387701129363549e-01
-1.755884560381224535e-01
-1.529303131980458419e-01
-1.275018312901239903e-01
-9.982596254475638309e-02
-7.045240574885311413e-02
-3.995769134159878749e-02
-8.946434186147045331e-03
2.197881157074174641e-02
5.222800332316249183e-02
8.121669636614228804e-02
1.084061506002658715e-01
1.332957020001410975e-01
1.554180934836787431e-01
1.743980097128488560e-01
1.898846439496968685e-01
2.016259198983858525e-01
2.094351916021430782e-01
2.131797326392127767e-01
2.128438920708695947e-01
2.084402134111319749e-01
2.000911342836975693e-01
1.879769601046006045e-01
1.723324555083033394e-01
1.534864213454845694e-01
1.317888522731799072e-01
1.076678042386472328e-01
8.158380330631480326e-02
5.402682088073716693e-02
2.552727673523107199e-02
-3.379256510063308183e-03
-3.214604518015048984e-02
-6.022355128170771288e-02
-8.708187691064198099e-02
-1.122126203549613510e-01
-1.351257163759209956e-01
-1.553981674461216711e-01
-1.726275104286379702e-01
-1.864879768159317386e-01
-1.967205682673153488e-01
-2.031088489283287835e-01
-2.055572379754737888e-01
-2.040012741822750386e-01
-1.984861131553241342e-01
-1.891328116830042483e-01
-1.761133158169206347e-01
-1.597145115301480678e-01
-1.402487080838527855e-01
-1.181133125856079769e-01
-9.375243600812931122e-02
-6.763799843532355971e-02
-4.029181252562928639e-02
-1.224247379823313608e-02
1.597109328329339439e-02
4.380592149596782003e-02
7.073764268232760055e-02
9.626872386041690488e-02
1.199161754337211006e-01
1.412634604390438364e-01
1.599181836033843618e-01
1.755494536977215136e-01
1.878967345666089639e-01
1.967288375574557380e-01
2.019189282962564613e-01
2.033709486255804166e-01
2.010684439784979627e-01
1.950673956153333166e-01
1.854574160916474534e-01
1.724257419180187378e-01
1.561839377888083191e-01
1.370138024633154317e-01
1.152479579515204577e-01
9.124608394895288022e-02
6.543119341301983916e-02
3.823951918030334129e-02
1.014426142143536047e-02
-1.836021309892754694e-02
-4.677406723836460833e-02
-7.458747932567386107e-02
-1.012925992252572682e-01
-1.264044882738838138e-01
-1.494490995990802040e-01
-1.699866589833816111e-01
-1.876290093980916562e-01
-2.020084850565015688e-01
-2.128485401989593795e-01
-2.199067605333840658e-01
-2.230163807635686113e-01
-2.221010933056689340e-01
-2.171189794279609342e-01
-2.081533298715445846e-01
-1.953253119879476696e-01
-1.788438463633073849e-01
-1.590013229379438064e-01
-1.361228128145204885e-01
-1.106306798582262080e-01
-8.297103677060586879e-02
-5.364283308008993556e-02
-2.318496863339493397e-02
7.853078041134831100e-03
3.889723090647503878e-02
6.937084838243037788e-02
9.871117871175602576e-02
1.263639664962717957e-01
1.518004876923582658e-01
1.745429394035043769e-01
1.941304196821660444e-01
2.101866616989303549e-01
2.223762531916535501e-01
2.304294478303448857e-01
2.341797742481472044e-01
2.334926455144805124e-01
2.283683756545828170e-01
2.188592897228673617e-01
2.051085846952527270e-01
1.873730315066408914e-01
1.659450599167570095e-01
1.412462810941766955e-01
1.137379920459702654e-01
8.395192779501507718e-02
5.248985800857074169e-02
1.997079671192417138e-02
-1.293665627775955618e-02
-4.555356254663009419e-02
-7.720806480434717900e-02
-1.072339437579296478e-01
-1.349903901745591328e-01
-1.599045989515556765e-01
-1.814246665778887491e-01
-1.991055820405527865e-01
-2.125697017899794705e-01
-2.215111085361688714e-01
-2.257723403455360045e-01
-2.252338463179208716e-01
-2.199346451183090689e-01
-2.099931283045412267e-01
-1.956121473980069747e-01
-1.771331742818461064e-01
-1.549297361833656683e-01
-1.294944101992360763e-01
-1.013667663769004662e-01
-7.113152243259882046e-02
-3.943232626802983115e-02
-6.920171121275145443e-03
2.573788765842623116e-02
5.787112277874481570e-02
8.883630757909921627e-02
1.180188014135027663e-01
1.448287087173920351e-01
1.687619705161190753e-01
1.893398282175608460e-01
2.061775684535153697e-01
2.189682487621077978e-01
2.274552213929848521e-01
2.315174968131373801e-01
2.310680976084642790e-01
2.261411271493768971e-01
2.168503141752245456e-01
2.033664331053154639e-01
1.859828275500051142e-01
1.650202454720449685e-01
1.408962253248299545e-01
1.140787710611042560e-01
8.507254618874254826e-02
5.444489551898414742e-02
2.277346768682413439e-02
-9.337280014318879301e-03
-4.127229423889228199e-02
-7.242717582380599206e-02
-1.022121431295790334e-01
-1.300506478732740001e-01
-1.554273293199205930e-01
-1.778485612986937248e-01
-1.968894312594889895e-01
-2.121996846728516073e-01
-2.234659512808218618e-01
-2.305026736419205080e-01
-2.331612010074805286e-01
-2.314020185559827469e-01
-2.252799402532099649e-01
-2.148987701089219715e-01
-2.004987056624826791e-01
-1.823529835094830354e-01
-1.608336462886325591e-01
-1.363806189961131454e-01
-1.094685588210494165e-01
-8.064928314808054999e-02
-5.048897689380446585e-02
-1.958631096510759367e-02
1.144251664102118385e-02
4.198713397561192051e-02
7.144803546088082657e-02
9.923472795083805587e-02
1.248113653654138039e-01
1.476664366131554273e-01
1.673444573845004613e-01
1.834700017419022555e-01
1.956969506570032380e-01
2.038016265375776348e-01
2.076039050352468385e-01
2.070177248513961898e-01
2.020638524863446195e-01
1.928036764731590746e-01
1.794400229835039773e-01
1.622165969676880592e-01
1.414733438692742096e-01
1.176371571232650570e-01
9.116915613142440034e-02
6.262764066301582111e-02
3.259320629637842137e-02
1.691854635902587112e-03
-2.941784244353158606e-02
-6.007632053163781960e-02
-8.962333277032580314e-02
-1.174037827740534168e-01
-1.428141124319280419e-01
-1.652804731308095132e-01
-1.842830129474829215e-01
-1.994036968191585102e-01
-2.102554968328282092e-01
-2.165953988883606296e-01
-2.182462818826590989e-01
-2.151288429709417860e-01
-2.073097974629078410e-01
-1.948971617648165011e-01
-1.781623628933662051e-01
-1.574362160833057689e-01
-1.331393655060625902e-01
-1.057990808917332326e-01
-7.596953966498447286e-02
-4.429337875183501916e-02
-1.143788237879907882e-02
2.190829644463276188e-02
5.503632807032887708e-02
8.724648028388273802e-02
1.178715064962677500e-01
1.462557879481827805e-01
1.718152084796252810e-01
1.940194140466549033e-01
2.123885339735287481e-01
2.265678090289456326e-01
2.362351699649443970e-01
2.412048175540336126e-01
2.413724365339943723e-01
2.367095060653226501e-01
2.273360749323689589e-01
2.134078666496372068e-01
1.952209479409113824e-01
1.731379889481305945e-01
1.475888561513247765e-01
1.191081177443773648e-01
8.825250741178722325e-02
5.565524951032470996e-02
2.197785493679253743e-02
-1.210203882383153323e-02
-4.588681650881500096e-02
-7.868475315514791846e-02
-1.098362145901649600e-01
-1.386933826107434320e-01
-1.646713727487613410e-01
-1.872474318904595036e-01
-2.059395946701542968e-01
-2.203977396720630533e-01
-2.303086031358285712e-01
-2.354882171180096573e-01
-2.358541675591196984e-01
-2.313880788256566512e-01
-2.222353630161327254e-01
-2.085803630956371557e-01
-1.907387378276829693e-01
-1.691080864261299554e-01
-1.441371248789055926e-01
-1.163785327937264941e-01
-8.640456457252988776e-02
-5.484136291552228065e-02
-2.234144981667698232e-02
1.044221066557456112e-02
4.285622506522306085e-02
7.425529055379498367e-02
1.040444267305630777e-01
1.316493614526242362e-01
1.565533082080815819e-01
1.783140847680458885e-01
1.965192729428509866e-01
2.108737380325553801e-01
2.211207273931395934e-01
2.270940628871731537e-01
2.287210351061105262e-01
2.259676216698121576e-01
2.189248410370054354e-01
2.077175059192394313e-01
1.925592509973607092e-01
1.737366242895855839e-01
1.515710058600088783e-01
1.264754694698448090e-01
9.888404978672557522e-02
6.928954686679175690e-02
3.822307251319080612e-02
6.232318948706266903e-03
-2.610021686023483722e-02
-5.818752770506960270e-02
-8.944336237988639859e-02
-1.192821326264774384e-01
-1.471403780047884358e-01
-1.724926219071010181e-01
-1.948295887470009036e-01
-2.137233321758219562e-01
-2.287802155749390498e-01
-2.396790569310188190e-01
-2.461969639033050883e-01
-2.481463974779219983e-01
-2.454810028269971967e-01
-2.382021628533850799e-01
-2.264132341149683314e-01
-2.103275733998641317e-01
-1.901987166851604738e-01
-1.664130312499412789e-01
-1.393929947652841339e-01
-1.096380765877534857e-01
-7.771380602727420706e-02
-4.420563799492922830e-02
-9.751465259656616480e-03
2.500110955739161256e-02
5.940332516338284186e-02
9.280571461691997093e-02
1.245787461637460902e-01
1.541386100666139458e-01
1.809167302531193844e-01
2.044257612244379518e-01
2.242226571813134561e-01
2.399246582282606455e-01
2.512566341314718676e-01
2.579737517288622217e-01
2.599624117555606739e-01
2.571660089448051245e-01
2.496113891287481956e-01
2.374436841491298633e-01
2.208420026298643646e-01
2.001164274379360897e-01
1.756224338478622748e-01
1.477901644406195425e-01
1.171339505816315352e-01
8.419178026324615483e-02
4.957875915729825084e-02
1.393075040577352458e-02
-2.209065052981125377e-02
-5.780077272812278455e-02
-9.251921761424200530e-02
-1.255813632703012828e-01
-1.563298959033583846e-01
-1.841643552401417416e-01
-2.085249189635408618e-01
-2.288992178223251406e-01
-2.448869025541598465e-01
-2.561183290040696114e-01
-2.623619956705110501e-01
-2.634649320088936486e-01
-2.593586227760247831e-01
-2.501319597424367380e-01
-2.359132793533165462e-01
-2.169910565459742813e-01
-1.937260149840694390e-01
-1.665600961438920558e-01
-1.360554951531801615e-01
-1.028010623514678673e-01
-6.747898552317632692e-02
-3.080425609324238811e-02
6.484747051596864709e-03
4.362210061681007223e-02
7.984690938202371191e-02
1.144262960285333808e-01
1.466379537171655367e-01
1.758242812614201345e-01
2.013883558039979982e-01
2.227768424815360082e-01
2.395708308119358643e-01
2.513883931678268513e-01
2.579849800327383980e-01
2.592185409235853166e-01
2.550191845351382769e-01
2.454929853459456579e-01
2.307884985610524908e-01
2.112104758646405900e-01
1.871562798006157768e-01
1.590943556157198846e-01
1.276310649758645444e-01
9.340149676648593080e-02
5.713729538812248321e-02
1.961520047285372770e-02
-1.836599510605252394e-02
-5.597357865723118220e-02
-9.237754285498811502e-02
-1.267806999568806825e-01
-1.583996803443742107e-01
-1.865194999430875578e-01
-2.105094723312154470e-01
-2.297819571244339720e-01
-2.439180844233226342e-01
-2.525529030450390788e-01
-2.554743589097890899e-01
-2.526202663658038139e-01
-2.439993449286677052e-01
-2.298418338741810563e-01
-2.104359544092206658e-01
-1.862307014339487921e-01
-1.578004059322915265e-01
-1.257760427823593763e-01
-9.092993720213524145e-02
-5.406295020603246737e-02
-1.603490444389724101e-02
2.225805405844652474e-02
5.992816078297286131e-02
9.610609361982808130e-02
1.299365214659432277e-01
1.606591254208027397e-01
1.875610455208118199e-01
2.100195769551434499e-01
2.275582740003478655e-01
2.397469166179785893e-01
2.463565110106066269e-01
2.472379084256216553e-01
2.423780143992087799e-01
2.319389646289116147e-01
2.161367127263978949e-01
1.953854787760977152e-01
1.701621893968145449e-01
1.410539741466194652e-01
1.087608741169356769e-01
7.401346724991911263e-02
3.763396877411181313e-02
4.660332035996347932e-04
-3.663381497787693286e-02
-7.279859668079660673e-02
-1.071830836950261323e-01
-1.390034454330995317e-01
-1.674964676816868836e-01
-1.920155468376145702e-01
-2.119898295415856004e-01
-2.269326765437583715e-01
-2.365373233308665779e-01
-2.405441543087277756e-01
-2.388961495864729834e-01
-2.316408602095789970e-01
-2.189390310349626778e-01
-2.011429101726679991e-01
-1.786501183135574822e-01
-1.520310143794309232e-01
-1.219263736519436425e-01
-8.904720615525438254e-02
-5.419898914670730899e-02
-1.820104200767326194e-02
1.809189419589029083e-02
5.381541236558511770e-02
8.813789521734025079e-02
1.202628519706754051e-01
1.494274691461882076e-01
1.749901924181450352e-01
1.963460143969774363e-01
2.130262935493222598e-01
2.246785893816855839e-01
2.310228826622415799e-01
2.319801329751342012e-01
2.275217590375021026e-01
2.177914845099002683e-01
2.030497823317964634e-01
1.836323260892373521e-01
1.600408242123369518e-01
1.328123958970937879e-01
1.025973131571454866e-01
7.010653135605439401e-02
3.608115811959927005e-02
1.315098811748736593e-03
-3.339417881296049412e-02
-6.726217538979566146e-02
-9.951085690106892256e-02
-1.294115444499072676e-01
-1.563051451888225474e-01
-1.795647571149590893e-01
-1.987036650337122567e-01
-2.132848919144448296e-01
-2.229935408913225336e-01
-2.276513970500366746e-01
-2.271358588222936736e-01
-2.215175567930466605e-01
-2.109225696758625090e-01
-1.956128945625084936e-01
-1.759715796886410777e-01
-1.524307263613324803e-01
-1.255602495424789078e-01
-9.596157525608478567e-02
-6.430363819232441658e-02
-3.130311635900087652e-02
2.316979497949553379e-03
3.582092823015022021e-02
6.847603466738207134e-02
9.959661128280372644e-02
1.285237219321627711e-01
1.546502353497515303e-01
1.774653130308251336e-01
1.964873107001836594e-01
2.113688916848888710e-01
2.218233044870166482e-01
2.276541834785716922e-01
2.287981611595463205e-01
2.252302891504425753e-01
2.170775697457008324e-01
2.045216774413657346e-01
1.878342437190894942e-01
1.673921677132222674e-01
1.436032615070019780e-01
1.169801009422112847e-01
8.806510221429929286e-02
5.744782054989765879e-02
2.576169410627586476e-02
-6.353579510586682133e-03
-3.824346985873630644e-02
-6.925256372275001571e-02
-9.875517396760338795e-02
-1.261476808698306362e-01
-1.508598279164630185e-01
-1.724036177530368086e-01
-1.903147246801044634e-01
-2.042412048941287250e-01
-2.138974479342404811e-01
-2.190712266166634503e-01
-2.196923990651273861e-01
-2.157274650906827462e-01
-2.072962955941122787e-01
-1.945906686787311490e-01
-1.778853247192518916e-01
-1.575825189135899862e-01
-1.341142344888768823e-01
-1.080210941490606091e-01
-7.988368916604789149e-02
-5.031905055991169745e-02
-1.998875570432678828e-02
1.044422971175892889e-02
4.032282077381288410e-02
6.899374474998051787e-02
9.585164683263708296e-02
1.203378086319262796e-01
1.419287608713989401e-01
1.602143224159842672e-01
1.748160226027853370e-01
1.854707357847890092e-01
1.920046483432724105e-01
1.943018434304801811e-01
1.923925385449960501e-01
1.863417476774512638e-01
1.763344655628162894e-01
1.626295038793978687e-01
1.455356033790821957e-01
1.254618054433847274e-01
1.028374765329334722e-01
7.815642438495697120e-02
5.194373669895516882e-02
2.473917763966010375e-02
-2.894096125977768663e-03
-3.039314370032314416e-02
-5.720928571704675392e-02
-8.280007862357469106e-02
-1.066558722281621407e-01
-1.283089810488548532e-01
-1.473124351716944003e-01
-1.633029326305557305e-01
-1.759447520465499681e-01
-1.849793463601089871e-01
-1.902266791148601865e-01
-1.915446764762363530e-01
-1.889144632929853906e-01
-1.823509436478173706e-01
-1.719697735898066127e-01
-1.579681464510928335e-01
-1.405871276941762504e-01
-1.201824928304100482e-01
-9.713657869623443242e-02
-7.191154958009345066e-02
-4.502087550152829298e-02
-1.700243675375820440e-02
1.155516467186809559e-02
4.005612261128652096e-02
6.789933931393213329e-02
9.448135741649571484e-02
1.192228480066210849e-01
1.415853317650882792e-01
1.610485722029953437e-01
1.771840556072619421e-01
1.896014603712575242e-01
1.979923729550989164e-01
2.021579102384999660e-01
2.019388198853699079e-01
1.973325451574782230e-01
1.883888137869611790e-01
1.752697219532648454e-01
1.582568583774084103e-01
1.376752507227868572e-01
1.139916266502701281e-01
8.771051780677782683e-02
5.941388095082551779e-02
2.974915557557376855e-02
-6.206372963409451105e-04
-3.099324481248177943e-02
-6.066130754866579100e-02
-8.894161486533352923e-02
-1.151673333791427972e-01
-1.387115873903987384e-01
-1.590369984354999544e-01
-1.756333808297729226e-01
-1.881249428340232843e-01
-1.962080641015458982e-01
-1.996701265133793979e-01
-1.984585481853520239e-01
-1.925629413536263934e-01
-1.821474841425581304e-01
-1.674507328541398887e-01
-1.488044752675392046e-01
-1.266707174703215755e-01
-1.015417553242786292e-01
-7.401603101878247160e-02
-4.472717904889388085e-02
-1.433847967931112938e-02
1.645384394822788782e-02
4.695755139034561015e-02
7.650299227691005621e-02
1.044294133917516298e-01
1.301375531003731156e-01
1.530825363681428963e-01
1.727613762800437047e-01
1.887931263877583865e-01
2.008294591500670856e-01
2.086453646247569960e-01
2.121025978120967825e-01
2.111259493580901203e-01
2.057852088126550516e-01
1.961841625939726441e-01
1.825507467916247517e-01
1.651822665179859262e-01
1.444302816228644759e-01
1.207456414955385415e-01
9.459938842330317676e-02
6.652977554782291136e-02
3.710458008767076460e-02
6.906598178216191708e-03
-2.345954971403116374e-02
-5.339130500148808744e-02
-8.230675021253547330e-02
-1.096323587691059587e-01
-1.348379341691426647e-01
-1.574436401052122791e-01
-1.769969890621700959e-01
-1.931476904127572836e-01
-2.055768018709657752e-01
-2.140600879691647029e-01
-2.184608600975662673e-01
-2.186876011923327701e-01
-2.147830975888694038e-01
-2.068244639208682012e-01
-1.949928996407012394e-01
-1.795461240667491354e-01
-1.607830777314995241e-01
-1.391007460877030089e-01
-1.149168252619397756e-01
-8.870708531887053216e-02
-6.098111291718002341e-02
-3.225984734411947719e-02
-3.085485134471460666e-03
2.599962131732606874e-02
5.447038464780518119e-02
8.181010944942457286e-02
1.075320991956023597e-01
1.311955745826178243e-01
1.523771736158117673e-01
1.707309777764201841e-01
1.859403901914328805e-01
1.977497092708893067e-01
2.059772026968407777e-01
2.104683851100408176e-01
2.111687169144374210e-01
2.080543986552200464e-01
2.011739642318710608e-01
1.906458409970608336e-01
1.766183792479629200e-01
1.593312172116293501e-01
1.390474822234153973e-01
1.160938707240159740e-01
9.084593298171977915e-02
6.370261268508396746e-02
3.512062357706316473e-02
5.568804104273170075e-03
-2.445369556811292922e-02
-5.442928321825826754e-02
-8.383832019565437554e-02
-1.121575296634602925e-01
-1.388668925391974840e-01
-1.634758884730557471e-01
-1.855086818782935576e-01
-2.045272561139014067e-01
-2.201541162236455851e-01
-2.320341525026107243e-01
-2.399144192674642073e-01
-2.435823230756171964e-01
-2.429077826844850407e-01
-2.378654944916997194e-01
-2.284673384840149313e-01
-2.148655962080418258e-01
-1.972570493170175965e-01
-1.759323474019357791e-01
-1.512769512829243990e-01
-1.237092874110507223e-01
-9.374984593991481097e-02
-6.194463886313976431e-02
-2.888592129954232340e-02
4.796919385446754558e-03
3.847141156369046633e-02
7.149950434376495245e-02
1.032457831293204231e-01
1.331157237153719197e-01
1.605410571791508201e-01
1.849947390767240352e-01
2.060368632908085307e-01
2.232524296348993020e-01
2.363419178471245774e-01
2.450646976709518199e-01
2.492543604272635938e-01
2.488683931461738996e-01
2.438973011788831413e-01
2.344662131084580270e-01
2.207548669114057782e-01
2.030190490444168383e-01
1.816154532608645344e-01
1.569276596681981883e-01
1.294360050590809552e-01
9.965189355676042082e-02
6.813033122055135726e-02
3.547235743692494364e-02
2.286841645401230250e-03
-3.079634186510250143e-02
-6.314351842305580831e-02
-9.413983336424139314e-02
-1.231862558786937373e-01
-1.497080218314808808e-01
-1.731988092415591152e-01
-1.931723146169016803e-01
-2.092366718804903047e-01
-2.210631834852436195e-01
-2.283842551682540578e-01
-2.310665737275333642e-01
-2.290111064038817257e-01
-2.222618828512683553e-01
-2.109389928210755327e-01
-1.952398705877969876e-01
-1.754967553975028682e-01
-1.520732327780995874e-01
-1.254513876458008548e-01
-9.616308073908007292e-02
-6.478722849670021100e-02
-3.196794992186274831e-02
1.641183579229573645e-03
3.536287284881173276e-02
6.851304766976622218e-02
1.004297244920039911e-01
1.304753044697391784e-01
1.580346328166572223e-01
1.825757754135960698e-01
2.035923605433136996e-01
2.206723528610823326e-01
2.334865522460194964e-01
2.417572245039377177e-01
2.453538315447778562e-01
2.441837968173368179e-01
2.382868973199053775e-01
2.277953489084947880e-01
2.129036007149455734e-01
1.939478993263335505e-01
1.712964644764894406e-01
1.454274400368567866e-01
1.168798688508096290e-01
8.623278629624178682e-02
5.413770790119334236e-02
2.125757394970721401e-02
-1.171900201503486838e-02
-4.409269105230501085e-02
-7.518273340348596845e-02
-1.043354359648622776e-01
-1.309157279040779609e-01
-1.543774044303599657e-01
-1.742071167659709485e-01
-1.899838335328905004e-01
-2.013930398004332711e-01
-2.081669702620220219e-01
-2.102066606270817650e-01
-2.074633816287967947e-01
-2.000195147657903849e-01
-1.880777736022104518e-01
-1.718937813675348036e-01
-1.518772727838348380e-01
-1.284753415957274325e-01
-1.022287392142452733e-01
-7.374654073959016620e-02
-4.366146056960587551e-02
-1.266067743123647227e-02
1.856090624337388556e-02
4.931360734228340537e-02
7.891101022299465417e-02
1.066972919488509836e-01
1.320755737749424175e-01
1.544697362416478370e-01
1.734086591932768595e-01
1.884701614872024145e-01
1.993121306633292844e-01
2.057139224871963323e-01
2.074918252244995487e-01
2.046139549479134567e-01
1.971048774453887931e-01
1.850866440379560773e-01
1.687988638194862223e-01
1.485177147998096858e-01
1.246479625237821576e-01
9.763253400633836732e-02
6.798275906056784612e-02
3.627558991657928861e-02
3.104654139945761671e-03
-3.088948644146412292e-02
-6.505669044975140314e-02
-9.875009961496247768e-02
-1.313254018771306264e-01
-1.621586391363711022e-01
-1.906783710229659201e-01
-2.163295759690899711e-01
-2.386426769191555275e-01
-2.572000835449243517e-01
-2.716436270454193891e-01
-2.817338198112110392e-01
-2.872624186201210295e-01
-2.881549787223437464e-01
-2.844017652133856711e-01
-2.760699958023773992e-01
-2.633488067343130457e-01
-2.464579467525798984e-01
-2.257352385803077788e-01
-2.015637793236942921e-01
-1.743835589200924130e-01
-1.447062607127632683e-01
-1.130596879139722510e-01
-8.002446628309006771e-02
-4.619683820048950396e-02
-1.218475698165910615e-02
2.139208109544671332e-02
5.391844578817822642e-02
8.479662783767616396e-02
1.134352458627609361e-01
1.392819894216942300e-01
1.618157380000304624e-01
1.805449125069311656e-01
1.950558798382337478e-01
2.049566598600411904e-01
2.099517106140407763e-01
2.098067845356690886e-01
2.043515479499476983e-01
1.935490785743464448e-01
1.773983256695962352e-01
1.560558358735631979e-01
1.297579424959062755e-01
9.884114075182892645e-02
6.380791563409574096e-02
2.520540779440454127e-02
-1.623681159497805671e-02
-5.971578025853556404e-02
-1.043292527525562646e-01
-1.490441918426491930e-01
-1.927979726850602704e-01
-2.344284870629320672e-01
-2.727435314107828912e-01
-3.065468706741389937e-01
-3.346380499812962039e-01
-3.558471998941774572e-01
-3.691184273245550207e-01
-3.734334808915331649e-01
-3.679647729925822897e-01
-3.520437720279359639e-01
-3.251313469440058057e-01
-2.870440205385244581e-01
-2.376930885648957936e-01
-1.773708648733949567e-01
-1.066225207056462065e-01
-2.619902984261585077e-02
6.270124859472664403e-02
1.587754299849404305e-01
2.603292765702783784e-01
3.654626188482013593e-01
4.721187515334106521e-01
5.779708840729400610e-01
6.806499689674108122e-01
7.776865326067853301e-01
8.665720644340475509e-01
9.448852286616684637e-01
1.010325161786077786e+00
1.060680359671903661e+00
1.094148104492597584e+00
1.109071348345216812e+00
1.104238305000510012e+00
1.078925138933014338e+00
1.032639699623052465e+00
9.656955308769870072e-01
8.786376485501359301e-01
7.726522929854802157e-01
6.494846807909812059e-01
5.111336327314439654e-01
3.603029272897740887e-01
1.998573739259312254e-01
3.303733803149955239e-02
-1.366569306548449103e-01
-3.056896564717342946e-01
-4.704543395231981506e-01
-6.273663100606979848e-01
-7.731394682791223882e-01
-9.046542698675380523e-01
-1.019129393821445184e+00
-1.114398629668586382e+00
-1.188483847873893273e+00
-1.240266849051544717e+00
-1.269008834613041037e+00
-1.274525372405866275e+00
-1.257430309210832320e+00
-1.218551862479773762e+00
-1.159531303841498273e+00
-1.082292993462672159e+00
-9.891370126378685734e-01
-8.827937444464293293e-01
-7.660719833565673431e-01
-6.420051551431147363e-01
-5.136797860168584862e-01
-3.840951301030308684e-01
-2.561708773348538859e-01
-1.326983715702491629e-01
-1.607318376958725981e-02
9.142234637376037143e-02
1.879888483082881867e-01
2.721771752380474640e-01
3.428021400129225849e-01
3.993052084082412967e-01
4.412766893190979700e-01
4.688507935912749613e-01
4.824749378264891475e-01
4.828290446951130077e-01
4.710311700579498106e-01
4.482865768378103688e-01
4.160802257746461508e-01
3.760237292199467563e-01
3.297842666282537749e-01
2.791120419496160854e-01
2.257496172110061705e-01
1.713577302552907744e-01
1.175640643226282256e-01
6.585118206466950008e-02
1.752782786186263264e-02
-2.617886789323237151e-02
-6.434969476832824720e-02
-9.616030535852876371e-02
-1.210360196082028716e-01
-1.386399793069704178e-01
-1.487409797423386859e-01
-1.514269918470360632e-01
-1.468668321759985518e-01
-1.354442512085253791e-01
-1.177058136714827508e-01
-9.427083264848595823e-02
-6.593509740503911143e-02
-3.352978021323921309e-02
2.035493119041636989e-03
3.980410281948787432e-02
7.881975058311477267e-02
1.181280588127362752e-01
1.567844892835613957e-01
1.939197537125222914e-01
2.287012179232258413e-01
2.603723235559259330e-01
2.882964312214432168e-01
3.118758997404234568e-01
3.306815880546682407e-01
3.443494933100129662e-01
3.526321616204812770e-01
3.554280165321802021e-01
3.526828288591167260e-01
3.445154962133863963e-01
3.310987310961508445e-01
3.127124006575445758e-01
2.897430668399963993e-01
2.626143153786957285e-01
2.318628845664928440e-01
1.980538278319159406e-01
1.618090729779109171e-01
1.237955740159786266e-01
8.469025020587478414e-02
4.519357397600365367e-02
6.008005171110220033e-03
-3.218573598536161873e-02
-6.872075922884912647e-02
-1.029627352421838005e-01
-1.343453697569287897e-01
-1.623237984670904410e-01
-1.864594096564808900e-01
-2.063671460395113955e-01
-2.217396441150693009e-01
-2.323974670540583931e-01
-2.381981088712286643e-01
-2.391549218425808032e-01
-2.353438211826220927e-01
-2.269374956610978877e-01
-2.142352365349293186e-01
-1.975721005184735146e-01
-1.774131528274432434e-01
-1.542647344635988960e-01
-1.286944016241764466e-01
-1.013334229334686976e-01
-7.282461386638094947e-02
-4.384226917556166558e-02
-1.506664265661927793e-02
1.284316574287003299e-02
3.924559377358549650e-02
6.352751400590717079e-02
8.515486027733742969e-02
1.036163441384160278e-01
1.185062747973650854e-01
1.294885841431764328e-01
1.362929847511289427e-01
1.387915839756553860e-01
1.368922893345705383e-01
1.306500830466199581e-01
1.201970135091697256e-01
1.057432733159794358e-01
8.763330288671083990e-02
6.624277846086645827e-02
4.206518247898344276e-02
1.564277536208669162e-02
-1.243507132112781077e-02
-4.151462545212386557e-02
-7.093310017327267292e-02
-1.000055626253982810e-01
-1.280411191220304501e-01
-1.543755318466659976e-01
-1.783735719223010774e-01
-1.994267595944105853e-01
-2.170243278642055296e-01
-2.306853605524954443e-01
-2.400412520468730437e-01
-2.448206162450271561e-01
-2.448132083802405656e-01
-2.399812621073285634e-01
-2.303308586279410042e-01
-2.160188029940610654e-01
-1.973056539758567540e-01
-1.745183485054927486e-01
-1.481326725855848236e-01
-1.186562834818254419e-01
-8.669782600970810105e-02
-5.292097720544841621e-02
-1.801568361020078335e-02
1.728143867490294916e-02
5.223075139088306784e-02
8.610588392668316882e-02
1.181870171750103449e-01
1.477990792221155480e-01
1.743310986652844008e-01
1.972009193119541592e-01
2.159528825010758046e-01
2.301767997671103627e-01
2.395718907785244767e-01
2.439618120191769934e-01
2.432206060992041508e-01
2.373997504404635750e-01
2.266024915703684917e-01
2.110610656164119137e-01
1.911244123222650693e-01
1.671914230495294973e-01
1.398041598587946854e-01
1.095387646522418823e-01
7.705444070816103164e-02
4.307010780727749122e-02
8.322276890528224058e-03
-2.641301559899722484e-02
-6.035625944574740664e-02
-9.275160990396980054e-02
-1.228570678843399211e-01
-1.499761165271684682e-01
-1.734983715957592043e-01
-1.928427720130621026e-01
-2.075728890417072314e-01
-2.173187667702249914e-01
-2.218199216307328303e-01
-2.209795704284649442e-01
-2.147505345494888918e-01
-2.032874235047963385e-01
-1.868186711477022310e-01
-1.656960782329655046e-01
-1.404180985511056523e-01
-1.115249187494282701e-01
-7.969872572972813707e-02
-4.566230414498240187e-02
-1.019304643077567629e-02
2.588001398167294465e-02
6.172727291261104199e-02
9.652391584275710201e-02
1.294507025129810751e-01
1.597546314560857605e-01
1.867325982266927475e-01
2.097374875772501368e-01
2.282617497736319778e-01
2.418355480181468287e-01
2.501539609762160610e-01
2.530108555152044691e-01
2.502963832034575953e-01
2.420898277943626664e-01
2.285166764305590625e-01
2.098872001522583131e-01
1.865995264106835583e-01
1.591425088712158376e-01
1.281465868478638415e-01
9.427259189986381127e-02
5.828728393580884237e-02
2.099669605487619606e-02
-1.676935021145087301e-02
-5.415151794243289185e-02
-9.029770719901852871e-02
-1.243967260493764604e-01
-1.556526083263312099e-01
-1.833530722812987124e-01
-2.068685718516809491e-01
-2.256238609205174495e-01
-2.392194669998237710e-01
-2.473049826509359228e-01
-2.497006545797870736e-01
-2.463609570581837271e-01
-2.373234646236419554e-01
-2.228384231836590956e-01
-2.032062479270040356e-01
-1.788933158603831508e-01
-1.504696936624712045e-01
-1.185669976982461904e-01
-8.394204636823499044e-02
-4.737404930883615251e-02
-9.697298608819959753e-03
2.822707358153131452e-02
6.554909574391576399e-02
1.014374301949625412e-01
1.350773931795092864e-01
1.657468165984448127e-01
1.927613780925101494e-01
2.155318202943918848e-01
2.335924282145551700e-01
2.465250587571792273e-01
2.540978861111233833e-01
2.561398987083145506e-01
2.526182563426959682e-01
2.436429088657159348e-01
2.293794003641300705e-01
2.101717775881399852e-01
1.864114454235128449e-01
1.586011495354369139e-01
1.273351537048812432e-01
9.324176355367574942e-02
5.703733500852781191e-02
1.945577256711139569e-02
-1.874316884938043160e-02
-5.678296293771900594e-02
-9.390041035300678018e-02
-1.293621064634118412e-01
-1.624480205428766588e-01
-1.925199833774509095e-01
-2.189827503003167752e-01
-2.413116774604948667e-01
-2.591029163895210985e-01
-2.719889874075189784e-01
-2.797622742305341248e-01
-2.822818395723341034e-01
-2.795124187729247645e-01
-2.715622442614940013e-01
-2.585816563004686985e-01
-2.408799066167004455e-01
-2.188189700387538350e-01
-1.928470077960625639e-01
-1.635052801384133114e-01
-1.313589982955066793e-01
-9.704740339601539145e-02
-6.122820507382666089e-02
-2.457219224906273536e-02
1.223862001641251585e-02
4.853407928629854817e-02
8.368014591238287503e-02
1.170547240043564585e-01
1.481023110459822600e-01
1.763129809134416082e-01
2.012214258902438324e-01
2.224627469994888695e-01
2.396976943478694722e-01
2.526937807483964349e-01
2.612766149815990424e-01
2.653314494567808879e-01
2.648499267610606722e-01
2.598502093369465804e-01
2.504566144591069410e-01
2.368394302300305121e-01
2.192270162629554875e-01
1.979301310573440276e-01
1.732812128489658043e-01
1.456935698322023853e-01
1.156083990682361673e-01
8.350788445801704540e-02
4.992048748673205694e-02
1.538571095542273781e-02
-1.952242015889549265e-02
-5.422109566428900962e-02
-8.812591407968284329e-02
-1.206510503277611335e-01
-1.512222158967579944e-01
-1.793010946994124666e-01
-2.043611757219263581e-01
-2.259407339891632560e-01
-2.436243961354866983e-01
-2.570440819244455000e-01
-2.659432167481430298e-01
-2.700948858102947270e-01
-2.694008575793489513e-01
-2.638361199942069746e-01
-2.534501620675184697e-01
-2.384314452985805133e-01
-2.190019925417709956e-01
-1.955160488196527879e-01
-1.683874724663363409e-01
-1.380903866393561330e-01
-1.051882326218187558e-01
-7.026153695457448833e-02
-3.394517059214852139e-02
3.107315921600850572e-03
4.024295961160628821e-02
7.680951167111338407e-02
1.121672085950766729e-01
1.457291038620125434e-01
1.769255709414681021e-01
2.052551239675901584e-01
2.302802656378641899e-01
2.516006732521907097e-01
2.689292920554393618e-01
2.820090119066271939e-01
2.906807967547635485e-01
2.948588733889909719e-01
2.945026208728038775e-01
2.896811330712063537e-01
2.804891078727966836e-01
2.671093963766590917e-01
2.497771817944758332e-01
2.287664383603091878e-01
2.044264657978696054e-01
1.771229681462249683e-01
1.472798506325022627e-01
1.153483971209191550e-01
8.180266679224404425e-02
4.715196237758428888e-02
1.191161429029041763e-02
-2.338569141778590321e-02
-5.820115655549451539e-02
-9.200162156718771911e-02
-1.242608997798977377e-01
-1.544620703657719751e-01
-1.821276761262931032e-01
-2.067936555720408798e-01
-2.280489170960846579e-01
-2.455343651519514836e-01
-2.589235362873347768e-01
-2.679945061591118005e-01
-2.725545623858547373e-01
-2.725146965586295877e-01
-2.678668921630720234e-01
-2.586562620400156831e-01
-2.450632543308923772e-01
-2.273009478018561680e-01
-2.056968175114146646e-01
-1.806493327711962138e-01
-1.526049062664700529e-01
-1.221070873500504916e-01
-8.971854857322369980e-02
-5.605943648295941273e-02
-2.177793426253415987e-02
1.247231033219797780e-02
4.602904512422156813e-02
7.823612100772336930e-02
1.084797747904548970e-01
1.361638147575749969e-01
1.607487072701996311e-01
1.817680345865380076e-01
1.987868678860298388e-01
2.114955644482545694e-01
2.196255723277147354e-01
2.230120507023780618e-01
2.215965739967682424e-01
2.153673230854398213e-01
2.044633359949603602e-01
1.890644956828957390e-01
1.694617720817959139e-01
1.460368046793849572e-01
1.192144743357115289e-01
8.953284822389839803e-02
5.755524096996467165e-02
2.391116806955473351e-02
-1.072697692219115595e-02
-4.567416749272723564e-02
-8.021950266449451306e-02
-1.136517251901718595e-01
-1.452857025137888058e-01
-1.744501816254384607e-01
-2.005181904280259886e-01
-2.229381479692040813e-01
-2.411859968232068496e-01
-2.548683344678419616e-01
-2.636463032750082647e-01
-2.672854163571649622e-01
-2.656919432470052911e-01
-2.588194546132251972e-01
-2.468063203355397306e-01
-2.298525914439979445e-01
-2.082790278319412991e-01
-1.825358553126714689e-01
-1.531153493177308533e-01
-1.206454186652923255e-01
-8.578958895670218965e-02
-4.927098477414304512e-02
-1.186356568340629636e-02
2.565448772611689243e-02
6.249740070324971697e-02
9.788221893324022815e-02
1.310781807870178284e-01
1.613900626314190845e-01
1.881740704304553091e-01
2.109020304717796890e-01
2.290783380577554595e-01
2.423581012163271708e-01
2.504779761672928373e-01
2.532697612170995427e-01
2.507339323054562641e-01
2.429147239323317109e-01
2.300360591087269313e-01
2.123990205920271990e-01
1.903980010993535643e-01
1.645588324675912872e-01
1.354423368807537997e-01
1.037399300968928628e-01
7.018543536922550174e-02
3.551269830756353940e-02
4.555645218218273840e-04
