BVP Signal
-8.248797755033010493e-04
1.485997515801043556e-02
3.039900104544471238e-02
4.571416139973880771e-02
6.072741973383185415e-02
7.536073918581094599e-02
8.952365672963363830e-02
1.030805667981555956e-01
1.158839793591038836e-01
1.277560889116944043e-01
1.384923564321303702e-01
1.478794617747573592e-01
1.556781196646904730e-01
1.616438955840068803e-01
1.655356176489699571e-01
1.671147680928801171e-01
1.661565206462901623e-01
1.624769355708479135e-01
1.559042419229317855e-01
1.463311571311556314e-01
1.336984974076609878e-01
1.179866873486452583e-01
9.928133657534254919e-02
7.769393442190075660e-02
5.343761698209290034e-02
2.679518787282655912e-02
-1.906052903894284167e-03
-3.223121299164150022e-02
-6.372269966456896306e-02
-9.585332904695757772e-02
-1.280521550783334239e-01
-1.597348991137469421e-01
-1.902884669065876833e-01
-2.190983797714023407e-01
-2.455762456505603542e-01
-2.691489499514728712e-01
-2.892830720954675527e-01
-3.055274375531071840e-01
-3.174549542718411166e-01
-3.247624790261700589e-01
-3.272129828137466667e-01
-3.246483056579700932e-01
-3.170594139567758374e-01
-3.044730148077221532e-01
-2.870690784462593959e-01
-2.651024595113187221e-01
-2.388996699621384057e-01
-2.089114595305260891e-01
-1.756131507673289183e-01
-1.395678336949696674e-01
-1.013776512817093911e-01
-6.166376238685951361e-02
-2.107749249097335548e-02
1.973042992208208501e-02
6.013098653350668066e-02
9.950467397727030816e-02
1.372716111647541704e-01
1.729100971446685397e-01
2.059191308830433664e-01
2.358930540228428852e-01
2.624628143765008192e-01
2.853247507355264334e-01
3.042633719029292361e-01
3.190879554845907351e-01
3.297075281936616697e-01
3.360660728691476362e-01
3.381617794775965136e-01
3.360600303864353378e-01
3.298438017739982464e-01
3.196615430064072561e-01
3.056828133764284972e-01
2.881113605967571267e-01
2.671899027140411942e-01
2.431728786144211618e-01
2.163572668053519443e-01
1.870529227080163226e-01
1.555972041285322849e-01
1.223562985949480098e-01
8.770670307926180242e-02
5.206091865186527473e-02
1.584143938346306568e-02
-2.050903542721596584e-02
-5.652832870174252788e-02
-9.175079270849631485e-02
-1.257009900177969708e-01
-1.579020205053263681e-01
-1.878914317738761552e-01
-2.152195816902313097e-01
-2.394541725103001839e-01
-2.602190355377470565e-01
-2.771542683892110892e-01
-2.899755543008059044e-01
-2.984601998461924310e-01
-3.024286636497158787e-01
-3.018263331610299138e-01
-2.966299737419884619e-01
-2.869295336554540388e-01
-2.728997900337467031e-01
-2.547623977822426888e-01
-2.328623261763745345e-01
-2.075715930655240848e-01
-1.793388142155223908e-01
-1.486653389800965119e-01
-1.160694458896926323e-01
-8.210927031935248699e-02
-4.734825708913693171e-02
-1.234037761769793407e-02
2.236647360704983878e-02
5.624720462255913822e-02
8.882872085759595249e-02
1.196524556628446867e-01
1.483332430828994131e-01
1.745286817289944115e-01
1.979377066735774349e-01
2.183446870046572286e-01
2.355532020395339210e-01
2.494433864759960651e-01
2.599362800742757162e-01
2.669850671917839979e-01
2.706037919706660300e-01
2.708187992756141416e-01
2.677004688565621793e-01
2.613407711190902649e-01
2.518488761054735181e-01
2.393638901388635276e-01
2.240316104824930932e-01
2.060245974240946243e-01
1.855275482203578297e-01
1.627418068852505284e-01
1.378954224551350305e-01
1.112242138483231502e-01
8.299936576486099948e-02
5.350685357247392249e-02
2.305625909307982419e-02
-8.008026613360941584e-03
-3.933263480241237786e-02
-7.052728655497138288e-02
-1.011877358012217842e-01
-1.308962675427009503e-01
-1.592169241528957890e-01
-1.857138103722328626e-01
-2.099584106045894460e-01
-2.315255553957067669e-01
-2.500205985661323460e-01
-2.650869434940397729e-01
-2.763887070403188151e-01
-2.836800181932198628e-01
-2.867453975964876500e-01
-2.854528089833281435e-01
-2.797658361420269912e-01
-2.696847486168770791e-01
-2.553499671288024797e-01
-2.369446191348117403e-01
-2.147445710319595413e-01
-1.891234144821841434e-01
-1.604846101808155567e-01
-1.293336746696673312e-01
-9.620380702162642517e-02
-6.166864508903843745e-02
-2.634101423396920105e-02
9.164112668402848993e-03
4.422978270557524627e-02
7.824053685997259255e-02
1.106176504089822488e-01
1.408151370446021344e-01
1.683143519284517331e-01
1.926841692742406187e-01
2.135171213744189722e-01
2.304946834793117350e-01
2.433712197369232721e-01
2.519432443101383701e-01
2.561288235060448226e-01
2.558758257739915942e-01
2.512305485649202197e-01
2.423134485260601267e-01
2.292852714952366977e-01
2.124132195687411240e-01
1.919886178337364968e-01
1.683778582965883008e-01
1.419993087978188018e-01
1.132965874807452256e-01
8.277439250049384301e-02
5.094931488218659710e-02
1.836537199448792790e-02
-1.441601398361525010e-02
-4.683484910248469912e-02
-7.833506788794439291e-02
-1.083648640248530276e-01
-1.364100743084099010e-01
-1.619786714567268138e-01
-1.846144456138175682e-01
-2.039360024934339100e-01
-2.195826531553257133e-01
-2.312959497385115304e-01
-2.388725430759589541e-01
-2.421728971735706559e-01
-2.411794053387930348e-01
-2.359037975842929735e-01
-2.264841956151110169e-01
-2.131211481809611175e-01
-1.960754007347090822e-01
-1.757131816859746065e-01
-1.524217963076381355e-01
-1.266645145246117488e-01
-9.893878394815236454e-02
-6.975876031712507919e-02
-3.966537996237534669e-02
-9.199101918969998515e-03
2.111901357065712470e-02
5.077647820358513475e-02
7.929611800401495381e-02
1.062531674445666152e-01
1.312411936210722829e-01
1.539384556894475287e-01
1.740560230814101328e-01
1.913614744638862664e-01
2.056993865610505789e-01
2.169351456970455283e-01
2.250173857468115712e-01
2.299241283112128387e-01
2.316755416436559467e-01
2.303445854923014680e-01
2.260168694832694891e-01
2.188240083461946428e-01
2.089124772239724925e-01
1.964490616012467550e-01
1.816239411486137989e-01
1.646332732430714207e-01
1.456942161081781206e-01
1.250302875519782031e-01
1.028771220533129249e-01
7.948318924809208430e-02
5.510168173698751226e-02
3.000251268243898928e-02
4.460371413360753046e-03
-2.123864270849704083e-02
-4.679731521948118922e-02
-7.191510884121229963e-02
-9.628089987874521860e-02
-1.195811749330523421e-01
-1.415035133037656490e-01
-1.617364741607995593e-01
-1.799749720095956684e-01
-1.959351647020687315e-01
-2.093398844792530578e-01
-2.199487532515413957e-01
-2.275517045251011505e-01
-2.319629913254828146e-01
-2.330684410186719679e-01
-2.307726106918337461e-01
-2.250544938314119614e-01
-2.159494692830505880e-01
-2.035289818126317374e-01
-1.879609633954955894e-01
-1.694359164597938339e-01
-1.482206821398572572e-01
-1.246352421234130092e-01
-9.902702774898175520e-02
-7.181038698088670902e-02
-4.341288907386117724e-02
-1.429381890438607972e-02
1.506729735441528217e-02
4.419110051519414828e-02
7.259937701629587403e-02
9.981738588229854825e-02
1.254042322872193638e-01
1.489390171865187518e-01
1.700313407883564665e-01
1.883548279308102646e-01
2.036000353817673525e-01
2.155379182493849521e-01
2.239829576287410418e-01
2.287963299842794007e-01
2.299288535621705210e-01
2.273525816848913916e-01
2.211298008852869701e-01
2.113676259091138432e-01
1.982182289617683280e-01
1.819131788925303916e-01
1.627015092832082288e-01
1.409012430748974309e-01
1.168617998852120726e-01
9.096058761230292611e-02
6.362030684187652829e-02
3.527161660872231430e-02
6.370605294213640968e-03
-2.261622469995430706e-02
-5.122337593779667519e-02
-7.898689879103339140e-02
-1.054481180405130586e-01
-1.301795121422670287e-01
-1.527660680841983476e-01
-1.728302035867335107e-01
-1.900456298489043849e-01
-2.041056848215542785e-01
-2.147909478070207101e-01
-2.219135872108329577e-01
-2.253528823091207056e-01
-2.250726313843000037e-01
-2.210638238555429347e-01
-2.134258348841896191e-01
-2.022937790906246258e-01
-1.878672622257265279e-01
-1.704205672745937594e-01
-1.502479998869976907e-01
-1.277153960656682574e-01
-1.032098065533791215e-01
-7.714531840233299076e-02
-4.996480809997402850e-02
-2.211367367475949863e-02
5.958083273420622383e-03
3.380012376449520461e-02
6.098075419299797684e-02
8.708653987168687993e-02
1.117177923662568406e-01
1.345231322570418220e-01
1.551648613099719520e-01
1.733522062848907863e-01
1.888366524805095148e-01
2.013912617523742898e-01
2.108569434831520373e-01
2.170922032003816116e-01
2.200103012748241549e-01
2.195698416688041110e-01
2.157534457437666475e-01
2.086133805045669587e-01
1.982191918423162891e-01
1.846983234311581623e-01
1.682223044354910491e-01
1.489885287068480335e-01
1.272637002287898278e-01
1.033307442152978095e-01
7.752698032194119127e-02
5.022779390772721952e-02
2.182837877327736820e-02
-7.227515760494823693e-03
-3.648664544973681534e-02
-6.547427373253630889e-02
-9.370188748271753021e-02
-1.206847100286981694e-01
-1.459471944693203627e-01
-1.690193767480975828e-01
-1.894752674893314670e-01
-2.069149895590829957e-01
-2.209779690549959763e-01
-2.313865795339106468e-01
-2.378854732386444237e-01
-2.403266918802889340e-01
-2.386207258781792018e-01
-2.327409063146027579e-01
-2.227818495214516914e-01
-2.088662468164507457e-01
-1.912334798037015060e-01
-1.701811337615937170e-01
-1.460581537457933676e-01
-1.193043780726685266e-01
-9.037706579043369715e-02
-5.979329668775425211e-02
-2.809732275101552157e-02
4.156133762698813183e-03
3.639544088046503534e-02
6.805087502478217309e-02
9.857608587078375839e-02
1.274350117516903635e-01
1.541271255679651231e-01
1.782051919367800275e-01
1.992410191668414210e-01
2.168956683073507419e-01
2.308652718191296360e-01
2.409118333035588089e-01
2.468880688324835981e-01
2.486740584439292578e-01
2.462643178226483209e-01
2.396945383831668164e-01
2.290714738670941997e-01
2.145918361872268254e-01
1.964778832411096243e-01
1.750507215578677722e-01
1.506639972649388981e-01
1.237234949244886556e-01
9.469568838259244392e-02
6.406138745814168867e-02
3.235096431492300029e-02
1.092138235296857829e-04
-3.210955707579077334e-02
-6.374085991141116569e-02
-9.422623930773453560e-02
-1.230341668497827168e-01
-1.496422546471226633e-01
-1.735773779633189018e-01
-1.944149073605369593e-01
-2.117600143948618341e-01
-2.253217637647616234e-01
-2.348385420340730334e-01
-2.401457625180431210e-01
-2.411666751397836816e-01
-2.378677249330297949e-01
-2.303514942087797890e-01
-2.187552823488948250e-01
-2.033142695358838292e-01
-1.843451140900651541e-01
-1.621973618832227848e-01
-1.373146001735538468e-01
-1.101614138209766613e-01
-8.124496317635829246e-02
-5.110497873945821223e-02
-2.028422771035635896e-02
1.066829799974049198e-02
4.120476212596649312e-02
7.080669814156206887e-02
9.897633489163881748e-02
1.252413937349252104e-01
1.491939187363940378e-01
1.704424910726329012e-01
1.886696554706133178e-01
2.036058195627894196e-01
2.150207867856493982e-01
2.227747714711391103e-01
2.267490462699356113e-01
2.269091872600706439e-01
2.232708907954477351e-01
2.158900792807248448e-01
2.049073805101712387e-01
1.904823088885295168e-01
1.728482720032090691e-01
1.522790258191098478e-01
1.290814306098657105e-01
1.036263966430341632e-01
7.629817865568315483e-02
4.753030107223718548e-02
1.778092495189058375e-02
-1.247652737981631843e-02
-4.274157743321843617e-02
-7.251105617541342419e-02
-1.012827456099864853e-01
-1.285551488083367389e-01
-1.538472257157313949e-01
-1.767115741710409693e-01
-1.967147998003702658e-01
-2.134971962146501590e-01
-2.267307421268650036e-01
-2.361493118036240013e-01
-2.415800331894450148e-01
-2.428781436008411176e-01
-2.400237355750888812e-01
-2.330458773400502226e-01
-2.220507983953846909e-01
-2.072515294957732457e-01
-1.888883363232218837e-01
-1.673090609701417542e-01
-1.428998898297803022e-01
-1.160930241950011987e-01
-8.737920851056978078e-02
-5.725842299939462587e-02
-2.625802816690181452e-02
5.086383139325245661e-03
3.625048058181777610e-02
6.672311865117253049e-02
9.600537403771508549e-02
1.236507270392840085e-01
1.492295779317965310e-01
1.723641435154189827e-01
1.927323997002584610e-01
2.100354865376819757e-01
2.240591782743752425e-01
2.346139198774908619e-01
2.415718581392362896e-01
2.448661987446703880e-01
2.444542285283175798e-01
2.403741192700155904e-01
2.326859341560751082e-01
2.215054215602707544e-01
2.069990049641066698e-01
1.893542015922893285e-01
1.688243828420019355e-01
1.456796122879438493e-01
1.202345229142863098e-01
9.284104372339628541e-02
6.386666520476699804e-02
3.372371952043368148e-02
2.834759268373149288e-03
-2.835488007849253783e-02
-5.938234178825509135e-02
-8.978302101015231407e-02
-1.190886354538879810e-01
-1.468319958517800838e-01
-1.725688614484114924e-01
-1.958712544517628440e-01
-2.163347122592380878e-01
-2.336145882435660681e-01
-2.473825517932104479e-01
-2.573898407459632720e-01
-2.634394705719997898e-01
-2.653812767164104303e-01
-2.631733257293932260e-01
-2.567993043536608289e-01
-2.463477928313365095e-01
-2.319700501675089066e-01
-2.138650059517925861e-01
-1.923324138083266910e-01
-1.676929660445838355e-01
-1.403407101625856468e-01
-1.107098734675316665e-01
-7.925635786512603975e-02
-4.647795038962035385e-02
-1.287816733660785556e-02
2.103246217704072413e-02
5.474004571527717189e-02
8.774375558992995872e-02
1.195663728448735225e-01
1.497396361705214674e-01
1.778442577311551420e-01
2.034838311974809522e-01
2.262985800373467637e-01
2.459891017665700730e-01
2.622725709241557346e-01
2.749405904671233247e-01
2.838166320739267112e-01
2.887699394303392397e-01
2.897390415426748245e-01
2.866810064975175987e-01
2.796315229721808016e-01
2.686572440656504468e-01
2.538718557658867780e-01
2.354544843102119311e-01
2.136023527654919985e-01
1.885866682723054688e-01
1.607054579549735407e-01
1.303000297019059617e-01
9.776705692657616797e-02
6.351798174411626974e-02
2.802070646646448449e-02
-8.238278058417813909e-03
-4.474857644314333971e-02
-8.097167691414997037e-02
-1.163663147459176317e-01
-1.503859780612938346e-01
-1.824835417691745842e-01
-2.121356459113297177e-01
-2.388446390048061252e-01
-2.621327941682055629e-01
-2.816001652549549594e-01
-2.968707978929335800e-01
-3.076532521467146841e-01
-3.137401611181073191e-01
-3.149658607177465153e-01
-3.113089784056690124e-01
-3.027880865199901184e-01
-2.895355095020355485e-01
-2.717876331530262868e-01
-2.498237256038286502e-01
-2.240574712211602093e-01
-1.949357915788997864e-01
-1.629800474051928960e-01
-1.287742134050900988e-01
-9.291712839095989107e-02
-5.604804977947608347e-02
-1.881315698376850865e-02
1.815588154511693642e-02
5.423864122555788203e-02
8.883887815671243082e-02
1.214284000522750651e-01
1.514976343341823961e-01
1.786245112632602883e-01
2.024492041960050948e-01
2.226586605576508227e-01
2.390578177392978509e-01
2.514792096016045253e-01
2.598579687620463097e-01
2.641962796079536657e-01
2.645386551394258712e-01
2.610271646326774997e-01
2.538242180863184982e-01
2.431575590172297963e-01
2.292941203075336554e-01
2.125198674969469570e-01
1.931608217524848625e-01
1.715496163690207743e-01
1.480318535812484293e-01
1.229602281929533525e-01
9.668486839197987237e-02
6.955067559635474961e-02
4.190019259714100608e-02
1.406123284654647865e-02
-1.364588390890542069e-02
-4.091005836039018906e-02
-6.743681001304580036e-02
-9.293556125719570904e-02
-1.171320716747646373e-01
-1.397597357389949724e-01
-1.605614260275212146e-01
-1.792957055323437521e-01
-1.957259705879878520e-01
-2.096386157276872719e-01
-2.208300549091463116e-01
-2.291177901767524894e-01
-2.343514382656649853e-01
-2.363920915803883194e-01
-2.351552740513767337e-01
-2.305783084852192077e-01
-2.226426780554913443e-01
-2.113916544457455637e-01
-1.968880994247556582e-01
-1.792790281314776135e-01
-1.587422265180349901e-01
-1.355088337055513625e-01
-1.098786014463163929e-01
-8.216971159634872679e-02
-5.277120978891935987e-02
-2.209561444310406686e-02
9.413934254615424768e-03
4.127808973985314100e-02
7.301233170834606212e-02
1.041178934709109660e-01
1.340924364581730088e-01
1.624481977361682816e-01
1.887132651281051843e-01
2.124298450337604449e-01
2.331960582770772339e-01
2.506273874903074406e-01
2.644012602038181559e-01
2.742570489004663714e-01
2.799652435172115261e-01
2.814046829628839563e-01
2.784845354421752739e-01
2.712037117617487336e-01
2.596436515466857275e-01
2.439232010608937962e-01
2.242801068824134825e-01
2.009826006313429891e-01
1.743813981979445149e-01
1.448969663660774621e-01
1.129772875556338541e-01
7.915005855092516196e-02
4.396092114970628906e-02
7.990395612040568363e-03
-2.815389267955453745e-02
-6.386445376315330602e-02
-9.853622648409471330e-02
-1.315677994581443411e-01
-1.624008603588538158e-01
-1.905079441846165844e-01
-2.153986164471818898e-01
-2.366773973092559102e-01
-2.539736796036140554e-01
-2.670305543143794980e-01
-2.756658613842701833e-01
-2.797588833508281581e-01
-2.793321978013830753e-01
-2.744412170368211168e-01
-2.652679132582498323e-01
-2.520706508583503425e-01
-2.351582061472572704e-01
-2.149468155720044293e-01
-1.918730828983446490e-01
-1.664326764570245032e-01
-1.391538645330703816e-01
-1.105689813025301782e-01
-8.121777775702893054e-02
-5.163598659938292701e-02
-2.231770832394752713e-02
6.264403158151521378e-03
3.367880218507385282e-02
5.956860060701585358e-02
8.359692200251889194e-02
1.055193159232594713e-01
1.251346889221166547e-01
1.422908430436962135e-01
1.569169183644475440e-01
1.689594655391173372e-01
1.784318454567682677e-01
1.853759999785424828e-01
1.898560465653239548e-01
1.919699554595937219e-01
1.918202065325642636e-01
1.895195173226427166e-01
1.851844446724456583e-01
1.789266630918118217e-01
1.708509611125447192e-01
1.610595624037125528e-01
1.496431188780065757e-01
1.366882171541987656e-01
1.222813218303173688e-01
1.065087453808276352e-01
8.946078759431065619e-02
7.124823742323529996e-02
5.198927425659494173e-02
3.182917564635995289e-02
1.094543452202345613e-02
-1.047140620226794105e-02
-3.217883741580740420e-02
-5.391807454557073775e-02
-7.539833312597832293e-02
-9.629384916890659785e-02
-1.162715543005521379e-01
-1.349750350462234350e-01
-1.520421373684671673e-01
-1.671204761539307748e-01
-1.798674865942180290e-01
-1.899556368770418668e-01
-1.971133919330958495e-01
-2.010861192269690623e-01
-2.016889776899680742e-01
-1.988016453074072376e-01
-1.923396595082657590e-01
-1.823350312132780981e-01
-1.688504936674837531e-01
-1.520425966635689519e-01
-1.321476426748802724e-01
-1.094376129275548837e-01
-8.428944523686121570e-02
-5.710476335929648428e-02
-2.834575394946381444e-02
1.478068634718776586e-03
3.184404269885976468e-02
6.219523984148145335e-02
9.196921975985322684e-02
1.206119706808086445e-01
1.475755702845246708e-01
1.723322956758974733e-01
1.944071238511801969e-01
2.133401595796397543e-01
2.287502812514332629e-01
2.403084490763867098e-01
2.477343223701958252e-01
2.508620510081578381e-01
2.495535813962122540e-01
2.437882237484016168e-01
2.336165659755001789e-01
2.191475747863370627e-01
2.006158408279803129e-01
1.782837932679128268e-01
1.525207840934799663e-01
1.237557605282608719e-01
9.246005946735530445e-02
5.918862162169447050e-02
2.451173514059495906e-02
-1.095423565218894835e-02
-4.656952279013315543e-02
-8.169373009686126119e-02
-1.156856468150543882e-01
-1.479102282345998720e-01
-1.777806006852871712e-01
-2.047329620418888996e-01
-2.282557594595491235e-01
-2.479250344982142085e-01
-2.633438265638520237e-01
-2.742444957206822131e-01
-2.804157512373159356e-01
-2.817321833731134539e-01
-2.782004781526656867e-01
-2.698618625390443171e-01
-2.569036954131306283e-01
-2.395715236588901176e-01
-2.181857905842883860e-01
-1.931727800481891077e-01
-1.649816546973834619e-01
-1.341460836900867648e-01
-1.012301598072838510e-01
-6.682076877871545584e-02
-3.153439223724280316e-02
4.012966883244969973e-03
3.921799065278583352e-02
7.348253953040373432e-02
1.062442316731979086e-01
1.369834218162439277e-01
1.652010714192505281e-01
1.904828177722439064e-01
2.124416073677467542e-01
2.307606662659769381e-01
2.452004486637208991e-01
2.555509812687798421e-01
2.617111198245224424e-01
2.636118455562684870e-01
2.612598423405659287e-01
2.547382938105519079e-01
2.441587042107780936e-01
2.297287640860247726e-01
2.116823797650622119e-01
1.903145998606180223e-01
1.659772922026695186e-01
1.390428530115304373e-01
1.099480623500993515e-01
7.914568548013661831e-02
4.712173789108559108e-02
1.439064697108055624e-02
-1.852735801518996805e-02
-5.109647539106284414e-02
-8.277873757130821408e-02
-1.130504951901254163e-01
-1.413993621823683156e-01
-1.673321043791253793e-01
-1.904101328971652685e-01
-2.102103218395967588e-01
-2.263859483610363155e-01
-2.386455092212244056e-01
-2.467432936988910308e-01
-2.505513215680413297e-01
-2.499704176437823611e-01
-2.450170710837885624e-01
-2.357845876020000508e-01
-2.224198866699896859e-01
-2.051957776628315355e-01
-1.844124307671928253e-01
-1.604643191657210977e-01
-1.338034058181565567e-01
-1.049114995296052677e-01
-7.433432292302541433e-02
-4.262792140661493534e-02
-1.036570240042011815e-02
2.186934272810318186e-02
5.350734467597319938e-02
8.400506296432394548e-02
1.128297699581778668e-01
1.395117953097400332e-01
1.636141340799270871e-01
1.847469903686362325e-01
2.026071156396134776e-01
2.169137458884917158e-01
2.274881474872933185e-01
2.342000042475738120e-01
2.369766025789953323e-01
2.358420968549098939e-01
2.308436173061846897e-01
2.221236400955330370e-01
2.098661097275578424e-01
1.943007743672678089e-01
1.757281416757908166e-01
1.544638597230847399e-01
1.308808119461213060e-01
1.053745921596952739e-01
7.836049666701085104e-02
5.028178748405118248e-02
2.158510644544851115e-02
-7.275785369583134821e-03
-3.584488878924900479e-02
-6.367765530857553979e-02
-9.034450982195832425e-02
-1.154251524072600343e-01
-1.385421655952371045e-01
-1.593333115179358384e-01
-1.774795146199310558e-01
-1.927135521773874205e-01
-2.047892348845982979e-01
-2.135449302762798540e-01
-2.188462319671390377e-01
-2.206242906023947459e-01
-2.188826736937075079e-01
-2.136512584050542507e-01
-2.050563765062792809e-01
-1.932526748423663565e-01
-1.784551521943301966e-01
-1.609401149648698182e-01
-1.410023680126491208e-01
-1.189978738534218372e-01
-9.529851944047297574e-02
-7.029841035832579133e-02
-4.441240780326727311e-02
-1.805534097352420875e-02
8.360878976121394190e-03
3.442631663658252128e-02
5.975469690973120307e-02
8.398007240109087168e-02
1.067522757763735841e-01
1.277695926787992542e-01
1.467429301449958423e-01
1.634288363867069382e-01
1.776199136222815222e-01
1.891294606342482920e-01
1.978282695231417809e-01
2.036010164652225785e-01
2.063798193911633438e-01
2.061312523774035399e-01
2.028436300775401102e-01
1.965609744410840021e-01
1.873405808389383143e-01
1.752898597292762983e-01
1.605496848376664898e-01
1.432855364709391954e-01
1.237210608975414239e-01
1.020933458085336448e-01
7.869142172166969373e-02
5.383618218223735347e-02
2.787075490902047106e-02
1.186476994327348433e-03
-2.581583768767718723e-02
-5.270624491239776777e-02
-7.903846324667472556e-02
-1.043649391048394881e-01
-1.282359082497002978e-01
-1.502051947343938376e-01
-1.698600656960129462e-01
-1.868053278884339308e-01
-2.006836952198336743e-01
-2.112078816079635546e-01
-2.181114985159897102e-01
-2.212319829317949682e-01
-2.204564165856277569e-01
-2.157395162843334102e-01
-2.071504138043723797e-01
-1.947866478965806780e-01
-1.788674813898773475e-01
-1.596654081618807952e-01
-1.375119361994945333e-01
-1.128302238568431315e-01
-8.606186861293441126e-02
-5.771524948728465332e-02
-2.832519099215891067e-02
1.560081050650696799e-03
3.137325612783965767e-02
6.054973372938861342e-02
8.854897868124760041e-02
1.148400749380823621e-01
1.389328990765177907e-01
1.603909244137780576e-01
1.787996384321091370e-01
1.938404205972619199e-01
2.052280973160717226e-01
2.127524888833839112e-01
2.162939788406252617e-01
2.157638796108872214e-01
2.111943670420604047e-01
2.026561703672661863e-01
1.902985724403589429e-01
1.743580843840163708e-01
1.550986030741414723e-01
1.328822284175734114e-01
1.080995767308272903e-01
8.119206839975964818e-02
5.265300330137261120e-02
2.298755304683380851e-02
-7.261897882326100867e-03
-3.754393119651830424e-02
-6.730811512791640139e-02
-9.600494498084288786e-02
-1.230964885661716829e-01
-1.480857310135309524e-01
-1.704880985867796572e-01
-1.898794144896177316e-01
-2.058876626019875422e-01
-2.181761970443597543e-01
-2.265168734515936033e-01
-2.307099204307635765e-01
-2.306582464958757406e-01
-2.263462982831671577e-01
-2.178050351754078906e-01
-2.051952684602393606e-01
-1.887085054221495639e-01
-1.686330864522878614e-01
-1.453280318208390320e-01
-1.191858311208724985e-01
-9.068412138573936354e-02
-6.031791051368018408e-02
-2.862260379859696280e-02
3.839330578267241556e-03
3.650332327978078606e-02
6.880089714278908586e-02
1.001659842231940045e-01
1.300651271501381268e-01
1.579850603357128014e-01
1.834435849276324082e-01
2.060270098600779365e-01
2.253399534179600927e-01
2.410752874569401516e-01
2.529759833100432842e-01
2.608371105739319962e-01
2.645586574682202707e-01
2.640654826981626568e-01
2.593882426872252678e-01
2.506127113076956903e-01
2.378766904447487396e-01
2.214140955820021184e-01
2.014796393559514509e-01
1.784089381712795630e-01
1.525762262035250949e-01
1.243871672021480412e-01
9.430071902097436620e-02
6.278502067335586800e-02
3.033631974974565493e-02
-2.537021612861345421e-03
-3.532801704353688566e-02
-6.753191089113941281e-02
-9.864921840371604356e-02
-1.282129506352845671e-01
-1.557696499518109734e-01
-1.809016176986079361e-01
-2.032425417716967608e-01
-2.224441931013046991e-01
-2.382400384652317848e-01
-2.503944025491086633e-01
-2.587323113711082478e-01
-2.631589387774004862e-01
-2.636045944155452347e-01
-2.601027523170970079e-01
-2.527225493901332776e-01
-2.415972760860660151e-01
-2.269380979901402529e-01
-2.089780378356823898e-01
-1.880319157647797612e-01
-1.644402361148098179e-01
-1.385815864590984603e-01
-1.108770639458918350e-01
-8.175589358031946918e-02
-5.167278973015618226e-02
-2.108922641755783811e-02
9.536490946719364259e-03
3.974930977175256119e-02
6.910201266379517593e-02
9.717757960124914773e-02
1.235681862951011345e-01
1.479030287266998311e-01
1.698462508737371146e-01
1.890812713804924383e-01
2.053554060728819131e-01
2.184333229317430847e-01
2.281357825279620444e-01
2.343322410118985344e-01
2.369177983191627646e-01
2.358654731734534105e-01
2.311681677247300892e-01
2.228838340908554927e-01
2.111223518823696077e-01
1.960225477701723340e-01
1.778043921903066926e-01
1.567073839496682108e-01
1.330355592537028897e-01
1.071403147004586776e-01
7.939822025348637624e-02
5.025057751007547951e-02
2.015246175715305899e-02
-1.040393267870046157e-02
-4.090140478182829886e-02
-7.081844262267364409e-02
-9.962410983406844167e-02
-1.267886618015537092e-01
-1.518109855058810131e-01
-1.742078162068881331e-01
-1.935292708605934053e-01
-2.093996112070213300e-01
-2.214640147574866158e-01
-2.294739861764285016e-01
-2.332417339682671398e-01
-2.326461347575630723e-01
-2.277011272357033489e-01
-2.184529062775886210e-01
-2.050859344294740927e-01
-1.878570596919837965e-01
-1.670878950504586791e-01
-1.432202731752599822e-01
-1.167200206807274543e-01
-8.813814973791857244e-02
-5.806637178914221542e-02
-2.711494611379415554e-02
4.074437930849994505e-03
3.486028519553865945e-02
6.462455883703399628e-02
9.276009916744309969e-02
1.187030491452136238e-01
1.419576951656141839e-01
1.620521841071907998e-01
1.786297771742736407e-01
1.913810132671145414e-01
2.000788441315136668e-01
2.046152213054254210e-01
2.049155973452302382e-01
2.010465477190104266e-01
1.931275854470141384e-01
1.813572550858671972e-01
1.660389789601370847e-01
1.475017920206587174e-01
1.261717877601961080e-01
1.025081076419261938e-01
7.700744144203960917e-02
5.021228902446989162e-02
2.267081299113864190e-02
-5.055016517263866138e-03
-3.239979963146782937e-02
-5.881823031021388148e-02
-8.378755305166957212e-02
-1.068019529644611554e-01
-1.274241365017144134e-01
-1.452383329053374972e-01
-1.598990729424178414e-01
-1.711334332815727111e-01
-1.787019269149173750e-01
-1.824840279797882436e-01
-1.823929933440638917e-01
-1.784343111827184081e-01
-1.707009947905065994e-01
-1.593219901193006494e-01
-1.445428176323304559e-01
-1.266391441170172105e-01
-1.059594690546418749e-01
-8.291584903981596977e-02
-5.794147609027051893e-02
-3.153153461561183923e-02
-4.194988039663255508e-03
2.354074759074273326e-02
5.113345893427950761e-02
7.804634605483029564e-02
1.037599125889338558e-01
1.277610855733864459e-01
1.495820799478426721e-01
1.687885430199480008e-01
1.849778975698264105e-01
1.978313619010046431e-01
2.070515440643754812e-01
2.124326005644848192e-01
2.138307999242465285e-01
2.111507345974043548e-01
2.044132438949550767e-01
1.936664801102548905e-01
1.790659740866022698e-01
1.608341924760927355e-01
1.392425493540595527e-01
1.146703986691220423e-01
8.752012091162400531e-02
5.827574691828338316e-02
2.746799819073919569e-02
-4.346801892906926312e-03
-3.656074299553091489e-02
-6.855865252023612966e-02
-9.971732814725248195e-02
-1.294095700647007741e-01
-1.570292692022396408e-01
-1.820101251496916150e-01
-2.038014061288936363e-01
-2.219412122366461459e-01
-2.360109512338168791e-01
-2.456632668071467851e-01
-2.506733450691389087e-01
-2.508502118279993809e-01
-2.461584801896431474e-01
-2.366321515578046764e-01
-2.223971022260877450e-01
-2.037242563841418497e-01
-1.809192130622251649e-01
-1.544290867190847849e-01
-1.247586096597614047e-01
-9.247328167060936410e-02
-5.822672637911535665e-02
-2.268753040125737197e-02
1.342863216169681850e-02
4.938917478730503463e-02
8.446999995743792455e-02
1.179583776932404682e-01
1.491560209408808180e-01
1.774372249744482488e-01
2.022026369337304175e-01
2.229326715547189086e-01
2.392056077611816045e-01
2.506386800536445914e-01
2.570081080302526466e-01
2.581421221435442614e-01
2.539884899666365881e-01
2.446298208985974720e-01
2.301954410773805748e-01
2.109876299456580617e-01
1.873602227244299256e-01
1.597711502392973326e-01
1.287863257852365773e-01
9.500236591709165790e-02
5.911804002394560609e-02
2.185894251328007742e-02
-1.601885810114284103e-02
-5.373022296604573755e-02
-9.049645323921594320e-02
-1.255662921012736521e-01
-1.581986265359593968e-01
-1.877249197370467471e-01
-2.135403075005213036e-01
-2.350874237436442193e-01
-2.519576944931964935e-01
-2.637820146970902280e-01
-2.703357196383018857e-01
-2.715106637197775563e-01
-2.672636001581722986e-01
-2.577351238304615988e-01
-2.431094367844479909e-01
-2.237043604925173512e-01
-1.999367980988121241e-01
-1.722683404110872951e-01
-1.412757352100923458e-01
-1.075592613419346644e-01
-7.177106274361677585e-02
-3.459858703401452740e-02
3.268693136345035555e-03
4.113796200517783053e-02
7.831956431965758636e-02
1.141646931682792632e-01
1.480502158668016710e-01
1.793888677993114578e-01
2.076737105932893734e-01
2.324185858840480123e-01
2.532340453730222984e-01
2.697863964414856652e-01
2.817964896486661597e-01
2.890967198928973136e-01
2.915458375389894941e-01
2.891141876061563143e-01
2.818312060567655375e-01
2.697837230366565420e-01
2.531663267146345708e-01
2.321982242499687210e-01
2.071996258531924040e-01
1.785398320920907334e-01
1.466355053584900703e-01
1.119849944851804002e-01
7.510356367662052168e-02
3.656970523073693746e-02
-3.010045041376807617e-03
-4.301134655491239966e-02
-8.278170001060219940e-02
-1.216675309670380845e-01
-1.590246356908705527e-01
-1.942132010209942083e-01
-2.266259933591946441e-01
-2.557033778560747206e-01
-2.809063190900835671e-01
-3.017951003936635290e-01
-3.179683273423261070e-01
-3.291086845689084606e-01
-3.350116472299389248e-01
-3.355095805437868228e-01
-3.305898486186222840e-01
-3.202942862973442439e-01
-3.047638870321601190e-01
-2.842619213876856898e-01
-2.590859072406739294e-01
-2.296629123664452043e-01
-1.964613151731589846e-01
-1.600098792675484771e-01
-1.209058389232859909e-01
-7.975945267730134847e-02
-3.722206989162218926e-02
6.043838473238825892e-03
4.938050115597601708e-02
9.213504809978695365e-02
1.336665340018956816e-01
1.733807944767477016e-01
2.106979466212696162e-01
2.450933336279091379e-01
2.760952588581213618e-01
3.032594350772058744e-01
3.262334019549716357e-01
3.446896573223493521e-01
3.583768768303536856e-01
3.671109155877567698e-01
3.707409590591406179e-01
3.692186280016473976e-01
3.625217563137392851e-01
3.507108340662871138e-01
3.339133795381598047e-01
3.122930669943032589e-01
2.861163494902072557e-01
2.556746168916940176e-01
2.213408216360102376e-01
1.835487238719900882e-01
1.427647463140501727e-01
9.954067094605395516e-02
5.444704419106649596e-02
8.108690266815710146e-03
-3.881239667090452539e-02
-8.564219384727034257e-02
-1.316784818838717674e-01
-1.762159819235943337e-01
-2.185635737374662657e-01
-2.580391510552890733e-01
-2.939890190943996728e-01
-3.258238590241990806e-01
-3.529737527677772047e-01
-3.749737582470719088e-01
-3.914198492353332393e-01
-4.019790797004956229e-01
-4.064649422740350682e-01
-4.047272123649942044e-01
-3.967771824478756315e-01
-3.827121299183290359e-01
-3.627131063271896716e-01
-3.371192933534992164e-01
-3.063044564026147776e-01
-2.707781455705779439e-01
-2.311161165497906955e-01
-1.879458626768895635e-01
-1.419844412858078109e-01
-9.396372512163253532e-02
-4.465778693787686437e-02
5.140774020071625650e-03
5.464665553814862520e-02
1.030863678906728254e-01
1.496972302097338003e-01
1.937805514540941187e-01
2.346646405747158104e-01
2.717400853583665787e-01
3.044888729349695122e-01
3.324224462614668862e-01
3.551838338627991698e-01
3.724665448154197422e-01
3.840526047682068511e-01
3.898433888649205370e-01
3.897746815240475393e-01
3.839220349985061342e-01
3.724101226395529762e-01
3.554445148275674482e-01
3.333310605130679338e-01
3.064028859215206513e-01
2.750958104303551366e-01
2.398786629507122514e-01
2.012709212870435471e-01
1.598497958922673878e-01
1.162057617040373192e-01
7.097414705121163347e-02
2.480305333295627565e-02
-2.165058671685220551e-02
-6.772058313204347424e-02
-1.127456492430029683e-01
-1.560859906190341373e-01
-1.971091590634774793e-01
-2.352245290265740918e-01
-2.698817923600645430e-01
-3.005575930628841541e-01
-3.268210866975342910e-01
-3.482675949917783398e-01
-3.645865725294610282e-01
-3.755509245166470111e-01
-3.809795750626144284e-01
-3.808346838082778962e-01
-3.751152577583795056e-01
-3.639370608744181279e-01
-3.475110332595262586e-01
-3.260940789028506925e-01
-3.000735714134975529e-01
-2.698670061053400904e-01
-2.359720543250080349e-01
-1.989464589880337031e-01
-1.593677228090177034e-01
-1.178637114813059078e-01
-7.507092130897795312e-02
-3.162643594636038724e-02
1.183230171663943175e-02
5.468511980110162679e-02
9.635518337737219996e-02
1.362782778453907051e-01
1.739572114944777925e-01
2.089372746316211504e-01
2.408027579064604129e-01
2.692257308570960017e-01
2.938985368165847323e-01
3.145945723251237780e-01
3.311343968000220461e-01
3.433745173594944800e-01
3.512454825247799950e-01
3.546937258695637696e-01
3.537251318255956178e-01
3.483773710864720430e-01
3.387154366920480109e-01
3.248561039813956941e-01
3.069285959757155902e-01
2.851156886923114642e-01
2.596265718671234568e-01
2.307048011672801491e-01
1.986539415634638317e-01
1.637938499861051056e-01
1.265190949140057031e-01
8.725810183102084006e-02
4.648413625090994095e-02
4.742388372011019371e-03
-3.740558446990371877e-02
-7.933309504623153874e-02
-1.203867363946066193e-01
-1.598970637616508594e-01
-1.971710540264671740e-01
-2.315195416120527927e-01
-2.622877623363952249e-01
-2.888352367854499225e-01
-3.105884443504581816e-01
-3.270646756511282338e-01
-3.378204254396030559e-01
-3.425894405702031853e-01
-3.411692097856802719e-01
-3.334999384035154391e-01
-3.196996930016163807e-01
-2.999438659817775799e-01
-2.746345942171032339e-01
-2.442477599246233866e-01
-2.093856333730133579e-01
-1.707953085670152471e-01
-1.292569837591554527e-01
-8.566299307871461099e-02
-4.093730485523927598e-02
3.986124145139435804e-03
4.816281287774526465e-02
9.066864919967831948e-02
1.306640161492854668e-01
1.673361588694878277e-01
1.999915577334417938e-01
2.280522400519927606e-01
2.510012920704181028e-01
2.685288561889135339e-01
2.803811438977098502e-01
2.864644625821770596e-01
2.868277894220981339e-01
2.815782379513539491e-01
2.710004734241882041e-01
2.554220750623156233e-01
2.352674044457855884e-01
2.110401219867890088e-01
1.832658835095951066e-01
1.525300808936762564e-01
1.194297971615917303e-01
8.456771681297671484e-02
4.855072788096956304e-02
1.197571524771046114e-02
-2.458839811370933104e-02
-6.058049803928505783e-02
-9.547803644400615353e-02
-1.287851879573571612e-01
-1.600270014392983220e-01
-1.887798380846592017e-01
-2.146326854337619050e-01
-2.372275470565905486e-01
-2.562402132678459621e-01
-2.713787810639590736e-01
-2.824245055758332068e-01
-2.891774949710467224e-01
-2.915250758903843442e-01
-2.894056763503791152e-01
-2.828098510482870975e-01
-2.718365430835107399e-01
-2.566103527523043715e-01
-2.373645407850419886e-01
-2.143907674331017588e-01
-1.880298802901105293e-01
-1.587164227521495607e-01
-1.269030590724302965e-01
-9.310343948411363424e-02
-5.786110736396635201e-02
-2.172861204134587595e-02
1.472596196102017585e-02
5.093696196798493114e-02
8.636830392166248982e-02
1.204976654051411467e-01
1.528401926346661943e-01
1.829715610188770714e-01
2.104860140823919257e-01
2.350645629719378960e-01
2.564246070881193162e-01
2.743368304587531226e-01
2.886508917457991652e-01
2.992361997792029049e-01
3.060424224553204287e-01
3.090499991808725588e-01
3.082789467807251493e-01
3.038031914292145808e-01
2.957094706685464702e-01
2.841332267172539394e-01
2.692270939421864684e-01
2.511683151611305842e-01
2.301649568852005556e-01
2.064339572922245791e-01
1.802264579670407874e-01
1.518049218409979195e-01
1.214551355529784882e-01
8.948975270732018039e-02
5.623102189607077916e-02
2.203755506499108230e-02
-1.272092082164303847e-02
-4.765105731720151172e-02
-8.233448373434280876e-02
-1.163461935975272088e-01
-1.492390578375769605e-01
-1.805603809653696934e-01
-2.098588961444456391e-01
-2.366847284254807171e-01
-2.605982311742043311e-01
-2.811973781191707822e-01
-2.980919938674850833e-01
-3.109518826996195973e-01
-3.195005831896017834e-01
-3.234981449350605720e-01
-3.228209433601011424e-01
-3.173764190782355499e-01
-3.071824564231130927e-01
-2.923479222228839158e-01
-2.730304140123870349e-01
-2.495281934221683651e-01
-2.221729837630820881e-01
-1.913939601951201719e-01
-1.576940932312628219e-01
-1.216050872646956549e-01
-8.373352915949469621e-02
-4.470031141173776146e-02
-5.144162244134303785e-03
3.428382105635648103e-02
7.294537171489337557e-02
1.102354105177573707e-01
1.455600368251834531e-01
1.783940280159041769e-01
2.082561720250527826e-01
2.347102195077173381e-01
2.574224036379977876e-01
2.760836106148851776e-01
2.904888591254579655e-01
3.004944293341996753e-01
3.060068476500734658e-01
3.070373611193353836e-01
3.036200960599097498e-01
2.958765974048169767e-01
2.839756156206909576e-01
2.681221676058744285e-01
2.485906435858389607e-01
2.256695355843502115e-01
1.996979860095040304e-01
1.710402242455086042e-01
1.400789720614514233e-01
1.072294547770149542e-01
7.291301455371096418e-02
3.757158302549032380e-02
1.656416437466473601e-03
-3.437600102095589305e-02
-7.006075174356063417e-02
-1.049326926339321231e-01
-1.385303509157116975e-01
-1.703939949097841855e-01
-2.000766828013961773e-01
-2.271505611019656867e-01
-2.511970091514131864e-01
-2.718438417237707405e-01
-2.887373063569401710e-01
-3.015701279628241749e-01
-3.100987151172523437e-01
-3.141030275892227053e-01
-3.134668638382027694e-01
-3.081116115421359547e-01
-2.980381883558251288e-01
-2.833476713192862317e-01
-2.641736174741496912e-01
-2.407793048594515095e-01
-2.134708082397528406e-01
-1.826320612893269635e-01
-1.487371542052162987e-01
-1.122839465232158274e-01
-7.385483347429622203e-02
-3.405708562700268671e-02
6.475151572645332365e-03
4.707911537529080315e-02
8.709385980953671114e-02
1.258715776031072431e-01
1.627698509663495496e-01
1.971911198603743531e-01
2.285817521866907454e-01
2.564168984645608385e-01
2.802719738703771668e-01
2.997506352807748353e-01
3.145509893451201022e-01
3.244561998128012714e-01
3.292920839872133243e-01
3.290183999819047966e-01
3.236292868367880438e-01
3.132210123552205960e-01
2.979744163567217274e-01
2.781097726200223996e-01
2.539607678480429453e-01
2.258878728031286642e-01
1.943259403782010009e-01
1.597664490735848097e-01
1.227247674205179107e-01
8.377916690286024703e-02
4.352101351778983607e-02
2.569895677065878181e-03
-3.843487164755535201e-02
-7.885382487199278645e-02
-1.180481528479022935e-01
-1.553821055717954647e-01
-1.902540771736375980e-01
-2.220845004745215234e-01
-2.503274374392165380e-01
-2.745144334289609800e-01
-2.941984050409996998e-01
-3.090389566658842124e-01
-3.187588782834258616e-01
-3.231476852847178782e-01
-3.221351982646349921e-01
-3.156851755708885432e-01
-3.039084901310024067e-01
-2.869959788371723719e-01
-2.652116260672682246e-01
-2.389603680454548962e-01
-2.086771884234411290e-01
-1.749113210563240650e-01
-1.382688549561788549e-01
-9.939425166960932922e-02
-5.899971312935231582e-02
-1.780665309028304361e-02
2.344705780856149932e-02
6.401643281784968886e-02
1.031786240869207449e-01
1.402470548060577582e-01
1.745516924858084851e-01
2.055113154564280897e-01
2.325826889980496248e-01
2.552966151076115908e-01
2.732948517809944411e-01
2.862526309535363689e-01
2.939934049503964975e-01
2.963985496820051857e-01
2.934446155787097110e-01
2.852392016712965717e-01
2.719261285955023588e-01
2.537962794913899423e-01
2.311931302255770815e-01
2.045396222645135542e-01
1.743592855856445079e-01
1.411997196033850654e-01
1.056965664295310137e-01
6.851382488919868785e-02
3.034268410613089051e-02
-8.094021603373462159e-03
-4.607466063524554706e-02
-8.289115597977031458e-02
-1.178411312455857340e-01
-1.502706225550221042e-01
-1.795774906308731933e-01
-2.051914258309671668e-01
-2.266628623246326191e-01
-2.435784815365708011e-01
-2.556398703348243817e-01
-2.626617298268060230e-01
-2.645104092671755613e-01
-2.612277168240569880e-01
-2.529030085061577116e-01
-2.397513433147400730e-01
-2.221015751731907906e-01
-2.003254300784385045e-01
-1.749264864252564888e-01
-1.464399901164718243e-01
-1.154629615379426932e-01
-8.264383656763182873e-02
-4.863799298411030508e-02
-1.411743522306674499e-02
2.024493950381219681e-02
5.381049659938912100e-02
8.596684693119280296e-02
1.161330584796955168e-01
1.438148971031683321e-01
1.685406626088725712e-01
1.899353630965762152e-01
2.076920703871746321e-01
2.215516773391731919e-01
2.313741804535565660e-01
2.370468913981041981e-01
2.385556458774535371e-01
2.359499911922680049e-01
2.293199935537226786e-01
2.188481420719766146e-01
2.047366898423509107e-01
1.872557923908423627e-01
1.667159378595831631e-01
1.434534919671534292e-01
1.178590857339604087e-01
9.033424369783840668e-02
6.131663734661775556e-02
3.126362443029032795e-02
6.423606456524080799e-04
-3.006119160151778796e-02
-6.035923518091838857e-02
-8.976687215071499359e-02
-1.178008170622049378e-01
-1.439936992215285483e-01
-1.679066750420757370e-01
-1.891118701342643094e-01
-2.072414495703844839e-01
-2.219555678299244272e-01
-2.329650416552125070e-01
-2.400637774012126247e-01
-2.430702399289573767e-01
-2.419168711551027695e-01
-2.365847201781655362e-01
-2.271281189846032500e-01
-2.137117555836608451e-01
-1.965287094121465072e-01
-1.758899532831551815e-01
-1.521523393695435600e-01
-1.257290763230724528e-01
-9.711135108739973876e-02
-6.680541392063503447e-02
-3.536929944499907219e-02
-3.378984171662394176e-03
2.858658956781062743e-02
5.994472464235987147e-02
9.012066040806010481e-02
1.185808042077370894e-01
1.448061798443400217e-01
1.683304832526716366e-01
1.887490505481638770e-01
2.056839329962862339e-01
2.188632073531432687e-01
2.280483695404270650e-01
2.330843032976091522e-01
2.339056244413325603e-01
2.304809656857043920e-01
2.229016369939427200e-01
2.112944082542750346e-01
1.958687082313776695e-01
1.769157632346536335e-01
1.547560058054243681e-01
1.298067235466429103e-01
1.025107269186299602e-01
7.336402048413302734e-02
4.291101597872615248e-02
1.170828543196247851e-02
-1.965202918752256833e-02
-5.057052635303298238e-02
-8.045362212873022334e-02
-1.087126082252581200e-01
-1.347765958048588175e-01
-1.581296690380089576e-01
-1.782721018898622833e-01
-1.947867790460527382e-01
-2.073201668654378604e-01
-2.155685448065522980e-01
-2.193646475092503323e-01
-2.185752227307140028e-01
-2.131992687352057270e-01
-2.033293415587792974e-01
-1.891182293741142939e-01
-1.708691153434795384e-01
-1.489185583810498925e-01
-1.237136225253315513e-01
-9.577317071821321581e-02
-6.565080631005203171e-02
-3.397911053231615630e-02
-1.404171544095101504e-03
3.140555072561353189e-02
6.376836455594939168e-02
9.501709795661605895e-02
1.245162111996944571e-01
1.516425408711860601e-01
1.758501996910794285e-01
1.966359071661529512e-01
2.135547585875680610e-01
2.262759615720040252e-01
2.344982110038633660e-01
2.380557512715097968e-01
2.368513453959811832e-01
2.308647498087834649e-01
2.202136754723943435e-01
2.050482232211573996e-01
1.856539229827648407e-01
1.623790524613961672e-01
1.356352451999997544e-01
1.059383624198219076e-01
7.382520237988260403e-02
3.990868150755716437e-02
4.833781262250980149e-03
-3.073758311559227074e-02
-6.611796616498133439e-02
-1.006216415220066301e-01
-1.335866326092978729e-01
-1.643610070087074271e-01
-1.923386127164744830e-01
-2.169770501392195017e-01
-2.377598746276929076e-01
-2.542892054737897478e-01
-2.662108004403974104e-01
-2.732645209459467761e-01
-2.753106260359549640e-01
-2.722485956280553676e-01
-2.641366637595340405e-01
-2.510863450961743348e-01
-2.333082261488116926e-01
-2.111294319054067281e-01
-1.849104012334936709e-01
-1.551339723990320385e-01
-1.223202707315560467e-01
-8.704666300253172118e-02
-4.995243461162379717e-02
-1.168873705596795709e-02
2.705665637976642501e-02
6.558677350977015763e-02
1.032126344859737727e-01
1.392532101496717356e-01
1.730427308003491260e-01
2.039719471513602167e-01
2.314486895048125104e-01
2.549535630629533589e-01
2.740337494885505265e-01
2.882765228441428462e-01
2.973987219089886391e-01
3.011520017495212809e-01
2.994074554708151537e-01
2.921366544495931361e-01
2.793663095722666578e-01
2.612859094927675319e-01
2.381253009522060204e-01
2.102438389596920920e-01
1.781010486026139150e-01
1.422069584221683503e-01
1.032080557545373145e-01
6.178110505587194878e-02
1.868448814038570216e-02
-2.526541571877433112e-02
-6.923666385387933220e-02
-1.123601172501326184e-01
-1.537631921036768379e-01
-1.926029487231574189e-01
-2.280559372573908172e-01
-2.593438704238117953e-01
-2.857946638748577461e-01
-3.067666076963707078e-01
-3.217756587250347744e-01
-3.304326355383147562e-01
-3.324476131869847917e-01
-3.277427540848230070e-01
-3.162911126108944870e-01
-2.982838313569382560e-01
-2.740324601709923091e-01
-2.439530924655257393e-01
-2.086663896532678364e-01
-1.688355362916371671e-01
-1.252796647949538100e-01
-7.889670691956612858e-02
-3.063053155201012068e-02
1.849276298564273002e-02
6.743823962458744825e-02
1.151697586293429776e-01
1.606512633283642688e-01
2.028931125961574433e-01
2.409828298783042722e-01
2.740382768024727245e-01
3.013354883519085980e-01
3.222190817377836858e-01
3.361598705948662391e-01
3.428208058002866210e-01
3.419216566859101802e-01
3.334343960460084411e-01
3.174310060472559369e-01
2.941420523617687688e-01
2.640199264443509053e-01
2.275757728612316788e-01
1.855578064636536628e-01
1.387999776363962878e-01
8.825040004906076208e-02
3.500397578236975893e-02
-1.981657289060645075e-02
-7.499605978369544568e-02
-1.292902711316456510e-01
-1.814658720109832979e-01
-2.303024085502963780e-01
-2.746089246982052479e-01
-3.133273948645832752e-01
-3.454443159898172300e-01
-3.701110815863957182e-01
-3.866583984224237214e-01
-3.945013475515705137e-01
-3.933712914448382891e-01
-3.830934373346520649e-01
-3.637430417917486003e-01
-3.356454107348116889e-01
-2.992221332482148943e-01
-2.552203746807205631e-01
-2.044743688362122835e-01
-1.480071960506643691e-01
-8.701560004261038594e-02
-2.274325439383022285e-02
4.342603009084478743e-02
1.100776841054106614e-01
1.757894173959704265e-01
2.391324270868593616e-01
2.987152145914537815e-01
3.532643696994203775e-01
4.015418081380603410e-01
4.424938161484603949e-01
4.752100735395256015e-01
4.988890664426487431e-01
5.130302573085285811e-01
5.172079818756909475e-01
5.112819804217072495e-01
4.953160309514693105e-01
4.695034199912428430e-01
4.343641029662601571e-01
3.904914717853968931e-01
3.387259066171932620e-01
2.800700012419681251e-01
2.156118436918437742e-01
1.466364970613704966e-01
7.446592077378211272e-02
5.088058857324884166e-04
-7.377403221028611124e-02
-1.469304090053955014e-01
-2.175284814153080337e-01
-2.841525518123201866e-01
-3.455145244553112782e-01
-4.003975336190152001e-01
-4.476998004288874067e-01
-4.865472224491167452e-01
-5.161276481614102130e-01
-5.359264730386620323e-01
-5.455811867735843590e-01
-5.449077368615972139e-01
-5.340453433740679490e-01
-5.132099877299984847e-01
-4.829421627425790065e-01
-4.439343055589341502e-01
-3.970294633019820219e-01
-3.433210581295629837e-01
-2.839514989453080784e-01
-2.202370388206656426e-01
-1.535678246779690337e-01
-8.536398219410656907e-02
-1.709121084062126261e-02
4.979365298187227173e-02
1.139132280181793799e-01
1.739232864865088435e-01
2.285991954650213320e-01
2.768846196462581011e-01
3.177861922286537855e-01
3.505949596928122913e-01
3.747072327018982074e-01
3.897282052393231111e-01
3.955331332125338051e-01
3.920797724854457877e-01
3.796568178109904768e-01
3.586646424383850840e-01
3.296942780218896085e-01
2.935633872493201846e-01
2.511482214162150672e-01
2.035361127929035674e-01
1.518784240863248480e-01
9.740005436176357723e-02
4.140628310813088131e-02
-1.479591857137313449e-02
-6.990967183311069810e-02
-1.226446078120916883e-01
-1.717996646453073539e-01
-2.162635566590234426e-01
-2.549865677856701374e-01
-2.871399832169559407e-01
-3.119587319014948679e-01
-3.288917417571800561e-01
-3.375857719391378575e-01
-3.377844088323188054e-01
-3.295426474474751899e-01
-3.129963536997261153e-01
-2.885100678525915896e-01
-2.566427218424310319e-01
-2.180336383712186965e-01
-1.735571459337166278e-01
-1.241417964618541925e-01
-7.083567642389343444e-02
-1.478027619527336189e-02
4.286505189959358142e-02
1.008966309996605359e-01
1.581063623938666896e-01
2.133336011249018505e-01
2.654518696763691898e-01
3.133886632694866670e-01
3.562112631357515768e-01
3.930243559643606388e-01
4.231090050857612139e-01
4.458628518216032344e-01
4.607821178569364573e-01
4.675943137562893481e-01
4.660814425795889449e-01
4.562448888525511004e-01
4.382192377137987260e-01
4.122414405978009344e-01
3.787684783316765946e-01
3.383050064738561957e-01
2.915326137256093464e-01
2.392314834255755418e-01
1.822489613754680882e-01
1.215647668288866168e-01
5.818281934345936879e-02
-6.820862629287716139e-03
-7.233361936723570196e-02
-1.372398450890158772e-01
-2.004190605135227621e-01
-2.607590488246032123e-01
-3.172152599979808363e-01
-3.687756166210750530e-01
-4.145062295280717013e-01
-4.536043089420078722e-01
-4.853091749736025973e-01
-5.090655340045542321e-01
-5.244077395165329669e-01
-5.310156272521262544e-01
-5.287928355490232324e-01
-5.177044417297795853e-01
-4.979814395606334543e-01
-4.699609571284016907e-01
-4.341282728471041463e-01
-3.911780528095288312e-01
-3.418537467127735763e-01
-2.870860193100447932e-01
-2.278732881912697850e-01
-1.652782055420841112e-01
-1.004468567557540992e-01
-3.453158059619482190e-02
3.131183667371961743e-02
9.592830712301841922e-02
1.582213998984897119e-01
2.171647938013466783e-01
2.717704978879435518e-01
3.212106057138131021e-01
3.647090158560916673e-01
4.016273060313839127e-01
4.314783457147165491e-01
4.538327061829021680e-01
4.684731740794609856e-01
4.752450417889481638e-01
4.741379727556851442e-01
4.652875216162487004e-01
4.488819730724763479e-01
4.252881100323108177e-01
3.949212009193555639e-01
3.583066508967585051e-01
3.160722145533499394e-01
2.688813981207527903e-01
2.175093852890008228e-01
1.627589213243737509e-01
1.054875102258793218e-01
4.659944638138940887e-02
-1.299213599828352717e-02
-7.235073511870748764e-02
-1.305367406316484402e-01
-1.866342112145163989e-01
-2.397458228681387804e-01
-2.890040952780615346e-01
-3.336266167009798722e-01
-3.728549794355897062e-01
-4.060487929754315051e-01
-4.326529644790262363e-01
-4.521840998726834870e-01
-4.643432073148227035e-01
-4.688768575938354610e-01
-4.657181544767635129e-01
-4.549240968154574238e-01
-4.366419488329077447e-01
-4.112311603131783566e-01
-3.790983369498515665e-01
-3.408201970590643004e-01
-2.970772001850126021e-01
-2.486107793485368145e-01
-1.962933664693577995e-01
-1.410208644250283694e-01
-8.374697694797439418e-02
-2.545757530907022392e-02
3.286905691589780965e-02
9.027061513658618530e-02
1.457964921695911187e-01
1.985803553821943179e-01
2.477996216134366048e-01
2.927041801793497378e-01
3.326768772705153143e-01
3.671361660502833191e-01
3.956655036725823527e-01
4.179266614703984750e-01
4.336755830942804479e-01
4.428265860247874164e-01
4.453313930682030741e-01
4.412965007231771652e-01
4.308957214430013671e-01
4.143772792833446683e-01
3.921043528999845762e-01
3.644654462259521166e-01
3.319466518461264282e-01
2.950729302349123229e-01
2.544098549014968680e-01
2.105806710831002460e-01
1.642198777900980844e-01
1.160011741880785374e-01
6.661238400569904905e-02
1.674930698262278028e-02
-3.288185184056666155e-02
-8.157713049769327318e-02
-1.286478478468688347e-01
-1.734112163784572169e-01
-2.152157351733842705e-01
-2.534474923929667112e-01
-2.875129685654874145e-01
-3.169041619922469688e-01
-3.411413134431136029e-01
-3.598305569492123990e-01
-3.726729087230131743e-01
-3.794118037347015138e-01
-3.799510214939202379e-01
-3.742425972925785271e-01
-3.623669426048427011e-01
-3.445348780855324033e-01
-3.210084661444270182e-01
-2.922260206617200429e-01
-2.586739188181393367e-01
-2.209468631202211042e-01
-1.797407505407670469e-01
-1.357812921698137165e-01
-8.988563323627213331e-02
-4.289204249359990229e-02
4.343747149756382875e-03
5.095100727004142627e-02
9.607385341268193102e-02
1.389055340840550379e-01
1.786549366315797194e-01
2.146213953950800724e-01
2.461757059435066841e-01
2.727443481576635742e-01
2.939105151160028573e-01
3.092969021125044904e-01
3.186782391618313559e-01
3.219396790163809863e-01
3.190374147153025031e-01
3.101097996040289573e-01
2.953371315925893970e-01
2.750458591785345241e-01
2.496599741322566568e-01
2.196606890062471895e-01
1.856636093833248236e-01
1.483120067833183509e-01
1.083324910737857305e-01
6.650270635621358117e-02
2.361804867832895116e-02
-1.948840829092035598e-02
-6.198056934345275160e-02
-1.030419757530776081e-01
-1.418674508482775098e-01
-1.776907102705912456e-01
-2.098239579114282716e-01
-2.376038848984171614e-01
-2.604973688704906309e-01
-2.780390172965021556e-01
-2.898546715527491324e-01
-2.957382601286686064e-01
-2.955268598121378876e-01
-2.892519785440465507e-01
-2.770378280135868398e-01
-2.591146746479594531e-01
-2.358920463191939709e-01
-2.078196718186621772e-01
-1.755076823136675346e-01
-1.396360748786988903e-01
-1.009455967909504426e-01
-6.027125148105616503e-02
-1.846152657335026204e-02
2.360126636500001207e-02
6.502207620805103283e-02
1.049310099776505079e-01
1.424942113182405545e-01
1.768999434704283669e-01
2.074478847612981902e-01
2.334801295850337521e-01
2.544431204936037361e-01
2.699203720839059573e-01
2.795431067856815055e-01
2.831429315776219369e-01
2.806207681589656944e-01
2.720150321122680737e-01
2.575301726074079589e-01
2.374215609367433533e-01
2.121387707551537771e-01
1.821925748086220265e-01
1.481990192467137202e-01
1.108910473290185272e-01
7.102972752558539549e-02
2.947085980815358774e-02
-1.290365045582310410e-02
-5.519640788047056046e-02
-9.649419940876630131e-02
-1.358976179986153554e-01
-1.725639537810285395e-01
-2.056690623991788147e-01
-2.344861755205229770e-01
-2.583799703248582103e-01
-2.767726005079044205e-01
-2.892775161435015008e-01
-2.955603450195023463e-01
-2.954619085483308760e-01
-2.889743226962837586e-01
-2.761658630364791644e-01
-2.573343028654271336e-01
-2.328338206403748334e-01
-2.031792196115647098e-01
-1.690128369382797313e-01
-1.310282472963859579e-01
-9.005902247996333543e-02
-4.696809208743979447e-02
-2.671171575433728407e-03
4.187753817385631017e-02
8.573063544690606719e-02
1.279612232753584156e-01
1.676527970765435693e-01
2.039745730037960669e-01
2.361533807544351493e-01
2.634822199014821287e-01
2.854127957749050815e-01
3.014371634706560776e-01
3.112285238866134840e-01
3.145718772118756279e-01
3.113487471975924237e-01
3.016519176306585726e-01
2.856223726511232242e-01
2.635928105962263013e-01
2.360045548879817767e-01
2.033822969652269164e-01
1.664179694616253480e-01
1.258370291630763749e-01
8.248013321255820429e-02
3.724766940388768433e-02
-8.933197602888798272e-03
-5.508632502012145160e-02
-1.002336167120878585e-01
-1.434236571910831870e-01
-1.837183721804923620e-01
-2.202380029047826815e-01
-2.522022647026839204e-01
-2.788654757452239119e-01
-2.996581496879510143e-01
-3.140889812099341150e-01
-3.217965553310300209e-01
-3.226224877339041175e-01
-3.164642864781972431e-01
-3.034638188415297311e-01
-2.838620312667438084e-01
-2.580366398568523234e-01
-2.265617370990411494e-01
-1.900571531044964457e-01
-1.493195148207638878e-01
-1.052105187531212627e-01
-5.865416889408681111e-02
-1.065668013778242607e-02
3.776851077382653576e-02
8.559963386917029959e-02
1.318137813493810706e-01
1.754413608793104762e-01
2.155775203750745495e-01
2.513543358158583652e-01
2.820612669011740570e-01
3.070396466327290352e-01
3.257735283601160825e-01
3.379062821449124732e-01
3.431439263408694318e-01
3.414272475363349102e-01
3.327673230750860522e-01
3.173397765709813356e-01
2.954891436613125144e-01
2.676192954145573122e-01
2.343369652987621343e-01
1.963040553229480345e-01
1.542938705858185600e-01
1.091848817303660013e-01
6.188206315949518199e-02
1.337028342164536809e-02
-3.534788337030869698e-02
-8.327177877610880685e-02
-1.294024148543195807e-01
-1.727679560653374580e-01
-2.124844421872036371e-01
-2.476941422393927894e-01
-2.776728195496249718e-01
-3.018028178984142329e-01
-3.195455797942150511e-01
-3.305871768168882063e-01
-3.346701789880111022e-01
-3.317497575097165807e-01
-3.219371188469923872e-01
-3.054377914791923665e-01
-2.827011707278463959e-01
-2.542311764462916734e-01
-2.207040480408606342e-01
-1.829122057987464522e-01
-1.416989629123115435e-01
-9.802708143206695368e-02
-5.287952639276349842e-02
-7.263790240310097346e-03
3.779761102741741041e-02
8.131089052462403544e-02
1.223470789129432745e-01
1.599997550496792265e-01
1.934972518957054355e-01
2.221449065274336832e-01
2.453430003423036077e-01
2.626843820605655466e-01
2.738097404783168543e-01
2.785731686571950583e-01
2.769405840521872442e-01
2.689889242814467174e-01
2.550014031811369541e-01
2.353066099766660813e-01
2.104125542659334158e-01
1.809133571434919929e-01
1.474735483753430998e-01
1.108776805182549730e-01
7.193070794648082078e-02
3.149874635159077840e-02
-9.525634539928828914e-03
-5.025640031970790567e-02
-8.981798097889370780e-02
-1.273485781578909126e-01
-1.620691828067843954e-01
-1.932353260299646269e-01
-2.201887846084297218e-01
-2.423959236924301819e-01
-2.593649260087108610e-01
-2.707910421208869489e-01
-2.764402647379256561e-01
-2.762066476716499297e-01
-2.701542138002741567e-01
-2.583956163027929520e-01
-2.412384381942473954e-01
-2.190574538135179328e-01
-1.923306329239005130e-01
-1.616618643420892898e-01
-1.276839795619491014e-01
-9.113189638000473991e-02
-5.277191380324808279e-02
-1.339391022104363671e-02
2.618578102616986314e-02
6.515716263961790489e-02
1.027439210009406523e-01
1.381816372867969989e-01
1.707724699352861641e-01
1.998872803047895275e-01
2.249354234398666108e-01
2.454659010357964632e-01
2.610680782245964338e-01
2.714544012616375568e-01
2.764541174304353532e-01
2.759498987194399788e-01
2.699996299164890701e-01
2.587075196470820515e-01
2.423057016517056184e-01
2.211379455339885780e-01
1.955951065190681959e-01
1.662094265931655102e-01
1.335470797720512692e-01
9.825625207614230305e-02
6.105092828076053024e-02
2.266398429484528521e-02
-1.612113646231616571e-02
-5.451222450427906097e-02
-9.172508982829086221e-02
-1.269814969167377683e-01
-1.595301374353095269e-01
-1.886921217965076281e-01
-2.138098486241863938e-01
-2.343396480042221341e-01
-2.498151827863015484e-01
-2.598424147705857834e-01
-2.642019534914936685e-01
-2.627170952320305730e-01
-2.553907182747323645e-01
-2.423376668591199490e-01
-2.237593282667242889e-01
-2.000481521999866175e-01
-1.716377946129457044e-01
-1.391108561848106717e-01
-1.031351251387437884e-01
-6.442742567550041599e-02
-2.380348933899423258e-02
1.790550394725620720e-02
5.983948558080864899e-02
1.011235063105537790e-01
1.409042597747345305e-01
1.783694667779935905e-01
2.127246120946311159e-01
2.432804114315061383e-01
2.693988878976236734e-01
2.905268444046691378e-01
3.062569274303370559e-01
3.162219565849495595e-01
3.202391979104941555e-01
3.182081984694273835e-01
3.101388355416287990e-01
2.962151776571013695e-01
2.766641567316081574e-01
2.518905727466141942e-01
2.223718122546414211e-01
1.886701587819570314e-01
1.514710416452578201e-01
1.114846736738828170e-01
6.950979646120547528e-02
2.637767819852188111e-02
-1.706617413947864037e-02
-5.995730238059326922e-02
-1.014390250769343638e-01
-1.407030245864335782e-01
-1.769592030936300020e-01
-2.094932932585740204e-01
-2.376840669982200893e-01
-2.609518877576375573e-01
-2.788902433842519457e-01
-2.911496207142469927e-01
-2.975211443198553241e-01
-2.979545837441612832e-01
-2.924569257244584719e-01
-2.812485090007790234e-01
-2.646134267828568198e-01
-2.429680243477854162e-01
-2.168658372948275570e-01
-1.869004134982610310e-01
-1.537990772862602995e-01
-1.183245430921253671e-01
-8.128495230159415996e-02
-4.353178093536591575e-02
-5.913600685479636354e-03
3.073774514270155578e-02
6.559793461121721236e-02
9.791145847026960780e-02
1.269831787106561194e-01
1.521648799261257068e-01
1.729556175278261776e-01
1.888937494749587387e-01
1.996644067741595308e-01
2.050711233474356021e-01
2.049861694208257035e-01
1.994769532402447254e-01
1.886579734673112796e-01
1.727969225275387544e-01
1.522750997604820355e-01
1.275317869566645612e-01
9.915664116885025692e-02
6.777158017148110503e-02
3.408543619393000768e-02
-1.133763367130669053e-03
-3.710232197179585967e-02
-7.300050315133255197e-02
-1.080058556204637199e-01
-1.413268187672382936e-01
-1.721913270621016068e-01
-1.998724709526964460e-01
-2.237449103846138598e-01
-2.432122693219440634e-01
-2.578271854737170798e-01
-2.672282665128395962e-01
-2.711473999608413621e-01
-2.695074662422207723e-01
-2.622769524374275463e-01
-2.496196951655962337e-01
-2.318028991558493956e-01
-2.091862349197586290e-01
-1.823028411868499177e-01
-1.517211060803147493e-01
-1.181369048464853133e-01
-8.230774568397092317e-02
-4.502350902456853099e-02
-7.129599314000145682e-03
3.052565966503140160e-02
6.711291523184925722e-02
1.018119592055919398e-01
1.338550836001655142e-01
1.625581137031684165e-01
1.872672781315891655e-01
2.074785353107255759e-01
2.227500319085873315e-01
2.327505194230070629e-01
2.373101578397136535e-01
2.363054155023505132e-01
2.298105617868966277e-01
2.179749645866202457e-01
2.010641956460936797e-01
1.794996679180833610e-01
1.537426470176264104e-01
1.244090837527593862e-01
9.216840733542852604e-02
5.775838787529607998e-02
2.200105644109129344e-02
-1.426876088871864567e-02
-5.017939712999819335e-02
-8.484848942764600110e-02
-1.174071962175560202e-01
-1.470020126857889409e-01
-1.728154044342389284e-01
-1.941846395644013512e-01
-2.104895978965970471e-01
-2.211101605365897171e-01
-2.254262085901146406e-01
