BVP Green Neck Signal
-6.921666283154639943e-02
-8.489390902954940810e-02
-1.068243012290025773e-01
-1.283560119775288832e-01
-1.453458169522002241e-01
-1.579937665942844349e-01
-1.689644307697573677e-01
-1.788072706851407956e-01
-1.859909625767670605e-01
-1.890194357244324996e-01
-1.878120371562627122e-01
-1.836586878467966477e-01
-1.770024037748233747e-01
-1.675029132338281546e-01
-1.549045159290785012e-01
-1.395914005224717647e-01
-1.224693950249155366e-01
-1.041331486889802427e-01
-8.482182635716181696e-02
-6.484844577270053312e-02
-4.482400618008527959e-02
-2.533354805768335549e-02
-6.958577757843691092e-03
9.977540159891343241e-03
2.513890720190076200e-02
3.808002596377356441e-02
4.862837501331285228e-02
5.648166620589875619e-02
6.161310442720567548e-02
6.391201076932077896e-02
6.339214354638565696e-02
6.027642275286680673e-02
5.453593364937196764e-02
4.661320660984741293e-02
3.660774760423543550e-02
2.488824354825260043e-02
1.189212788295222756e-02
-2.207449713667014590e-03
-1.682207477731698098e-02
-3.175870950855617936e-02
-4.660785507827269747e-02
-6.098376001607451469e-02
-7.470144365019092125e-02
-8.739782252660094342e-02
-9.890828699493250942e-02
-1.090783599173481000e-01
-1.177390956863921256e-01
-1.248370613832364556e-01
-1.304026868550336171e-01
-1.343409011814586107e-01
-1.368257847422112983e-01
-1.378917318943336801e-01
-1.376156084781029465e-01
-1.363178165455663504e-01
-1.339348651456978290e-01
-1.308110271020385684e-01
-1.270620946115481598e-01
-1.227871926404920933e-01
-1.183585940151987287e-01
-1.136999249359694208e-01
-1.090963070829389508e-01
-1.046433402506964927e-01
-1.003582123906097689e-01
-9.648079845831955548e-02
-9.291945741907058076e-02
-8.976129958312517587e-02
-8.705521603014995669e-02
-8.470504491351829590e-02
-8.277019226021524456e-02
-8.117161156625118945e-02
-7.980484583758909456e-02
-7.869698650568582310e-02
-7.768858274476686532e-02
-7.672109031712545657e-02
-7.576626504681943652e-02
-7.463995174004425803e-02
-7.338597494866044846e-02
-7.187776167412987527e-02
-7.003735801201753375e-02
-6.792067064886209149e-02
-6.539063786020631042e-02
-6.253291948425301894e-02
-5.933486989728675026e-02
-5.576399086352100409e-02
-5.197131903691992738e-02
-4.792778253036825142e-02
-4.375628545827761617e-02
-3.956925246623203829e-02
-3.537256931278158489e-02
-3.137949455087946093e-02
-2.763032041227208441e-02
-2.424069419231649619e-02
-2.137146943241204772e-02
-1.900723559924709372e-02
-1.734132690239087449e-02
-1.639046858256054673e-02
-1.620343898037052144e-02
-1.688276803366300233e-02
-1.834359550457073662e-02
-2.067872739285053080e-02
-2.382379550672567708e-02
-2.773207873229316389e-02
-3.239203132712471789e-02
-3.766120757077398573e-02
-4.350212806088540191e-02
-4.979453149361298681e-02
-5.641408602647519227e-02
-6.326132052687179208e-02
-7.019964863257950605e-02
-7.709219838113232082e-02
-8.384802439114151518e-02
-9.031234689734372878e-02
-9.637686177016645261e-02
-1.019780264050974550e-01
-1.069437004504943944e-01
-1.112881360652139273e-01
-1.148698810296306522e-01
-1.176406497642492610e-01
-1.196318949015105770e-01
-1.206956023116173837e-01
-1.209607411556853224e-01
-1.203268149670676523e-01
-1.188262312367751317e-01
-1.165603808542296782e-01
-1.134476320291093465e-01
-1.096774997223604470e-01
-1.052139904687959815e-01
-1.001469996747890862e-01
-9.460564410810226588e-02
-8.859628034731166502e-02
-8.228772051794533415e-02
-7.572841267639424112e-02
-6.901878552246747123e-02
-6.227968402442573409e-02
-5.560060693151356453e-02
-4.906211192874863208e-02
-4.279970964519316801e-02
-3.687722199338656220e-02
-3.138357629409255917e-02
-2.645706164121946341e-02
-2.205851954938589654e-02
-1.837793032422675027e-02
-1.540820587164344613e-02
-1.318639791757462987e-02
-1.184127016040706359e-02
-1.122249439567717805e-02
-1.150932005514663375e-02
-1.261585975497218903e-02
-1.451512588199859594e-02
-1.727266690485645961e-02
-2.067893745494808061e-02
-2.483587390994749372e-02
-2.961031155146793409e-02
-3.491872513941440132e-02
-4.073974830645812895e-02
-4.689328802506426835e-02
-5.335647892739341785e-02
-6.001121230398068912e-02
-6.674181280658096627e-02
-7.346195997484031293e-02
-8.007951895248184571e-02
-8.646244465935506995e-02
-9.256024290348204009e-02
-9.825379177564660949e-02
-1.034377701067119154e-01
-1.081245520036158148e-01
-1.121255417464052939e-01
-1.154780720194706761e-01
-1.180836704836331214e-01
-1.198658844053227673e-01
-1.209175906029520409e-01
-1.210670953630552799e-01
-1.204259069485387468e-01
-1.189434787320001741e-01
-1.166109678235980190e-01
-1.135642790657353796e-01
-1.097227715228351885e-01
-1.052373249843830405e-01
-1.001334298922380017e-01
-9.448059422147980779e-02
-8.842180856329553973e-02
-8.200228963338480892e-02
-7.536113311118439184e-02
-6.860460471729602772e-02
-6.184614549709596676e-02
-5.520150209080115083e-02
-4.881179764823148637e-02
-4.274837579373907959e-02
-3.716443313231138079e-02
-3.214917272746417587e-02
-2.775803065652255458e-02
-2.414630986500249099e-02
-2.127549779584287509e-02
-1.928110912055784609e-02
-1.816258960431826192e-02
-1.789094993808487688e-02
-1.855153600094594513e-02
-1.999467637414314991e-02
-2.228183577274428506e-02
-2.531066785341482689e-02
-2.897667096601078823e-02
-3.326789635989262778e-02
-3.798258798754647336e-02
-4.309861237052242666e-02
-4.847178385007502865e-02
-5.396994428045830128e-02
-5.952397846484713123e-02
-6.497542196570106621e-02
-7.025203949746125498e-02
-7.525974836614651720e-02
-7.989870754400088537e-02
-8.410803563445040654e-02
-8.785013613450259884e-02
-9.104481129909836046e-02
-9.370709030269018525e-02
-9.580333025031323446e-02
-9.731546313326218389e-02
-9.833710931120394350e-02
-9.879604846791144313e-02
-9.879939101664750312e-02
-9.836663431735147289e-02
-9.750418011173905830e-02
-9.637503668638486287e-02
-9.490617365670675487e-02
-9.322291213543987265e-02
-9.135959743653171428e-02
-8.930960512999927547e-02
-8.721569841857065852e-02
-8.500607633747213343e-02
-8.275294474167266268e-02
-8.048100523106663240e-02
-7.815728732512566834e-02
-7.585139069427228320e-02
-7.351991980125770210e-02
-7.116449313713063551e-02
-6.881053473117001995e-02
-6.642529455722080700e-02
-6.401990407543405037e-02
-6.161363813067042422e-02
-5.917454982727661517e-02
-5.675471232465903459e-02
-5.435982640042084924e-02
-5.197973158137875888e-02
-4.970438804200727478e-02
-4.750342047874346607e-02
-4.545361185240656687e-02
-4.360060026697006041e-02
-4.192475717205759039e-02
-4.054730362594807791e-02
-3.943926096069773346e-02
-3.866728218505717518e-02
-3.828045338660111818e-02
-3.823858259872105203e-02
-3.863535994828509734e-02
-3.942615705884035954e-02
-4.063187522220275405e-02
-4.226624455578372602e-02
-4.426338002021062978e-02
-4.664946194504110411e-02
-4.936253844044023731e-02
-5.236727685008916999e-02
-5.563261940007215023e-02
-5.908517091707532476e-02
-6.268031057794651306e-02
-6.636534958948772656e-02
-7.006364362455134998e-02
-7.372205074094005661e-02
-7.728982729737464419e-02
-8.067431367081473459e-02
-8.386713241701986010e-02
-8.677279835125439877e-02
-8.934914046700218049e-02
-9.158787288469585897e-02
-9.338215048893895587e-02
-9.478582976827465423e-02
-9.570854405252227082e-02
-9.614430503358109559e-02
-9.612808926239276019e-02
-9.557637741714990198e-02
-9.459036758799010958e-02
-9.310972187641093634e-02
-9.116799428121538651e-02
-8.882417481449549068e-02
-8.604907634807970607e-02
-8.294422068478472798e-02
-7.950446286602828871e-02
-7.578641205964130323e-02
-7.184932353227299617e-02
-6.773979303166474675e-02
-6.350933170850481257e-02
-5.923237376470180671e-02
-5.496720297188334436e-02
-5.076189338466265133e-02
-4.673964762988089272e-02
-4.287570312183269783e-02
-3.932621026104841933e-02
-3.612954445736959314e-02
-3.332037389344266048e-02
-3.106139188306071552e-02
-2.926056557231015987e-02
-2.811189311482423930e-02
-2.761469048161207390e-02
-2.778405953433546460e-02
-2.874400540696918360e-02
-3.038070218276634621e-02
-3.282235720473779955e-02
-3.601717285345098357e-02
-3.993639966024842280e-02
-4.458366295008447944e-02
-4.985084798849297172e-02
-5.570805841887865872e-02
-6.205090236168924606e-02
-6.878138384832732655e-02
-7.575608693378386993e-02
-8.288908200781500146e-02
-8.998110649425770935e-02
-9.691337507712440014e-02
-1.035345885496747054e-01
-1.096252588932541405e-01
-1.151495984844076170e-01
-1.198386259319110525e-01
-1.236371111177874682e-01
-1.264130112548403906e-01
-1.280110934171176107e-01
-1.284836310815423155e-01
-1.276520026219664095e-01
-1.255936134044613461e-01
-1.222851347663601734e-01
-1.177490049929806049e-01
-1.121363613115222424e-01
-1.054684304082627588e-01
-9.794410005932591146e-02
-8.968149754524780415e-02
-8.087073332339728138e-02
-7.170815698827695539e-02
-6.239156742424142865e-02
-5.313044081244640282e-02
-4.412841841798409437e-02
-3.560899546087063772e-02
-2.771610712577987634e-02
-2.069048215352052578e-02
-1.461098732303318243e-02
-9.661618655026044111e-03
-5.938449500046689977e-03
-3.455738289253537654e-03
-2.350632349843076452e-03
-2.502956829753891221e-03
-3.993002013564159181e-03
-6.720391678036646832e-03
-1.056989136580599453e-02
-1.551443351927303538e-02
-2.129916497389162944e-02
-2.788653952915160633e-02
-3.505197019105866368e-02
-4.262798943929604206e-02
-5.047238896882837167e-02
-5.835002730584338410e-02
-6.614712420778974533e-02
-7.366438304711341034e-02
-8.077243838665552900e-02
-8.731401345711482798e-02
-9.320717918447918304e-02
-9.831535133600752263e-02
-1.025820966773224457e-01
-1.059614269683997745e-01
-1.083620215313841895e-01
-1.098863029267658220e-01
-1.104161972023216531e-01
-1.100558165134407629e-01
-1.088320314605247113e-01
-1.067449348767826600e-01
-1.040051550253847934e-01
-1.005411127640386121e-01
-9.654220998693248401e-02
-9.207143773731107927e-02
-8.719963391767131256e-02
-8.212361840885798459e-02
-7.684375959399512845e-02
-7.152924995694318056e-02
-6.625090452532186869e-02
-6.110788689628554593e-02
-5.619797077675527108e-02
-5.159569825612773941e-02
-4.737542909906240773e-02
-4.359943534439209012e-02
-4.034717580092909983e-02
-3.760309763074280720e-02
-3.547659508157977037e-02
-3.393106359000973987e-02
-3.300734938733788926e-02
-3.273336927633344745e-02
-3.301343546162285175e-02
-3.393905208916395827e-02
-3.539651894548493521e-02
-3.739357197515799647e-02
-3.990090170465590558e-02
-4.279533038663689559e-02
-4.610938796081230640e-02
-4.971201347741609211e-02
-5.357261043622514596e-02
-5.762510707051420739e-02
-6.176908544931204031e-02
-6.596873212684169208e-02
-7.013574433532007713e-02
-7.420913808353095387e-02
-7.812147906381544660e-02
-8.182629458565682246e-02
-8.523963675255072370e-02
-8.834923061334017114e-02
-9.107913773445477923e-02
-9.338946482114315883e-02
-9.528971564418295404e-02
-9.668328412911030012e-02
-9.762953762472514896e-02
-9.805868444820864394e-02
-9.797250721208942970e-02
-9.741995864711802677e-02
-9.633282306949068896e-02
-9.481120249125260524e-02
-9.281828212056748850e-02
-9.039632233048523757e-02
-8.761242441994154806e-02
-8.445892781498552659e-02
-8.103429066034614769e-02
-7.735807433929459132e-02
-7.349719362633184983e-02
-6.951849568973052229e-02
-6.548448499497486197e-02
-6.145273502271929311e-02
-5.750549112050717948e-02
-5.370646592891632765e-02
-5.010491523100562422e-02
-4.681094036848031104e-02
-4.381201822721650374e-02
-4.122982658591917843e-02
-3.909078429777899238e-02
-3.740803311082709082e-02
-3.629266969056338388e-02
-3.565445973347274033e-02
-3.561137552487059210e-02
-3.613319793509005284e-02
-3.718893659826155024e-02
-3.884694110853503801e-02
-4.096612920898486804e-02
-4.361827553501018695e-02
-4.672718043455674486e-02
-5.022640826608813780e-02
-5.411894010207002337e-02
-5.826795769848018558e-02
-6.267049071411127936e-02
-6.724158098210340773e-02
-7.190073146113459823e-02
-7.659015001854595217e-02
-8.123822645565910439e-02
-8.576045721316928605e-02
-9.010749387048973269e-02
-9.420671904314947831e-02
-9.796667933757646773e-02
-1.014026526351067270e-01
-1.043746979043603806e-01
-1.068895676838713948e-01
-1.088951054317192080e-01
-1.102992215689307109e-01
-1.111885022721401106e-01
-1.114146351962024134e-01
-1.110370557154897464e-01
-1.100369705041374102e-01
-1.083565064322792315e-01
-1.061228652108655579e-01
-1.032378210075228231e-01
-9.979550295310726793e-02
-9.582768019950550775e-02
-9.133415397474302366e-02
-8.645175421780763869e-02
-8.117481993437113130e-02
-7.560250456452860535e-02
-6.982551312859587578e-02
-6.389658497373683355e-02
-5.793366704719066923e-02
-5.202420898455744486e-02
-4.623367363011098019e-02
-4.069441906638600337e-02
-3.547374112498903609e-02
-3.063989374797567583e-02
-2.632542668076909981e-02
-2.252197304264631772e-02
-1.935812522037785172e-02
-1.686247275988116134e-02
-1.502852086580479946e-02
-1.396691149719953701e-02
-1.358132597967590116e-02
-1.395091309687116615e-02
-1.503892249778177731e-02
-1.676867540563336395e-02
-1.918617501629855254e-02
-2.214270097688635086e-02
-2.564810782896063956e-02
-2.962117915243558247e-02
-3.395353980357212337e-02
-3.862276526394820692e-02
-4.350076558108356695e-02
-4.853357626065374353e-02
-5.364670014394787301e-02
-5.874911240114701061e-02
-6.377025174111314310e-02
-6.867032165535873200e-02
-7.334411831151881056e-02
-7.776514124877920153e-02
-8.188430479801214745e-02
-8.560261864111497199e-02
-8.898542255844850424e-02
-9.188538341127591713e-02
-9.432910316681536456e-02
-9.630085159799940675e-02
-9.769269126632167122e-02
-9.863973830936829945e-02
-9.897909967345445981e-02
-9.877496759627046874e-02
-9.803277938727784913e-02
-9.667225673476377568e-02
-9.484602872413760988e-02
-9.243358481306246377e-02
-8.952205761503873038e-02
-8.614325604622480315e-02
-8.228863239734168777e-02
-7.808673618084999157e-02
-7.352316407996806191e-02
-6.869525420347968869e-02
-6.367508395384305353e-02
-5.854008044884599637e-02
-5.337888037731930435e-02
-4.829514160853237703e-02
-4.337361727256998367e-02
-3.871831644096583591e-02
-3.444677793788673836e-02
-3.059953482765515737e-02
-2.732887407112478267e-02
-2.466352445038928060e-02
-2.269016656907753282e-02
-2.148386120367151014e-02
-2.100657298878137735e-02
-2.136537443647552187e-02
-2.248742211940341768e-02
-2.438141485230652800e-02
-2.703075046666839759e-02
-3.028513073292047469e-02
-3.417228805693756089e-02
-3.851458950044105156e-02
-4.322773868378781970e-02
-4.824868800978466404e-02
-5.332050471569489691e-02
-5.846613593115562030e-02
-6.346994407941029814e-02
-6.822021849435426499e-02
-7.273610496635837808e-02
-7.672437074197996365e-02
-8.033641261712837212e-02
-8.342571274858245900e-02
-8.595604190103156572e-02
-8.813224457398410872e-02
-8.972513592371178515e-02
-9.106373813666113204e-02
-9.214073537500831745e-02
-9.303103140531658599e-02
-9.408053569133950633e-02
-9.518936129306790339e-02
-9.671860351175666504e-02
-9.878469097108370789e-02
-1.014716261468709968e-01
-1.050579860226994872e-01
-1.095604022115291287e-01
-1.150688902712208306e-01
-1.217396465122817240e-01
-1.294609649704117071e-01
-1.381986354167805131e-01
-1.480064729591680783e-01
-1.584456058683973712e-01
-1.696333712976411667e-01
-1.811148156940650678e-01
-1.924665001884295346e-01
-2.037150474536126299e-01
-2.139357823300443440e-01
-2.232141309498855142e-01
-2.308522389768175587e-01
-2.362525470783754522e-01
-2.394575073041873003e-01
-2.394887629754343661e-01
-2.365024212112670221e-01
-2.299525220951897375e-01
-2.194789000177943539e-01
-2.053032682907660056e-01
-1.870030100475796875e-01
-1.649166104479244110e-01
-1.391352989762799364e-01
-1.098507572400927168e-01
-7.761749693262884331e-02
-4.292274706640906295e-02
-6.251230094987375585e-03
3.147644112906644587e-02
6.960866611603015730e-02
1.073318884235982956e-01
1.435100194804512230e-01
1.777616607818252592e-01
2.087329165058115499e-01
2.358380375456717859e-01
2.583839855775695304e-01
2.753716096976166483e-01
2.868754592836105788e-01
2.919072317973423480e-01
2.905409514282067951e-01
2.826570309034397432e-01
2.681224585284882056e-01
2.476429006587076431e-01
2.211764048770635815e-01
1.895926515009810354e-01
1.534777236142401691e-01
1.136341602864047867e-01
7.112616576862475226e-02
2.677627894791782814e-02
-1.827855041606674114e-02
-6.307319599813351885e-02
-1.065233660162447915e-01
-1.477799992663682005e-01
-1.857887273341914391e-01
-2.199422034218405098e-01
-2.494076090210106122e-01
-2.736564303326899927e-01
-2.924852522049308234e-01
-3.052823365240792119e-01
-3.124128815646297630e-01
-3.135097806811197318e-01
-3.089996429559059843e-01
-2.993178169333332028e-01
-2.845807195381952481e-01
-2.659073288054267792e-01
-2.434088486607736135e-01
-2.181944664323561267e-01
-1.909581206657980645e-01
-1.623421279622384028e-01
-1.335264327871126810e-01
-1.048796545624570142e-01
-7.749428113867454226e-02
-5.187030430996152769e-02
-2.869510082699901904e-02
-8.535396929065415528e-03
8.255684036821267502e-03
2.123308636288635809e-02
3.032896008644278552e-02
3.523966500025192683e-02
3.624127643999559834e-02
3.317763713625986044e-02
2.642491033492230801e-02
1.627944168177099249e-02
2.956336404299708676e-03
-1.272788695607512954e-02
-3.069658040854040398e-02
-5.008377010895112558e-02
-7.048942461351444255e-02
-9.136468782215781403e-02
-1.119232499340915010e-01
-1.319340809782642010e-01
-1.505999738927845388e-01
-1.676696056777035038e-01
-1.825983024653295983e-01
-1.950829021165906840e-01
-2.048684408490313302e-01
-2.116472000409532206e-01
-2.154324689741413112e-01
-2.159623945797026767e-01
-2.135176841685192395e-01
-2.079512623553243511e-01
-1.995147518415903987e-01
-1.884565030863424029e-01
-1.748786926055421465e-01
-1.594012632781390826e-01
-1.420732846915840064e-01
-1.234434281922318355e-01
-1.038782510299691431e-01
-8.371422509855323824e-02
-6.351913409539540478e-02
-4.354250624298917210e-02
-2.423891822622306624e-02
-5.960129060525586053e-03
1.097398837793332749e-02
2.630679074123064287e-02
3.971869390709091563e-02
5.111854983606947678e-02
6.027306847584036620e-02
6.708197535944888934e-02
7.166013768294422770e-02
7.377107004386330991e-02
7.371829721490429088e-02
7.143398315917519337e-02
6.707323566467966736e-02
6.100515054993134456e-02
5.315062958496179213e-02
4.401615746416541464e-02
3.367740104241753740e-02
2.240693323996145736e-02
1.062268252663431389e-02
-1.633800723505704489e-03
-1.393641982422764991e-02
-2.613605293439757310e-02
-3.804674112592184437e-02
-4.938441083410198551e-02
-6.007903957359098795e-02
-6.999309924833435614e-02
-7.897060159690376391e-02
-8.703515654080923314e-02
-9.410675978323485014e-02
-1.001384047540973404e-01
-1.052997745121556916e-01
-1.094400175638350625e-01
-1.127508757848379728e-01
-1.152947251900562076e-01
-1.170193525969574211e-01
-1.182505252000392026e-01
-1.188161363968793516e-01
-1.189299902361650174e-01
-1.186837164657431609e-01
-1.179751127609846295e-01
-1.171006103370618445e-01
-1.158690983071454239e-01
-1.143994073982354809e-01
-1.127465375923032975e-01
-1.107720447671301789e-01
-1.086438825735686897e-01
-1.062127510134458219e-01
-1.034924435899858830e-01
-1.005145727638709907e-01
-9.718319204096032005e-02
-9.355080044497231240e-02
-8.959421900217993950e-02
-8.529431392583712579e-02
-8.070985013405221342e-02
-7.586579792691013069e-02
-7.076022681218011035e-02
-6.553181849416826743e-02
-6.019015689939050118e-02
-5.483845492988595471e-02
-4.962304977074820378e-02
-4.451577855653696125e-02
-3.976260762282227135e-02
-3.538924037390046851e-02
-3.150137294759354500e-02
-2.827826832895067449e-02
-2.564474197004790873e-02
-2.383777107624804326e-02
-2.283391934970793735e-02
-2.267580770740192098e-02
-2.345757528365456646e-02
-2.504414474859117251e-02
-2.754777822977659552e-02
-3.085787225757036928e-02
-3.492394367118512033e-02
-3.969941485230104455e-02
-4.502161484874819819e-02
-5.084512366475349432e-02
-5.701224342877600493e-02
-6.341117228935731764e-02
-6.989619158094841078e-02
-7.635012657735118502e-02
-8.261990049519533919e-02
-8.859127919239460913e-02
-9.414946630978551778e-02
-9.914172606343543692e-02
-1.035544338051454100e-01
-1.072080635955203060e-01
-1.101009119412547504e-01
-1.121578823335521169e-01
-1.132989506883838315e-01
-1.136139367934299038e-01
-1.129723783237380486e-01
-1.114862359870656960e-01
-1.091381182188694149e-01
-1.059511352251323174e-01
-1.020673713603231780e-01
-9.745539609346247356e-02
-9.227962327671795917e-02
-8.658575392855452635e-02
-8.047963322442555634e-02
-7.409456439393430349e-02
-6.751330901484754732e-02
-6.087236491087189005e-02
-5.427908711486660598e-02
-4.786864207064694954e-02
-4.172403052137402257e-02
-3.601070886685001082e-02
-3.077323573967520598e-02
-2.615497302458659468e-02
-2.225152265953696945e-02
-1.907254419141583834e-02
-1.679014131852530484e-02
-1.532905422553076241e-02
-1.481363454345990815e-02
-1.524614091551165090e-02
-1.655767029628955195e-02
-1.884492138041728854e-02
-2.193561252481827234e-02
-2.587759178765518947e-02
-3.057506135618041909e-02
-3.589986608114164451e-02
-4.183417774158815217e-02
-4.818055722251841227e-02
-5.488642497037732326e-02
-6.181318782974077469e-02
-6.881913050942706223e-02
-7.579830852450480938e-02
-8.262246401526365802e-02
-8.916133569320662533e-02
-9.531859266460758484e-02
-1.009911829263762523e-01
-1.060498001610206131e-01
-1.105012216502812283e-01
-1.141839583926986673e-01
-1.171021807643184282e-01
-1.192218118777584046e-01
-1.204465244545387392e-01
-1.209213343482812009e-01
-1.205000652297358310e-01
-1.192879184063904419e-01
-1.173227115977982515e-01
-1.145648188577476773e-01
-1.112411344572373367e-01
-1.072564429514007572e-01
-1.027629675688987443e-01
-9.785084024454480944e-02
-9.252598454370271341e-02
-8.700169137096197547e-02
-8.125615383551323956e-02
-7.540805749924792134e-02
-6.956844853337430801e-02
-6.375386949885486487e-02
-5.809691968589934807e-02
-5.263719329305330263e-02
-4.740595480333852085e-02
-4.250756399182060996e-02
-3.794628976943227594e-02
-3.374585437994536558e-02
-2.999078286655908199e-02
-2.661770453813229464e-02
-2.370990629778871317e-02
-2.126432087174887076e-02
-1.921066900196144456e-02
-1.766832257818624907e-02
-1.651745740702367793e-02
-1.582114000263894898e-02
-1.559375740770824192e-02
-1.571549980333718927e-02
-1.632923509787113231e-02
-1.731391094565508382e-02
-1.871303961018069839e-02
-2.057141448667391265e-02
-2.276256903579682023e-02
-2.541971217158612434e-02
-2.845628230297126554e-02
-3.187926369252518100e-02
-3.574392070128136478e-02
-3.993685046945764927e-02
-4.452759983830803514e-02
-4.946872852663557196e-02
-5.470094589096654442e-02
-6.025060819701946041e-02
-6.601578135311284012e-02
-7.195728238003934463e-02
-7.805528134867648071e-02
-8.416774180771184610e-02
-9.027073052431180966e-02
-9.627202536699942803e-02
-1.020300754359652895e-01
-1.075525494905669455e-01
-1.126432640102218302e-01
-1.172555245347793873e-01
-1.213250248544715248e-01
-1.246802189410790573e-01
-1.273739363697784510e-01
-1.292288575644267024e-01
-1.302354820346471043e-01
-1.303871126595622099e-01
-1.295804469214081323e-01
-1.279249524210618050e-01
-1.253419306437436043e-01
-1.219019286878582076e-01
-1.176747610464229654e-01
-1.126865963792225422e-01
-1.070859439529057849e-01
-1.009317902284114776e-01
-9.435845812734602878e-02
-8.750014537233923029e-02
-8.048805663376461250e-02
-7.345834121943736750e-02
-6.657114350934359437e-02
-5.994480428227660224e-02
-5.373018804250279112e-02
-4.805743848916980976e-02
-4.299336893910978702e-02
-3.869891321476072454e-02
-3.518539489089096695e-02
-3.256267252333629875e-02
-3.083903288607067056e-02
-2.999730609206439913e-02
-3.008935068392934453e-02
-3.098782426468478512e-02
-3.272688605196589356e-02
-3.514495426565417829e-02
-3.817213477628988993e-02
-4.171051054770329863e-02
-4.554819785854387348e-02
-4.965019871957632169e-02
-5.375427327511807241e-02
-5.778731547833756976e-02
-6.156975724158369329e-02
-6.491349649206543115e-02
-6.775922710779840041e-02
-6.989764131730069607e-02
-7.128977010319788310e-02
-7.181801890062194937e-02
-7.141539846581190787e-02
-7.006294363307630224e-02
-6.775512740898577413e-02
-6.449589832350673124e-02
-6.036866929371512841e-02
-5.545602628577595006e-02
-4.983177605041504143e-02
-4.374439088514897600e-02
-3.721761921228881886e-02
-3.056934831374572697e-02
-2.396360582773196524e-02
-1.755780852199647496e-02
-1.174747707568404853e-02
-6.521741930237925922e-03
-2.306217074256183830e-03
7.882629022382681150e-04
2.612272351747851884e-03
2.839847755336133428e-03
1.576955540736557637e-03
-1.479885729107288661e-03
-6.274911321611321979e-03
-1.281777771240525526e-02
-2.117311839404875662e-02
-3.111535652874256735e-02
-4.263365257011997311e-02
-5.550196453229586102e-02
-6.950576039719522092e-02
-8.441767906829919510e-02
-9.994406490263911536e-02
-1.157428553249069958e-01
-1.315569221526825539e-01
-1.469888537541096385e-01
-1.616890368242141496e-01
-1.754244514685771861e-01
-1.877024857841942951e-01
-1.984474721855267743e-01
-2.072362111972901877e-01
-2.138549010666499495e-01
-2.182714935584343929e-01
-2.200963652631967027e-01
-2.195802729287794075e-01
-2.164504388238423505e-01
-2.107910905972917304e-01
-2.028335249669473428e-01
-1.924458016403429172e-01
-1.801672383692391743e-01
-1.659615426138817962e-01
-1.501538680520368985e-01
-1.331668602429738058e-01
-1.150890089990232457e-01
-9.651437518938041360e-02
-7.759949123830164885e-02
-5.866505066450888872e-02
-4.014920316225081831e-02
-2.219477783890465294e-02
-5.145292781057041187e-03
1.074970142416985242e-02
2.542592688505769527e-02
3.858983036175391013e-02
5.017767101999710821e-02
6.025753036126856033e-02
6.854887124789284247e-02
7.530219849601964277e-02
8.040067939763383131e-02
8.384452920655095787e-02
8.601665548435079300e-02
8.659928989564043278e-02
8.598499573858954526e-02
8.414779093927683695e-02
8.103319841661273115e-02
7.709666100391655841e-02
7.197850360516018509e-02
6.598191616525982128e-02
5.910454332562380120e-02
5.118570676690152588e-02
4.257228730469156397e-02
3.296883071957774913e-02
2.249471957756155049e-02
1.122475141998605097e-02
-1.007908281506292303e-03
-1.397217908557789323e-02
-2.771722621579641305e-02
-4.223428217457346479e-02
-5.725627149411671724e-02
-7.280661837928299740e-02
-8.868022023407187704e-02
-1.045905811648597805e-01
-1.205415749104733203e-01
-1.360602570720963189e-01
-1.510105307332471891e-01
-1.651941154262725198e-01
-1.781271478561646249e-01
-1.898523427857159995e-01
-1.998644345316704096e-01
-2.080411069420272652e-01
-2.142997492463627474e-01
-2.182544608983563172e-01
-2.201059221821805578e-01
-2.195609483488416003e-01
-2.167100801958976031e-01
-2.116959100994132426e-01
-2.044457719992849309e-01
-1.953524663068216816e-01
-1.844472282945437969e-01
-1.720451892448353615e-01
-1.584766236899567970e-01
-1.439517795655954335e-01
-1.289002085931242880e-01
-1.135846497425772178e-01
-9.833544870655978876e-02
-8.349338674156950302e-02
-6.933402872386827676e-02
-5.607358997731638067e-02
-4.402122243534672963e-02
-3.327063143979921284e-02
-2.400672708011712675e-02
-1.637289886963065599e-02
-1.023278612357882839e-02
-5.829306508426550237e-03
-2.940275797636934807e-03
-1.568546144922161600e-03
-1.694865367368361686e-03
-2.913589127791271771e-03
-5.406006506064930939e-03
-8.775238766160743664e-03
-1.293805833514553166e-02
-1.781537009723375975e-02
-2.296472486668358487e-02
-2.854435150774934510e-02
-3.421406214271732749e-02
-3.991222951775726113e-02
-4.559930718806097516e-02
-5.102277944542320254e-02
-5.629181675178900057e-02
-6.127623721728617939e-02
-6.596718785817801134e-02
-7.036947617994145088e-02
-7.448487257407845896e-02
-7.830070210992112756e-02
-8.187926490701324944e-02
-8.521427119957930563e-02
-8.827388039571805456e-02
-9.122036482057495344e-02
-9.386726454480524839e-02
-9.634372143102407082e-02
-9.858821051727653662e-02
-1.004658445517183918e-01
-1.021671589632068278e-01
-1.033712751693947329e-01
-1.041713643555342711e-01
-1.044588627951513887e-01
-1.040358292685059083e-01
-1.030465016486234453e-01
-1.011879881355235156e-01
-9.851055930490036638e-02
-9.494609734646865251e-02
-9.037350950265990446e-02
-8.490093506380878841e-02
-7.843531579036520929e-02
-7.104603893722773178e-02
-6.281110785180951672e-02
-5.381281844310480122e-02
-4.416903551117255800e-02
-3.408759844199058670e-02
-2.369425871250455118e-02
-1.323835132663732372e-02
-2.989690091051003251e-03
6.915978602994823921e-03
1.607689282890782667e-02
2.436274184607799265e-02
3.146322453732502966e-02
3.710404676683894121e-02
4.119740526980769646e-02
4.341785488801964965e-02
4.375184328757308894e-02
4.203582683480394655e-02
3.822733835870248398e-02
3.239228732977582348e-02
2.454064068685693489e-02
1.486178104811061718e-02
3.498369147980531779e-03
-9.272405726819268890e-03
-2.319522985606367604e-02
-3.790046705703828400e-02
-5.306430713145691286e-02
-6.828798656305724857e-02
-8.315796256483949656e-02
-9.734077863438778122e-02
-1.103835031824385443e-01
-1.220362083302959783e-01
-1.319038765436257310e-01
-1.397759350824840097e-01
-1.454310366052776193e-01
-1.487162118117140719e-01
-1.496347436369727668e-01
-1.480793835101703038e-01
-1.442642162423183605e-01
-1.381971847105824547e-01
-1.302147835094981110e-01
-1.205614501156319629e-01
-1.095098314546342488e-01
-9.760749714121809417e-02
-8.504108997059894870e-02
-7.247022432021556215e-02
-6.017426948564053024e-02
-4.863022019554014835e-02
-3.836648434425846133e-02
-2.956905120503611206e-02
-2.279830664579866190e-02
-1.814349770166645559e-02
-1.593880113406608012e-02
-1.633851160111731565e-02
-1.934527392430527432e-02
-2.504016689531868289e-02
-3.322549868700765130e-02
-4.382578867181444182e-02
-5.651466584927903464e-02
-7.105194471745855667e-02
-8.697456475754010430e-02
-1.039067708942350288e-01
-1.213752339330063101e-01
-1.388054470062796697e-01
-1.558380270850669436e-01
-1.717779661774977984e-01
-1.863316078134074072e-01
-1.989280827490461090e-01
-2.091633714988260229e-01
-2.167993006899119890e-01
-2.213832057822643362e-01
-2.229396375716125589e-01
-2.211823135012838670e-01
-2.161763049345734600e-01
-2.079941496479855711e-01
-1.967140158891625412e-01
-1.827091788024499952e-01
-1.661602065726352495e-01
-1.475458233342723524e-01
-1.272409982703944786e-01
-1.057416547067808743e-01
-8.355853757997057374e-02
-6.119276101621214103e-02
-3.917007001200775718e-02
-1.797558846595230519e-02
1.884755320667674816e-03
2.004856013666013459e-02
3.603361900789690819e-02
4.964861843510184891e-02
6.052197775575142435e-02
6.851816539743736667e-02
7.357603439030162285e-02
7.552242922421135984e-02
7.462307129445745757e-02
7.075424562138170337e-02
6.425466096175237729e-02
5.531971291593337781e-02
4.417206625865091607e-02
3.134127631205331499e-02
1.696601145921954046e-02
1.650250564335875580e-03
-1.433114577444831450e-02
-3.049235711349954775e-02
-4.640744606038245401e-02
-6.175955352031312073e-02
-7.604497033906679193e-02
-8.910196541898696143e-02
-1.004289310557642118e-01
-1.100087042805779902e-01
-1.174757247959145878e-01
-1.227077671193435859e-01
-1.257545175197328780e-01
-1.263058873081809308e-01
-1.248014726356573706e-01
-1.209398510829207130e-01
-1.150042892100513886e-01
-1.072077265615017649e-01
-9.749719577645908630e-02
-8.652075373996191698e-02
-7.411221022286081095e-02
-6.073635070379451023e-02
-4.662548227474545143e-02
-3.194100885225829162e-02
-1.714402128227002914e-02
-2.286910289239690863e-03
1.227141660347315366e-02
2.638745059113016544e-02
3.973862432326695504e-02
5.229854980035815448e-02
6.372359372253678933e-02
7.390551957048198395e-02
8.279315899877819074e-02
8.992470694871086689e-02
9.569733663822256597e-02
9.948683788949448659e-02
1.014093887254880894e-01
1.014678957099230255e-01
9.910779835193807286e-02
9.498724762465067528e-02
8.835463280304321765e-02
7.945745160057805789e-02
6.837128063898569030e-02
5.458857244338723158e-02
3.884629757071916822e-02
2.056224491044451874e-02
3.887228501217587784e-05
-2.247888837404139750e-02
-4.725055265139656291e-02
-7.360143906760661936e-02
-1.016342516810995605e-01
-1.310612728348264366e-01
-1.613795596383980069e-01
-1.924740782803606165e-01
-2.238533996291867667e-01
-2.550031933961139918e-01
-2.857639636948678952e-01
-3.153975913176032542e-01
-3.434760255793877781e-01
-3.698088386403136085e-01
-3.934000643965856470e-01
-4.143670937378095553e-01
-4.319050292407945468e-01
-4.455118698689436441e-01
-4.553912702477978525e-01
-4.604306687367314965e-01
-4.611304827657505823e-01
-4.568913166558602468e-01
-4.474242677735758567e-01
-4.333556937871619330e-01
-4.138897721680122599e-01
-3.898727479223922376e-01
-3.611842854448925610e-01
-3.279049705932554626e-01
-2.910018755587108208e-01
-2.502897858299970579e-01
-2.067160541570791099e-01
-1.607801559896912813e-01
-1.128324988712486321e-01
-6.396034481178927700e-02
-1.459098178493961617e-02
3.463715711957829346e-02
8.269133170790078646e-02
1.292765699459528239e-01
1.734900986134387812e-01
2.145688752775599673e-01
2.525544278350770333e-01
2.861547046079137013e-01
3.154550031885795525e-01
3.399624562815288797e-01
3.589394465374112775e-01
3.731694572681215627e-01
3.814292594271058712e-01
3.842630707506434762e-01
3.816290208649930626e-01
3.730833545060294743e-01
3.598508063393189293e-01
3.411026358768629585e-01
3.176584724450213781e-01
2.898737866761124105e-01
2.577549882838575668e-01
2.224678579409334334e-01
1.839243744794145097e-01
1.429017514576966241e-01
1.001006429401942871e-01
5.592621872987477150e-02
1.120820123717086725e-02
-3.338943685446744969e-02
-7.740760415623637591e-02
-1.199101913189106333e-01
-1.603597669919713531e-01
-1.983931119191801318e-01
-2.329373528624698597e-01
-2.640751444164213813e-01
-2.908937698428903373e-01
-3.131247512439349623e-01
-3.309266374107401321e-01
-3.433701704808250210e-01
-3.511635198069369412e-01
-3.537348647866106477e-01
-3.513586242440559504e-01
-3.446416691975292546e-01
-3.332017128881520907e-01
-3.181670756485971974e-01
-2.994489027182248853e-01
-2.777617075702484839e-01
-2.538927635308401154e-01
-2.280101915416047897e-01
-2.011886745713752922e-01
-1.737039048516132445e-01
-1.462864304634387547e-01
-1.195560855874348016e-01
-9.392468679214768801e-02
-6.993779847761509572e-02
-4.799738315671540217e-02
-2.841977885843849361e-02
-1.144425169429080791e-02
2.607798888561788098e-03
1.390063872934088618e-02
2.208197603764441852e-02
2.739274901535418416e-02
2.994185066584112431e-02
2.964550727399362096e-02
2.717758218901043799e-02
2.229052659572029749e-02
1.558745538594372149e-02
7.333667847363514736e-03
-2.371728581489443433e-03
-1.274792217313312770e-02
-2.394438630316694100e-02
-3.534725620419917197e-02
-4.671478830974316182e-02
-5.791318151767600036e-02
-6.839712213558900300e-02
-7.823768350939508398e-02
-8.709348452021536957e-02
-9.482747259647232585e-02
-1.014067150812192480e-01
-1.066543271357427158e-01
-1.105986054457833573e-01
-1.132614196094911541e-01
-1.146117233513121725e-01
-1.147742370674735557e-01
-1.138711696283668806e-01
-1.119340253041749833e-01
-1.092449349459730518e-01
-1.058434064100698818e-01
-1.019579966691384620e-01
-9.783302379884167843e-02
-9.351286768310523856e-02
-8.932427251519740874e-02
-8.532149881074499453e-02
-8.169196433520578560e-02
-7.862775349780187772e-02
-7.613406081003254444e-02
-7.438228817869062259e-02
-7.338827178537560281e-02
-7.315453413480912936e-02
-7.374886956274057104e-02
-7.506703355943260270e-02
-7.705945841715836075e-02
-7.968970629804812689e-02
-8.273725211944424340e-02
-8.619550826608983474e-02
-8.983400127098249699e-02
-9.347071007907366280e-02
-9.705221554231409364e-02
-1.002305195815378636e-01
-1.030340702285891807e-01
-1.051764963817548026e-01
-1.065091725875341316e-01
-1.070253420556925433e-01
-1.064164318945255427e-01
-1.048338389224515721e-01
-1.020515497442280040e-01
-9.807949895126737150e-02
-9.300374943560399399e-02
-8.668140411445154903e-02
-7.938511687413107865e-02
-7.103357656765264816e-02
-6.179269231658924416e-02
-5.183620109236612705e-02
-4.120002798644084585e-02
-3.018521024871873709e-02
-1.886782111335639361e-02
-7.451986946865628292e-03
3.845283732862775361e-03
1.489113256129549756e-02
2.547825190401381557e-02
3.541770828835862084e-02
4.461335766063001529e-02
5.285663903082499226e-02
6.002223230055230008e-02
6.607823229503954898e-02
7.078577456352137809e-02
7.423848687452309913e-02
7.627253381672484400e-02
7.682832272896171488e-02
7.605630358751737374e-02
7.372034912960505337e-02
7.008141793930357244e-02
6.504423878129085568e-02
5.860858291027153111e-02
5.105574818782969426e-02
4.219220937472997757e-02
3.234553553709623719e-02
2.151369290927680755e-02
9.709994983346653674e-03
-2.725949659220849863e-03
-1.591335369953382484e-02
-2.957881185034143962e-02
-4.360324837652251873e-02
-5.800475081752475698e-02
-7.244416091880008512e-02
-8.694042182882703862e-02
-1.013569690823349079e-01
-1.154346928944633421e-01
-1.292408675578050337e-01
-1.424713623455303724e-01
-1.550405355518676420e-01
-1.669739275254971400e-01
-1.778962819733518885e-01
-1.879247880956918526e-01
-1.968214487518119005e-01
-2.044386782735220232e-01
-2.109465540251212468e-01
-2.159426597177130924e-01
-2.195923256592732242e-01
-2.217645480577087880e-01
-2.223389699345086901e-01
-2.215630091478735797e-01
-2.191580874982849148e-01
-2.153203975462282815e-01
-2.100651455792282851e-01
-2.033723984438938759e-01
-1.955122633149587452e-01
-1.864281516899631286e-01
-1.763141981530962354e-01
-1.653420280951103383e-01
-1.535963244060198907e-01
-1.413248116715996594e-01
-1.286848552335547735e-01
-1.158106089130374189e-01
-1.029919143355536720e-01
-9.033817123547356609e-02
-7.804168137970371455e-02
-6.636048362574915871e-02
-5.530778623143795675e-02
-4.521106954213181817e-02
-3.608169672657028648e-02
-2.803860921802405620e-02
-2.127519110224530829e-02
-1.565051577590012566e-02
-1.142724638446447616e-02
-8.426447909070988729e-03
-6.680843271472253209e-03
-6.194993511994463520e-03
-6.691857532890060911e-03
-8.292424686724080007e-03
-1.064563115338907490e-02
-1.369404466421239586e-02
-1.726987548217712165e-02
-2.103789191457216406e-02
-2.498690571606582145e-02
-2.874972202569069102e-02
-3.220028218198846270e-02
-3.517881657591558769e-02
-3.740447443190077215e-02
-3.884904064308164484e-02
-3.935371182372984084e-02
-3.878246240516514121e-02
-3.722795278095156896e-02
-3.456122737837459546e-02
-3.089346864305229229e-02
-2.642140239289157005e-02
-2.107101744313735758e-02
-1.529865356938275162e-02
-9.149466283495583108e-03
-2.924669732758441998e-03
2.896853710329064246e-03
8.308170100423381554e-03
1.267529666973186975e-02
1.585669956540620984e-02
1.753287988657027674e-02
1.724176366369531421e-02
1.497000100167641956e-02
1.034509555435225714e-02
3.251229999938529125e-03
-6.308150099896395191e-03
-1.843806045131728133e-02
-3.303086440348170644e-02
-4.978913172653736535e-02
-6.873493928745504078e-02
-8.927173616526837274e-02
-1.110285498333326432e-01
-1.337092724868532145e-01
-1.563234924913621815e-01
-1.788505491578826767e-01
-2.001900381885192148e-01
-2.197411284343054882e-01
-2.371244513413678923e-01
-2.511701914563922444e-01
-2.619435060240961621e-01
-2.684002432208683619e-01
-2.701951405667157857e-01
-2.671494025484862922e-01
-2.587103011793731033e-01
-2.451482226240354612e-01
-2.262270109919840011e-01
-2.022451868994978863e-01
-1.735223988479204227e-01
-1.406234732689101152e-01
-1.040868833792839981e-01
-6.480198407011415751e-02
-2.367317661976758164e-02
1.845784772006762997e-02
6.016588320183442751e-02
1.008331070663978785e-01
1.389021907824384283e-01
1.734446824299955003e-01
2.035188549872573582e-01
2.278138933601167593e-01
2.460558718088468044e-01
2.570568133685611767e-01
2.606347604808851859e-01
2.564028242001111790e-01
2.441848698723590450e-01
2.244053681967607128e-01
1.971202280396638362e-01
1.632241996272666973e-01
1.232624345236907476e-01
7.842620331759959929e-02
2.975619456118094863e-02
-2.145813010601743676e-02
-7.373484197576028742e-02
-1.258746602939997961e-01
-1.761589270565733223e-01
-2.235158672199463181e-01
-2.663827859300483825e-01
-3.037307475431599291e-01
-3.344991325218726330e-01
-3.577670070989792395e-01
-3.731303125756604278e-01
-3.799427540951142435e-01
-3.784288577158460565e-01
-3.683747219743863099e-01
-3.504248767096391215e-01
-3.250985944939351335e-01
-2.931481665981035545e-01
-2.559429031153241940e-01
-2.141872286246627177e-01
-1.696683121923238113e-01
-1.234154109063905769e-01
-7.698380193998083376e-02
-3.191393194204535100e-02
1.076715263331419481e-02
4.942463976641500722e-02
8.328061348188316171e-02
1.111554708121561125e-01
1.324293002951048570e-01
1.465195834273856357e-01
1.531024085964292070e-01
1.521700271329453624e-01
1.437556713759631788e-01
1.285402911146243943e-01
1.067467300912801759e-01
7.951900962053461142e-02
4.753609483455287221e-02
1.194134949380167010e-02
-2.586260451297967694e-02
-6.510302019802689799e-02
-1.040744875526040392e-01
-1.419771213046986391e-01
-1.774534850777623463e-01
-2.094354799904278863e-01
-2.372138737270775843e-01
-2.597579685501139046e-01
-2.767342488908957621e-01
-2.875412946312071449e-01
-2.921514477161040180e-01
-2.904157483417650898e-01
-2.826036825478345227e-01
-2.690246212078854504e-01
-2.501589129923005306e-01
-2.268780510932362215e-01
-1.996433390781827133e-01
-1.696404103780546069e-01
-1.375244578149293351e-01
-1.043647890599662120e-01
-7.120204497372023544e-02
-3.871524495760555323e-02
-8.038790998828752865e-03
2.028516059045061548e-02
4.543557124332223141e-02
6.689404852936454982e-02
8.423715763703785997e-02
9.715048222037712955e-02
1.054668419300433951e-01
1.091475152693351519e-01
1.083845953417113678e-01
1.032277112041962847e-01
9.426115183644805107e-02
8.165305036366303504e-02
6.607124920554206804e-02
4.811456077368329864e-02
2.818960691864995372e-02
7.257208257783129279e-03
-1.438477986258598906e-02
-3.588559053625919870e-02
-5.670379233217846815e-02
-7.638695122190872211e-02
-9.426291436103176324e-02
-1.101033020517958594e-01
-1.234362397402516132e-01
-1.340776196122495378e-01
-1.418187917956957311e-01
-1.466371685708086625e-01
-1.484690906410430777e-01
-1.474596596024110307e-01
-1.437872443254076815e-01
-1.375818774076801310e-01
-1.293603829580489972e-01
-1.192010577563117624e-01
-1.076817619602466608e-01
-9.513224994366223375e-02
-8.188957486215971138e-02
-6.858969069495648996e-02
-5.535797476040721365e-02
-4.278366967946066468e-02
-3.110157316054901894e-02
-2.061242322097368157e-02
-1.166148409302974337e-02
-4.324470787426343277e-03
1.150198741400626501e-03
4.748059483508731971e-03
6.383027138978286663e-03
6.143827623744227417e-03
4.042615958409531696e-03
2.398616547432952384e-04
-5.102436971867699289e-03
-1.184999739339973740e-02
-1.964046217738640854e-02
-2.839828264543766551e-02
-3.775646410277878895e-02
-4.751262468293591945e-02
-5.744240994260483429e-02
-6.720281261950511453e-02
-7.669625467450613687e-02
-8.563190119837725545e-02
-9.387810117020753409e-02
-1.012680493325954501e-01
-1.076870833251078047e-01
-1.130376087951499714e-01
-1.172708267959326478e-01
-1.203509907942116181e-01
-1.222426028548205534e-01
-1.230626999470843808e-01
-1.227333343740581451e-01
-1.214211608154844024e-01
-1.191500686647150586e-01
-1.159983980404102055e-01
-1.121811949224053861e-01
-1.076652889051132600e-01
-1.026905394290051066e-01
-9.730409826079909619e-02
-9.163329923054462645e-02
-8.585296111234545779e-02
-7.999397224475648938e-02
-7.422809826794160570e-02
-6.861381826369912507e-02
-6.326284572753662627e-02
-5.824059106547645193e-02
-5.363962902041543440e-02
-4.949529033058325256e-02
-4.587775486124510971e-02
-4.284657468731988689e-02
-4.036398378092982686e-02
-3.855400219158115760e-02
-3.732837859745572612e-02
-3.675885584406863443e-02
-3.684342036874729831e-02
-3.748424974081007027e-02
-3.878467911507794963e-02
-4.059103447322527647e-02
-4.294922620440250194e-02
-4.580437966684298978e-02
-4.904634105209317724e-02
-5.271124309676653019e-02
-5.665124073686701733e-02
-6.086167788363572306e-02
-6.525910847491857292e-02
-6.975962261148603571e-02
-7.431448100098957121e-02
-7.883824971511046997e-02
-8.326690407589583398e-02
-8.751685631951704181e-02
-9.154884804007532018e-02
-9.524437688976138128e-02
-9.860433761797349206e-02
-1.015196751669593805e-01
-1.039336527674355748e-01
-1.058542832181708082e-01
-1.071408407440118116e-01
-1.078735741808316273e-01
-1.079399693198427185e-01
-1.073322936933797933e-01
-1.061007381105727454e-01
-1.041465510185819038e-01
-1.015962230868603933e-01
-9.839024323031883568e-02
-9.457661074131223922e-02
-9.023844182095727695e-02
-8.537239512532171504e-02
-8.010208869609369842e-02
-7.446919708355072276e-02
-6.856023553172313489e-02
-6.247716007067480315e-02
-5.632457388573963719e-02
-5.017065400396196473e-02
-4.416673097381769442e-02
-3.839350464521354422e-02
-3.294707104574632478e-02
-2.799488066933416425e-02
-2.351189352577351399e-02
-1.971193333684264498e-02
-1.661732660314381438e-02
-1.428814073558724168e-02
-1.286730697412688529e-02
-1.224675962399417867e-02
-1.260362985003579683e-02
-1.387584260943118541e-02
-1.606105272410886936e-02
-1.919559083788023590e-02
-2.313058071762961326e-02
-2.791174586751120346e-02
-3.340813532862681873e-02
-3.954303418967163725e-02
-4.621880962840969193e-02
-5.329788816370717441e-02
-6.066350225397285773e-02
-6.817275261165035849e-02
-7.568967106792354183e-02
-8.303161317440445333e-02
-9.012000879253498353e-02
-9.672824290567798300e-02
-1.027770208905130211e-01
-1.081165467171058270e-01
-1.125835067715459936e-01
-1.161874337256518230e-01
-1.187093981115571462e-01
-1.201913165611132456e-01
-1.205364682849450753e-01
-1.197060197037026485e-01
-1.178004518669411582e-01
-1.147302819778392574e-01
-1.106597590500798534e-01
-1.055993493066451488e-01
-9.967014741079507911e-02
-9.302799261770787476e-02
-8.576144153252318603e-02
-7.808243843250940730e-02
-7.011050031931202742e-02
-6.206015400608697052e-02
-5.407422151353478285e-02
-4.636435933747119764e-02
-3.907310895690888075e-02
-3.237295805915495900e-02
-2.644211954242239870e-02
-2.134030465582840985e-02
-1.727890332939283763e-02
-1.423972268052439705e-02
-1.236322266434444761e-02
-1.168080023904195103e-02
-1.213787934246316619e-02
-1.383140047996669897e-02
-1.658330227806423252e-02
-2.043864935601377719e-02
-2.526808026740586660e-02
-3.093677030974675835e-02
-3.738962195563824698e-02
-4.439296992768611283e-02
-5.188241173241981558e-02
-5.965502820478106594e-02
-6.756907027999255189e-02
-7.545889160308917598e-02
-8.317373816999321101e-02
-9.056297855467432267e-02
-9.747100442763662054e-02
-1.038096279808274625e-01
-1.093839629868878227e-01
-1.142107405573569850e-01
-1.180986527271968012e-01
-1.210192647288423490e-01
-1.229578626029926847e-01
-1.237705577975265481e-01
-1.236273705852422994e-01
-1.223588832443310986e-01
-1.200670732665897467e-01
-1.168004701935610179e-01
-1.125222208707641891e-01
-1.074641876039798549e-01
-1.015559939452989058e-01
-9.497294473602597986e-02
-8.781447018518281911e-02
-8.016840069800343360e-02
-7.222457164830198284e-02
-6.406705345853114242e-02
-5.586204138126221047e-02
-4.774636929322215867e-02
-3.988487447876025438e-02
-3.237666010387822701e-02
-2.541883710097284088e-02
-1.909709105642120458e-02
-1.355229708518938814e-02
-8.927248176189096773e-03
-5.221346214814112652e-03
-2.628272283020136046e-03
-1.110520376027643308e-03
-7.562841756905830382e-04
-1.584337935046670198e-03
-3.509144343443279523e-03
-6.594033585764158545e-03
-1.068319543110034242e-02
-1.575860542591246000e-02
-2.167939386599412876e-02
-2.830406232448540865e-02
-3.551925549228747425e-02
-4.311319060555855731e-02
-5.095697100474982921e-02
-5.882475637435017474e-02
-6.656070504142233557e-02
-7.395729893333988225e-02
-8.084517069903876529e-02
-8.705011622697235441e-02
-9.241599804591474343e-02
-9.682080398479527006e-02
-1.001347101070743234e-01
-1.023175157151461900e-01
-1.032628334831071915e-01
-1.030275874435755412e-01
-1.015673625822586801e-01
-9.898129945292236109e-02
-9.538215215594197938e-02
-9.082134482107855067e-02
-8.559196529117391039e-02
-7.973353291564676260e-02
-7.357794156769820182e-02
-6.731513944228602331e-02
-6.113471034163860118e-02
-5.541813676188230009e-02
-5.022821414951252061e-02
-4.594864893980944720e-02
-4.269972782362072006e-02
-4.066677908699133787e-02
-4.008032995717168701e-02
-4.092637619238163882e-02
-4.338462254436249027e-02
-4.738823407653695863e-02
-5.294567381005495232e-02
-5.997549062869869663e-02
-6.832894439492860628e-02
-7.783864000466955702e-02
-8.827252788542869211e-02
-9.939868760960347827e-02
-1.108815458566557582e-01
-1.224986045281013791e-01
-1.338272432051218208e-01
-1.446548277150733197e-01
-1.546179549912245765e-01
-1.633807727403923660e-01
-1.708027566440221690e-01
-1.764652694911327535e-01
-1.803935994161356970e-01
-1.822869728780597276e-01
-1.820614146340444606e-01
-1.797827246507775756e-01
-1.752666290364170432e-01
-1.688282528153047246e-01
-1.603799618719657927e-01
-1.501350654372446414e-01
-1.383559594241498547e-01
-1.251348857207629783e-01
-1.109115485468741280e-01
-9.582496563773637566e-02
-8.019763615926421563e-02
-6.435953195225853352e-02
-4.853919641106959476e-02
-3.304615684146645221e-02
-1.815257423984156099e-02
-4.035183290342581053e-03
9.036535134041678852e-03
2.086881406382459780e-02
3.143023013621987216e-02
4.040930226806062342e-02
4.789171384651251528e-02
5.370225146904369917e-02
5.776014794387934748e-02
6.025903279942908253e-02
6.091721150855668176e-02
6.000644644048523657e-02
5.742650921533258568e-02
5.320781900630590366e-02
4.760833939116296265e-02
4.046920272999730839e-02
3.208783133281786770e-02
2.246296674435661889e-02
1.172695458690600767e-02
8.331859500430860432e-05
-1.238544099747830585e-02
-2.547706727691054912e-02
-3.901987163760707589e-02
-5.278708239181371248e-02
-6.665580530977052720e-02
-8.025764135136882749e-02
-9.353968866118111958e-02
-1.061376717884511267e-01
-1.177962801310499102e-01
-1.284658278913831941e-01
-1.376214125373982911e-01
-1.453812722277070257e-01
-1.513080150978677596e-01
-1.552598733047827195e-01
-1.572772043604185876e-01
-1.569480873763512419e-01
-1.545611768052333468e-01
-1.498263474320298549e-01
-1.428551265546995630e-01
-1.338135505643848755e-01
-1.226526200637410163e-01
-1.097793572806360085e-01
-9.523604467762877834e-02
-7.940207375462984829e-02
-6.256090905679831393e-02
-4.507784618375346164e-02
-2.733243447365178713e-02
-9.705006201367410990e-03
7.339259056235489243e-03
2.351304076434644619e-02
3.824461934297787580e-02
5.140394008349802313e-02
6.247230212394576376e-02
7.119499747104994503e-02
7.746252443881244953e-02
8.082635337617784244e-02
8.157233471708962014e-02
7.931027907811787070e-02
7.418972488521967390e-02
6.639007108668505686e-02
5.579631128253319250e-02
4.305006242180411946e-02
2.803831170023721175e-02
1.122412925498883496e-02
-6.997222292989900561e-03
-2.645357171628560933e-02
-4.647880559869801975e-02
-6.692642775044381487e-02
-8.735528497909840484e-02
-1.073550864465377397e-01
-1.266951919690569028e-01
-1.450107578842261546e-01
-1.620349858455887859e-01
-1.776391548654610575e-01
-1.915429779772857832e-01
-2.036239751625985028e-01
-2.139353965026707383e-01
-2.221709476647087400e-01
-2.285581668161326685e-01
-2.329486293150102583e-01
-2.353285538445357150e-01
-2.360370302244065854e-01
-2.347554522003736377e-01
-2.318871126716451903e-01
-2.273591896012234770e-01
-2.211866382229192851e-01
-2.137675601747612286e-01
-2.048394344443382198e-01
-1.947557248770361293e-01
-1.835272482710030573e-01
-1.711688980299775342e-01
-1.579876174572127367e-01
-1.439191147225099277e-01
-1.291420674877401253e-01
-1.138348491611616692e-01
-9.805943736482775064e-02
-8.199608882257480857e-02
-6.590148603640834379e-02
-4.975742740129598940e-02
-3.396476670398137360e-02
-1.866716567097685686e-02
-3.924629773849330761e-03
9.703247813294818558e-03
2.242196343826899363e-02
3.367288780715795016e-02
4.328485592858026532e-02
5.132851476169944527e-02
5.712966929506607672e-02
6.107180395850227150e-02
6.261993653333612631e-02
6.170350139793635835e-02
5.854179898950138961e-02
5.262846202287005393e-02
4.447586855889196222e-02
3.379257161882635863e-02
2.071425550575572982e-02
5.578702397663629076e-03
-1.170814911579379919e-02
-3.065948578684195985e-02
-5.116146040639159287e-02
-7.288918506015636123e-02
-9.549441868972016745e-02
-1.185641819520736329e-01
-1.418836118484614883e-01
-1.648898971452050777e-01
-1.872191680702698924e-01
-2.086466539640343676e-01
-2.283492888846920255e-01
-2.465804963537259753e-01
-2.624227597350968777e-01
-2.756586829938799110e-01
-2.862534836941541538e-01
-2.932357022824297887e-01
-2.973010769063650915e-01
-2.974259442315880242e-01
-2.936475066887958008e-01
-2.861115698143387176e-01
-2.740849885355493010e-01
-2.584129104086005935e-01
-2.384303835444833708e-01
-2.144333918602022160e-01
-1.867765672033747659e-01
-1.553456311122812517e-01
-1.208764019031664388e-01
-8.352083829637721446e-02
-4.379419843028369008e-02
-2.357098673975904779e-03
4.014619690376847183e-02
8.315936385204124315e-02
1.256364856479822989e-01
1.669923582359567615e-01
2.063001945286271899e-01
2.424931142711468923e-01
2.752649585930064813e-01
3.032003204620451475e-01
3.260066937877588722e-01
3.428726461081296750e-01
3.530689651784806316e-01
3.567296993093669322e-01
3.529886115858331119e-01
3.422325452397473322e-01
3.243079615154774720e-01
2.994767719905616077e-01
2.684292478028669771e-01
2.314823581071464575e-01
1.896860810957137211e-01
1.437616825210349392e-01
9.489741906748071221e-02
4.410215558042678008e-02
-7.323107399415919316e-03
-5.826019975754169467e-02
-1.074783333979145994e-01
-1.536980398380280999e-01
-1.961274588514871353e-01
-2.333844428016130790e-01
-2.650794671025419325e-01
-2.901617656412307511e-01
-3.082458242236391643e-01
-3.191927366128738397e-01
-3.224608216895392121e-01
-3.187532265647825547e-01
-3.077121590458511413e-01
-2.902223457904340997e-01
-2.667922513032442433e-01
-2.380221486460993852e-01
-2.053210729254880684e-01
-1.690654579258796253e-01
-1.309075058244028589e-01
-9.158239649065513799e-02
-5.238142205370084625e-02
-1.454364355462482716e-02
2.118806129740685718e-02
5.339952212439802448e-02
8.164745808974695207e-02
1.047849880278190066e-01
1.225022415413102445e-01
1.341919007802190866e-01
1.394904908366214058e-01
1.385306519484181265e-01
1.309680674908451636e-01
1.175654207763497244e-01
9.819624544437959013e-02
7.364520441494863678e-02
4.453290066675420766e-02
1.140549559265788271e-02
-2.443004609305418628e-02
-6.259223318031546801e-02
-1.017738581786709340e-01
-1.412141777198700487e-01
-1.799506399917500943e-01
-2.169276757301916714e-01
-2.515147585446347867e-01
-2.827544577943450488e-01
-3.101071282397666606e-01
-3.328790281955994468e-01
-3.507713351650950107e-01
-3.633089317145560271e-01
-3.704209283630325311e-01
-3.719840614934299405e-01
-3.680406708868629861e-01
-3.590025799984858934e-01
-3.448993566433503077e-01
-3.264663568308280306e-01
-3.039907486005546944e-01
-2.782289563461303183e-01
-2.498962127796882093e-01
-2.195758899686711674e-01
-1.882567209512074902e-01
-1.564752513482303153e-01
-1.252390141146421387e-01
-9.508715161795763815e-02
-6.687390877735024941e-02
-4.118183544707097049e-02
-1.854882717404197218e-02
3.767756430723967487e-04
1.554381582821480479e-02
2.627583221089753451e-02
3.278539855733449138e-02
3.476746184455456468e-02
3.231076845699920597e-02
2.587288152433209198e-02
1.526936273176672521e-02
1.411450187409041268e-03
-1.568854423507586027e-02
-3.530703226232226322e-02
-5.673803168279196313e-02
-7.971158193892330379e-02
-1.031240752466053984e-01
-1.267621577664624632e-01
-1.497628163786927646e-01
-1.715477047802246024e-01
-1.917162590592694227e-01
-2.095561374800108956e-01
-2.248716144770332437e-01
-2.371911973563332610e-01
-2.463424624701870957e-01
-2.521340190058253827e-01
-2.545618533940725015e-01
-2.536118177068665824e-01
-2.494184177782082790e-01
-2.422624250493203291e-01
-2.322572635221099024e-01
-2.200008669799500827e-01
-2.056504528969843593e-01
-1.897182376550686778e-01
-1.727468211677349597e-01
-1.549400514373285853e-01
-1.370713074175655688e-01
-1.192982314239263431e-01
-1.020300154264981718e-01
-8.578010276205122464e-02
-7.051649696000691914e-02
-5.674865702456211719e-02
-4.446547910617187904e-02
-3.361609434703516364e-02
-2.450222511618515425e-02
-1.671728179073109222e-02
-1.035095333261166345e-02
-5.224823473986686673e-03
-8.603272968108754970e-04
2.608393134529166102e-03
5.782850116797050299e-03
8.792621391758070892e-03
1.180924864683927100e-02
1.537180933633834623e-02
1.931748197088536956e-02
2.411197609345379356e-02
2.974243275701347888e-02
3.621848026851705316e-02
4.375766507589029519e-02
5.202860662973750328e-02
6.119094008259386153e-02
7.087015036326267670e-02
8.097179780334344545e-02
9.130012285453621701e-02
1.014257558518763674e-01
1.113548031339715721e-01
1.204350881075987451e-01
1.287395398073157837e-01
1.358958895306905945e-01
1.416209420237548033e-01
1.461064414510581111e-01
1.487075891213522350e-01
1.499352346025744076e-01
1.495560855793892086e-01
1.476376935728385686e-01
1.447448232996582096e-01
1.404521465873062036e-01
1.356913293030967971e-01
1.304375228433829470e-01
1.250533543502298506e-01
1.202685963370063310e-01
1.158261651736598313e-01
1.126971512999295627e-01
1.108212270122570092e-01
1.105631283814746540e-01
1.123499535085189099e-01
1.158896888908289152e-01
1.217176405016879709e-01
1.294609867195451458e-01
1.392245555335379636e-01
1.508109979310109372e-01
1.638137624635827017e-01
1.781309472084446344e-01
1.930897558771011990e-01
2.085330150497810564e-01
2.237418693272401615e-01
2.383704039908196015e-01
2.518772038126702029e-01
2.636313473165988186e-01
2.734471604765842945e-01
2.805172202594645725e-01
2.848506368904790143e-01
2.858599518380173232e-01
2.833578743570942526e-01
2.773757750246145237e-01
2.674213114394743407e-01
2.540236624259815668e-01
2.368156744588980622e-01
2.162015570501319983e-01
1.924912972237206032e-01
1.655866581868110088e-01
1.364505729434847270e-01
1.049038023526119717e-01
7.175241816838646980e-02
3.743884281329896979e-02
2.006625082487251133e-03
-3.340339093239932944e-02
-6.904219733203438569e-02
-1.040406410927137981e-01
-1.380630703990961827e-01
-1.712592982372245776e-01
-2.025527839575397837e-01
-2.325342860863083838e-01
-2.604760274160415334e-01
-2.863460879954573546e-01
-3.106215958666281862e-01
-3.323959590902984540e-01
-3.526903445724173247e-01
-3.708500055909916826e-01
-3.872450074178577228e-01
-4.025180554771333186e-01
-4.159236507571024699e-01
-4.287741004454618809e-01
-4.403078754598813704e-01
-4.512532313653290772e-01
-4.621123866066254027e-01
-4.722756395781015359e-01
-4.830896625651064924e-01
-4.935407081603114809e-01
-5.046124248109968846e-01
-5.164024393631164722e-01
-5.284468136636767399e-01
-5.418629178067988494e-01
-5.554058067906042506e-01
-5.701460296321628762e-01
-5.856844110527630320e-01
-6.017262558840379416e-01
-6.189720366922990546e-01
-6.361091557459027657e-01
-6.541019190264631966e-01
-6.721470693832285459e-01
-6.901344679937312376e-01
-7.082855592959651503e-01
-7.254521299755652963e-01
-7.423520055217845970e-01
-7.580010273719161029e-01
-7.724958435816581259e-01
-7.856481319155160792e-01
-7.967009756071483650e-01
-8.060924736336242402e-01
-8.129120146906105848e-01
-8.174991165390490533e-01
-8.193967310907739332e-01
-8.183853883088141323e-01
-8.146732640303971928e-01
-8.075947737935823545e-01
-7.977515677705040442e-01
-7.845358639962921599e-01
-7.682846622710453044e-01
-7.490366029536085213e-01
-7.264094165763017585e-01
-7.012431092265913879e-01
-6.728231631544149272e-01
-6.419748936175548870e-01
-6.085823550414389826e-01
-5.725187892933119027e-01
-5.347997452503063798e-01
-4.945970577060700424e-01
-4.531648645657870289e-01
-4.101716135159726440e-01
-3.657677151692388939e-01
-3.210232060266646759e-01
-2.749750287053061570e-01
-2.292787153010302781e-01
-1.832132720728519293e-01
-1.373021410499783990e-01
-9.241139956483432338e-02
-4.740372734253885112e-02
-4.243916341125170133e-03
3.846263797164171938e-02
7.972665888970968673e-02
1.192986785823818424e-01
1.585182305057058483e-01
1.953253425651761965e-01
2.320178900385754805e-01
2.670792508251469966e-01
3.012407480292923490e-01
3.359193302160959904e-01
3.691702984667644127e-01
4.040842609663443108e-01
4.385211930959507787e-01
4.742045824880777860e-01
5.122411252491024802e-01
5.508439954390387250e-01
5.933011594907937614e-01
6.368259429491802681e-01
6.836199906023261441e-01
7.340053624664373277e-01
7.862646871751952649e-01
8.430778974164481188e-01
9.012086930678279151e-01
9.626110950599491289e-01
1.026606687553166752e+00
1.091548822712089306e+00
1.159030234128054060e+00
1.225715746107793214e+00
1.292996134043944423e+00
1.359395160559380145e+00
1.423569141427693197e+00
1.486071331683053831e+00
1.544036945573249442e+00
1.598398094672506931e+00
1.647427926705535839e+00
1.690459666074075384e+00
1.727421140430348556e+00
1.756461266553352774e+00
1.778383339310128486e+00
1.791748483147060034e+00
1.796876663160930754e+00
1.793477029868546957e+00
1.780994886353050921e+00
1.760363440256719647e+00
1.730658595379118259e+00
1.693281755227975749e+00
1.647825974213441125e+00
1.594990742444234888e+00
1.535813937170954491e+00
1.469741021920626611e+00
1.399081773080850244e+00
1.323054156475319765e+00
1.243341611859095197e+00
1.160732748932665093e+00
1.074719095389222057e+00
9.881146673229763699e-01
8.993458454191686213e-01
8.107683949603569085e-01
7.223940328527662658e-01
6.335881934305258589e-01
5.471562759639937434e-01
4.605000255636931272e-01
3.764631981270587513e-01
2.938431531321845092e-01
2.120923501547004042e-01
1.335191847897843620e-01
5.468003694948435356e-02
-2.112620439451023957e-02
-9.647501628810460639e-02
-1.712723194342934963e-01
-2.441020378433100824e-01
-3.186962928291094399e-01
-3.912987771244113566e-01
-4.657086498679307573e-01
-5.405618435756154305e-01
-6.156105330766726835e-01
-6.941699251762966094e-01
-7.721134897618177062e-01
-8.540926402965384190e-01
-9.370580002028168209e-01
-1.022056826849554234e+00
-1.111385648238491619e+00
-1.200756769757425291e+00
-1.295203726531018340e+00
-1.389938353381472647e+00
-1.487265751028173488e+00
-1.588126329074148746e+00
-1.688370032630574835e+00
-1.792974153877111787e+00
-1.895725040510076509e+00
-2.000039105054759681e+00
-2.105478453087455737e+00
-2.208394978930672270e+00
-2.313257782443006949e+00
-2.413448376028234588e+00
-2.512889649020919158e+00
-2.610134155503209374e+00
-2.702431771257969295e+00
-2.793531436139937707e+00
-2.877195110799524613e+00
-2.957588060741239033e+00
-3.032594222587813526e+00
-3.100713617268755939e+00
-3.164815480509340251e+00
-3.219669865727221136e+00
-3.269453303843224301e+00
-3.311624727711805161e+00
-3.346146062266579513e+00
-3.374762096655094190e+00
-3.393700730412610334e+00
-3.406796349883911112e+00
-3.411210933076781693e+00
-3.408380652939422717e+00
-3.398585471969665761e+00
-3.379808999819540194e+00
-3.355056127726642856e+00
-3.321307626543342106e+00
-3.281301656563563096e+00
-3.233540897068741593e+00
-3.177995305718929409e+00
-3.116301916818447371e+00
-3.045520848018406390e+00
-2.969379200907556360e+00
-2.884474864263296467e+00
-2.792985207716758289e+00
-2.694688219912587446e+00
-2.587224526829706495e+00
-2.474882031134238769e+00
-2.352502591505106544e+00
-2.224667719616954642e+00
-2.088915166241909649e+00
-1.944180217836698699e+00
-1.794765245322202274e+00
-1.634164723035211431e+00
-1.469435975514295389e+00
-1.295627789808310393e+00
-1.113732585184132207e+00
-9.273925900802271194e-01
-7.293297371349807268e-01
-5.288712932215334783e-01
-3.185062677222832983e-01
-1.018573235756972256e-01
1.188337747753778068e-01
3.509564571859303261e-01
5.835013157780190030e-01
8.262969404641077320e-01
1.072906690551042264e+00
1.323097318004287759e+00
1.583634577334352311e+00
1.842744448086831133e+00
2.111831791083262910e+00
2.381901794089892110e+00
2.654916010905295831e+00
2.936181121901110913e+00
3.214165374275766762e+00
3.500550429729933910e+00
3.784349304364478694e+00
4.069329716600874391e+00
4.358475785815032921e+00
4.641342643673630697e+00
4.928343474350405096e+00
5.207212122878639882e+00
5.482823590588824736e+00
5.755239091263768536e+00
6.015781647343777294e+00
6.272364939640193704e+00
6.512596093705817601e+00
6.741754480488701518e+00
6.957136918749530885e+00
7.152636191503158436e+00
7.333301249808737765e+00
7.488340421710113048e+00
7.623178354192999606e+00
7.733429003766360665e+00
7.816720605932181876e+00
7.875709558297288915e+00
7.903093357043168510e+00
7.904739858298253097e+00
7.876075723957050911e+00
7.819684363133925231e+00
7.735753972658761413e+00
7.623039000631075979e+00
7.486617721526814151e+00
7.323161406102435045e+00
7.140472152830119157e+00
6.934387293553833764e+00
6.712166762052076407e+00
6.474178513520304712e+00
6.219050572756585460e+00
5.958020236979293394e+00
5.676046908092418519e+00
5.377922321798338956e+00
5.095495440199099058e+00
4.820541633746877608e+00
4.522616018302515251e+00
4.163997231879004168e+00
3.787532647213194270e+00
3.479275732699790513e+00
3.205404842605398930e+00
2.838751241762460520e+00
2.300683348439900300e+00
1.737051171559676366e+00
1.351219480219973512e+00
1.046495560845137618e+00
4.883209277623214439e-01
-4.708914464835752822e-01
-1.449469260144456095e+00
-1.969883211485025765e+00
-2.242417120361099858e+00
-3.105576855172986761e+00
-4.991711246240990718e+00
-6.960133965188105343e+00
-7.278107999040010156e+00
-5.187124672694710448e+00
-1.862052622686330094e+00
