BVP Signal
-7.960921649219077079e-04
1.110492873146898263e-02
2.885162694351021961e-02
4.706053026678840706e-02
6.238493169811603484e-02
7.537038281205951651e-02
8.863148551638119765e-02
1.027473366498750929e-01
1.164904677310482362e-01
1.285536933201334997e-01
1.385272118946640763e-01
1.476589906512288386e-01
1.556805144649545669e-01
1.619845133707389917e-01
1.660046853036614700e-01
1.671352540819923682e-01
1.661670574289479951e-01
1.625440480204548011e-01
1.560394663677899252e-01
1.465405531762782321e-01
1.336409300797246069e-01
1.179709211315532746e-01
9.924280098721449672e-02
7.761610699723009432e-02
5.337495312014625681e-02
2.661258833537247237e-02
-2.094994429162111427e-03
-3.244585912445385745e-02
-6.401543699219133798e-02
-9.616715888634363996e-02
-1.283593957238902405e-01
-1.601471180765334512e-01
-1.906306077122155163e-01
-2.195217515975367295e-01
-2.460244801943812232e-01
-2.694699414837993245e-01
-2.897593187937491099e-01
-3.058312299532817136e-01
-3.178321363978214853e-01
-3.251384904615807203e-01
-3.273855484728456222e-01
-3.249691042754545567e-01
-3.171470892154494292e-01
-3.046107599475511574e-01
-2.871784083586267355e-01
-2.649976724667512662e-01
-2.388933617086012595e-01
-2.086970996260805733e-01
-1.754029652233227154e-01
-1.393330089254096738e-01
-1.009790388501284053e-01
-6.129691402331587102e-02
-2.062343796984334593e-02
2.025088310583262469e-02
6.063108372682965430e-02
1.000841346950927246e-01
1.378797334406154651e-01
1.734251822973927881e-01
2.065836748895631958e-01
2.364700518887429825e-01
2.630334285260643723e-01
2.859626343081634325e-01
3.046364244647019048e-01
3.196743506247309852e-01
3.301509372589631619e-01
3.364373100433202812e-01
3.386081754552131007e-01
3.361471970864031156e-01
3.301485009000147408e-01
3.198082083375529128e-01
3.057166568076707946e-01
2.881979830175300794e-01
2.669414403221502807e-01
2.430636628744220762e-01
2.161283508179896451e-01
1.866933934737673162e-01
1.552534308096310545e-01
1.218232141378292333e-01
8.716650989350413492e-02
5.149017326356035429e-02
1.514610067105055802e-02
-2.121308281680693575e-02
-5.722091117679740935e-02
-9.258424644498078337e-02
-1.264436162052868518e-01
-1.587368986869691911e-01
-1.887269830842690232e-01
-2.158615166251701689e-01
-2.402951046025785242e-01
-2.608518309596103979e-01
-2.778268474910929875e-01
-2.906151499537553695e-01
-2.987934461457456004e-01
-3.029405911887651515e-01
-3.020657935221257029e-01
-2.968550933862325047e-01
-2.870945886642851663e-01
-2.727471845716611387e-01
-2.547236497639714936e-01
-2.325795282664022134e-01
-2.072371811282437692e-01
-1.789542465445527197e-01
-1.480511188528469413e-01
-1.154965066873350210e-01
-8.141406497630543360e-02
-4.658159221649871284e-02
-1.157178185481080868e-02
2.321908844729522747e-02
5.712194312241043737e-02
8.965381053472129547e-02
1.205648357995011410e-01
1.491868892604980013e-01
1.753204819386492419e-01
1.988007767825156202e-01
2.189977530293771291e-01
2.363085090227028950e-01
2.500953828983970562e-01
2.604223716947811074e-01
2.675665041447177206e-01
2.708781517498410341e-01
2.711910184818214775e-01
2.679537880782673076e-01
2.613805693392504681e-01
2.519688637112194596e-01
2.391714983386115378e-01
2.238913024317129019e-01
2.057798330559473809e-01
1.850760790461949412e-01
1.623194153992832400e-01
1.372535046152165428e-01
1.105512036274768906e-01
8.226856682533981169e-02
5.262611785486931426e-02
2.214920360995106807e-02
-8.959996777635375817e-03
-4.039951738020973460e-02
-7.156967911424037820e-02
-1.022819717326352434e-01
-1.320351878897340347e-01
-1.601876341852036256e-01
-1.868401279448055896e-01
-2.109529554156205355e-01
-2.324557717831895465e-01
-2.509606530433436955e-01
-2.656774139782688282e-01
-2.771145499426392877e-01
-2.841819062058945078e-01
-2.870913798293274199e-01
-2.857480018020176482e-01
-2.796443835683952717e-01
-2.696354443120796973e-01
-2.550580064958970494e-01
-2.364729506784493673e-01
-2.141868934626172394e-01
-1.882608427158532771e-01
-1.596060561520270260e-01
-1.283015203368288448e-01
-9.504441777738417696e-02
-6.044652660946983613e-02
-2.504136892404092152e-02
1.053420379499372950e-02
4.557958315658428017e-02
7.962503544850400850e-02
1.119907608828314138e-01
1.420205868368225599e-01
1.696017051875739479e-01
1.937641102795040482e-01
2.145503731901266253e-01
2.314289703325359548e-01
2.439756960317592815e-01
2.526052903857075593e-01
2.564653442690292828e-01
2.561251030358594472e-01
2.513233109672111665e-01
2.420534955684580936e-01
2.290375735644522570e-01
2.118470784364056558e-01
1.913353314779237535e-01
1.675741242841501943e-01
1.409545075595674268e-01
1.122232774267714894e-01
8.152367360031526067e-02
4.963900286433903242e-02
1.698582486454502938e-02
-1.584369028864110462e-02
-4.829893318399985924e-02
-7.974844194866217983e-02
-1.097965993392098494e-01
-1.377784986808477385e-01
-1.631987847189039775e-01
-1.858388897909384052e-01
-2.048855369555033223e-01
-2.205115677061520452e-01
-2.320379421909894158e-01
-2.393416985074378056e-01
-2.426021640004002999e-01
-2.412149638869675039e-01
-2.359012198000228211e-01
-2.262512735567754341e-01
-2.126095567014016918e-01
-1.955103626244371062e-01
-1.748031560631836401e-01
-1.514857177978747305e-01
-1.255687754632983100e-01
-9.766903524664055647e-02
-6.846884854551771316e-02
-3.822646705208981865e-02
-7.755559874163570067e-03
2.257251292215023408e-02
5.225342503600760580e-02
8.074005466315126167e-02
1.075961430054295231e-01
1.325920125600010269e-01
1.551488871992603436e-01
1.751688468005521693e-01
1.924072414895596217e-01
2.064443360247950332e-01
2.177227973449264442e-01
2.255773070764271471e-01
2.303289985858501532e-01
2.320109841253604199e-01
2.302912754066810952e-01
2.260382799665676123e-01
2.186122768843472564e-01
2.085395355409120355e-01
1.960218868706842810e-01
1.808533529048697019e-01
1.639168060845728747e-01
1.448098511644488884e-01
1.240069233296859363e-01
1.018205201190679754e-01
7.823542093077298643e-02
5.384042275363576380e-02
2.869091287791357414e-02
3.054135475153763046e-03
-2.264520217326077001e-02
-4.819722573927109899e-02
-7.338111407759992377e-02
-9.764967156250234370e-02
-1.209750064589475982e-01
-1.428425167568906640e-01
-1.628762448071217617e-01
-1.811803052599302299e-01
-1.969010319453450286e-01
-2.102458196573632199e-01
-2.207325223990417862e-01
-2.280043208084480133e-01
-2.324317365312251193e-01
-2.332147443029681244e-01
-2.307912901197024524e-01
-2.249096665422480879e-01
-2.154536847159393420e-01
-2.029931180405101787e-01
-1.871316293896578831e-01
-1.684641641493716535e-01
-1.471106927614248550e-01
-1.232832554550276766e-01
-9.761459451778076168e-02
-7.025723450315414509e-02
-4.176141191216209414e-02
-1.260324352589113628e-02
1.680272985395181440e-02
4.596000165835159579e-02
7.428109444874250733e-02
1.015239063229455008e-01
1.270132543147405313e-01
1.503899114777789148e-01
1.714609617681374654e-01
1.894845498576838150e-01
2.046910869759787088e-01
2.164164513504014398e-01
2.245749106044174770e-01
2.293143697552224580e-01
2.300373933007402449e-01
2.273894996374422883e-01
2.209113924508155635e-01
2.108483195727985371e-01
1.975992596611125807e-01
1.809266949413116665e-01
1.616389921385256168e-01
1.396379228888786350e-01
1.153902047615747856e-01
8.940790535127129957e-02
6.188770486769492457e-02
3.347910413157588472e-02
4.521251398287018386e-03
-2.451452304484927347e-02
-5.313529253105729599e-02
-8.080637874065947635e-02
-1.072967053217817324e-01
-1.318962531955779616e-01
-1.543632998962555236e-01
-1.743449273755706685e-01
-1.912110468798899621e-01
-2.052643720641109115e-01
-2.156600627213071109e-01
-2.225475618404560429e-01
-2.258272614033532966e-01
-2.250660878099783602e-01
-2.210271992558711651e-01
-2.130523365584968687e-01
-2.016688517474610198e-01
-1.870738795085855610e-01
-1.692226501662925653e-01
-1.490032384498851392e-01
-1.262298637834774473e-01
-1.015556997989148225e-01
-7.539313807952899293e-02
-4.803960121477707235e-02
-2.015078521170009240e-02
7.960749811537437548e-03
3.583832300900008372e-02
6.300048048170864279e-02
8.899895502161300764e-02
1.136407640639198469e-01
1.362629293814873466e-01
1.568167846806077792e-01
1.748706291874645435e-01
1.900267660297504935e-01
2.025546669860743276e-01
2.116748361132625711e-01
2.177436307736742294e-01
2.204509686994361450e-01
2.195884768538942933e-01
2.157011625215585759e-01
2.081694864416554491e-01
1.975833853900657022e-01
1.838377912790022384e-01
1.669934634026754572e-01
1.476565465265677890e-01
1.256376540942378273e-01
1.015447965003198616e-01
7.558921091514325674e-02
4.810783359189174657e-02
1.962287881881100149e-02
-9.495211091771871281e-03
-3.882195988544576148e-02
-6.780010726328399018e-02
-9.594672885770053061e-02
-1.229286168819767877e-01
-1.479572764674204899e-01
-1.709689970391713998e-01
-1.912176084090485562e-01
-2.083353291547500874e-01
-2.222776967184833530e-01
-2.322183628811517186e-01
-2.385519624062875099e-01
-2.406500070827414239e-01
-2.385131367582726536e-01
-2.324359302603664079e-01
-2.219621548441009784e-01
-2.078580175744584313e-01
-1.898952160689813540e-01
-1.684914453954039215e-01
-1.441949908140223724e-01
-1.171106005336301770e-01
-8.806101914579472778e-02
-5.731992847733784202e-02
-2.549835600263011814e-02
6.809532322660842574e-03
3.903805651333557003e-02
7.070777836281517958e-02
1.011319583897459379e-01
1.298560335076262562e-01
1.564455114106758915e-01
1.801619677133310671e-01
2.011206877586916852e-01
2.184430240464250994e-01
2.320946354539415168e-01
2.419131816047827011e-01
2.473177641915355052e-01
2.489824453430273254e-01
2.461359820083293681e-01
2.392050301051431849e-01
2.283146451745722838e-01
2.132918381255046458e-01
1.950539727933190692e-01
1.732633501836795542e-01
1.486135776786003115e-01
1.214789339776053273e-01
9.216630479958963507e-02
6.144633164178558288e-02
2.960915861605167496e-02
-2.701183640956901499e-03
-3.494042956455963023e-02
-6.648941234832175806e-02
-9.696509692668907332e-02
-1.255837206826961594e-01
-1.520463583554507170e-01
-1.757912343638139419e-01
-1.962201197720174484e-01
-2.134416517237753830e-01
-2.265554121319912628e-01
-2.357839366647318524e-01
-2.407551438136308619e-01
-2.412221482225412883e-01
-2.377345280635234925e-01
-2.296997726989719046e-01
-2.178088241374597778e-01
-2.020363911194795747e-01
-1.826122226533384574e-01
-1.603059113415027936e-01
-1.350684893390847185e-01
-1.077446624262378971e-01
-7.865758319708660018e-02
-4.834823301953791730e-02
-1.747832435381559135e-02
1.350626469359560156e-02
4.403693520812258788e-02
7.357268259108862285e-02
1.015835739064976651e-01
1.277691706403042138e-01
1.514197197419510921e-01
1.725224077258345756e-01
1.904758578163780469e-01
2.050203850164376285e-01
2.162598026485776648e-01
2.234998349282088514e-01
2.272651096906292689e-01
2.270483954126980286e-01
2.229507023682845424e-01
2.153561424957812220e-01
2.038447963543988106e-01
1.892207348657590216e-01
1.712459069718606230e-01
1.503175364663248137e-01
1.269414982320379304e-01
1.011502132148375116e-01
7.369225766228103269e-02
4.475917159494677278e-02
1.487840691807013060e-02
-1.543852545162981149e-02
-4.569482971960142637e-02
-7.547767414440703648e-02
-1.041432581320901607e-01
-1.312661106938771693e-01
-1.564393015429180189e-01
-1.789190316616421639e-01
-1.988064926115135911e-01
-2.152198273572234755e-01
-2.280784253571987164e-01
-2.372216167384660901e-01
-2.420262009438595707e-01
-2.431316542495080002e-01
-2.397873116992829956e-01
-2.323704891977620146e-01
-2.210631724330500425e-01
-2.056583413750395772e-01
-1.871259138072551842e-01
-1.651563515122376202e-01
-1.404363891513718265e-01
-1.134343665869116669e-01
-8.440817875147202387e-02
-5.421171798477840420e-02
-2.309947847672873256e-02
8.312575088939566648e-03
3.946346562213311204e-02
6.984609214205847461e-02
9.908704232258649935e-02
1.265210117409782675e-01
1.519368549666750556e-01
1.748625645812670326e-01
1.948082023893677739e-01
2.119837165103633236e-01
2.255587390092500810e-01
2.358149636626713785e-01
2.424501080400684183e-01
2.451643166143931685e-01
2.445821736371323329e-01
2.399738288132118591e-01
2.319594779519038585e-01
2.204468354985180401e-01
2.054024470892986398e-01
1.875853001088023109e-01
1.666265781718089534e-01
1.432198321053063939e-01
1.175425213926409029e-01
8.982636168523241982e-02
6.073163288158386908e-02
3.042105931310674222e-02
-5.889220331295602628e-04
-3.180954373460998658e-02
-6.283179505263625231e-02
-9.323098780229274740e-02
-1.223446849256305674e-01
-1.500178870249623542e-01
-1.755302127374430421e-01
-1.984863318249652508e-01
-2.187855744118290535e-01
-2.355397633953107972e-01
-2.490622455843488625e-01
-2.586387759814213760e-01
-2.641195073428361795e-01
-2.657787048679409736e-01
-2.628887771770270776e-01
-2.561959930465335100e-01
-2.452705573451243182e-01
-2.303217910680039615e-01
-2.119410141070720011e-01
-1.898383907977160001e-01
-1.649462069051814417e-01
-1.372798094250365086e-01
-1.072951061850997562e-01
-7.570335668084939018e-02
-4.269865068869718727e-02
-9.002579961733814251e-03
2.492730697234711926e-02
5.865993886005490404e-02
9.160517257478392739e-02
1.232191731938227786e-01
1.533327391024977837e-01
1.811512250791953715e-01
2.065130315497029911e-01
2.290979212200266457e-01
2.482140598525884867e-01
2.643396352644935554e-01
2.765118731901373694e-01
2.849247364421511053e-01
2.895503657290541821e-01
2.897653424379995069e-01
2.865101134774374891e-01
2.789094979586363987e-01
2.674354012906987044e-01
2.523161923068401591e-01
2.332137846349052468e-01
2.111611233417211297e-01
1.857137327226498213e-01
1.574418521020508610e-01
1.268023117471755445e-01
9.389245658195455313e-02
5.948720254368239369e-02
2.384290775837871745e-02
-1.257180808970403962e-02
-4.910275096246108362e-02
-8.525886671028259922e-02
-1.206661602334939132e-01
-1.544423181990107752e-01
-1.863894375090346944e-01
-2.157770929860163278e-01
-2.419776539486711009e-01
-2.650716846406976357e-01
-2.839353398178035559e-01
-2.987907296276266500e-01
-3.090736859307103845e-01
-3.143891680205703754e-01
-3.152676098124073123e-01
-3.108553443190159027e-01
-3.018293505498174101e-01
-2.880399696399640330e-01
-2.695684431610022580e-01
-2.472764893215070869e-01
-2.209227228613974692e-01
-1.914392155153331609e-01
-1.591655935521824050e-01
-1.245816174574676527e-01
-8.859868132461845569e-02
-5.157160681402372937e-02
-1.426653234739805320e-02
2.264575529413836996e-02
5.864098214705715240e-02
9.310280368166645726e-02
1.253667430562900309e-01
1.552404539380561888e-01
1.819741996047078425e-01
2.053501157763101270e-01
2.252460209566422566e-01
2.409976146277862386e-01
2.531106493752651732e-01
2.609469754670922237e-01
2.647067835767033528e-01
2.647182473599611896e-01
2.605025985426685509e-01
2.530351705455542999e-01
2.418919772017879277e-01
2.275392509653954010e-01
2.105384839099880834e-01
1.906560638462649893e-01
1.688942386116615013e-01
1.451072186169882761e-01
1.197545742511631484e-01
9.339548357165683434e-02
6.605218713295013533e-02
3.834756676472839132e-02
1.049001362562002049e-02
-1.726604856156971346e-02
-4.448445196732492279e-02
-7.087131521263945189e-02
-9.636172831204581346e-02
-1.203394080654583420e-01
-1.427985049240316773e-01
-1.634343773651059095e-01
-1.817100550424389782e-01
-1.980650050689470865e-01
-2.115587509628363005e-01
-2.223915320078246605e-01
-2.303947928357229780e-01
-2.349472582395611409e-01
-2.368238986326022810e-01
-2.350506939813319929e-01
-2.299986447815336454e-01
-2.217057664822365270e-01
-2.097569510392911230e-01
-1.950106155917823991e-01
-1.769083850691293147e-01
-1.559302861921117445e-01
-1.323909540131750218e-01
-1.062938634574967789e-01
-7.836917728622308510e-02
-4.872405949972241634e-02
-1.781995830722726826e-02
1.378975972915924553e-02
4.569877393516211250e-02
7.748734692170713978e-02
1.084483048562361607e-01
1.383289211656934803e-01
1.664851629641507791e-01
1.923318914631322318e-01
2.158716844688520209e-01
2.361028295832793278e-01
2.531406467820240258e-01
2.664451014929293260e-01
2.755612725689334241e-01
2.809024002443797352e-01
2.815864273909737259e-01
2.781247714041336638e-01
2.702661692412293704e-01
2.579236040320233569e-01
2.417911711302997979e-01
2.214615962674037764e-01
1.976944770329468193e-01
1.706487201434317980e-01
1.406453579081247685e-01
1.084645436369704452e-01
7.431656368449768291e-02
3.892782186512561138e-02
2.868518412417864205e-03
-3.332293005199615799e-02
-6.898797989638405515e-02
-1.034460198728542335e-01
-1.363220451004206746e-01
-1.668029679057935200e-01
-1.944757277672358731e-01
-2.189981357113780502e-01
-2.395927492841443684e-01
-2.564649852464316315e-01
-2.688587447700985233e-01
-2.767895230017949904e-01
-2.803575655351853158e-01
-2.790714924786253937e-01
-2.737184707367700254e-01
-2.638763614642536393e-01
-2.500391347666316433e-01
-2.327146622882813876e-01
-2.118516851898610553e-01
-1.885184737209527894e-01
-1.627144021451217282e-01
-1.351290124408180693e-01
-1.064431139917625391e-01
-7.690051216154997205e-02
-4.734772305685977511e-02
-1.809357935216066027e-02
1.041517216331966367e-02
3.762615095029636647e-02
6.325335613043958638e-02
8.707921369903454112e-02
1.086226344055976067e-01
1.279406884485512208e-01
1.447587772019374164e-01
1.588625018036278203e-01
1.707160851780743505e-01
1.797107268606673580e-01
1.863246732117186388e-01
1.905011941283958343e-01
1.920488854188652228e-01
1.918084546754208475e-01
1.890872825981511074e-01
1.844754210783658976e-01
1.780011642210869161e-01
1.694560250627070719e-01
1.596004137473250317e-01
1.478681103524269735e-01
1.346759441121808676e-01
1.201058393772200250e-01
1.040078187827069567e-01
8.684894550484623110e-02
6.844583210263502360e-02
4.899231596150815937e-02
2.872501013354150645e-02
7.725978001716704568e-03
-1.380958808114796099e-02
-3.550209482468547062e-02
-5.729751257259541042e-02
-7.873404315223453409e-02
-9.943473083542353486e-02
-1.193986776019068108e-01
-1.377839867759079739e-01
-1.546546891941685820e-01
-1.694422212268837935e-01
-1.816607983378535351e-01
-1.915051871692791119e-01
-1.980621871670020795e-01
-2.015966569921386897e-01
-2.017024175205995307e-01
-1.981123445377921954e-01
-1.912443072348583017e-01
-1.805686921003438472e-01
-1.665878532709526849e-01
-1.492844991763730700e-01
-1.288168953664808325e-01
-1.057470432063912225e-01
-8.017466226817498987e-02
-5.268604679816568659e-02
-2.369415301552502129e-02
6.290944741608683888e-03
3.675744878695325069e-02
6.704197256378668923e-02
9.676561492873231307e-02
1.252174334465556704e-01
1.518294419367700598e-01
1.763346238303903912e-01
1.978181793890211870e-01
2.163568063912371664e-01
2.311838727891238898e-01
2.420095564371593233e-01
2.489101975033806147e-01
2.511346984332276100e-01
2.492582658008037910e-01
2.427439406770570962e-01
2.317661172994097685e-01
2.167193115628066880e-01
1.973525444215590008e-01
1.745285344745689526e-01
1.481833157398197987e-01
1.188866268074526833e-01
8.723415777769644164e-02
5.358364729840536800e-02
1.871288296453493816e-02
-1.687272763237485096e-02
-5.250547247405040752e-02
-8.756303820958649675e-02
-1.212628791834287068e-01
-1.532893766561127524e-01
-1.827098871290494531e-01
-2.091507615925554675e-01
-2.321706939000477421e-01
-2.509623930220332144e-01
-2.658855048653722131e-01
-2.759337276707453102e-01
-2.812987233942635390e-01
-2.818887421331914833e-01
-2.772841703172189698e-01
-2.683812567969979801e-01
-2.545478062655242013e-01
-2.364859595872740861e-01
-2.144887415023519206e-01
-1.886897594967897052e-01
-1.601275170758259536e-01
-1.287921423550708599e-01
-9.553425957344847952e-02
-6.090742148616273832e-02
-2.543866762191521191e-02
1.012860920759231509e-02
4.524689936709364035e-02
7.936772563089397603e-02
1.118724244035006199e-01
1.421666465017785985e-01
1.700699741754189143e-01
1.947331173952690786e-01
2.161820550055391088e-01
2.338920661564789227e-01
2.474880358098172362e-01
2.573312225043059009e-01
2.625972526742844648e-01
2.638529371431974080e-01
2.607781401083749118e-01
2.533574901453180539e-01
2.422619301528447233e-01
2.270010192731363174e-01
2.084092409800127332e-01
1.864671610467932283e-01
1.615014550255415848e-01
1.342212737312616089e-01
1.046700194359951319e-01
7.360350691813949409e-02
4.137424912534538868e-02
8.506986358310125729e-03
-2.444045009972989346e-02
-5.689508809926375338e-02
-8.846083672706087087e-02
-1.184531757145249331e-01
-1.463891771087860727e-01
-1.719765091812294477e-01
-1.943733258855973034e-01
-2.137067380824775042e-01
-2.291864222547214114e-01
-2.406416742338125803e-01
-2.481239988871239976e-01
-2.509389290705125175e-01
-2.497344568350068350e-01
-2.439463773649785949e-01
-2.338627280277162934e-01
-2.198791509217060680e-01
-2.017783622708653746e-01
-1.805032510781798827e-01
-1.559590812113247071e-01
-1.287773836494815749e-01
-9.956013229268823039e-02
-6.861597119154927427e-02
-3.677197271535034839e-02
-4.426190153142495198e-03
2.779221493815216271e-02
5.931078521193786091e-02
8.951657235794234502e-02
1.180982890891912052e-01
1.443280833042472344e-01
1.679366338952178739e-01
1.885746368467250689e-01
2.056348174422869546e-01
2.194733502424771332e-01
2.292715985233012010e-01
2.352661206586297016e-01
2.373955698512560109e-01
2.353001760403703457e-01
2.298246092715919009e-01
2.203263787284052422e-01
2.074259541227907733e-01
1.913196682355552680e-01
1.720172237821524508e-01
1.504279209834223086e-01
1.263614202345024751e-01
1.005103999013123306e-01
7.326003393357384541e-02
4.493025581322974971e-02
1.617046338010652562e-02
-1.270502596356470892e-02
-4.122824524465153184e-02
-6.890782107106147025e-02
-9.528914639303878720e-02
-1.201468313915138586e-01
-1.428041907357199547e-01
-1.632016501070986669e-01
-1.808552094098454244e-01
-1.953974480442625949e-01
-2.070366539204139544e-01
-2.150270936952128897e-01
-2.197488075593026502e-01
-2.208778126785272966e-01
-2.183141056454748763e-01
-2.125994092310761197e-01
-2.032318762968989279e-01
-1.908963573918948664e-01
-1.755541706014139280e-01
-1.574096847761297657e-01
-1.371419400785027776e-01
-1.146664204212731741e-01
-9.068735693064530756e-02
-6.546522722307546172e-02
-3.936857399668178270e-02
-1.296120954634560896e-02
1.345210091919293860e-02
3.947350783454123269e-02
6.463492503706824710e-02
8.862110573433706895e-02
1.111705113055589111e-01
1.317400149137371579e-01
1.504148085511489985e-01
1.666308684549023256e-01
1.802654979147881309e-01
1.913723682547446014e-01
1.993483498358807338e-01
2.046904544165329409e-01
2.068524000059413503e-01
2.059240032992999681e-01
2.021637902076783289e-01
1.951102908739641983e-01
1.854419345611437731e-01
1.728046389790356407e-01
1.574642935380572428e-01
1.397835291284206805e-01
1.196516867111455523e-01
9.768289500922558433e-02
7.392478403051089275e-02
4.875411104908454474e-02
2.259223990519848568e-02
-4.215225848032175260e-03
-3.130565160749917974e-02
-5.813256886633885734e-02
-8.433380350835455175e-02
-1.094834924495798611e-01
-1.329034159173151652e-01
-1.546096026050749195e-01
-1.737159211373337508e-01
-1.900754510046402668e-01
-2.033910882575822032e-01
-2.130028311897638749e-01
-2.193581409136961535e-01
-2.216201069525988721e-01
-2.200315162169521610e-01
-2.145801361403514296e-01
-2.050088735419594022e-01
-1.920522467052162563e-01
-1.753491152739201642e-01
-1.554894889825427229e-01
-1.327849323765024625e-01
-1.075179888124911110e-01
-8.041448244834020764e-02
-5.174799885273226319e-02
-2.217481755786238073e-02
7.791657174382599083e-03
3.751846111097363601e-02
6.659113129684837706e-02
9.427416651364609046e-02
1.201995960034587946e-01
1.438491586479295758e-01
1.645991412091401540e-01
1.825080511781252968e-01
1.967267651743112300e-01
2.073871898694876759e-01
2.141354893934955261e-01
2.166741453339807721e-01
2.154707207832132487e-01
2.099295523181939627e-01
2.006324638803048954e-01
1.875020348401170156e-01
1.707022003391812648e-01
1.508879481323051885e-01
1.279752145383512563e-01
1.027253110103397982e-01
7.538901553827402624e-02
4.650099160214568594e-02
1.664738517516386324e-02
-1.370247127339257673e-02
-4.396620291339518871e-02
-7.360709791915165390e-02
-1.019913601057659824e-01
-1.287995521502512675e-01
-1.532158165455078658e-01
-1.751223917402799091e-01
-1.938600679844819374e-01
-2.090214353099530686e-01
-2.206520348105546203e-01
-2.279647036483837264e-01
-2.313987119021705396e-01
-2.304307074748305206e-01
-2.251023494626809285e-01
-2.158115786348115961e-01
-2.021632137330365842e-01
-1.849934998520813001e-01
-1.641512932922865042e-01
-1.401066812495396774e-01
-1.134692122925752555e-01
-8.438654896956424012e-02
-5.371223811280398386e-02
-2.175382207138876201e-02
1.086195989679905605e-02
4.353730551420709194e-02
7.569648237234594124e-02
1.068851639591005820e-01
1.364202153029158149e-01
1.638719265243498979e-01
1.888495367943685554e-01
2.106280577447898206e-01
2.293871146156128416e-01
2.442789111082201425e-01
2.553096017237253545e-01
2.623971804395609508e-01
2.649731287852640227e-01
2.637968563518522935e-01
2.581389228380427392e-01
2.484511794944820329e-01
2.349620705687260336e-01
2.174687913237980941e-01
1.969926610313664228e-01
1.731945867041172205e-01
1.467516103358419977e-01
1.181274496179398337e-01
8.753204125423807991e-02
5.579764839749326577e-02
2.316058933207137960e-02
-9.817329903697824545e-03
-4.255306367182354332e-02
-7.457765015231343497e-02
-1.055076971796856944e-01
-1.346409105714297672e-01
-1.617886588742761533e-01
-1.863858592127889680e-01
-2.079517766437614934e-01
-2.266247788296605614e-01
-2.415235371691388244e-01
-2.529312845615508398e-01
-2.604475368640177813e-01
-2.638094526149908914e-01
-2.635807190795460553e-01
-2.590494108057265210e-01
-2.508779032104168083e-01
-2.389555647355433299e-01
-2.233480661541591972e-01
-2.048282030396920139e-01
-1.831138937255610277e-01
-1.589830593102851686e-01
-1.326580982427756905e-01
-1.044652856916498951e-01
-7.511038189745190830e-02
-4.480626819187021048e-02
-1.410820924832900669e-02
1.648700139506116547e-02
4.658645651168900892e-02
7.577378831029125961e-02
1.034559202129527039e-01
1.295396798264959737e-01
1.533696028617035356e-01
1.746807581728614667e-01
1.934155516321493795e-01
2.088274773018463371e-01
2.213099771037874974e-01
2.302028071365522233e-01
2.354860968675564215e-01
2.373896858536100607e-01
2.352959490363795425e-01
2.299101624479705785e-01
2.207689838431209917e-01
2.081223776260712754e-01
1.923701764348729193e-01
1.732909237372265154e-01
1.516379485647600112e-01
1.273646747586751060e-01
1.009305261740554155e-01
7.281909085887859623e-02
4.334044100767200924e-02
1.304844849969495624e-02
-1.757361183079883538e-02
-4.801945035673915729e-02
-7.780131033424222964e-02
-1.062018970687498287e-01
-1.330570456058275952e-01
-1.574923185489276456e-01
-1.792117877882694055e-01
-1.978568511257386975e-01
-2.126842171464061737e-01
-2.240167417066846189e-01
-2.309758566439416017e-01
-2.337124936740010983e-01
-2.321585022156895661e-01
-2.259799866702251747e-01
-2.159152471498033132e-01
-2.015144177671282510e-01
-1.834017151374354726e-01
-1.618664315122259612e-01
-1.371901378175849062e-01
-1.102144430574519829e-01
-8.114769969864119026e-02
-5.079539710387955681e-02
-1.968494761357225675e-02
1.148032215457631122e-02
4.213680722975268744e-02
7.157909837173973000e-02
9.926574346771033230e-02
1.246702872487625013e-01
1.471125786321211826e-01
1.665400309496949394e-01
1.821592282459364442e-01
1.939986253948146055e-01
2.017404138119336388e-01
2.051184701881043626e-01
2.045629403639386279e-01
1.995867314835896300e-01
1.907723923919043552e-01
1.781060412490738099e-01
1.618639603238840041e-01
1.427041648617853320e-01
1.206572437954215871e-01
9.654140036533076508e-02
7.062910599444249815e-02
4.356835701301367547e-02
1.592202828770397649e-02
-1.180048870374832137e-02
-3.897452260267317281e-02
-6.514132722370988282e-02
-8.962964561377589900e-02
-1.121971658352738377e-01
-1.321102603612739346e-01
-1.492454267915444555e-01
-1.631199303619993990e-01
-1.733810168848290978e-01
-1.801632079476419568e-01
-1.828695053572032547e-01
-1.819226689008583975e-01
-1.770138500322303021e-01
-1.682813060435248698e-01
-1.561386955828327761e-01
-1.404271373345615803e-01
-1.218850699572195107e-01
-1.005381514862097592e-01
-7.693375606141936163e-02
-5.157135393641083809e-02
-2.482046395821842569e-02
2.655282849790635558e-03
3.045612350891513387e-02
5.791767818201798423e-02
8.465624555444106747e-02
1.099405843941473893e-01
1.335282454477708103e-01
1.547629220438450082e-01
1.732059614943805004e-01
1.887146443279963393e-01
2.005362496657029925e-01
2.089679892450246323e-01
2.133472176886197502e-01
2.136777627923394096e-01
2.100821408631542431e-01
2.021500535292459211e-01
1.905654849741405810e-01
1.749771199128661026e-01
1.558334924135641453e-01
1.334875003733987375e-01
1.081047018436771812e-01
8.043159083257646336e-02
5.068520345393481841e-02
1.954647142767351742e-02
-1.247846662590545996e-02
-4.468514647153842834e-02
-7.662165697900125139e-02
-1.074866099951063414e-01
-1.367263814468300809e-01
-1.638301569072058705e-01
-1.879135305068804218e-01
-2.090169583875577386e-01
-2.261153023762528802e-01
-2.391091931129403769e-01
-2.476882218911019562e-01
-2.512881661322998728e-01
-2.504264124691006899e-01
-2.443982009366620356e-01
-2.336701049907430328e-01
-2.183004607000030850e-01
-1.983812499772620863e-01
-1.746941123706515775e-01
-1.472379993079791782e-01
-1.168396065140582807e-01
-8.394222802375789216e-02
-4.924435055880915790e-02
-1.344880665785763707e-02
2.274131743140128670e-02
5.858240326351260574e-02
9.340500140973584386e-02
1.263081758319784531e-01
1.569701353410908884e-01
1.843455516758885637e-01
2.081944681200614822e-01
2.278758890354070643e-01
2.427963678153785554e-01
2.531283320476952481e-01
2.580119198326830121e-01
2.578710662500080519e-01
2.523575089206719912e-01
2.415236642840208059e-01
2.259429476846789853e-01
2.053791500046389384e-01
1.807363006085483947e-01
1.521418661128152994e-01
1.202775996211823545e-01
8.587997760006262082e-02
4.945926256911140073e-02
1.194966023223298368e-02
-2.604673909581758928e-02
-6.359632645904111925e-02
-1.001000458278549221e-01
-1.345719776303239690e-01
-1.665580947471403672e-01
-1.952135210545784538e-01
-2.198960517022094385e-01
-2.404071720762808451e-01
-2.558067784918064413e-01
-2.664228676776531080e-01
-2.715360539983804888e-01
-2.711776369806104814e-01
-2.656412247705602914e-01
-2.544916984601663934e-01
-2.387142904468082250e-01
-2.180169701058073395e-01
-1.930658878414314716e-01
-1.644905282217402065e-01
-1.325055569001853395e-01
-9.822722783032028504e-02
-6.190132933263470250e-02
-2.440651884399208660e-02
1.358970248554081106e-02
5.139261543141415700e-02
8.836857308002854516e-02
1.237920489618925535e-01
1.570779958333425319e-01
1.877614576188382234e-01
2.149851082100777133e-01
2.389330197769614084e-01
2.585793442668255504e-01
2.739224904684937623e-01
2.847887931370696735e-01
2.904885957521334827e-01
2.918881383992696366e-01
2.880063771830662089e-01
2.793833749914678699e-01
2.661365590611864396e-01
2.480071206453592358e-01
2.260963425049236919e-01
1.999148626532638584e-01
1.702675108508702739e-01
1.375585093178552931e-01
1.020539582654728661e-01
6.469071445874807758e-02
2.572425878443368452e-02
-1.411525575700678381e-02
-5.417247734922270297e-02
-9.378270252840636978e-02
-1.324477388237890185e-01
-1.692398249253375120e-01
-2.038228896791853817e-01
-2.354397979808979802e-01
-2.633558951419858740e-01
-2.876509159856546205e-01
-3.071229451633330498e-01
-3.220362309914904797e-01
-3.317958143677161575e-01
-3.359756205526098771e-01
-3.352247787103443954e-01
-3.285865887664310980e-01
-3.168993136530352528e-01
-2.999766506863301707e-01
-2.778974090073735859e-01
-2.516737097171961035e-01
-2.209501255116550766e-01
-1.868078850294927207e-01
-1.495482161930289100e-01
-1.096398989931268164e-01
-6.808697771285776579e-02
-2.519213687717173494e-02
1.822969746652768064e-02
6.147900896699386164e-02
1.040126179435766629e-01
1.451848054190438830e-01
1.842034707757916889e-01
2.209224670462947016e-01
2.544027900697994893e-01
2.843177095197563231e-01
3.105289230238719167e-01
3.320247224874415259e-01
3.494053965914050153e-01
3.616802568478136859e-01
3.688662782447980071e-01
3.712673613608153955e-01
3.679664699996452182e-01
3.600647272174045677e-01
3.467825991725276280e-01
3.284581441847858052e-01
3.056943496696273854e-01
2.779984364539540564e-01
2.465711471755442086e-01
2.111758939173526695e-01
1.723561437942723040e-01
1.308947180339235794e-01
8.695049263123100225e-02
4.142261181036993589e-02
-5.145696480348460611e-03
-5.220862728201014491e-02
-9.892626165991535991e-02
-1.445249313092419330e-01
-1.887240607106328572e-01
-2.302592454445776537e-01
-2.688591089937757417e-01
-3.038155652680527563e-01
-3.340853873704059396e-01
-3.601749117320898197e-01
-3.805044132499989518e-01
-3.953282432036818728e-01
-4.043062119516134256e-01
-4.066564367385619994e-01
-4.035012949869003496e-01
-3.936305016269562307e-01
-3.778334589706955349e-01
-3.562909846524602298e-01
-3.288314701636075865e-01
-2.968444857260821856e-01
-2.599324663809471359e-01
-2.191389661220186913e-01
-1.751208824017445598e-01
-1.282991088179861461e-01
-7.986081124045135704e-02
-3.027796776731334072e-02
1.962741709700016601e-02
6.893171956647897725e-02
1.169346292747461824e-01
1.630502810283614989e-01
2.061999006390831113e-01
2.461992899723912664e-01
2.821192138374121194e-01
3.133726253214242918e-01
3.401255002357796986e-01
3.611194222181535185e-01
3.769374462656149838e-01
3.868721093878881856e-01
3.907156101543426963e-01
3.892433600853815179e-01
3.814467417494775692e-01
3.684518041815836309e-01
3.499379501500892165e-01
3.261204846754208742e-01
2.980580287006501239e-01
2.653033922620788299e-01
2.290754662429952127e-01
1.895467443972403687e-01
1.472100935383079956e-01
1.030756422084236623e-01
5.737510321164783489e-02
1.096429574531774219e-02
-3.546948874765201709e-02
-8.139979278369030569e-02
-1.260906353345081776e-01
-1.687492897078333165e-01
-2.091794367242431063e-01
-2.463082444964490303e-01
-2.798342013034546549e-01
-3.094234997558054090e-01
-3.340572782722674994e-01
-3.542849629058522631e-01
-3.689622204367808411e-01
-3.782084596801676413e-01
-3.821660543163756807e-01
-3.800129879174351522e-01
-3.729124204143484667e-01
-3.600411834141936662e-01
-3.419581846681635229e-01
-3.192591811512840994e-01
-2.916064075647968323e-01
-2.604064273138892993e-01
-2.254241198956432601e-01
-1.874184215807557230e-01
-1.472523828341242014e-01
-1.050865536902648584e-01
-6.203419179287149310e-02
-1.848746204223987444e-02
2.499589775685753801e-02
6.757525237249767391e-02
1.087776346917962988e-01
1.482568403716844618e-01
1.851136931425513832e-01
2.193079874263808016e-01
2.502449629453291635e-01
2.773543572824396231e-01
3.011678047160556426e-01
3.204876621300556394e-01
3.358067742803238498e-01
3.468226473446284208e-01
3.530306877687191536e-01
3.554710883921388676e-01
3.529886728759008552e-01
3.463343943603106601e-01
3.354498114986478874e-01
3.200180152026624869e-01
3.011108489796421317e-01
2.779940048425904586e-01
2.513816563363618917e-01
2.214863949088279604e-01
1.883342773452937602e-01
1.527321726334214813e-01
1.147255068828403057e-01
7.484155019911184481e-02
3.368038755959024133e-02
-8.292661380788102221e-03
-5.057925089979437017e-02
-9.226227496169886466e-02
-1.330628999027709813e-01
-1.720025844617010802e-01
-2.083491930242426515e-01
-2.419012533462289172e-01
-2.712679824814445695e-01
-2.965549661417677951e-01
-3.167414525265220826e-01
-3.313150073977747523e-01
-3.404730854881343749e-01
-3.431098369748764032e-01
-3.398867423729655113e-01
-3.302631621416056151e-01
-3.144165955265739720e-01
-2.930227129066155234e-01
-2.658672551195105926e-01
-2.340839385382650628e-01
-1.979057298120980302e-01
-1.582023617245910674e-01
-1.159285555677958546e-01
-7.177842204658824166e-02
-2.685630874415145808e-02
1.800051552097664542e-02
6.177356967747282823e-02
1.036906382922717640e-01
1.426686829110600518e-01
1.782945523722561099e-01
2.095813801124057907e-01
2.360417932851103240e-01
2.574787928269370862e-01
2.730308243560594095e-01
2.832934519045232635e-01
2.875104747587484133e-01
2.860138751718134253e-01
2.791940662177762600e-01
2.667132896413649257e-01
2.498645494243385001e-01
2.282633020103741750e-01
2.027839515113606383e-01
1.740800070099474683e-01
1.422925804717007636e-01
1.086975319814743324e-01
7.330796971989742006e-02
3.699262549532225663e-02
3.449232140954605619e-04
-3.617920293485138439e-02
-7.191657176574356436e-02
-1.063927223741387706e-01
-1.391385328856857284e-01
-1.697096545963165393e-01
-1.974635808628516509e-01
-2.225220334393904764e-01
-2.439491114358408597e-01
-2.617878139827212181e-01
-2.757366479513065904e-01
-2.851715597166354366e-01
-2.908052050135648825e-01
-2.915983266009262720e-01
-2.880506508894715156e-01
-2.801161223052766047e-01
-2.674698167594188325e-01
-2.511590876984302612e-01
-2.305394946706648684e-01
-2.064054249923524820e-01
-1.790889012990092566e-01
-1.486901773497723012e-01
-1.162898264906945534e-01
-8.187565783560334098e-02
-4.621028520741230633e-02
-9.924336382960065317e-03
2.661819308483026614e-02
6.266911015429471599e-02
9.772583848297700104e-02
1.314399347576817312e-01
1.631159799881366224e-01
1.924088961265183473e-01
2.191560158791333590e-01
2.426007257439076747e-01
2.629957724141822606e-01
2.797624666338154875e-01
2.927325557646938137e-01
3.023041527531075690e-01
3.076759642574224962e-01
3.095714099605768044e-01
3.075892219911902647e-01
3.017197391390311068e-01
2.926736401951652855e-01
2.797757079630082133e-01
2.638918588389494446e-01
2.448494393227941268e-01
2.227276445639491120e-01
1.982805663941911711e-01
1.711607297521887672e-01
1.420601608479280242e-01
1.111522955277992331e-01
7.857824559116921570e-02
4.498439694892485130e-02
1.053051062115298309e-02
-2.444619010163665701e-02
-5.931925306595979552e-02
-9.389416644558667979e-02
-1.276755515966344623e-01
-1.599831434523659723e-01
-1.908886853972123487e-01
-2.193716488433917755e-01
-2.452640001440207773e-01
-2.682688863545453217e-01
-2.874406740301408969e-01
-3.032707145771914026e-01
-3.146553725980729688e-01
-3.216362766294962316e-01
-3.242347040188927054e-01
-3.216821925336402765e-01
-3.148601392420961043e-01
-3.030207017618825605e-01
-2.865594984712767079e-01
-2.659042561807604121e-01
-2.408184676080365461e-01
-2.123822365900247533e-01
-1.805018963304790280e-01
-1.458279226218515412e-01
-1.090973237501215720e-01
-7.063931169067620697e-02
-3.132945480696228135e-02
8.270043633530357874e-03
4.761004580709035650e-02
8.591566435172298677e-02
1.225541472420365874e-01
1.572805436136686663e-01
1.891027815098832443e-01
2.179408337234859938e-01
2.432406264081944103e-01
2.644080361267135970e-01
2.819285100484754669e-01
2.947241477762728712e-01
3.032700889368111774e-01
3.073338183735038753e-01
3.065640585687994246e-01
3.019383598225686138e-01
2.925901339899137921e-01
2.793355616686281628e-01
2.622428830562461011e-01
2.412531751483071307e-01
2.174293485187848984e-01
1.903508044848365444e-01
1.608207907833809625e-01
1.291704836224554231e-01
9.559563666161660644e-02
6.089590844666001312e-02
2.524259595703987058e-02
-1.087093727253898856e-02
-4.686445212817988426e-02
-8.236351138363090518e-02
-1.169850649140483645e-01
-1.499800701528135605e-01
-1.812986200580942175e-01
-2.101640077508656890e-01
-2.361521304459875958e-01
-2.592911358685218159e-01
-2.785057612353112888e-01
-2.941941461139052083e-01
-3.055767767446910810e-01
-3.123870640476509863e-01
-3.150162264297641235e-01
-3.125102995324163802e-01
-3.056381353861244987e-01
-2.939265750767759977e-01
-2.774607772544379070e-01
-2.569242306967194356e-01
-2.319086953422751229e-01
-2.033584515951081251e-01
-1.713541258443371795e-01
-1.363449123185878908e-01
-9.914790841208687144e-02
-6.005580088968465180e-02
-1.984724328396561543e-02
2.082399058342665477e-02
6.138498318857688041e-02
1.011389531769031902e-01
1.392788240565254743e-01
1.755648266319735362e-01
2.089811528894248704e-01
2.391849107575318989e-01
2.658265087124464521e-01
2.879679415982838719e-01
3.060863015229691730e-01
3.191232878254403604e-01
3.271979572588031848e-01
3.303827151914602855e-01
3.279892318929569228e-01
3.210553700674315669e-01
3.088089362906403235e-01
2.918076707814544757e-01
2.704688899786354406e-01
2.446010930267311645e-01
2.153782252807895092e-01
1.825934434376093041e-01
1.469945366677704035e-01
1.092051866805370808e-01
6.958805503339075826e-02
2.897846553571728490e-02
-1.210750673703185620e-02
-5.306449719045848445e-02
-9.319012312206942372e-02
-1.317248706419461290e-01
-1.684525567189202322e-01
-2.022504305465249175e-01
-2.329323789862267069e-01
-2.598667512006194169e-01
-2.822695863284906403e-01
-3.005403633811468134e-01
-3.134349463067440666e-01
-3.213183867488308421e-01
-3.238371921862441272e-01
-3.206035878128508654e-01
-3.124726431158347806e-01
-2.986507804501671859e-01
-2.799780855872121554e-01
-2.565470408117214718e-01
-2.285825297977303605e-01
-1.970996999816030937e-01
-1.620942910809043958e-01
-1.245530285753883026e-01
-8.501119814886362591e-02
-4.416515026275474876e-02
-2.826074561718558420e-03
3.828767820615149031e-02
7.850391754958971346e-02
1.170344806030773344e-01
1.531241563336590561e-01
1.864437199493050312e-01
2.159459547734679519e-01
2.416126892168038442e-01
2.626751808061054128e-01
2.787431463797389597e-01
2.900233524823140341e-01
2.956349292294888631e-01
2.962336131183217480e-01
2.913264625515290529e-01
2.810993410185870234e-01
2.661429876285171803e-01
2.461327896420792971e-01
2.221068240594964438e-01
1.940404116547099767e-01
1.626132535378622679e-01
1.285616016105750603e-01
9.224651845343925793e-02
5.463430383516387767e-02
1.622078341190945350e-02
-2.215916850152992862e-02
-5.986357258538999027e-02
-9.604960389107269902e-02
-1.302523199389640229e-01
-1.616205623826874049e-01
-1.896102935847063797e-01
-2.138785170472195518e-01
-2.335523012278818422e-01
-2.489023703513852936e-01
-2.590798686735278356e-01
-2.641610445286448616e-01
-2.642269845290901586e-01
-2.588323023553656399e-01
-2.488974538454912788e-01
-2.339500046933168376e-01
-2.146836916311744559e-01
-1.915617190206816978e-01
-1.647519231156631681e-01
-1.353924016357423432e-01
-1.035627952631204274e-01
-7.019093023794056863e-02
-3.589323379802351888e-02
-1.278366564913969300e-03
3.288606333187242547e-02
6.604014094696261661e-02
9.755324347572388866e-02
1.269271823638858654e-01
1.534690361203370768e-01
1.771673716505910434e-01
1.972006485492662220e-01
2.135626439497175788e-01
2.260141190919318088e-01
2.340947464616006113e-01
2.384443999119620905e-01
2.382984592372162092e-01
2.342013774338575494e-01
2.261606889559659161e-01
2.140817556267117228e-01
1.988599755235986311e-01
1.800653747524854909e-01
1.584682055686313096e-01
1.342817606598834534e-01
1.077670358830425390e-01
7.968802810263606040e-02
5.014210428252827145e-02
1.978472920738892984e-02
-1.096681110623790728e-02
-4.160591324596912832e-02
-7.170588742334420285e-02
-1.006442347134546833e-01
-1.281155735014347929e-01
-1.535482916614821780e-01
-1.764095766833811141e-01
-1.966624293123672151e-01
-2.134323384193734519e-01
-2.268761228504017347e-01
-2.364517149590660838e-01
-2.418795150709530939e-01
-2.434854196194964626e-01
-2.405827257700541844e-01
-2.337597302738318450e-01
-2.227615201249039389e-01
-2.077496707955918676e-01
-1.893114254467271607e-01
-1.673000058076082874e-01
-1.425180842199077758e-01
-1.151532750231667179e-01
-8.574395146604668616e-02
-5.493073508336052124e-02
-2.315187904269590258e-02
8.947401244596850378e-03
4.079478256975500178e-02
7.178351387982580267e-02
1.014636033269241816e-01
1.290665575788926545e-01
1.544353905411152139e-01
1.768250870055695367e-01
1.959083025972343794e-01
2.115613396333571317e-01
2.230652661471916043e-01
2.308324287273453568e-01
2.342099701154234381e-01
2.333342327730214272e-01
2.283893854937229240e-01
2.190408059891963410e-01
2.060648087142085416e-01
1.891599854667128100e-01
1.688741502237608993e-01
1.455977137264813925e-01
1.195510772677520900e-01
9.151260338968451868e-02
6.171584159272294756e-02
3.087473142432430040e-02
-5.269849014364960671e-04
-3.178670358019827780e-02
-6.246868477566461242e-02
-9.181934586648173025e-02
-1.193024061855489232e-01
-1.444761674152750808e-01
-1.664908798490300768e-01
-1.854638391160209898e-01
-2.004222317295105693e-01
-2.113188275530261950e-01
-2.179290404083761290e-01
-2.197349085600016072e-01
-2.173482935851461240e-01
-2.100994015035993756e-01
-1.985078971628709554e-01
-1.826934406109570475e-01
-1.627809956682982895e-01
-1.395995570140972364e-01
-1.131501967208385778e-01
-8.427839100740019962e-02
-5.341644458026555825e-02
-2.125738251756153357e-02
1.152898698881209966e-02
4.429567115249105624e-02
7.632133704870019963e-02
1.070464145243596871e-01
1.356079577539261449e-01
1.617981321183758758e-01
1.846711315700754197e-01
2.040239146505765377e-01
2.193951686186587646e-01
2.302125744108330929e-01
2.367914541946828932e-01
2.383480991609989164e-01
2.353021348744285257e-01
2.274681226680199120e-01
2.148429713818465481e-01
1.980900774736898406e-01
1.769651426419132645e-01
1.522928401667791309e-01
1.242704579627358918e-01
9.344908145373059805e-02
6.055379331965393686e-02
2.601435549160233118e-02
-9.361857180594818084e-03
-4.500746199746427645e-02
-8.011904738841441054e-02
-1.141943606600690775e-01
-1.463219338724427165e-01
-1.761438149610136672e-01
-2.028979145180816457e-01
-2.259681867718154880e-01
-2.452623755363989300e-01
-2.598234411923227571e-01
-2.699632011474067950e-01
-2.750199957318420485e-01
-2.749035052927134570e-01
-2.699520392239950217e-01
-2.596237214688024708e-01
-2.447724784695127775e-01
-2.251304026590786322e-01
-2.011758482574523832e-01
-1.735221433446292316e-01
-1.422964515592301527e-01
-1.084607376859255679e-01
-7.230636521207556289e-02
-3.460812449617181596e-02
3.989563018514219461e-03
4.274452629900007961e-02
8.108847738111406300e-02
1.181927822506225745e-01
1.534026335865568136e-01
1.862442274352329175e-01
2.156816605216035077e-01
2.418327318067231280e-01
2.635705445633508837e-01
2.807065207421727271e-01
2.930489487598395004e-01
2.997415551939892620e-01
3.015397394963178490e-01
2.974614564412693118e-01
2.879120032138395846e-01
2.730340370861698007e-01
2.525974284578320073e-01
2.276447663079325667e-01
1.978588968301074891e-01
1.640885731457578378e-01
1.268215838173672450e-01
8.664284908274830221e-02
4.442224133043684575e-02
8.080720831841747831e-04
-4.329123008596413857e-02
-8.713019314943842852e-02
-1.295786983029214023e-01
-1.702312714588173348e-01
-2.077600667378320942e-01
-2.416521299908707676e-01
-2.711590064752413820e-01
-2.952363341975867139e-01
-3.140860098591868876e-01
-3.264113132798860395e-01
-3.324326687290080629e-01
-3.317513268590727704e-01
-3.240554310095907220e-01
-3.100785433246759926e-01
-2.892954905141302824e-01
-2.626333592162776176e-01
-2.302880982546836874e-01
-1.929209367066383463e-01
-1.514778644207863678e-01
-1.065268506807792448e-01
-5.924037695133993475e-02
-1.037675443148272647e-02
3.877973531836909071e-02
8.750288925969029741e-02
1.344192360399277808e-01
1.787624672597554754e-01
2.195106941215456131e-01
2.554857173704577211e-01
2.864801328760505084e-01
3.110408768499857146e-01
3.292417075350916322e-01
3.402313086269521114e-01
3.436189917406062833e-01
3.397501267827921501e-01
3.278983582452292822e-01
3.089549260945399500e-01
2.826819147800235799e-01
2.497572446370266708e-01
2.109128673589796554e-01
1.666448733955320227e-01
1.182101793763652015e-01
6.624757641453851709e-02
1.220736259514660672e-02
-4.307805730788157039e-02
-9.803074039171527643e-02
-1.517147727411210789e-01
-2.027691096923255887e-01
-2.497576138948841007e-01
-2.921080015624234472e-01
-3.279587218021360329e-01
-3.572929322247626605e-01
-3.786490339288423601e-01
-3.914749529669750983e-01
-3.957843446619708216e-01
-3.904800371218858368e-01
-3.766152067355063027e-01
-3.534304508115546639e-01
-3.216579243288107959e-01
-2.819911327628881748e-01
-2.347493509247259302e-01
-1.815597421887906182e-01
-1.228642059639037387e-01
-6.027241430721622106e-02
5.109286668793761033e-03
7.171650312177216269e-02
1.382895820327199043e-01
2.032896108747458408e-01
2.652239691382783371e-01
3.230643429164786196e-01
3.748800985296796839e-01
4.205285575583148638e-01
4.580656653061899730e-01
4.870329160243485056e-01
5.069192040023823287e-01
5.164829203913375855e-01
5.167570052742060938e-01
5.063694415803929871e-01
4.861679665965473185e-01
4.563791563219553593e-01
4.170688388051970730e-01
3.699425294394020902e-01
3.148796233156833102e-01
2.535683446655465634e-01
1.869355229889614334e-01
1.162311498861891557e-01
4.307990871157868495e-02
-3.133810623955995966e-02
-1.054170555001445464e-01
-1.778076606028161366e-01
-2.468511467509251767e-01
-3.116375230693374521e-01
-3.703145045154090376e-01
-4.222423268121290874e-01
-4.661238418361273728e-01
-5.008984919954937443e-01
-5.266606163813658537e-01
-5.418927910266942982e-01
-5.473122573924374956e-01
-5.422083135609022664e-01
-5.267918171400940430e-01
-5.020394236428554757e-01
-4.675969057983122013e-01
-4.252097968261666083e-01
-3.750902252081162458e-01
-3.186387261244726932e-01
-2.572413112610163477e-01
-1.918577373295425326e-01
-1.243491184154890683e-01
-5.576818096920210799e-02
1.211985746691207622e-02
7.814097806370032262e-02
1.406407409592161095e-01
1.986481878816213076e-01
2.507573543968487639e-01
2.959078419393653125e-01
3.336008857227698576e-01
3.624751609492117277e-01
3.829492934656976155e-01
3.938990954747885187e-01
3.956125440459405951e-01
3.883520712864357849e-01
3.718186396101088587e-01
3.475275233215721071e-01
3.151330456683377745e-01
2.761289281059015610e-01
2.312830480995677618e-01
1.815246931846138390e-01
1.285886393624267043e-01
7.307095645608630008e-02
1.685944313265930194e-02
-3.919415779609125572e-02
-9.342564023662408568e-02
-1.448494294785982739e-01
-1.921961117993059853e-01
-2.342060918442240847e-01
-2.703569383193014097e-01
-2.991284769593530735e-01
-3.208315652156620290e-01
-3.341348500787186815e-01
-3.390662886202339688e-01
-3.356799497198565962e-01
-3.233833593876664358e-01
-3.035979001982842540e-01
-2.756143218948188256e-01
-2.406636045403615642e-01
-1.993554899226088750e-01
-1.523054202780483313e-01
-1.011701869448787261e-01
-4.632397640349616985e-02
1.059184443988908653e-02
6.868434290414873744e-02
1.265426677639552577e-01
1.831335158748862990e-01
2.371931318504039987e-01
2.876104759113924936e-01
3.335704738542801251e-01
3.736312479963337374e-01
4.078421236396521099e-01
4.346423776152719132e-01
4.540116200354507026e-01
4.654907551286942002e-01
4.682768749791890173e-01
4.633801464584489938e-01
4.496447217989673617e-01
4.280717833200898825e-01
3.987243214240563383e-01
3.617317834109999297e-01
3.185525819193190111e-01
2.689714548399926297e-01
2.144409351924640994e-01
1.556166721315547230e-01
9.340110052027394971e-02
2.912286267727937084e-02
-3.635366206338586093e-02
-1.018643392875928644e-01
-1.662304052279125477e-01
-2.282843530687093114e-01
-2.872405842335463699e-01
-3.415073196844039538e-01
-3.907906470716241421e-01
-4.336865637292009468e-01
-4.694027802007651462e-01
-4.979058128180872123e-01
-5.176097834051113233e-01
-5.293165561646802075e-01
-5.319134350456578009e-01
-5.254632319187809708e-01
-5.106956685257360018e-01
-4.867814014403547551e-01
-4.553649280439993619e-01
-4.161158577312895623e-01
-3.699636158365890992e-01
-3.181525548034166984e-01
-2.609403680101007872e-01
-2.000929831055521246e-01
-1.362266397866667145e-01
-7.060300091548299406e-02
-4.497903822173576760e-03
6.099477047278040187e-02
1.248778026948333952e-01
1.858155152828050438e-01
2.429768139811757655e-01
2.955284935834828208e-01
3.421258991070996736e-01
3.830800496920597209e-01
4.167578083999379790e-01
4.432362160274632701e-01
4.623097715860523538e-01
4.729217892810194668e-01
4.765438398129524522e-01
4.716978268551824116e-01
4.593103515409504567e-01
4.397095570136868581e-01
4.124621131493888537e-01
3.795203680380904165e-01
3.400403630532613519e-01
2.953549236315100024e-01
2.461705931145808934e-01
1.928179292665294642e-01
1.368933619939889379e-01
7.862683340338438853e-02
1.917740895343961194e-02
-4.050332806161827115e-02
-9.948760604637096883e-02
-1.570211877045318283e-01
-2.118431039310580966e-01
-2.634243902887382638e-01
-3.107593557202911749e-01
-3.527767538189453544e-01
-3.896668856858573893e-01
-4.197071406483778855e-01
-4.432265720014543775e-01
-4.594718919605038088e-01
-4.677739649828981938e-01
-4.691317514878003969e-01
-4.621444011669871843e-01
-4.479366126512636659e-01
-4.263228859711303276e-01
-3.973731115355905175e-01
-3.625617004802775822e-01
-3.213838099891278555e-01
-2.753459294787972134e-01
-2.249419374904466640e-01
-1.708771670667295073e-01
-1.146008448496180776e-01
-5.658269726054254711e-02
1.955731371232172222e-03
6.002342208998623363e-02
1.167617870923367551e-01
1.712559779507476510e-01
2.224241316647592726e-01
2.699272344261584022e-01
3.126231219542734419e-01
3.500237012189046926e-01
3.820106126703901595e-01
4.073990604394709392e-01
4.269000964943644449e-01
4.395308314099556357e-01
4.454036311736405684e-01
4.450818218695425932e-01
4.376847383515602430e-01
4.246138220361526106e-01
4.052643244645678378e-01
3.802235867261555824e-01
3.503915290014552042e-01
3.154409793261132577e-01
2.768256399862920603e-01
2.345061666911223697e-01
1.892363868312081365e-01
1.419361158731107242e-01
9.292817994210880728e-02
4.315401040806585153e-02
-6.731829975440750680e-03
-5.612114429161843554e-02
-1.042424346671807500e-01
-1.502300142691054829e-01
-1.939364646487052868e-01
-2.340945947200868682e-01
-2.704829097100635571e-01
-3.025678290977927842e-01
-3.293011177235749543e-01
-3.513249385064445840e-01
-3.671688132558718065e-01
-3.771555987731490811e-01
-3.811113298761321655e-01
-3.783282591439273146e-01
-3.700208902092184116e-01
-3.551360786046888762e-01
-3.345372815010332346e-01
-3.085182732710941567e-01
-2.771078461556743533e-01
-2.416758647578895469e-01
-2.020717557270863551e-01
-1.594097563822009511e-01
-1.143883249289066595e-01
-6.775771427726717810e-02
-2.048705344101720005e-02
2.660924371354300710e-02
7.269149776200989344e-02
1.169189886403114720e-01
1.582870941073933890e-01
1.965508240336402146e-01
2.304210371210809738e-01
2.597565889089894497e-01
2.838836202152557053e-01
3.021153480378367950e-01
3.149453193370519433e-01
3.212420837652568695e-01
3.216486996632614281e-01
3.158664854740053651e-01
3.038824294478706944e-01
2.866331100862641312e-01
2.636421291373681197e-01
2.360394290814535334e-01
2.039877234296988417e-01
1.681480365151762357e-01
1.294895450902257550e-01
8.838198912298850241e-02
4.593358653234819178e-02
2.738457661780158148e-03
-4.020181517890830669e-02
-8.222144165205685917e-02
-1.223114720337221129e-01
-1.598767900494748595e-01
-1.940836219657672279e-01
-2.241160538408198399e-01
-2.497964489622267470e-01
-2.700223588811581643e-01
-2.849836415415877289e-01
-2.939581186242521404e-01
-2.967839678523545577e-01
-2.937912382601085004e-01
-2.844055927441673237e-01
-2.695211615266326355e-01
-2.488958460579425158e-01
-2.231586344022858381e-01
-1.929918761378572878e-01
-1.586847136843178019e-01
-1.213927855286915936e-01
-8.151390980694900312e-02
-4.014223693741536536e-02
1.989821773239003333e-03
4.389421939162135855e-02
8.476381610190777960e-02
1.237195804199395233e-01
1.598179193062634063e-01
1.925848904437901521e-01
2.208835482233983682e-01
2.446825438166214950e-01
2.630143105269064918e-01
2.756185945551557492e-01
2.824458580011884878e-01
2.828295131673608798e-01
2.775163159796693035e-01
2.659120333725467633e-01
2.485931731462823757e-01
2.259242981641184644e-01
1.980819955137792243e-01
1.661832687154952415e-01
1.303446270879886904e-01
9.167398277784391536e-02
5.080045144432471238e-02
8.674643584314994937e-03
-3.381201403955448603e-02
-7.580348712653638132e-02
-1.162663028604076498e-01
-1.545463087187221862e-01
-1.894203502946346096e-01
-2.206793905427605340e-01
-2.471108984666858799e-01
-2.683392419769256021e-01
-2.839613339094416711e-01
-2.931812905895282428e-01
-2.965354173968390850e-01
-2.931401460750248100e-01
-2.835023074398836940e-01
-2.676776406890735149e-01
-2.457634955631300411e-01
-2.187622770902686309e-01
-1.866258949301660142e-01
-1.504712275086326212e-01
-1.108184759019705812e-01
-6.859073591314568397e-02
-2.475399980765602415e-02
1.987979028863984254e-02
6.422125613167839475e-02
1.074988741545934712e-01
1.485136097017469847e-01
1.867912188092026859e-01
2.211033420572090513e-01
2.510040158459374560e-01
2.757868322987762078e-01
2.946612332365856624e-01
3.078124495862211152e-01
3.142477084168843193e-01
3.143996109323106136e-01
3.079208495009173596e-01
2.948632201148088106e-01
2.759154249605760834e-01
2.508521838763022593e-01
2.207348556445960508e-01
1.857627945120547963e-01
1.468015938743060245e-01
1.047100972366877825e-01
6.018494451667966150e-02
1.434773816557532999e-02
-3.205345024662253905e-02
-7.780658329450573785e-02
-1.222302750505737112e-01
-1.640383957764195433e-01
-2.026531191165960033e-01
-2.370437564221966609e-01
-2.663382748318841031e-01
-2.903052747466591255e-01
-3.077613946256553268e-01
-3.190234270814282791e-01
-3.232586934962931036e-01
-3.204673420333661316e-01
-3.109752865880867079e-01
-2.943679851680459647e-01
-2.717365023171399718e-01
-2.428905782571643135e-01
-2.087328582036951374e-01
-1.700089361741151661e-01
-1.273012041399924632e-01
-8.189479167387958558e-02
-3.438204627935359525e-02
1.395786344033228543e-02
6.229843041371613266e-02
1.094043586845282190e-01
1.545229945629682522e-01
1.965231964017215560e-01
2.345099260611266945e-01
2.679296864794170618e-01
2.955790211994838712e-01
3.176625674637569841e-01
3.330050408966049869e-01
3.416128976313879129e-01
3.433982543659098718e-01
3.378192977046852175e-01
3.259147411467839817e-01
3.070053978249747129e-01
2.819919720272572317e-01
2.512617489063098120e-01
2.152247899584063262e-01
1.751483328456453492e-01
1.312752944381971876e-01
8.489164129830317762e-02
3.673410644111774204e-02
-1.208504678060640103e-02
-6.062184884793442308e-02
-1.078338725929031128e-01
-1.527265791385996607e-01
-1.944648402062627568e-01
-2.318856223998317923e-01
-2.647232717510927813e-01
-2.917203678273083689e-01
-3.127171257409737670e-01
-3.271259531743901938e-01
-3.344428203603597716e-01
-3.351468667810344471e-01
-3.284993591488580833e-01
-3.152987604677255362e-01
-2.954971879943295576e-01
-2.695821142826573258e-01
-2.385213371693866158e-01
-2.025128563385494296e-01
-1.628901342879016667e-01
-1.201750668579006920e-01
-7.555176342120928368e-02
-2.998131145051452506e-02
1.556663117081003023e-02
5.998655368158622991e-02
1.024517141080476534e-01
1.418105311527169121e-01
1.775720368545705696e-01
2.085857318691428652e-01
2.345978526664236341e-01
2.548588119684365161e-01
2.689238404183664777e-01
2.769415987936456602e-01
2.782115117300891782e-01
2.734405920120117628e-01
2.622713956644506794e-01
2.451915339021031315e-01
2.228275279558973310e-01
1.952719738194002019e-01
1.637612853040790739e-01
1.284784999394892324e-01
9.053480282294845694e-02
5.069354868458031405e-02
9.757978499307373710e-03
-3.119529055888503599e-02
-7.150417107739714950e-02
-1.100654694795299982e-01
-1.463130426914784898e-01
-1.791753633409005619e-01
-2.083014827666009872e-01
-2.328282256581074572e-01
-2.522644395212998991e-01
-2.664567550369904003e-01
-2.746427484523629725e-01
-2.773603460162754053e-01
-2.739541058375447036e-01
-2.647964212318369981e-01
-2.501834105383325957e-01
-2.300608803749475406e-01
-2.055321631802653481e-01
-1.764888698175259840e-01
-1.439196134498446078e-01
-1.084165922565332174e-01
-7.063485862910345858e-02
-3.161112592943782218e-02
8.120707848466857115e-03
4.754627931535049257e-02
8.603153700455790087e-02
1.225849688768154699e-01
1.567925754319303699e-01
1.876837183854194180e-01
2.147874012312138703e-01
2.376541082109566716e-01
2.554979236830234868e-01
2.686379727444947463e-01
2.761501999601625457e-01
2.783195329025902609e-01
2.750113793309809651e-01
2.660552590477376356e-01
2.522374056368503759e-01
2.331635627852719495e-01
2.096861763122355171e-01
1.820337693094398190e-01
1.507488903153468840e-01
1.166749030629210537e-01
8.019761921994650322e-02
4.229408699040781983e-02
3.522729508514288455e-03
-3.511909741458119072e-02
-7.308219916032143715e-02
-1.093425340945586299e-01
-1.432916299760425005e-01
-1.742126862887696248e-01
-2.011714511159352625e-01
-2.241166951296742482e-01
-2.418991817925935095e-01
-2.546152980923199749e-01
-2.617002298906978552e-01
-2.628080355561062120e-01
-2.584083928967837451e-01
-2.478490475884855826e-01
-2.319353296101942519e-01
-2.105621239089572327e-01
-1.841881395044513425e-01
-1.536190258178544710e-01
-1.190507502965498787e-01
-8.160680066080150397e-02
-4.173805121568552323e-02
-4.405560335722924492e-04
4.149680396300059471e-02
8.316872007151676627e-02
1.237416992001287852e-01
1.623907764700969203e-01
1.981717033917207438e-01
2.306482680301749078e-01
2.587131168113927515e-01
2.822783773534798257e-01
3.004916764674641083e-01
3.129951308027723034e-01
3.198500853579941960e-01
3.203233157814727727e-01
3.151156276310245197e-01
3.037213258639310798e-01
2.865572352301418713e-01
2.641220234416870039e-01
2.364219092796113753e-01
2.045821705238410892e-01
1.687112390804617057e-01
1.297586555879659542e-01
8.846877231533456509e-02
4.556209809564970570e-02
2.023804845177501477e-03
-4.140378236932029665e-02
-8.377936748540903977e-02
-1.243634635385957310e-01
-1.621375957825099690e-01
-1.967381259798921533e-01
-2.270885411392660203e-01
-2.528147380710086267e-01
-2.734369241601868339e-01
-2.882448028947663943e-01
-2.976656749519328571e-01
-3.008139500667112998e-01
-2.981524905325727559e-01
-2.896379623147566917e-01
-2.753393579242917610e-01
-2.561755915919938786e-01
-2.319762955611981425e-01
-2.038094797095091337e-01
-1.720574012221494087e-01
-1.375519922931278671e-01
-1.012052474083553477e-01
-6.363234189608313329e-02
-2.592073639098657623e-02
1.132754347509923321e-02
4.699945754429357692e-02
8.064186253791127967e-02
1.112253321392131511e-01
1.382368250622345585e-01
1.611323580754326912e-01
1.791470486743023116e-01
1.924563458902852631e-01
2.001820768081490343e-01
2.026429645839478155e-01
1.995785210725458114e-01
1.909842460337163317e-01
1.775098958466330146e-01
1.588900497979839344e-01
1.360828468355759213e-01
1.092262311938849706e-01
7.906763136009509196e-02
4.640005725879703391e-02
1.170266347889814540e-02
-2.392954851739226285e-02
-5.999499874240576958e-02
-9.540894041694514272e-02
-1.295715665829373364e-01
-1.615456056678929997e-01
-1.906544706439099457e-01
-2.162599753935374736e-01
-2.375557986326199966e-01
-2.543735208325745845e-01
-2.658967884587770669e-01
-2.722045028761375107e-01
-2.728818451867249806e-01
-2.678752677562554751e-01
-2.575080739799329166e-01
-2.416162940630499634e-01
-2.209571368742091479e-01
-1.956301582349371238e-01
-1.663595582837200659e-01
-1.337951159745089935e-01
-9.855803275392607810e-02
-6.160463691031936584e-02
-2.356806826239732366e-02
1.451823877791635908e-02
5.200085804665111056e-02
8.783615208549111486e-02
1.214638087833765923e-01
1.519948630704082149e-01
1.787468479463916182e-01
2.013457803766112164e-01
2.189479733496479952e-01
2.313607076424410991e-01
2.385033434372836325e-01
2.408469460738391632e-01
2.374663127493992221e-01
2.274035964831391254e-01
2.118211443274269357e-01
1.925747801619088762e-01
1.710118753376903555e-01
1.446665307588972382e-01
1.114834720212840580e-01
7.486660334648576054e-02
4.058035138107030093e-02
1.023782987553545354e-02
-2.291107668050429425e-02
-6.394435546870980147e-02
-1.054747819697858802e-01
-1.338236019468723725e-01
-1.474055072907951569e-01
-1.637194655468832138e-01
-1.980310856170461875e-01
-2.358251517436258382e-01
-2.369605690609049020e-01
-1.765053492769332877e-01
-7.724878339846874553e-02
