BVP Green Neck Signal
-7.231602584700137781e-02
-1.262378636058833492e-01
-1.701554314503697096e-01
-1.959750274377773938e-01
-1.987529818746662236e-01
-1.775369337537032188e-01
-1.354860690078575070e-01
-7.926243467949217747e-02
-1.782451839597928855e-02
3.914023664365599842e-02
8.285399352227461323e-02
1.068695347475036445e-01
1.080352514223098664e-01
8.685586015011777239e-02
4.721660677661605743e-02
-4.442758335685220716e-03
-6.032325232901712686e-02
-1.125972953047918862e-01
-1.546346188631689822e-01
-1.819204212392447617e-01
-1.925354320002528596e-01
-1.871619068191675006e-01
-1.686736391598337714e-01
-1.414372886894451065e-01
-1.104805235612429659e-01
-8.067138187280600836e-02
-5.602099181450469895e-02
-3.918760368316004383e-02
-3.122929126643547715e-02
-3.162010681571537918e-02
-3.850784395150055883e-02
-4.915783634357998033e-02
-6.050402894486507643e-02
-6.971681889197027526e-02
-7.469484455588361327e-02
-7.439754787537830594e-02
-6.896291406471058427e-02
-5.959970270701572120e-02
-4.829239772662548974e-02
-3.739139973591799893e-02
-2.917131462231363492e-02
-2.543205800697811991e-02
-2.720192446703235262e-02
-3.458324457343577019e-02
-4.675735850446044450e-02
-6.213667510923717024e-02
-7.862596076082777052e-02
-9.394261138920298460e-02
-1.059473868223681225e-01
-1.129442925533494513e-01
-1.139136072713092807e-01
-1.086474607833361750e-01
-9.776941375838657522e-02
-8.263872217380369145e-02
-6.515866192844554927e-02
-4.751903653089994267e-02
-3.190657021388676462e-02
-2.021922553967239050e-02
-1.382330072791972814e-02
-1.339003014192149954e-02
-1.883591466541328224e-02
-2.937059545552957174e-02
-4.363664155393785077e-02
-5.991360033482632380e-02
-7.635305060672950561e-02
-9.120873302126741855e-02
-1.030275260878684984e-01
-1.107776692851846073e-01
-1.139090698207879948e-01
-1.123571840329004451e-01
-1.065074346560540147e-01
-9.713179781276348734e-02
-8.530215460183990239e-02
-7.228373914798028044e-02
-5.941513432434707143e-02
-4.798250380393427605e-02
-3.909367580177754153e-02
-3.355807855287171182e-02
-3.178571709487133801e-02
-3.372721606840210773e-02
-3.887689361566814411e-02
-4.634793424447868765e-02
-5.501025996757825942e-02
-6.366774764883956217e-02
-7.124490734847081785e-02
-7.695055619785531875e-02
-8.038627432266076678e-02
-8.157498849718458622e-02
-8.090303556596108170e-02
-7.899220396134737365e-02
-7.653558552180904362e-02
-7.413588193917088065e-02
-7.217984291956923426e-02
-7.077410180989857080e-02
-6.975674559620545501e-02
-6.878174954272628372e-02
-6.745124493794005249e-02
-6.545416248670903048e-02
-6.267031928938220087e-02
-5.921637679405917370e-02
-5.543219581026118808e-02
-5.182044641131342694e-02
-4.895669291252881250e-02
-4.738774578767528806e-02
-4.753681394543167460e-02
-4.963196956250162661e-02
-5.366656372508069733e-02
-5.939044718107751308e-02
-6.632665181924915498e-02
-7.381098984243177064e-02
-8.105475275461804241e-02
-8.722670036778909508e-02
-9.154278008080495022e-02
-9.334991535115967631e-02
-9.219726317667573112e-02
-8.789678692878408195e-02
-8.057501128309306482e-02
-7.070951379450993168e-02
-5.913640247835658115e-02
-4.701582018364072746e-02
-3.574894595401238023e-02
-2.684543347158294124e-02
-2.174404722234559578e-02
-2.159753321923657543e-02
-2.704865408429012880e-02
-3.804086580723606281e-02
-5.371284398830561413e-02
-7.241614979357134663e-02
-9.187411013652846403e-02
-1.094738981284489598e-01
-1.226558720809825392e-01
-1.293370241262488674e-01
-1.282865715861717382e-01
-1.193724563566999353e-01
-1.036227142787526784e-01
-8.308700459051618359e-02
-6.052488598318424978e-02
-3.897728294200466376e-02
-2.129486760247329552e-02
-9.704404506967405364e-03
-5.489422187679421361e-03
-8.839847126401831345e-03
-1.888806078243470549e-02
-3.390846110073146569e-02
-5.162887119132920921e-02
-6.959136134719624833e-02
-8.550297814417841258e-02
-9.752655542908719721e-02
-1.044760737592245192e-01
-1.059009067047941566e-01
-1.020656220640192291e-01
-9.384825033287361173e-02
-8.258390373655463690e-02
-6.987564484696379141e-02
-5.739012744881587247e-02
-4.665704124442315859e-02
-3.889468008297639751e-02
-3.488200367133654362e-02
-3.488974412088838989e-02
-3.867509964195902511e-02
-4.553967965839737786e-02
-5.444502756067481908e-02
-6.417006981278702837e-02
-7.348356942056426255e-02
-8.130085557151395248e-02
-8.680187410113349156e-02
-8.950132704044903853e-02
-8.927203428328855939e-02
-8.632644005412290489e-02
-8.116287634684866970e-02
-7.448683936173895737e-02
-6.712054672741302186e-02
-5.991176640603801395e-02
-5.364699980338336061e-02
-4.897175314771733123e-02
-4.632494861723933377e-02
-4.589955818773606977e-02
-4.763918770730701802e-02
-5.127028296969234067e-02
-5.635974752637674945e-02
-6.238481037267352980e-02
-6.880432525681334788e-02
-7.512191274171164945e-02
-8.092983531268040098e-02
-8.592395831362290015e-02
-8.988947162654446765e-02
-9.266999279415413793e-02
-9.413894871284606003e-02
-9.418676201309467144e-02
-9.272624691709868694e-02
-8.971119102225563746e-02
-8.516185534389900114e-02
-7.919116789347190044e-02
-7.202326536584210959e-02
-6.399519452235394312e-02
-5.553810901149296847e-02
-4.714433316504128280e-02
-3.933264973805860459e-02
-3.262052511186096238e-02
-2.750273512281652122e-02
-2.442959104706619866e-02
-2.377819068211876885e-02
-2.581313130895251245e-02
-3.063504838188788049e-02
-3.811831388901247564e-02
-4.784797651435275523e-02
-5.907888552456513898e-02
-7.074669977126535336e-02
-8.155206273831161479e-02
-9.011808968081974625e-02
-9.519915511144327880e-02
-9.590479906476373495e-02
-9.189649896497487092e-02
-8.351392577821456498e-02
-7.179245826689957533e-02
-5.835005439795403620e-02
-4.514952506494240153e-02
-3.417351778591930234e-02
-2.707261094377867022e-02
-2.485622080043917159e-02
-2.769306609020316667e-02
-3.487429566505774459e-02
-4.496539342206444523e-02
-5.613155131237673734e-02
-6.657427586523056995e-02
-7.498192793019792246e-02
-8.088742029578468995e-02
-8.484294291353297601e-02
-8.835516125674808263e-02
-9.356714970584811830e-02
-1.027234967671621646e-01
-1.175090888509625620e-01
-1.383974674245319059e-01
-1.641641638423534943e-01
-1.917045566825297254e-01
-2.162482746207802786e-01
-2.319932172721547725e-01
-2.331001586756266675e-01
-2.149013453551723574e-01
-1.750990433154266945e-01
-1.146876133387236818e-01
-3.834867524759098811e-02
4.584917635569325800e-02
1.274788011428165668e-01
1.953799779607406362e-01
2.395945555144485817e-01
2.532180951943114322e-01
2.337595342316141078e-01
1.836939045264713299e-01
1.100765095251442366e-01
2.330623622535454853e-02
-6.468688872567789072e-02
-1.424504787064221900e-01
-2.008287872290797638e-01
-2.342782419141117289e-01
-2.414863808070768503e-01
-2.252417060674994920e-01
-1.916382836749580543e-01
-1.488068903654476971e-01
-1.054257054151412354e-01
-6.927359162859975106e-02
-4.605640076900655022e-02
-3.867284930989683955e-02
-4.700073976007661247e-02
-6.818909375274204154e-02
-9.735647144304812595e-02
-1.285400703534202438e-01
-1.557225499037312721e-01
-1.737771032772400526e-01
-1.792024675723774552e-01
-1.705597004447144405e-01
-1.485702410539379570e-01
-1.158875790956638008e-01
-7.660331446382742659e-02
-3.558104930764180440e-02
2.275492491404712547e-03
3.271525547962861324e-02
5.269856604002234879e-02
6.074526928785121960e-02
5.702684446591778367e-02
4.319931870203720659e-02
2.201746049328488775e-02
-3.194971221569628539e-03
-2.912291662839749939e-02
-5.298083894148658546e-02
-7.287909331721502404e-02
-8.796881588494459558e-02
-9.835178711202552382e-02
-1.048022264495957062e-01
-1.083913780529999205e-01
-1.101182764059913111e-01
-1.106338730629677913e-01
-1.101136264029248524e-01
-1.082960134349737341e-01
-1.046652577464143724e-01
-9.872030153194524815e-02
-9.024868718618800356e-02
-7.952412826536287005e-02
-6.737132446597318691e-02
-5.508024690472777818e-02
-4.419039111840605133e-02
-3.619509666751385968e-02
-3.223490409686978475e-02
-3.285430342123962094e-02
-3.788251652328805674e-02
-4.646520776581024303e-02
-5.723120325937045005e-02
-6.854472552982618372e-02
-7.878144419153804145e-02
-8.657373710675771161e-02
-9.098667653414958811e-02
-9.160449493145587929e-02
-8.852683017766677098e-02
-8.229315760497465937e-02
-7.376575003309213119e-02
-6.400049539480362482e-02
-5.412373412110928206e-02
-4.522168834681262323e-02
-3.824439287971159035e-02
-3.392712576548115311e-02
-3.273324241453109268e-02
-3.482059549507607321e-02
-4.003239135248867070e-02
-4.791470687758782321e-02
-5.776358075248628349e-02
-6.869960159963596491e-02
-7.975882372098164197e-02
-8.998395678868327530e-02
-9.850432409069148632e-02
-1.046020409734328832e-01
-1.077656292038626645e-01
-1.077282431061104273e-01
-1.044828502636929168e-01
-9.826862375023988350e-02
-8.953075774612402615e-02
-7.886291841037695871e-02
-6.694320900951639119e-02
-5.447334570607120785e-02
-4.213090267790521593e-02
-3.054479321069396291e-02
-2.029907903215039111e-02
-1.195813441007315819e-02
-6.093667849681481952e-03
-3.290034605174935178e-03
-4.111138767979229114e-03
-9.024683542763395350e-03
-1.829157173245750390e-02
-3.183926962810792322e-02
-4.914942487493487167e-02
-6.919809521970984867e-02
-9.048288413397828633e-02
-1.111512884938595236e-01
-1.292163740351759404e-01
-1.428231365926673213e-01
-1.505192776111593522e-01
-1.514849103093749427e-01
-1.456808028990151382e-01
-1.338832827311665363e-01
-1.175898793850482099e-01
-9.880421617498591491e-02
-7.973488469564213310e-02
-6.246108644751732081e-02
-4.862264613806083907e-02
-3.918570087759905285e-02
-3.432207269199961247e-02
-3.342172235374032963e-02
-3.523487674459019336e-02
-3.811800547273811596e-02
-4.034267338326604641e-02
-4.042124347023564462e-02
-3.740406909781696099e-02
-3.110327355533712423e-02
-2.219950785703905805e-02
-1.219828545186987107e-02
-3.226886332931430679e-03
2.304328076611197873e-03
2.123769595279753619e-03
-5.465043944319403213e-03
-2.120664379599712657e-02
-4.464754457934654724e-02
-7.407852999377331771e-02
-1.066927859837747267e-01
-1.389438903775739587e-01
-1.670443016350531829e-01
-1.875165595654068873e-01
-1.977020021017442120e-01
-1.961420604506576848e-01
-1.827695606861265420e-01
-1.588797543785986921e-01
-1.268915064985347008e-01
-8.995102405317595418e-02
-5.146133116858242484e-02
-1.463118583916496462e-02
1.787292395305867254e-02
4.411391009392168217e-02
6.289101223568617505e-02
7.359500664401889825e-02
7.598632768503742196e-02
6.999619009990672158e-02
5.564053060590433419e-02
3.309221717349035419e-02
2.895925735296234205e-03
-3.374713219077749016e-02
-7.473622038650111488e-02
-1.169909941934390435e-01
-1.566267965140939189e-01
-1.894104700195617941e-01
-2.114323177067427006e-01
-2.198487922169383157e-01
-2.135092325399314817e-01
-1.932953341262275693e-01
-1.620689733358299245e-01
-1.242206149261891601e-01
-8.490948603469482270e-02
-4.916278818251099136e-02
-2.103429418737953749e-02
-3.002176824873109551e-03
4.282409870633732685e-03
1.876941882185026444e-03
-7.874891631945005188e-03
-2.194966165910317013e-02
-3.729570327457461254e-02
-5.139859240376710298e-02
-6.265688793201208695e-02
-7.050885374695685381e-02
-7.530839952087706179e-02
-7.800603988199886207e-02
-7.973023230086685731e-02
-8.137586103556249117e-02
-8.329386414140782513e-02
-8.514922639811083049e-02
-8.597935862919507677e-02
-8.444262497883663066e-02
-7.920297515214333450e-02
-6.936312036155399541e-02
-5.484553481271975395e-02
-3.662819302452560710e-02
-1.676373152057167304e-02
1.857071494907616693e-03
1.599031803137543339e-02
2.270229793284737896e-02
2.007279721754806623e-02
7.755629588576937183e-03
-1.277712860191063116e-02
-3.840844312006776173e-02
-6.495502931761758247e-02
-8.802642487880166233e-02
-1.039648564741101622e-01
-1.106482812801871385e-01
-1.079753580015519882e-01
-9.792703067323124677e-02
-8.419308371661347878e-02
-7.143985878073301488e-02
-6.435973184616394782e-02
-6.667806947685986363e-02
-8.030162556102315996e-02
-1.047751103549738605e-01
-1.371670583798833554e-01
-1.724321761427570210e-01
-2.042064901796023513e-01
-2.259047776397792862e-01
-2.319264983021284143e-01
-2.187476976441606880e-01
-1.856874168871192055e-01
-1.351916619148920695e-01
-7.257201520565996489e-02
-5.248582240563889889e-03
5.835604118413166563e-02
1.100718883523682107e-01
1.431817145411380943e-01
1.533910571276542179e-01
1.394369897207912712e-01
1.032552963518061501e-01
4.968593763683265552e-02
-1.423523993125490328e-02
-8.028546593108683294e-02
-1.402041706091559647e-01
-1.868015046333108553e-01
-2.148550171008071219e-01
-2.216628116740862464e-01
-2.071888953758255769e-01
-1.738204344194408668e-01
-1.258339772680345248e-01
-6.871237142785142915e-02
-8.453450972178908063e-03
4.902561894918970598e-02
9.833632707301408205e-02
1.349151111913272083e-01
1.552006934307029740e-01
1.567477073205056359e-01
1.383332934278552195e-01
1.000881287071253428e-01
4.363919476102100237e-02
-2.779044495468661891e-02
-1.093988172906419504e-01
-1.950021574112121847e-01
-2.774409718141923054e-01
-3.491806663338096750e-01
-4.030514414208677954e-01
-4.330411635397415915e-01
-4.350382448192971485e-01
-4.074209619679431960e-01
-3.514033775139335236e-01
-2.710720272161203370e-01
-1.730799233880153387e-01
-6.600795651461092983e-02
4.054016382594867463e-02
1.369851919331631640e-01
2.148015646744420581e-01
2.673773445957365880e-01
2.906085233711229177e-01
2.832035157393833491e-01
2.467254188052720454e-01
1.854127515291963957e-01
1.058046061449657155e-01
1.617693740527849366e-02
-7.420950805114596982e-02
-1.560346007255771772e-01
-2.209637004045836850e-01
-2.626978796600010213e-01
-2.778543328649367705e-01
-2.664783857755312901e-01
-2.320350027839931384e-01
-1.808397778699082914e-01
-1.210239737561929763e-01
-6.123418483287468295e-02
-9.316139901567294102e-03
2.877842223027642088e-02
4.968277238248769434e-02
5.281903234501736377e-02
4.013542301215206054e-02
1.548640630430427045e-02
-1.618582478596460733e-02
-4.970632261746273789e-02
-8.042564212949335212e-02
-1.047918723294250926e-01
-1.206922727414550672e-01
-1.275599209856756455e-01
-1.262691262730235575e-01
-1.188577942108289265e-01
-1.081197333306371522e-01
-9.711519126766270105e-02
-8.865988975883828949e-02
-8.486533562703826861e-02
-8.680261710623468629e-02
-9.434161818049750792e-02
-1.061850796627044485e-01
-1.200855834058972837e-01
-1.332097114037510410e-01
-1.425945668019389101e-01
-1.456252982651358718e-01
-1.404541717883903695e-01
-1.262911858085341843e-01
-1.035240569236928060e-01
-7.366099360743713631e-02
-3.912004545552448531e-02
-2.908699652665533431e-03
3.175117090000902087e-02
6.179379546961298597e-02
8.462286610776197093e-02
9.833432981941296613e-02
1.018397035474679496e-01
9.489894390184948347e-02
7.807791090509490217e-02
5.264508955817068236e-02
2.042342576963163125e-02
-1.638318049806976318e-02
-5.536814119979793086e-02
-9.408939682612538213e-02
-1.302172843344254205e-01
-1.616596793374356078e-01
-1.866625128307712600e-01
-2.038858580431140433e-01
-2.124606954098691158e-01
-2.120349016096720329e-01
-2.028129443687300415e-01
-1.855829029969828237e-01
-1.617148875779589046e-01
-1.331134762066298882e-01
-1.021119359403032112e-01
-7.130198186690381301e-02
-4.329886749794677192e-02
-2.045322279552455602e-02
-4.541186660054041813e-03
3.514131213897278561e-03
3.826771624006242156e-03
-2.417180070507216061e-03
-1.310579126873245848e-02
-2.553018774231692600e-02
-3.686341587281334597e-02
-4.471879641411725947e-02
-4.768290847491783724e-02
-4.570182045122418713e-02
-4.021347675580436848e-02
-3.396450215331613121e-02
-3.051334297011906727e-02
-3.348749991847278784e-02
-4.571912647497583526e-02
-6.842288901123061429e-02
-1.005942561558891696e-01
-1.387861632142972368e-01
-1.773646175606464759e-01
-2.092587894319249409e-01
-2.271260880466156595e-01
-2.247636165031727806e-01
-1.985250029466532617e-01
-1.484576270934911402e-01
-7.887780963733893869e-02
1.830732209442006986e-03
8.227266755500990680e-02
1.498437488889882707e-01
1.929859823469404767e-01
2.034632006406066340e-01
1.781756427998125170e-01
1.200884495986252326e-01
3.800736595919095018e-02
-5.483020637293571642e-02
-1.431187188921856368e-01
-2.123473966828837156e-01
-2.515777294195610247e-01
-2.555509363336747053e-01
-2.256734722967614348e-01
-1.696658732348745868e-01
-9.995030936435739255e-02
-3.112772332449564860e-02
2.291283614844542849e-02
5.165039494879304638e-02
4.983093896211454599e-02
1.827091979611857042e-02
-3.653670855360920816e-02
-1.038799368320384997e-01
-1.710179028774480026e-01
-2.256460723684557412e-01
-2.581443573691074578e-01
-2.631839284612980667e-01
-2.404242605277753797e-01
-1.942369833793042844e-01
-1.325955769378723836e-01
-6.542283572463833408e-02
-2.761933178738323891e-03
4.687599523898165754e-02
7.772077453818583559e-02
8.736783065724106068e-02
7.680364815950226076e-02
4.991282530587394517e-02
1.260519329338892491e-02
-2.827017960516378658e-02
-6.604848386861314480e-02
-9.524358110636586827e-02
-1.122765057097985519e-01
-1.158503291677167452e-01
-1.069430236466572537e-01
-8.844823820116376467e-02
-6.454410050204113791e-02
-3.990888356915729684e-02
-1.892409891550314582e-02
-5.001810283327301487e-03
-1.398607827935854919e-04
-4.754643344001559246e-03
-1.778364724367428179e-02
-3.700452795699327169e-02
-5.948955072145688250e-02
-8.210374828469582664e-02
-1.019621014410527632e-01
-1.167847765875877908e-01
-1.251227027512891721e-01
-1.264549317774948667e-01
-1.211736769454247187e-01
-1.104741553800175358e-01
-9.616520449251508840e-02
-8.042076950390245060e-02
-6.549908832306458595e-02
-5.345906574131057548e-02
-4.590142548665476774e-02
-4.376131099921772016e-02
-4.718104849147396196e-02
-5.548997640908442247e-02
-6.730422416923353968e-02
-8.073433921747055764e-02
-9.366461045371712868e-02
-1.040564550429054769e-01
-1.102304801107933108e-01
-1.110903142429610913e-01
-1.062602659768757257e-01
-9.611973372837068208e-02
-8.173315653024873506e-02
-6.469216686365372726e-02
-4.689874549980379420e-02
-3.032086215193709189e-02
-1.674964340333238294e-02
-7.585710104874542059e-03
-3.681885667411233243e-03
-5.264152533556894220e-03
-1.193932170439040985e-02
-2.278116284578669826e-02
-3.647473684743166022e-02
-5.149418229197586655e-02
-6.628865613159934389e-02
-7.945138882350270826e-02
-8.985014173528041437e-02
-9.670750625287499735e-02
-9.963410957157868564e-02
-9.862784514971434380e-02
-9.405096676596721994e-02
-8.658792149285937656e-02
-7.718058876291884751e-02
-6.693983770182133919e-02
-5.703880251161397297e-02
-4.859698969162985771e-02
-4.256468280323599807e-02
-3.961918672592981694e-02
-4.008988627295720364e-02
-4.393121260085372515e-02
-5.075346062776382727e-02
-5.990260776421616612e-02
-7.056359786686688951e-02
-8.185764458214857264e-02
-9.291298207587830871e-02
-1.029021878587217942e-01
-1.110514736073175412e-01
-1.166373729161762907e-01
-1.189935622769603268e-01
-1.175505407669834579e-01
-1.119187509098300420e-01
-1.020041297242200024e-01
-8.812506074534284806e-02
-7.109169129615353078e-02
-5.221378827961994235e-02
-3.321587084940692824e-02
-1.605433110334038294e-02
-2.651656849301214924e-03
5.412607424412296808e-03
7.193628605363808215e-03
2.589442525138221929e-03
-7.586921812362118489e-03
-2.169689082636973992e-02
-3.752363856612207782e-02
-5.264619539025656991e-02
-6.488249074338495181e-02
-7.271904585591074111e-02
-7.563356170689586322e-02
-7.422958518577170428e-02
-7.014050101298519024e-02
-6.571101974163447157e-02
-6.351235490465838296e-02
-6.578312539287918537e-02
-7.390874897585414383e-02
-8.805359888302315141e-02
-1.070351337017921012e-01
-1.284761271427642959e-01
-1.492035982039828790e-01
-1.658050031385562839e-01
-1.752224853642881386e-01
-1.752680373613698384e-01
-1.649684796880454551e-01
-1.446900367267483500e-01
-1.160411915876850830e-01
-8.160036469481375676e-02
-4.454743217035186942e-02
-8.282426489397212710e-03
2.390913783590270514e-02
4.912225015232846159e-02
6.503916169984406970e-02
7.010029167126445582e-02
6.365781880298752859e-02
4.611137601354818594e-02
1.899881190408110598e-02
-1.500747716668737047e-02
-5.225205298731357834e-02
-8.842604004001282381e-02
-1.190614404882736621e-01
-1.401311836879540196e-01
-1.486648789942903726e-01
-1.432777291973348355e-01
-1.245118449242864911e-01
-9.490441199419637208e-02
-5.873139624224092692e-02
-2.143149911133637731e-02
1.121636341878018417e-02
3.402687031725107336e-02
4.328134780251464975e-02
3.736601272633634230e-02
1.703624049625580839e-02
-1.476226782653448227e-02
-5.348718699635899437e-02
-9.387694599011700558e-02
-1.309069585440185979e-01
-1.606062150683153500e-01
-1.805674472812339726e-01
-1.900778073234246635e-01
-1.898970502614115152e-01
-1.817879642352564218e-01
-1.679453687825510078e-01
-1.504723534267266016e-01
-1.310188494138619930e-01
-1.106391674276505921e-01
-8.986162883275011781e-02
-6.891561728892715843e-02
-4.803858218355413351e-02
-2.778209685019161768e-02
-9.241521558831747307e-03
5.855019886205084512e-03
1.524121646075002334e-02
1.639949663087901521e-02
7.008703443054917215e-03
-1.451499679655132713e-02
-4.847566714898698947e-02
-9.345567156646979179e-02
-1.460710574388072447e-01
-2.009973712422872261e-01
-2.513002182278514796e-01
-2.890646091664512696e-01
-3.062894614663340676e-01
-2.959962985290528481e-01
-2.534737306993018469e-01
-1.775228908513313830e-01
-7.148982699275084618e-02
5.619607500878708028e-02
1.922665469680672201e-01
3.198433872451176829e-01
4.206618624255748506e-01
4.780326144179927739e-01
4.800186958125839953e-01
4.221339087411759006e-01
3.088785864089382827e-01
1.536429211763714608e-01
-2.312712989869881997e-02
-1.971975025632889400e-01
-3.446078278146488816e-01
-4.457133659016944138e-01
-4.884154571745461526e-01
-4.699880482510304658e-01
-3.972189405030205345e-01
-2.849237075025980448e-01
-1.531835035705164660e-01
-2.385678380128862519e-02
8.300137050355886614e-02
1.522082204956191065e-01
1.755323836995370534e-01
1.525010046925721618e-01
8.988796809748932082e-02
6.933003336402621120e-05
-1.013822475973635562e-01
-1.983942588445658517e-01
-2.769165835411685483e-01
-3.268917313808896719e-01
-3.434320173652856689e-01
-3.271127962009324763e-01
-2.834303967868633256e-01
-2.215848294258537798e-01
-1.528192920857170678e-01
-8.857891153016494989e-02
-3.874869547321098395e-02
-1.020803397150432668e-02
-5.900890305703995753e-03
-2.455888800965470853e-02
-6.111962736065901236e-02
-1.077631670726277996e-01
-1.553757142891608600e-01
-1.951747083571641062e-01
-2.202090657372219873e-01
-2.264771377550849896e-01
-2.134718236929156743e-01
-1.840605699016634733e-01
-1.437296438556566192e-01
-9.934782308055126188e-02
-5.770538140692067774e-02
-2.413350397647590767e-02
-1.493994684502494841e-03
1.024888005992868889e-02
1.379011802105696571e-02
1.364747083653630733e-02
1.493604148431224021e-02
2.205406253771109715e-02
3.759460944487467982e-02
6.173470889776518089e-02
9.223193679536380307e-02
1.250126523448389371e-01
1.552012332501306324e-01
1.783415795492080402e-01
1.915135696288504663e-01
1.940593762641923403e-01
1.877204031063239853e-01
1.761395163049112034e-01
1.638630964491062381e-01
1.551190304546624654e-01
1.527006006506569369e-01
1.572408710017103028e-01
1.670411254325485650e-01
1.784630949415567658e-01
1.867545417196644908e-01
1.870869750407919141e-01
1.755584993118146642e-01
1.499490085136031547e-01
1.100903757620208118e-01
5.780799884036087743e-02
-3.518300693669915158e-03
-6.965248290530007269e-02
-1.362942915233424923e-01
-1.997925257496246942e-01
-2.576377382052112419e-01
-3.086552782631156733e-01
-3.528993547875181602e-01
-3.913238921040345097e-01
-4.253551292823323227e-01
-4.564992971886601136e-01
-4.860831285551330816e-01
-5.151587163520883195e-01
-5.445342305604196076e-01
-5.748456234131423814e-01
-6.065766149541931274e-01
-6.399643986818608354e-01
-6.747851046829792532e-01
-7.100769892032593456e-01
-7.439054944319406504e-01
-7.732801252547325532e-01
-7.942938475380313390e-01
-8.024907687478554097e-01
-7.934069691576564054e-01
-7.631931076417730608e-01
-7.092196861266788499e-01
-6.305777509256481617e-01
-5.284053171755104250e-01
-4.059829616723184542e-01
-2.685522646478987752e-01
-1.228290763895003995e-01
2.377920653259733841e-02
1.641844221433269579e-01
2.927170757269258461e-01
4.061119961562236758e-01
5.041517458366689963e-01
5.897722315254577685e-01
6.685301607703005855e-01
7.474727039207951229e-01
8.336015364418030149e-01
9.322392866731856742e-01
1.045644187095717381e+00
1.172164703200703872e+00
1.306101615011311612e+00
1.438292133605574952e+00
1.557290882207149840e+00
1.650926003156020672e+00
1.707968238558316365e+00
1.719660525080380031e+00
1.680896796667899817e+00
1.590894302277977568e+00
1.453268266715995072e+00
1.275494130874633258e+00
1.067831623984510259e+00
8.418757025107382885e-01
6.089691828000916018e-01
3.787372374706831080e-01
1.579752881494072558e-01
-4.995159555017621156e-02
-2.451373984240584059e-01
-4.306317090414867321e-01
-6.115277707188341294e-01
-7.938186606610542206e-01
-9.832122023224558749e-01
-1.184074028835744530e+00
-1.398626844125751445e+00
-1.626487659465875479e+00
-1.864579035068442581e+00
-2.107402985529690298e+00
-2.347618047077688175e+00
-2.576819489758690018e+00
-2.786399487144949561e+00
-2.968361187598958839e+00
-3.115974703892606446e+00
-3.224191087362270114e+00
-3.289772149072940799e+00
-3.311146195046438034e+00
-3.288050791825231300e+00
-3.221058059505849780e+00
-3.111086299848863312e+00
-2.958986264544203770e+00
-2.765261254082109765e+00
-2.529947098525492599e+00
-2.252645359702622141e+00
-1.932673821945906978e+00
-1.569279180348761571e+00
-1.161855578421560287e+00
-7.101304038522631146e-01
-2.143075167976574713e-01
3.248125501166543305e-01
9.056910081361793097e-01
1.525824077947404822e+00
2.181359710396427065e+00
2.866506062653207731e+00
3.572741114481412072e+00
4.287930781561685833e+00
4.995570341003638504e+00
5.674442949959875193e+00
6.299006162989312152e+00
6.840750657797111778e+00
7.270615867785931385e+00
7.562304898745023429e+00
7.696054904062139990e+00
7.662157128907898240e+00
7.463361233047321797e+00
7.115302315117121523e+00
6.644288368346173534e+00
6.082189285072120200e+00
5.458759022137156691e+00
4.792433852713136488e+00
4.081343628333241824e+00
3.296754525823185400e+00
2.381238994027682576e+00
1.253423878040852868e+00
-1.798055381710487732e-01
-2.004167356532964295e+00
-4.274059991911250300e+00
-6.987572620609944885e+00
