BVP Signal
-8.656301901688437384e-03
-6.360554284639091671e-02
-1.166733962129139490e-01
-1.664911606445348968e-01
-2.116901347845312475e-01
-2.509016172761802110e-01
-2.828578474255171171e-01
-3.067185363627158434e-01
-3.217684069374440736e-01
-3.276056240035140066e-01
-3.241660130870204770e-01
-3.115075659084931559e-01
-2.901610605244761554e-01
-2.607985150097265614e-01
-2.243473418828951238e-01
-1.820240860207972267e-01
-1.351067465189759176e-01
-8.509122019147491445e-02
-3.353838240827752837e-02
1.797888119123847162e-02
6.787340631625700393e-02
1.145928999595037245e-01
1.567646319445088199e-01
1.930783010469001026e-01
2.224418838424067069e-01
2.440363331833699800e-01
2.571412701369441001e-01
2.614702950103857115e-01
2.568880139760184589e-01
2.435404224505546000e-01
2.219433696206801754e-01
1.927054368744670620e-01
1.568167424875595295e-01
1.154045376489869351e-01
6.974596691398976533e-02
2.132519834054192112e-02
-2.834807577066714851e-02
-7.770215308274604216e-02
-1.251439253352344128e-01
-1.691600877057685692e-01
-2.083534148601607350e-01
-2.413839653698573728e-01
-2.672176157490253057e-01
-2.849441525380755902e-01
-2.938980519997999585e-01
-2.937875788907227115e-01
-2.844199769580125770e-01
-2.660569877068327260e-01
-2.391515614528077205e-01
-2.043850128722864423e-01
-1.628051695902084650e-01
-1.155311927051411169e-01
-6.395565217881234166e-02
-9.591002132110296174e-03
4.599724529348106494e-02
1.011545575863143642e-01
1.542306629392067308e-01
2.036732904971730873e-01
2.479768410897043585e-01
2.857811576076763060e-01
3.159849823029775573e-01
3.375619743336572554e-01
3.498758177229361332e-01
3.524814360390762791e-01
3.451649162644644941e-01
3.281440887328240796e-01
3.017319361332673755e-01
2.666514923347684807e-01
2.238365352210185955e-01
1.743807439148750138e-01
1.196908113943717655e-01
6.122727951227567578e-02
6.076109623119468894e-04
-6.046633767195681852e-02
-1.203037941375090236e-01
-1.772387990145869729e-01
-2.296290175808928247e-01
-2.760333888306483741e-01
-3.151257816117738475e-01
-3.457469023601429381e-01
-3.671013986181669297e-01
-3.784826284728026180e-01
-3.796061595421908463e-01
-3.704403006176501534e-01
-3.511555509234619565e-01
-3.223835160803245614e-01
-2.848519943483885375e-01
-2.396362581812158665e-01
-1.880300923780312272e-01
-1.314261370107728810e-01
-7.145071236256936298e-02
-9.768311015485937193e-03
5.191955283702089086e-02
1.118870333088856917e-01
1.684683092361866086e-01
2.201537920337876264e-01
2.654804985027952036e-01
3.032652335788740272e-01
3.325195023855535559e-01
3.524174181060628075e-01
3.625662124326224367e-01
3.626745680895095969e-01
3.528423699619088194e-01
3.334555745676761607e-01
3.050508540282766412e-01
2.685807851571686555e-01
2.250887049469826873e-01
1.758599977165644646e-01
1.223660786506702014e-01
6.612350236359157418e-02
8.771941035289654992e-03
-4.802905853079074416e-02
-1.026764927317365128e-01
-1.536130601466919321e-01
-1.993611245635896478e-01
-2.386957784477404809e-01
-2.704604452951386295e-01
-2.938030589960068939e-01
-3.081301379635226212e-01
-3.129904921089463055e-01
-3.083904734422123206e-01
-2.944517289883947231e-01
-2.716319394835177148e-01
-2.406886722113152355e-01
-2.024857326146600189e-01
-1.582326008903855719e-01
-1.092235875827611002e-01
-5.689313645960181187e-02
-2.807115995690306898e-03
5.146324957981193715e-02
1.043456671600717089e-01
1.542735031985629779e-01
1.998126726230932126e-01
2.396597254720335135e-01
2.725987048730835749e-01
2.977453898641498897e-01
3.143116042148105249e-01
3.218064978724810010e-01
3.200471590430724600e-01
3.089671547940436303e-01
2.889381265304193924e-01
2.604588130768434318e-01
2.242912148009744144e-01
1.814838624092907082e-01
1.331575923064948763e-01
8.069578391397838613e-02
2.555845449067106756e-02
-3.072866339999968943e-02
-8.656467531069818311e-02
-1.403626297596736461e-01
-1.906223406737176662e-01
-2.358748444063778760e-01
-2.748219167149357212e-01
-3.063705907736278822e-01
-3.295169678349214037e-01
-3.436485086133221345e-01
-3.482848033555919764e-01
-3.432356810871083352e-01
-3.286776800139653010e-01
-3.048912237493680566e-01
-2.725902051041316776e-01
-2.326390748242433970e-01
-1.861108160146215107e-01
-1.343553104155239264e-01
-7.877212665791498425e-02
-2.093545021209543278e-02
3.751878342801300698e-02
9.496327719531716394e-02
1.497829035662282537e-01
2.003961398348667600e-01
2.454196597468795149e-01
2.835483420713434954e-01
3.136819050915542473e-01
3.350208156636904078e-01
3.468565009360540241e-01
3.489107993544302011e-01
3.410801935489612968e-01
3.235168821709611953e-01
2.967676143867053473e-01
2.614681877681650501e-01
2.186315295127980729e-01
1.694301835524600619e-01
1.151777088438447061e-01
5.741612517372446378e-02
-2.280721824605577708e-03
-6.226018130192291500e-02
-1.208355900896664198e-01
-1.763781497416649358e-01
-2.273583659917232935e-01
-2.722918081228752341e-01
-3.099663811091165622e-01
-3.392988446985153450e-01
-3.594160128643121288e-01
-3.698219879648244057e-01
-3.701140245007566998e-01
-3.603293547730203605e-01
-3.407227788335036589e-01
-3.117639143429513648e-01
-2.743273183072138521e-01
-2.293678839711126016e-01
-1.781471388185093263e-01
-1.220855666040506771e-01
-6.268236928755643866e-02
-1.591533499516628591e-03
5.951698795535315112e-02
1.189961406186539061e-01
1.752118895118972008e-01
2.266233239455971715e-01
2.718855822679139833e-01
3.097105150586522693e-01
3.391268662463474692e-01
3.593458373513974680e-01
3.697674440689805442e-01
3.702066552601566141e-01
3.605715863749080485e-01
3.411660006237893228e-01
3.125328714660128293e-01
2.753762726288058738e-01
2.307703541337172704e-01
1.798622729124551567e-01
1.240268418282650248e-01
6.478346898685960475e-02
3.691024598289655012e-03
-5.759965016269300020e-02
-1.174299408430812264e-01
-1.742169002253912136e-01
-2.264283019735083835e-01
-2.726296237108467579e-01
-3.116392765295902811e-01
-3.423414012340719181e-01
-3.639461807115004777e-01
-3.758930049497520853e-01
-3.777863618526704492e-01
-3.696734312632948272e-01
-3.517026030591736130e-01
-3.243804474580335717e-01
-2.884781653218503328e-01
-2.448888804616957682e-01
-1.948434025092323774e-01
-1.396439907891131593e-01
-8.074743185638848242e-02
-1.973049997412630943e-02
4.182310227186891716e-02
1.023180057278725574e-01
1.601645046414652829e-01
2.139023030507317680e-01
2.621767571240363193e-01
3.037294167344085083e-01
3.376056390297502707e-01
3.629297620481222730e-01
3.791293339622333058e-01
3.858920431307167886e-01
3.830334941576732932e-01
3.707818128974076921e-01
3.494686543227222275e-01
3.197056161859329615e-01
2.823567058139215269e-01
2.383693149046339221e-01
1.889625155057961248e-01
1.354221589096175626e-01
7.913319545445429704e-02
2.157447530729117435e-02
-3.577718060468071393e-02
-9.146710561823279129e-02
-1.440514964548998966e-01
-1.922122409676911281e-01
-2.347563817639544970e-01
-2.705695923186900997e-01
-2.988374681715957326e-01
-3.188330138191136642e-01
-3.300950788376927902e-01
-3.324406874059778194e-01
-3.257912482810667587e-01
-3.104639710572155709e-01
-2.868920001076709081e-01
-2.557468797124011761e-01
-2.179623042406268474e-01
-1.745379642764591788e-01
-1.267148343471831418e-01
-7.580518293893481752e-02
-2.318459097386896262e-02
2.969819945182392007e-02
8.140395212933143609e-02
1.305594554998869838e-01
1.758156681942397159e-01
2.159623266212895021e-01
2.499577297534765763e-01
2.768327028442104099e-01
2.959392959723150529e-01
3.067390735679579317e-01
3.089326210162496866e-01
3.025256506373651955e-01
2.876113584305559079e-01
2.646519746871065504e-01
2.342395155500809345e-01
1.971551543733265355e-01
1.544338473629628394e-01
1.071616373872302241e-01
5.661708059676121008e-02
4.148442802544366481e-03
-4.886580391726361161e-02
-1.010046757776256188e-01
-1.508605989649348111e-01
-1.971279688160956223e-01
-2.385424573949657123e-01
-2.739804460697080613e-01
-3.025271043253803804e-01
-3.233361025894421203e-01
-3.358968756263295274e-01
-3.398367931780514328e-01
-3.350003328946051795e-01
-3.215704978087294830e-01
-2.998107683459599326e-01
-2.703375343656635454e-01
-2.339184156439838291e-01
-1.914720830146620090e-01
-1.441645879439968081e-01
-9.320392594437736100e-02
-3.993711556489906722e-02
1.422692920030799169e-02
6.788495815097053687e-02
1.196440122660059058e-01
1.681318738477381447e-01
2.121303032982675418e-01
2.504949000110744950e-01
2.822232683427092770e-01
3.065709183276584815e-01
3.228605334635827329e-01
3.307455025634928880e-01
3.300446072050352564e-01
3.207545187107231355e-01
3.032109728454118747e-01
2.778218604516435875e-01
2.452940407927078348e-01
2.064912352864764766e-01
1.623858461119286056e-01
1.141672631297514090e-01
6.306119394422413094e-02
1.038918092682470165e-02
-4.247462712487173192e-02
-9.417270197842217416e-02
-1.433841029588227012e-01
-1.888084566542843901e-01
-2.293053605536534978e-01
-2.638276112847327548e-01
-2.914527387856192808e-01
-3.115360810298061223e-01
-3.235001558164886659e-01
-3.270828687364406018e-01
-3.222148855361492981e-01
-3.089775062345842538e-01
-2.878027499516487842e-01
-2.591968052822097857e-01
-2.239348774597222924e-01
-1.829649272296670626e-01
-1.373166490681607121e-01
-8.821723164038997034e-02
-3.692869588094516153e-02
1.523210814852457573e-02
6.691139145998162285e-02
1.167852555519658386e-01
1.636106413986340158e-01
2.061710843083199851e-01
2.434279406636472576e-01
2.744688981697158692e-01
2.984916082436824269e-01
3.149932952541181774e-01
3.235429986677721415e-01
3.239944544048695696e-01
3.164139392633885106e-01
3.009848242098520088e-01
2.782210551561857814e-01
2.487113995759476781e-01
2.132622129986813386e-01
1.728505819688592182e-01
1.285105350767269117e-01
8.143951523235933021e-02
3.286828402295625950e-02
-1.594697088326331100e-02
-6.372910022074981806e-02
-1.092323315164731579e-01
-1.513165449733012702e-01
-1.888731315740241334e-01
-2.209689125262059295e-01
-2.468227771469612142e-01
-2.657477537054828143e-01
-2.773681398378471386e-01
-2.813893547624830016e-01
-2.777748031922454008e-01
-2.667229041084555607e-01
-2.485258316511081422e-01
-2.237906788488709386e-01
-1.932053652272461286e-01
-1.576293374754785259e-01
-1.180862475661962341e-01
-7.563541971264525765e-02
-3.145001128270027979e-02
1.326962874043538521e-02
5.733843697556353924e-02
9.958672743563173890e-02
1.388810512955598875e-01
1.742353326867699947e-01
2.047083413458627710e-01
2.295288904772286032e-01
2.481055593179695706e-01
2.599228981369418046e-01
2.647609686135991014e-01
2.624881560687969406e-01
2.531773217155090516e-01
2.371284952672532698e-01
2.147094051100481571e-01
1.865472453951973475e-01
1.533484432235401873e-01
1.159412228379032572e-01
7.529601199807449408e-02
3.240805613193399604e-02
-1.164489019298856065e-02
-5.576026307451399655e-02
-9.885354234996883427e-02
-1.398623604768403361e-01
-1.777511352828341773e-01
-2.116168319202853532e-01
-2.406030545398736842e-01
-2.639908648592338425e-01
-2.812386296553434084e-01
-2.918651490207264665e-01
-2.956582661888542130e-01
-2.925022384710362910e-01
-2.824543109324580969e-01
-2.658062528584400619e-01
-2.429087246849958026e-01
-2.143593814809969800e-01
-1.808476861087142673e-01
-1.431684498740019573e-01
-1.022665665289997916e-01
-5.911061380769921936e-02
-1.474483861064153356e-02
2.975784922340919333e-02
7.334349278677801398e-02
1.149866578100833536e-01
1.536841420889268894e-01
1.885638143761180219e-01
2.188084669507348035e-01
2.437188100162420712e-01
2.627814311516442625e-01
2.755346504810406438e-01
2.817641811218140058e-01
2.813633563518282976e-01
2.743666057436102701e-01
2.610420568296467625e-01
2.417095955410570873e-01
2.169100962110751540e-01
1.872850402430344952e-01
1.535624749093841279e-01
1.166209633184202010e-01
7.736353274236773547e-02
3.676669815062411084e-02
-4.158214149817651695e-03
-4.441097761014239920e-02
-8.301219295758122119e-02
-1.189980192814740489e-01
-1.515167395331120104e-01
-1.797735942303375078e-01
-2.030696974758100237e-01
-2.208912994112599837e-01
-2.327714804181097163e-01
-2.384729145414105633e-01
-2.378802647009219950e-01
-2.309985673971797770e-01
-2.180766558256678755e-01
-1.994149383110403462e-01
-1.755223415820719168e-01
-1.470240968992796993e-01
-1.146183118230943432e-01
-7.915744234753119279e-02
-4.152030210542251298e-02
-2.650033091407877350e-03
3.647262366430109592e-02
7.487803417302768549e-02
1.116228857536198937e-01
1.457771486625070168e-01
1.765161802828235926e-01
2.030805142534904684e-01
2.247889412683121146e-01
2.411456225469962855e-01
2.516993838116409199e-01
2.562032534010772467e-01
2.545428525318972346e-01
2.467007094382194787e-01
2.328989969082004841e-01
2.134122811212952053e-01
1.887039664009653450e-01
1.593663220294539717e-01
1.260547709237831437e-01
8.958693451347116143e-02
5.081242554939248424e-02
1.065062743294781233e-02
-2.992904925729825832e-02
-6.996068061996660314e-02
-1.084912737588669962e-01
-1.445763522182522132e-01
-1.773620981504454575e-01
-2.060630981623170488e-01
-2.299600037177012002e-01
-2.485257043533680987e-01
-2.612815400814763600e-01
-2.679480061008513991e-01
-2.684034998158996155e-01
-2.626134947448310886e-01
-2.508047074247764519e-01
-2.332660943506889017e-01
-2.104693542779685900e-01
-1.830384625571759294e-01
-1.516510611219892835e-01
-1.171485121085586167e-01
-8.040923359350829469e-02
-4.236503876050449341e-02
-3.994501093324928642e-03
3.373168758982203475e-02
6.987628094052494854e-02
1.035142566184570900e-01
1.338168605996305494e-01
1.600439410233883974e-01
1.815127090135258692e-01
1.977426388378838717e-01
2.083087719084311673e-01
2.129654890747643414e-01
2.116406267858628176e-01
2.043328416828762151e-01
1.912931900539497632e-01
1.728419015665240144e-01
1.494576977318583244e-01
1.217803886100367744e-01
9.049491410729146312e-02
5.644522563481647881e-02
2.051884729951128361e-02
-1.634738319748907376e-02
-5.316395701692205877e-02
-8.894561134831183158e-02
-1.227373501629375196e-01
-1.535956690777505185e-01
-1.806655437424852240e-01
-2.031912656883983481e-01
-2.204679122266768321e-01
-2.320045474786770479e-01
-2.373786389356747906e-01
-2.363437878741932452e-01
-2.288613718844949019e-01
-2.149600776039072014e-01
-1.949442142004471357e-01
-1.692081160426530673e-01
-1.383006488985212279e-01
-1.029622625437558309e-01
-6.397620813724330668e-02
-2.228861611108066965e-02
2.109989908357909338e-02
6.515072506278454800e-02
1.087757597051379199e-01
1.508926337153232433e-01
1.904696157310822868e-01
2.264946847282878761e-01
2.580491419865981739e-01
2.843421671956161689e-01
3.046307500586254435e-01
3.184004285724409966e-01
3.252238952070404809e-01
3.248361934434748632e-01
3.172061772098948573e-01
3.023645074636959196e-01
2.806161233878628480e-01
2.523747799617211962e-01
2.181944752259464826e-01
1.788414661485504542e-01
1.351254275505397173e-01
8.802756072721383551e-02
3.859995918261280301e-02
-1.206095910009032102e-02
-6.278841295709844395e-02
-1.124137106554128351e-01
-1.597992062026292182e-01
-2.038216897723427179e-01
-2.434350470913573816e-01
-2.777224922538366059e-01
-3.058099558706569021e-01
-3.270519468419348930e-01
-3.409088763390677457e-01
-3.469952730310693623e-01
-3.451970893943075991e-01
-3.354648520260377076e-01
-3.180442325691462679e-01
-2.933240151341220403e-01
-2.618302967810401949e-01
-2.243430475016863213e-01
-1.816913439584119661e-01
-1.348870128269945845e-01
-8.503474664503540836e-02
-3.328071329222415109e-02
1.914901307867425406e-02
7.102267778133478093e-02
1.211413062010688879e-01
1.683238562957826701e-01
2.114574949268026582e-01
2.495699895629570064e-01
2.817288909470468949e-01
3.072188360797424855e-01
3.254471065675118568e-01
3.359509957842423122e-01
3.385480801354945335e-01
3.331195380268345274e-01
3.198231885487454185e-01
2.989809734901800464e-01
2.710351944954191850e-01
2.366998269666454324e-01
1.967440280773866956e-01
1.521271713675955428e-01
1.039271947755067149e-01
5.327037672870105212e-02
1.395874636537924873e-03
-5.044074386394456488e-02
-1.009882536012778609e-01
-1.489983890138506240e-01
-1.932730786971258996e-01
-2.327426186948293174e-01
-2.663737690821254556e-01
-2.933397297027019457e-01
-3.129561275060418479e-01
-3.246580630497444275e-01
-3.281960651897047332e-01
-3.233947301093375026e-01
-3.103698486389708244e-01
-2.894483288318023817e-01
-2.610731069038266239e-01
-2.260051345095789033e-01
-1.850750924712466772e-01
-1.393096275904843195e-01
-8.988471241295643843e-02
-3.801878998399656207e-02
1.495275523298662812e-02
6.767376084302875738e-02
1.188073494630942639e-01
1.670321070399624352e-01
2.110776069852579040e-01
2.498349002784155948e-01
2.822397067895316969e-01
3.074425292117516362e-01
3.247747044467548250e-01
3.336754862590969317e-01
3.339297519574124795e-01
3.254103288612215095e-01
3.082697804958929866e-01
2.829081869693756413e-01
2.498268444028223789e-01
2.098584878535001974e-01
1.639189276662874062e-01
1.131064402652935952e-01
5.868897077087842362e-02
1.971708555269957586e-03
-5.562357010240462363e-02
-1.126486566812300028e-01
-1.676807721002860907e-01
-2.193219861830842665e-01
-2.662218378610826663e-01
-3.072159641651932005e-01
-3.411957622231716059e-01
-3.672733282258269782e-01
-3.847873876249105485e-01
-3.931782658930977337e-01
-3.922735668050898461e-01
-3.820140216508591813e-01
-3.626164832460792020e-01
-3.345957705068147714e-01
-2.985577486850042872e-01
-2.554508292687786564e-01
-2.063248454456502734e-01
-1.523832472209395439e-01
-9.500369153295246116e-02
-3.558914894455617040e-02
2.438171733199223645e-02
8.340949467880148793e-02
1.400508398686199918e-01
1.929292443749361929e-01
2.407173256644267734e-01
2.823155520477260705e-01
3.167019296947450879e-01
3.430672317715420805e-01
3.608687662539538099e-01
3.696521211013030772e-01
3.693442005424983909e-01
3.600044640563654363e-01
3.419257633684266717e-01
3.157082392342468458e-01
2.820270135403234457e-01
2.418628551751936806e-01
1.963065121364807042e-01
1.465656155789675508e-01
9.400950146796832607e-02
4.002702719357922878e-02
-1.394708701315203192e-02
-6.646234685709478951e-02
-1.161321322777846277e-01
-1.616628917629070461e-01
-2.018067149649959702e-01
-2.355594463670345751e-01
-2.620159159906247925e-01
-2.804693841269862986e-01
-2.905167656314821545e-01
-2.918372280428354060e-01
-2.844919748815792349e-01
-2.687033815359234912e-01
-2.448970262932761432e-01
-2.138252292004151345e-01
-1.763078546235380406e-01
-1.334368785447484496e-01
-8.642413101574120127e-02
-3.655932124602317979e-02
1.473655774139120966e-02
6.603150864119172736e-02
1.159067098743188362e-01
1.629503605673706113e-01
2.058372040157923077e-01
2.433965095642314225e-01
2.745079364859732141e-01
2.983302011120188002e-01
3.141592575836247847e-01
3.214750774917410348e-01
3.201021115892232483e-01
3.099448940169751698e-01
2.912710983894658545e-01
2.645355239998307684e-01
2.303559906766134147e-01
1.896704371947917356e-01
1.434782066915181731e-01
9.299706815980618435e-02
3.956283553420741894e-02
-1.544630180824985155e-02
-7.056602384432120179e-02
-1.243279650360949451e-01
-1.753301242109543967e-01
-2.222086803658784859e-01
-2.636989623713046349e-01
-2.987537357631843138e-01
-3.263840421531685188e-01
-3.459085261281665824e-01
-3.568303734967661622e-01
-3.588221460775850025e-01
-3.519442067002760410e-01
-3.363421463389331123e-01
-3.125018255091573383e-01
-2.811235369546849494e-01
-2.430308085582672528e-01
-1.993411840159307058e-01
-1.512281301117832377e-01
-1.000057645784775406e-01
-4.708130375106525656e-02
6.137312935386184977e-03
5.824457460601394077e-02
1.078459758720517747e-01
1.536842072936461245e-01
1.945976344078056142e-01
2.295300058165641310e-01
2.577079614069320290e-01
2.784274824152906946e-01
2.912821311798278745e-01
2.960834709009118049e-01
2.927739050344911886e-01
2.816595289252513679e-01
2.631289137106379017e-01
2.378274105606286160e-01
2.065980803458195014e-01
1.703587746682037052e-01
1.302403224545129468e-01
8.741804038551204137e-02
4.313110561223221229e-02
-1.329632297050048484e-03
-4.469183960912223585e-02
-8.574781055505803495e-02
-1.233116992415763252e-01
-1.563519307832308969e-01
-1.839681614763855888e-01
-2.053515755701111889e-01
-2.199920031094211303e-01
-2.274570731465304085e-01
-2.275801938915889000e-01
-2.204323700497994865e-01
-2.061869858748344719e-01
-1.853576240122027929e-01
-1.585445237725570666e-01
-1.265484530194148916e-01
-9.035856867524649783e-02
-5.101104367330089318e-02
-9.694188050116694932e-03
3.236702060929291802e-02
7.394211066285777401e-02
1.137951864485518272e-01
1.507237363785933759e-01
1.836615712139467727e-01
2.115843558660741863e-01
2.336473407333843622e-01
2.491920899064677397e-01
2.576452390491325017e-01
2.587615631056604526e-01
2.523927234583095980e-01
2.386290593814467953e-01
2.178211292730660720e-01
1.904003968905256250e-01
1.571063397678593987e-01
1.187708416811315559e-01
7.637237882178918302e-02
3.105738577254130162e-02
-1.599951621509515531e-02
-6.353239486510103839e-02
-1.102489223774863608e-01
-1.548913760312063681e-01
-1.962437134327754684e-01
-2.331297797632078395e-01
-2.645641926957121859e-01
-2.896274337678305666e-01
-3.075911402271536699e-01
-3.179688961782603518e-01
-3.203559907867591927e-01
-3.147051868170800404e-01
-3.010948024102710896e-01
-2.798235645686825146e-01
-2.514834059067656558e-01
-2.167364442909702482e-01
-1.765304148311513111e-01
-1.319167483323425982e-01
-8.404822179148262185e-02
-3.421926081649828699e-02
1.626195238489862999e-02
6.606783223410125916e-02
1.138649509526301756e-01
1.583954840455164548e-01
1.985128928156719430e-01
2.331181390427588818e-01
2.613608351162813870e-01
2.824923352387743170e-01
2.959521659516366476e-01
3.014707971010964216e-01
2.988543836420674560e-01
2.882558967105114389e-01
2.699760295608826799e-01
2.444916743099146972e-01
2.125659635733940789e-01
1.750195929495219904e-01
1.329003022246523502e-01
8.735683396469626216e-02
3.959669756572137267e-02
-9.072588672871084725e-03
-5.733763964649767758e-02
-1.039157112880596118e-01
-1.475392479797364709e-01
-1.870270853247678611e-01
-2.213538843463840333e-01
-2.495428797145092803e-01
-2.708821538337957691e-01
-2.847913396114831741e-01
-2.908593064679249607e-01
-2.889950229193831155e-01
-2.791805775117843225e-01
-2.617244841786082743e-01
-2.371051842569637247e-01
-2.059408642915668552e-01
-1.691268529299075341e-01
-1.276101141737657763e-01
-8.251102121191689065e-02
-3.504460677392177287e-02
1.354987537895051622e-02
6.198402858619290329e-02
1.089714324699533471e-01
1.533075370834727225e-01
1.938352204395127065e-01
2.294898774018376830e-01
2.594116972759225592e-01
2.827935169026505324e-01
2.990943738166328414e-01
3.079346476998721105e-01
3.090746677242672269e-01
3.025983275348473889e-01
2.886602531056640664e-01
2.676921396840292733e-01
2.403021143958671835e-01
2.071985338566371404e-01
1.693312975407644527e-01
1.276969391684105726e-01
8.341215490405325117e-02
3.767402404695786855e-02
-8.315508719627606737e-03
-5.334561823866187935e-02
-9.621200183304276510e-02
-1.358147238708772297e-01
-1.711273905693412589e-01
-2.012097561051330308e-01
-2.253556338583986296e-01
-2.429172643739117843e-01
-2.535049355954799299e-01
-2.569199406751322412e-01
-2.530811226298079752e-01
-2.422378550650524376e-01
-2.247153614684058165e-01
-2.010785711779544960e-01
-1.720788927258730949e-01
-1.385389330462994950e-01
-1.014861960130143403e-01
-6.199154315488228373e-02
-2.118972146257483424e-02
1.973229161270220744e-02
5.960323741308029555e-02
9.730825898973965993e-02
1.317519246294086011e-01
1.619794478973532459e-01
1.871569188002008555e-01
2.065335842001868039e-01
2.196327544706963009e-01
2.260495173918811718e-01
2.256209888070778435e-01
2.184028829506843850e-01
2.045439165677570004e-01
1.845045734798345105e-01
1.588254824519103603e-01
1.282320601531337090e-01
9.362511622321387228e-02
5.594998503337508811e-02
1.629772505657373083e-02
-2.420483902118403252e-02
-6.442025776617921196e-02
-1.032004842244516052e-01
-1.394263144142915412e-01
-1.720987869860605701e-01
-2.002563770902505702e-01
-2.231029605939678362e-01
-2.400157815326504074e-01
-2.504515894371333595e-01
-2.541769693692551568e-01
-2.510507818810395197e-01
-2.411564976327915666e-01
-2.248249973599677487e-01
-2.024619072572588219e-01
-1.747581737828332593e-01
-1.424909184927613814e-01
-1.065643712844125124e-01
-6.802990047038692811e-02
-2.795983200910557437e-02
1.251142096958140701e-02
5.223199050401370475e-02
9.009805107618701348e-02
1.250642382463525437e-01
1.561260356571545493e-01
1.824715049411911871e-01
2.033553159201000882e-01
2.182072857335635163e-01
2.266812123153308378e-01
2.285022419010671602e-01
2.237057401036052218e-01
2.124368955309756668e-01
1.950224117571905946e-01
1.720329576233491919e-01
1.440952350824098449e-01
1.120612639364699792e-01
7.686558238540747157e-02
3.951503533506040000e-02
1.118559428824078550e-03
-3.720845231285074828e-02
-7.435841813380211773e-02
-1.092281977243083901e-01
-1.407940201427031468e-01
-1.681501435036031333e-01
-1.904370046207688461e-01
-2.070337211652772957e-01
-2.174179378611265645e-01
-2.212405870609366054e-01
-2.184233175040372898e-01
-2.089559675672636174e-01
-1.931373408052005081e-01
-1.713990695376054196e-01
-1.443190315668984869e-01
-1.127151098309503718e-01
-7.744980956337438327e-02
-3.954933050431964220e-02
-1.132238011135166394e-04
3.973773527428560437e-02
7.884657716735686550e-02
1.160645288273125797e-01
1.503351919062875242e-01
1.806467850995291946e-01
2.060966583361847348e-01
2.259808418964719956e-01
2.396501023387925811e-01
2.467350173649875411e-01
2.470064188220019163e-01
2.403940069773690957e-01
2.271309254263666755e-01
2.075158559022277360e-01
1.821235068325047779e-01
1.516736710864820536e-01
1.169871934979369588e-01
7.908703828556137849e-02
3.902958498079228677e-02
-2.043733904420294567e-03
-4.294474608142881400e-02
-8.250570226145248487e-02
-1.196035030250282016e-01
-1.531368444228594639e-01
-1.821665903073212411e-01
-2.058482217100616185e-01
-2.234584370105283657e-01
-2.345442836650897811e-01
-2.387171069768372900e-01
-2.358834042021045185e-01
-2.261303531645380560e-01
-2.096790987226328784e-01
-1.870629344485907619e-01
-1.588795151308478593e-01
-1.259463170207642257e-01
-8.922219554036296685e-02
-4.972126914136029002e-02
-8.590400407527537530e-03
3.300321123203422274e-02
7.389406342264318028e-02
1.129178941185962626e-01
1.489607208382018599e-01
1.810416523981304704e-01
2.082168271051204333e-01
2.297453701811431603e-01
2.450308462325710146e-01
2.535873935556564041e-01
2.552298864023476721e-01
2.498435965148217419e-01
2.375745266424952595e-01
2.187636567501526075e-01
1.938497640135091737e-01
1.635469592765651792e-01
1.286301146064436074e-01
9.003020021728840028e-02
4.880087422051260226e-02
6.023732816976851145e-03
-3.714259981457770921e-02
-7.952700685588784402e-02
-1.200004401142652499e-01
-1.574686161297150222e-01
-1.908918217353421376e-01
-2.194073998652312230e-01
-2.422009145527230789e-01
-2.586686021554219783e-01
-2.683896279775630500e-01
-2.710415298025136144e-01
-2.666248917199602886e-01
-2.552230802289258693e-01
-2.371576267053128184e-01
-2.129673926206283596e-01
-1.832676850089571263e-01
-1.489275155431117048e-01
-1.108796732739795454e-01
-7.016450700645016081e-02
-2.792551028469404673e-02
1.468574649096118789e-02
5.650230555280563727e-02
9.635700817395692619e-02
1.331659766683473134e-01
1.659292579461852657e-01
1.937052714883129301e-01
2.157794579222895304e-01
2.315043681243384444e-01
2.404419746462986840e-01
2.423760249707720971e-01
2.371745763452934030e-01
2.250294450056513629e-01
2.062285406748914918e-01
1.812607301561243167e-01
1.508385217673740009e-01
1.157328009914948275e-01
7.693173970834718545e-02
3.548889011630482204e-02
-7.473860802210449683e-03
-5.075470810385439291e-02
-9.315352134048171528e-02
-1.335007908174032087e-01
-1.706394668553217198e-01
-2.035172295951167554e-01
-2.312105076023933115e-01
-2.528549171704529419e-01
-2.678539079078594565e-01
-2.757035217348159373e-01
-2.761087991859683677e-01
-2.690448152150893280e-01
-2.545652361644479833e-01
-2.330596105709487609e-01
-2.050370797055331984e-01
-1.711807617352414657e-01
-1.324100184464249708e-01
-8.969129518678890800e-02
-4.416827797856803794e-02
2.950388005633103328e-03
5.043088275868290449e-02
9.700354734838942394e-02
1.414120408145697061e-01
1.825000427219621857e-01
2.191520162434299479e-01
2.503833979492220974e-01
2.754063378955019514e-01
2.934956944951910840e-01
3.042333686367099110e-01
3.073288306493564548e-01
3.026852063103900314e-01
2.905112493450209277e-01
2.710870445365508030e-01
2.450035560821552938e-01
2.129865577985008140e-01
1.758906673187793923e-01
1.347840474333655003e-01
9.076987469046661483e-02
4.506180138827960147e-02
-1.076812979802844019e-03
-4.639721406270647108e-02
-8.967665560253436363e-02
-1.297150786119203869e-01
-1.654714277107200149e-01
-1.959817167937228655e-01
-2.204207088567786410e-01
-2.382182337156184548e-01
-2.488691790544028115e-01
-2.521852904203200074e-01
-2.481386587013897360e-01
-2.368647815278487334e-01
-2.188143369393650839e-01
-1.945028433742220786e-01
-1.647030186177544375e-01
-1.303240959986486092e-01
-9.235432067055651673e-02
-5.194119521292847597e-02
-1.025483198083601555e-02
3.150480496802465780e-02
7.212138163665075818e-02
1.104248545442960416e-01
1.453454949389921536e-01
1.758460923351164995e-01
2.010886458304287638e-01
2.203524940797477183e-01
2.330447290978502894e-01
2.388599352833032929e-01
2.375588657044923613e-01
2.291909438673049859e-01
2.139841302655523525e-01
1.922905522950226209e-01
1.647543253289094622e-01
1.320792826890867522e-01
9.516590989737785944e-02
5.504248830542164683e-02
1.278321146472773465e-02
-3.042678317035475352e-02
-7.338636819459104510e-02
-1.149111863174066550e-01
-1.538284306499397847e-01
-1.890212275375149908e-01
-2.195219184800493717e-01
-2.444036953086426434e-01
-2.629577274430897615e-01
-2.746318980823149736e-01
-2.789915527889907376e-01
-2.759247402785925951e-01
-2.653951714004169071e-01
-2.476425419802999461e-01
-2.231150724797061335e-01
-1.923616925928507138e-01
-1.562172284645713949e-01
-1.155794114608932194e-01
-7.149774505081980813e-02
-2.514225619005724943e-02
2.229531331373552777e-02
6.956503276759715138e-02
1.154092105453775191e-01
1.586331860014043582e-01
1.980949193528818708e-01
2.327146524660320404e-01
2.616156616004277069e-01
2.839758130649078227e-01
2.991964715652409290e-01
3.068750724902868932e-01
3.067094062466855231e-01
2.987291164931186183e-01
2.830492921414156093e-01
2.600248191723614766e-01
2.302316622732992757e-01
1.943233438165652416e-01
1.532131442673587418e-01
1.078805844249562523e-01
5.942223205334274533e-02
9.048055603111358758e-03
-4.201801133525488730e-02
-9.251508341082465003e-02
-1.411758796797532578e-01
-1.867989358280105761e-01
-2.282497970345586658e-01
-2.644467420762698362e-01
-2.945169780914248525e-01
-3.176504338229954039e-01
-3.332417930885641644e-01
-3.409048107256463789e-01
-3.403392571363516583e-01
-3.315798455507364406e-01
-3.147620066264408267e-01
-2.902395128778756939e-01
-2.586116352791127948e-01
-2.205454699945626207e-01
-1.769660707072907013e-01
-1.288776046356445715e-01
-7.738651852999370306e-02
-2.372011393071256358e-02
3.088114651194034943e-02
8.514593115799426459e-02
1.377949958514816942e-01
1.876088269937662423e-01
2.334421075929651312e-01
2.741914865810572421e-01
3.089509610328994849e-01
3.368838118773022083e-01
3.573232292819680800e-01
3.698242156160507776e-01
3.740107305540008031e-01
3.698093369553540621e-01
3.572559910182990794e-01
3.365671028855409253e-01
3.082066853013233354e-01
2.726983254631448750e-01
2.308127791591769729e-01
1.834137407556307164e-01
1.314669414875305753e-01
7.608523034842591681e-02
1.840453500672308701e-02
-4.036607779161784093e-02
-9.898946043729053845e-02
-1.562471115872779981e-01
-2.109489434127644614e-01
-2.619269788782546682e-01
-3.081452007900144507e-01
-3.486235668156565382e-01
-3.825033608307868427e-01
-4.091194658927815309e-01
-4.278612207334130391e-01
-4.383814854225977498e-01
-4.404491923417678256e-01
-4.339867972285182951e-01
-4.191741585853286378e-01
-3.962489029508211580e-01
-3.656984361835968200e-01
-3.281253515137752541e-01
-2.842355807111331956e-01
-2.349169684044801754e-01
-1.810896194107147195e-01
-1.237830683678057958e-01
-6.407963158582981322e-02
-3.073494250982092280e-03
5.811965808229749286e-02
1.183886046035105138e-01
1.766803757439013856e-01
2.319720454199531434e-01
2.833030821934274801e-01
3.298350527912010666e-01
3.707617355441406581e-01
4.054408089126815828e-01
4.333181515886066482e-01
4.539335894658322879e-01
4.670197148395637821e-01
4.723529788260194540e-01
4.699037780355723726e-01
4.597521437422893431e-01
4.420701113338591504e-01
4.172278556212928868e-01
3.856378016208187876e-01
3.478796586716505490e-01
3.046325157926572103e-01
2.566390043592777781e-01
2.047850496328387782e-01
1.499839289668865594e-01
9.322954477177736177e-02
3.556610069400872876e-02
-2.195498472285412062e-02
-7.826662005966353308e-02
-1.323045998903016884e-01
-1.830668201827668207e-01
-2.295920653214425788e-01
-2.709812425106228884e-01
-3.064927659867596743e-01
-3.354256629471445983e-01
-3.572795417091171322e-01
-3.716926157486144522e-01
-3.784077146292562643e-01
-3.774436170085261333e-01
-3.688824690146381702e-01
-3.530409122370247177e-01
-3.304058831944609587e-01
-3.015497676886658707e-01
-2.672786087204248595e-01
-2.284483901181109111e-01
-1.860391404580908903e-01
-1.411255668589282974e-01
-9.479922034506860218e-02
-4.819539604319822423e-02
-2.454141710886426075e-03
4.134011539991433448e-02
8.214759076499900114e-02
1.189833405165103275e-01
1.510339066688420884e-01
1.775313633792132695e-01
1.979024979758236547e-01
2.117383147566722079e-01
2.187206614963786711e-01
2.188215680070415559e-01
2.120862582913947691e-01
1.987811179266958383e-01
1.793685562679820378e-01
1.543864293237158236e-01
1.246186254329689769e-01
9.091013272438408510e-02
5.422803867023562319e-02
1.565316102897218453e-02
-2.371536580234667735e-02
-6.272537683547652065e-02
-1.002145043072095731e-01
-1.350728251043145089e-01
-1.662417512357343696e-01
-1.927128617757690732e-01
-2.136705732292776272e-01
-2.283561186308856739e-01
-2.362145269630692157e-01
-2.369004574915287709e-01
-2.301574073546124310e-01
-2.160658273251835348e-01
-1.948042641580092771e-01
-1.667788213823087617e-01
-1.326415824405382249e-01
-9.311549701836382975e-02
-4.918735943841798935e-02
-1.921688338442320565e-03
4.751409352163626920e-02
9.783566703798357578e-02
1.477492155943464502e-01
1.959458130544942112e-01
2.411145785058396163e-01
2.820270107576374752e-01
3.175529685051953210e-01
3.466168223594238151e-01
3.683890499808654129e-01
3.821235036986606604e-01
3.872857757860480588e-01
3.836071601221421323e-01
3.709040045838765121e-01
3.493575218215158040e-01
3.192758173118115939e-01
2.811840827040491542e-01
2.358938186084501565e-01
1.842848645208394198e-01
1.275134919491885677e-01
6.683546081727902155e-02
3.605264324546969545e-03
-6.068578473230581971e-02
-1.245338107610369782e-01
-1.864199806452449260e-01
-2.448215624286555481e-01
-2.983011130554322765e-01
-3.455456357567895376e-01
-3.852970229425848325e-01
-4.165844572902328569e-01
-4.385538529074996528e-01
-4.505776281678294803e-01
-4.523754059583185438e-01
-4.437595296038248094e-01
-4.249706009509216509e-01
-3.964301294277862153e-01
-3.587821945676007429e-01
-3.130293576805312505e-01
-2.602466271445172952e-01
-2.017957063325863387e-01
-1.391646779277499191e-01
-7.391402383588191460e-02
-7.726373925704133061e-03
5.770999795230055684e-02
1.207544347570837506e-01
1.797895175192720241e-01
2.333133235541767214e-01
2.800303843234214773e-01
3.187087646180983835e-01
3.484589487357303006e-01
3.685600161729074564e-01
3.785067188752290757e-01
3.781981585262782497e-01
3.676255279888284710e-01
3.471898007433919520e-01
3.175034223301736458e-01
2.793553601087884752e-01
2.338816746914062494e-01
1.822835677139200694e-01
1.259855062190378128e-01
6.653278214329551299e-02
5.506088759007439493e-03
-5.544226048490443620e-02
-1.146604972107626297e-01
-1.705908657118472560e-01
-2.217296640381540840e-01
-2.666890207036008431e-01
-3.043353006279581052e-01
-3.336013475771059666e-01
-3.537622678487594152e-01
-3.642988395145864700e-01
-3.648756549122952886e-01
-3.555787416526689504e-01
-3.365864211888201507e-01
-3.084425898937228072e-01
-2.719219253746682496e-01
-2.279320860907070312e-01
-1.776985702961088043e-01
-1.225079143733699971e-01
-6.380492156199718545e-02
-3.139349487748993583e-03
5.793235789336156905e-02
1.178412924849900345e-01
1.750267265912119341e-01
2.280597328358754672e-01
2.756034631388596390e-01
3.164286935235279818e-01
3.495959465590267046e-01
3.742376624432790511e-01
3.898029387900983078e-01
3.959732538809493385e-01
3.925748925360904584e-01
3.798379502848646672e-01
3.580852881644416286e-01
3.279413074044117415e-01
2.902629869870130275e-01
2.460035912458564122e-01
1.963927572123866372e-01
1.427198028954893561e-01
8.638702915972903962e-02
2.888832285478545175e-02
-2.828506154861471639e-02
-8.365893590976547500e-02
-1.357703340895708988e-01
-1.832924994342602087e-01
-2.250147425110422816e-01
-2.598194487885840953e-01
-2.868951429729735825e-01
-3.055113753328316251e-01
-3.152326820426491483e-01
-3.158877577412871340e-01
-3.074267534189721318e-01
-2.902063482127344995e-01
-2.646881173812225541e-01
-2.315979922404233782e-01
-1.919106821299668142e-01
-1.466749983086473308e-01
-9.718704732028188298e-02
-4.480538527789129644e-02
9.040907069360504256e-03
6.285300416233652321e-02
1.151453025674928077e-01
1.644980030460084230e-01
2.095141760967330624e-01
2.489488371104702780e-01
2.817149089527654082e-01
3.068091449710909635e-01
3.235573226077896880e-01
3.313836139686094917e-01
3.299813980844958916e-01
3.193380604951655544e-01
2.995426172019988731e-01
2.710791376049077051e-01
2.345517373716184961e-01
1.907922882724605029e-01
1.408940631203034755e-01
8.601254001426072993e-02
2.753385404738983855e-02
-3.308476241492142034e-02
-9.433193038073173220e-02
-1.546309684852649191e-01
-2.124176532061538003e-01
-2.662113145360585631e-01
-3.145620984639226347e-01
-3.561748571919242656e-01
-3.899506046176068885e-01
-4.148706934703977889e-01
-4.302830185820588627e-01
-4.356654984365029293e-01
-4.307661003893899498e-01
-4.156926754286027759e-01
-3.906526978121207527e-01
-3.562818954690538664e-01
-3.133730566853406563e-01
-2.629314174597336962e-01
-2.062597589624796668e-01
-1.447175389950441926e-01
-7.987378085958718454e-02
-1.337672313836063553e-02
5.310539782476442205e-02
1.178750735091587676e-01
1.792553129299080394e-01
2.357167832528330176e-01
2.857917289437983399e-01
3.281877305602625139e-01
3.618840672535498237e-01
3.859430301280074582e-01
3.998356218687466046e-01
4.032078784266922566e-01
3.959581123446752615e-01
3.783953818760611432e-01
3.509232346956099313e-01
3.143576418591912947e-01
2.696991607975754990e-01
2.181185050194547892e-01
1.610772764378314847e-01
1.000854333552158582e-01
3.680540377308144651e-02
-2.702940749216103944e-02
-8.970149250234843441e-02
-1.495228187897884031e-01
-2.048337211009207404e-01
-2.541827019585369829e-01
-2.962222743653319945e-01
-3.297871047383914012e-01
-3.540574950327083914e-01
-3.683012440283350841e-01
-3.722136152839710110e-01
-3.657130542993919931e-01
-3.489375417051601702e-01
-3.224619424543612722e-01
-2.869515221039994901e-01
-2.434286972213642875e-01
-1.931115620197509930e-01
-1.373308079338735888e-01
-7.765117656616485342e-02
-1.567313603981387859e-02
4.694345989655146489e-02
1.085048544660509734e-01
1.673683244309634166e-01
2.220059196145886538e-01
2.709284353339713736e-01
3.128944857708253480e-01
3.468132591593168779e-01
3.717551950666156402e-01
3.871653669774914874e-01
3.925758631765748352e-01
3.878975293573453387e-01
3.732828919659986200e-01
3.490496835804063336e-01
3.159164200869402639e-01
2.746857558164864099e-01
2.264414480427570098e-01
1.724557542475165239e-01
1.140767880006081508e-01
5.284255567826720568e-02
-9.676248442985056764e-03
-7.188360193198206627e-02
-1.321656988882089767e-01
-1.889579322296711106e-01
-2.408330741679159392e-01
-2.864043585766105071e-01
-3.245234120659820087e-01
-3.542186466842478509e-01
-3.746557812097544571e-01
-3.853904955266987398e-01
-3.860725850007868942e-01
-3.767037393320512573e-01
-3.575598918144760052e-01
-3.290539084956977667e-01
-2.920002809936784738e-01
-2.473056523763197956e-01
-1.961175943352805318e-01
-1.397810203078487246e-01
-7.969398169995928205e-02
-1.740955957955411804e-02
4.548812939521015841e-02
1.074267090726455653e-01
1.668439151351966965e-01
2.222290131171526517e-01
2.722487339369596415e-01
3.156202200551649351e-01
3.512923572894641189e-01
3.784236999734593709e-01
3.962854052317719145e-01
4.045340003377445037e-01
4.029285518866734250e-01
3.915266353544851197e-01
3.706696436648682091e-01
3.408041312491058572e-01
3.027413838602841523e-01
2.573897215164759333e-01
2.058527304577180694e-01
1.494290962042620907e-01
8.945978359726274032e-02
2.742477323819355120e-02
-3.516062161852454016e-02
-9.679093818159335838e-02
-1.559710563373996883e-01
-2.112443777344356066e-01
-2.613198652457334736e-01
-3.049587646036291400e-01
-3.411225620764065658e-01
-3.689936893568541154e-01
-3.878471682758841133e-01
-3.973322830914309267e-01
-3.972147416783770035e-01
-3.875244526181799709e-01
-3.685976896626813604e-01
-3.408601044622916465e-01
-3.050899391906568003e-01
-2.621777430298822820e-01
-2.131791576511891384e-01
-1.593510154744066099e-01
-1.019851596246079128e-01
-4.249143038571520647e-02
1.768278098259133679e-02
7.710806597632606507e-02
1.343780798953942146e-01
1.881174061265948050e-01
2.371118311043238780e-01
2.802059207106563088e-01
3.164067582141334434e-01
3.449402797221503558e-01
3.651030658247849114e-01
3.765123798573378755e-01
3.789052149833696537e-01
3.722203049356449522e-01
3.566819232456522881e-01
3.325852838391122335e-01
3.005291627986331759e-01
2.612304217408606966e-01
2.155459250807301719e-01
1.645407766927706461e-01
1.093189699510397628e-01
5.112782618681316338e-02
-8.727449192295025360e-03
-6.892298075978350869e-02
-1.281058760887702486e-01
-1.849328104180753551e-01
-2.381444565218673315e-01
-2.865186078791338020e-01
-3.289403185582954192e-01
-3.644713342572533099e-01
-3.922271951547308122e-01
-4.115983855274721881e-01
-4.221004991528145567e-01
-4.234248789387305978e-01
-4.155669870924481035e-01
-3.985936533278692240e-01
-3.728931422667071116e-01
-3.390068508562331662e-01
-2.976228593780048115e-01
-2.496957633121665299e-01
-1.962310299447057038e-01
-1.384215161105726288e-01
-7.755359590680493964e-02
-1.495272304418192311e-02
4.798170020471073660e-02
1.098471604704737425e-01
1.692882461555810791e-01
2.249747880557204094e-01
2.756567660568672307e-01
3.202463519773277589e-01
3.577013171698286698e-01
3.872255719087913661e-01
4.081597082286150258e-01
4.199922848806919573e-01
4.225253212607044673e-01
4.156321652554958446e-01
3.994993317877657546e-01
3.744959398116896598e-01
3.411298910045027499e-01
3.002170965624275656e-01
2.526361941877522943e-01
1.994879534203111149e-01
1.420092192551023202e-01
8.149682610962778739e-02
1.938574468837987730e-02
-4.286832120059996115e-02
-1.038024367154915528e-01
-1.619491477867724127e-01
-2.158935309958627258e-01
-2.643528339211782541e-01
-3.060831558654865114e-01
-3.400695212047364913e-01
-3.654522106143480720e-01
-3.815098050702174781e-01
-3.878800378299606666e-01
-3.842853605356997826e-01
-3.707928285223041076e-01
-3.477150731222550251e-01
-3.155073083514903232e-01
-2.750096657819385282e-01
-2.271465742264732190e-01
-1.730917327341467971e-01
-1.142055416640974930e-01
-5.190754723611042121e-02
1.222082467677174100e-02
7.656858900427247761e-02
1.395290972141367547e-01
1.994991387345125267e-01
2.549307321875066701e-01
3.044486382557167747e-01
3.467261489518410622e-01
3.806839674602651713e-01
4.054475625410820516e-01
4.202708372920769264e-01
4.248129244691624673e-01
4.188353649724679828e-01
4.024360973395419427e-01
3.760056560357357136e-01
3.400588089917212509e-01
2.955118005040487383e-01
2.433804596235790152e-01
1.849092220935943665e-01
1.215514888379208014e-01
5.481059457276954427e-02
-1.365329298308122496e-02
-8.214427280954687827e-02
-1.489803623060636795e-01
-2.124929488473064065e-01
-2.710639364986655586e-01
-3.232716275929062855e-01
-3.677531610514194194e-01
-4.033936241717954174e-01
-4.293283964451597989e-01
-4.448104775187083360e-01
-4.495361827303061553e-01
-4.433298331829241823e-01
-4.263421668887136806e-01
-3.990701852670392458e-01
-3.621214140315960894e-01
-3.165166591849434830e-01
-2.633974591762633377e-01
-2.041019683254121364e-01
-1.401875253194400095e-01
-7.324808891409320677e-02
-4.994784248849470920e-03
6.282862326944629872e-02
1.285249384405041384e-01
1.904515339693565734e-01
2.470176681198825164e-01
2.968735752758128732e-01
3.387506848663163761e-01
3.716195415727771012e-01
3.947451312042583593e-01
4.074940144097743966e-01
4.096694338209697084e-01
4.012241576382917785e-01
3.823869358682400188e-01
3.537436923693666468e-01
3.159709129442813680e-01
2.701156394270167738e-01
2.173562026083270537e-01
1.590249806858994031e-01
9.666386113789932066e-02
3.184535204160307553e-02
-3.376622864102074573e-02
-9.847410533757425255e-02
-1.606296788327473968e-01
-2.186533740244576696e-01
-2.710095598997958044e-01
-3.164035061739865484e-01
-3.536370332118112247e-01
-3.817260269621355340e-01
-4.000083511857197571e-01
-4.079135661941798441e-01
-4.053019785047157209e-01
-3.922127283001002329e-01
-3.689287843091845209e-01
-3.361185119929419041e-01
-2.945342763659676288e-01
-2.452789033667200913e-01
-1.896071484036545018e-01
-1.288960582060381110e-01
-6.472556247380735484e-02
1.297817677315349361e-03
6.751255954899985923e-02
1.322329639981953409e-01
1.938336718911360668e-01
2.507954169873544692e-01
3.016416903852570108e-01
3.451502863905859808e-01
3.802221305968804810e-01
4.059457346659865462e-01
4.217548484789611640e-01
4.271675977496876553e-01
4.221000840199486404e-01
4.066701012252413872e-01
3.811942432839020567e-01
3.463731257552965515e-01
3.029864757158270971e-01
2.521281983543000038e-01
1.950592839829997371e-01
1.331421307048229474e-01
6.794403889538223884e-02
1.063175982787181034e-03
-6.584723639925561811e-02
-1.311035267854008812e-01
-1.930702383321434290e-01
-2.502169069777131494e-01
-3.010503535960361021e-01
-3.443194404096663330e-01
-3.789158936411096135e-01
-4.038983505433283994e-01
-4.187020332835717507e-01
-4.228508797815777598e-01
-4.162690514565051680e-01
-3.991286985182423419e-01
-3.717830033577911308e-01
-3.350120444598042035e-01
-2.896848504307413807e-01
-2.369764034845018297e-01
-1.782608835842243444e-01
-1.149945195651219804e-01
-4.883339533576976088e-02
1.853359662996978408e-02
8.539816925097454270e-02
1.500388653676942574e-01
2.107930692872566625e-01
2.661567534139918090e-01
3.146717762301761145e-01
3.551449796394119396e-01
3.865740506020269862e-01
4.081072287229789985e-01
4.193077271104234116e-01
4.198373492337942325e-01
4.097304383122593041e-01
3.893033070014915720e-01
3.590176545310284073e-01
3.197500269438385834e-01
2.724704658937440183e-01
2.184022698516134842e-01
1.589702049424421837e-01
9.565632447038910358e-02
3.010659719897023495e-02
-3.600120536076786143e-02
-1.009994526483218580e-01
-1.632290027506025643e-01
-2.210873102674384694e-01
-2.731607286052896155e-01
-3.180891280742281779e-01
-3.547697057391386855e-01
-3.823257940381999953e-01
-4.000089927659072897e-01
-4.074987381490801086e-01
-4.045861155473761128e-01
-3.913983477477342432e-01
-3.683730873538763051e-01
-3.360651362151872990e-01
-2.954255840163041991e-01
-2.475078643813979073e-01
-1.935686015058836196e-01
-1.350616173926199592e-01
-7.347845679634802674e-02
-1.042838268272286428e-02
5.245180541617397441e-02
1.135663003871800469e-01
1.713611019418192494e-01
2.243359807390228056e-01
2.712091542492258700e-01
3.107653641799205113e-01
3.420258915022393320e-01
3.642655282078852697e-01
3.768630975473752365e-01
3.796056526929417752e-01
3.724036902585723952e-01
3.554481409009870863e-01
3.292457895198510620e-01
2.943963170338990132e-01
2.518583095945025052e-01
2.027013542563428639e-01
1.481608106202772501e-01
8.966825599314445783e-02
2.868741620242280105e-02
-3.321402638808046426e-02
-9.443709120767203313e-02
-1.534224474584998388e-01
-2.086601123788030532e-01
-2.586848636235936638e-01
-3.022521930401916856e-01
-3.381959196910497845e-01
-3.655682782465664582e-01
-3.837071393891509641e-01
-3.920441774696954984e-01
-3.904293371359660592e-01
-3.788642075443666712e-01
-3.576078602924894767e-01
-3.272732765878294536e-01
-2.885579548663437244e-01
-2.425092330424682974e-01
-1.903059897057849670e-01
-1.332597505584703912e-01
-7.287359830345141454e-02
-1.067480151276722217e-02
5.175119776844410574e-02
1.127974463330834870e-01
1.709213455322165232e-01
2.246782791274346824e-01
2.726700103369364414e-01
3.137540250122999863e-01
3.468959592871939113e-01
3.712637751615718296e-01
3.863487749114505876e-01
3.917270717915344869e-01
3.873716500781991257e-01
3.734303156491969866e-01
3.502601830960293539e-01
3.185698001177391658e-01
2.791410895428402261e-01
2.330555627479523884e-01
1.815328198787496128e-01
1.258887006764168315e-01
6.760847276645853832e-02
8.198141190197474892e-03
-5.080936716622250215e-02
-1.078687813379927835e-01
-1.615020287539683241e-01
-2.103567022846321299e-01
-2.531248237825370895e-01
-2.887611297797788024e-01
-3.163552964467423179e-01
-3.351790046605037654e-01
-3.448599953367494364e-01
-3.451097311161251957e-01
-3.360246192152391842e-01
-3.179082910689688957e-01
-2.912406156125777468e-01
-2.568628932606131787e-01
-2.156876238598520179e-01
-1.688833334904490113e-01
-1.177632097274897843e-01
-6.370025825901896865e-02
-8.194731390284676342e-03
4.723936032803209562e-02
1.011198922314257287e-01
1.519839967042204421e-01
1.984506107526790297e-01
2.393267695104214776e-01
2.734711790475586324e-01
3.000235290064615645e-01
3.182995271099927637e-01
3.277728883923773373e-01
3.282953789156533575e-01
3.198038969778048690e-01
3.025777523053900797e-01
2.771216173265522720e-01
2.440733629087736278e-01
2.044029915646006501e-01
1.591482852847849738e-01
1.095411323179150548e-01
5.694767399831439370e-02
2.765766284665314989e-03
-5.152792508482793854e-02
-1.044485399037627660e-01
-1.545806327943550218e-01
-2.005593144033854247e-01
-2.411020506538835151e-01
-2.751592360076033361e-01
-3.017420533024591789e-01
-3.201473730212708313e-01
-3.298905582820338411e-01
-3.306259066153937609e-01
-3.224121833658071257e-01
-3.054042228196676145e-01
-2.800716998459375495e-01
-2.471373549533128211e-01
-2.074284247267210446e-01
-1.620842727408201844e-01
-1.123147208374376399e-01
-5.946825530323104902e-02
-5.010501550785563529e-03
4.958561890848119103e-02
1.028349177726301522e-01
1.532558652919839004e-01
1.994841685001097487e-01
2.402596258276966379e-01
2.744072033400277166e-01
3.010446674458195360e-01
3.193694855809833255e-01
3.288645259455041381e-01
3.292789510360857319e-01
3.204806607216063030e-01
3.027501184354881580e-01
2.764780608539234574e-01
2.423278196695619058e-01
2.012300113821460790e-01
1.541953526124503482e-01
1.025117362861285297e-01
4.754058402883752643e-02
-9.263792231209724837e-03
-6.635136736401037183e-02
-1.221772326280105014e-01
-1.752369727974982250e-01
-2.240423999678677058e-01
-2.672505363295539782e-01
-3.036756398076124741e-01
-3.322171328521442701e-01
-3.521231351335756266e-01
-3.627499014717477377e-01
-3.637435868475142331e-01
-3.550802366568523438e-01
-3.368454241171908170e-01
-3.095623400918980916e-01
-2.738921175666999552e-01
-2.307375173538382396e-01
-1.812902657300592413e-01
-1.268048522668726863e-01
-6.876730574252543082e-02
-8.737679413856967725e-03
5.168876811682381056e-02
1.108725536036138659e-01
1.671956524330979743e-01
2.191701383355318111e-01
2.653559911626532375e-01
3.044950818570793527e-01
3.355696390829567832e-01
3.576488581523585841e-01
3.702023723118315068e-01
3.728469845453080134e-01
3.654696074341642342e-01
3.483322972329336298e-01
3.217930169762247550e-01
2.866206672927243959e-01
2.437408876103731026e-01
1.942648078921756782e-01
1.395742723557430731e-01
8.109761868982215405e-02
2.042310637882986668e-02
-4.079824339159476149e-02
-1.009258232400249283e-01
-1.583352684075969297e-01
-2.114320327196842764e-01
-2.588144982891962265e-01
-2.991640040870755524e-01
-3.313511006259610703e-01
-3.545519931740573893e-01
-3.680286845254542305e-01
-3.714608200059981158e-01
-3.647141541623504235e-01
-3.478913284867215516e-01
-3.214969773996265712e-01
-2.861227041859040199e-01
-2.427263542090966064e-01
-1.924365414847470646e-01
-1.365135035231772320e-01
-7.645177729795041288e-02
-1.378070707309979499e-02
4.988535266970618026e-02
1.128909894670388214e-01
1.736225035532748817e-01
2.305454724181198456e-01
2.821602093131960753e-01
3.271921606108733060e-01
3.644836956480413948e-01
3.930451347078449675e-01
4.122189887068207215e-01
4.214278720247797150e-01
4.204720910517805166e-01
4.093574798084197441e-01
3.882745019840054268e-01
3.577964983765404838e-01
3.185760123743739403e-01
2.715717400832975970e-01
2.179173266653613439e-01
1.588445905881115117e-01
9.579790128262466453e-02
3.025639902095103931e-02
-3.623416446365311516e-02
-1.020882054370371855e-01
-1.657537340233611878e-01
-2.257583712206889803e-01
-2.806586049151702511e-01
-3.292089514182604537e-01
-3.702893344888411042e-01
-4.029135152953330357e-01
-4.264198284083658974e-01
-4.402233612013425335e-01
-4.440744676297708748e-01
-4.379465025854930582e-01
-4.219612956574395612e-01
-3.966161003543758889e-01
-3.624890392128333194e-01
-3.204266377104609820e-01
-2.714630512232135695e-01
-2.167097658657329284e-01
-1.574800113043373639e-01
-9.512529878313319420e-02
-3.105255835295761546e-02
3.329058611100528531e-02
9.647997880570684248e-02
1.571622756624276862e-01
2.140070931098289608e-01
2.658373508553529274e-01
3.115944379118396057e-01
3.503104997328024273e-01
3.812866308102130786e-01
4.038904982070029570e-01
4.177362802312571954e-01
4.226383558464480439e-01
4.185116803542467401e-01
4.055787108128694474e-01
3.841361066809701463e-01
3.546905885831410643e-01
3.179281728800448237e-01
2.746001596583217408e-01
2.256621845204129784e-01
1.721184689800614454e-01
1.150643096044830505e-01
5.567669918696520337e-02
-4.857317906086018600e-03
-6.532470277850366269e-02
-1.245089781799735562e-01
-1.812447180628893595e-01
-2.344146215732093030e-01
-2.829438822085291738e-01
-3.259138964076107592e-01
-3.624508473454563506e-01
-3.918447136425774469e-01
-4.135477355312389136e-01
-4.270858972005115439e-01
-4.322571883618230859e-01
-4.289369076910156120e-01
-4.172006856723196599e-01
-3.973327024715188616e-01
-3.696872081406019639e-01
-3.348785216502098150e-01
-2.935960983191174822e-01
-2.466674340148121980e-01
-1.950710394997317576e-01
-1.398182614945243096e-01
-8.203527321896150748e-02
-2.288132501629375898e-02
3.647427626034357301e-02
9.485066425464427908e-02
1.510836673900581850e-01
2.040928935117560794e-01
2.528265407620763350e-01
2.963428229661203561e-01
3.338328922508655427e-01
3.645405469571093016e-01
3.879384377703560816e-01
4.035767631152238910e-01
4.111722365743236129e-01
4.106530458937647232e-01
4.020095195386820253e-01
3.854949900046793498e-01
3.614551038346965894e-01
3.303823741184603313e-01
2.929653523256325887e-01
2.499378799179364230e-01
2.022157249392462219e-01
1.507809337023066076e-01
9.667979749464566952e-02
4.104870885248877721e-02
-1.496680698378812652e-02
-7.020670598970796261e-02
-1.235063869583035434e-01
-1.737496008835416328e-01
-2.198915227985855370e-01
-2.609195365310442161e-01
-2.959922333396776684e-01
-3.243386576945813671e-01
-3.453273780967973661e-01
-3.585434591474021548e-01
-3.636315813335477820e-01
-3.605176107019295584e-01
-3.492478286600962378e-01
-3.300274244956833414e-01
-3.033207072911950908e-01
-2.696490088420620546e-01
-2.297751062024283031e-01
-1.845699253660439965e-01
-1.349956026337716664e-01
-8.217040094156120855e-02
-2.723665120452917199e-02
2.859621425132639894e-02
8.408760612454335703e-02
1.380170236760452918e-01
1.892006857206892656e-01
2.364749512947882382e-01
2.788105026202676862e-01
3.152451803489036419e-01
3.449265062222229283e-01
3.672104291792924191e-01
3.815057024681681730e-01
3.874793290274377022e-01
3.849334343758896715e-01
3.738102713197656857e-01
3.543315670981502796e-01
3.267801633686449048e-01
2.916980091707934153e-01
2.497694071138281124e-01
2.017846544211927273e-01
1.487556564363906320e-01
9.173643059932659605e-02
3.191968094161337643e-02
-2.942190578943795765e-02
-9.099356877429307100e-02
-1.514533521726556531e-01
-2.094586496894668692e-01
-2.637283630175807914e-01
-3.130189652482013307e-01
-3.561642580314655637e-01
-3.921791654495365154e-01
-4.201266333651981211e-01
-4.393207096884892970e-01
-4.492360276691056420e-01
-4.494871710666696329e-01
-4.400306107736270400e-01
-4.209005612725587042e-01
-3.924435703483855065e-01
-3.552160685924226069e-01
-3.098982209259817378e-01
-2.574852031830444088e-01
-1.990379053073410009e-01
-1.358093828315582174e-01
-6.918840456920580251e-02
-6.020135778577184738e-04
6.842438740918087292e-02
1.363510373365273975e-01
2.016746740903594681e-01
2.629191834654465154e-01
3.186706487019873579e-01
3.676957925464878763e-01
4.088099307434777119e-01
4.410671401789780233e-01
4.637079074675650170e-01
4.760959734275884148e-01
4.779621806221742153e-01
4.691272565893479518e-01
4.497237217218703620e-01
4.201399332791468377e-01
3.808834356662319509e-01
3.328281421374842397e-01
2.769355527872993106e-01
2.143911193464007880e-01
1.465734203676450631e-01
7.491591684043630295e-02
1.020693091424895033e-03
-7.347287293343739145e-02
-1.469116029088887165e-01
-2.176298122223213061e-01
-2.839998851043166184e-01
-3.445358034765574340e-01
-3.977940876143476467e-01
-4.425425074561761818e-01
-4.777500297256306871e-01
-5.024946919684756264e-01
-5.162478360274962430e-01
-5.185902360472364192e-01
-5.094200348326680672e-01
-4.889530154139219986e-01
-4.575212502354303323e-01
-4.158789167984940915e-01
-3.648982334078441081e-01
-3.056874552735107109e-01
-2.396030926177342701e-01
-1.680595034083277595e-01
-9.267189746447350440e-02
-1.511118271020162052e-02
6.292538727713890834e-02
1.397114404911306285e-01
2.135457533593217716e-01
2.828502094509988685e-01
3.460878791765826801e-01
4.018954563008025893e-01
4.491113162132589487e-01
4.866580081489700893e-01
5.138144273988127786e-01
5.299759680130882167e-01
5.348000325630154483e-01
5.282638881350352200e-01
5.104407978048066674e-01
4.818007172931383919e-01
4.429474214422300382e-01
3.947013806061745456e-01
3.381611006211987513e-01
2.744876290699048149e-01
2.050852271267121496e-01
1.314428571022489556e-01
5.512008025484599338e-02
-2.222837507049453196e-02
-9.894640521392480959e-02
-1.734090746089080870e-01
-2.440048856407437405e-01
-3.092271293030111612e-01
-3.677177618339695364e-01
-4.181775757223834544e-01
-4.596007605645090477e-01
-4.910973853821062329e-01
-5.119969195618306879e-01
-5.219559344284235847e-01
-5.207182359902984281e-01
-5.084240890691532622e-01
-4.853766738228120770e-01
-4.520866682041787543e-01
-4.093898461003296352e-01
-3.581895016934941722e-01
-2.996606396074324996e-01
-2.350948403463160308e-01
-1.658660080646308932e-01
-9.348336597666816183e-02
-1.946997658818348798e-02
5.464250635033313097e-02
1.273193496826819926e-01
1.970903317479910377e-01
2.625974598532040405e-01
3.225215719888083199e-01
3.757603701764855031e-01
4.213155460742583069e-01
4.583365638866943592e-01
4.862423962481689510e-01
5.045164981491087053e-01
5.129407620585897387e-01
5.114470103623436348e-01
5.001153370907088780e-01
4.793097662871752540e-01
4.494540593137128504e-01
4.112159943592754163e-01
3.653920880035618768e-01
3.128722441930092413e-01
2.547338999591939324e-01
1.920887471336866770e-01
1.261577118169462108e-01
5.822218881179530570e-02
-1.042303615388659628e-02
-7.845584686486879733e-02
-1.445566234869939404e-01
-2.074668996284915190e-01
-2.659641184701450611e-01
-3.188954968329490436e-01
-3.652649448003714161e-01
-4.041180398392281159e-01
-4.347189921532194634e-01
-4.564664081631404358e-01
-4.688853659764639081e-01
-4.717979110933558373e-01
-4.650941968155873907e-01
-4.489522990270503611e-01
-4.237362472599393026e-01
-3.899334731367180007e-01
-3.483342471910361171e-01
-2.997924812691483698e-01
-2.453706003669044178e-01
-1.862725554670927042e-01
-1.237561300759005278e-01
-5.921505910410179707e-02
5.933990641146261180e-03
7.026642249292334996e-02
1.323520355093215362e-01
1.908037829613690728e-01
2.443561565935668534e-01
2.917784938737428835e-01
3.320368818103146547e-01
3.642450748005793271e-01
3.876284202978390048e-01
4.017329061824331249e-01
4.061826033899512134e-01
4.008943189414269637e-01
3.860157621455450605e-01
3.618135539122689925e-01
3.289079150343264812e-01
2.880022248242529170e-01
2.400339520862024845e-01
1.861346267177842739e-01
1.275004682106263831e-01
6.552304124959243414e-02
1.637052065003363754e-03
-6.267471280482758700e-02
-1.258875781250440584e-01
-1.864995029279479244e-01
-2.430929053551907915e-01
-2.942772742544856879e-01
-3.388303478514341216e-01
-3.756839223598875122e-01
-4.038653999408783890e-01
-4.227366364160126122e-01
-4.317507736428296550e-01
-4.306519070044605435e-01
-4.194640990208868825e-01
-3.983241449496831010e-01
-3.677680547842125947e-01
-3.284403789290040732e-01
-2.812272632996179467e-01
-2.272591506349543600e-01
-1.677307007808525319e-01
-1.040591071855262173e-01
-3.772150958731632087e-02
2.975435372229916914e-02
9.678697762763156798e-02
1.618118019472528091e-01
2.233505384875897337e-01
2.799541883659989461e-01
3.303292782057061228e-01
3.733560115585973782e-01
4.079952084125127998e-01
4.335417501720169042e-01
4.493962903066081038e-01
4.552177299850954650e-01
4.509680485033582542e-01
4.367048160400124335e-01
4.128731438437203138e-01
3.800439990301456294e-01
3.390023190255166963e-01
2.907969534403628264e-01
2.365361713524117837e-01
1.775543699516342611e-01
1.152612703299391583e-01
5.112302621310138573e-02
-1.332108082904215340e-02
-7.653785079494926369e-02
-1.370549683738281899e-01
-1.934240235635479588e-01
-2.443216718416546529e-01
-2.885950612135707027e-01
-3.251571900662494907e-01
-3.532368913230027885e-01
-3.721829344281852303e-01
-3.815731036667899256e-01
-3.813133007271899411e-01
-3.713966034795971871e-01
-3.522025673512705901e-01
-3.242632121818767033e-01
-2.883042473406218220e-01
-2.453430102492925591e-01
-1.964544160055872735e-01
-1.429349884942689719e-01
-8.617217263180312892e-02
-2.759934065457239627e-02
3.127768096360786232e-02
8.895660519638315389e-02
1.440053770183210846e-01
1.950236522819781548e-01
2.407251495826732146e-01
2.800138542384430496e-01
3.118524194458572318e-01
3.355073364805303826e-01
3.503850050970133134e-01
3.560843960815237574e-01
3.525417847833449136e-01
3.397717083716817466e-01
3.181391833146062775e-01
2.881782246738469611e-01
2.505800925177383287e-01
2.063251979185030116e-01
1.564488683936581248e-01
1.021864027187199542e-01
4.487413353126021298e-02
-1.411153252816788051e-02
-7.331753965223869463e-02
-1.312883345723455664e-01
-1.866257276230518514e-01
-2.379625776108957036e-01
-2.840233186983554536e-01
-3.237200024637391094e-01
-3.560168184280209647e-01
-3.801579844857582158e-01
-3.955450856964138895e-01
-4.017436756321619562e-01
-3.986708593273080581e-01
-3.863221779919930321e-01
-3.650270276023673266e-01
-3.353117992092630173e-01
-2.978382637774412700e-01
-2.535718054715606629e-01
-2.035368277657154112e-01
-1.489425946409873025e-01
-9.111294295199257043e-02
-3.140257531565743276e-02
2.876348730966021838e-02
8.795510879749068867e-02
1.448042613702083536e-01
1.979835687956684187e-01
2.462430018296857814e-01
2.885276596452151510e-01
3.238329981928499968e-01
3.514042644470488641e-01
3.706581266387829476e-01
3.811393682497095092e-01
3.827282268934467657e-01
3.753816408839333318e-01
3.593404324827604857e-01
3.350501721148343437e-01
3.030628057154231003e-01
2.642196238470134739e-01
2.194245680837085266e-01
1.697514470002069453e-01
1.164028386310206331e-01
6.061597757356712579e-02
3.722567411953592309e-03
-5.292961642565324754e-02
-1.080178265211252375e-01
-1.602392759485595786e-01
-2.083406785788678717e-01
-2.512241883989750901e-01
-2.878347917828838476e-01
-3.173228409805108896e-01
-3.390107072461786553e-01
-3.523248980279043430e-01
-3.570239441227959221e-01
-3.529507045262296749e-01
-3.402191882117259203e-01
-3.191820936550147647e-01
-2.902903678412529498e-01
-2.543152856496678771e-01
-2.121080103403286121e-01
-1.646949269743178124e-01
-1.132645185662466969e-01
-5.904053335355163856e-02
-3.356482229392540595e-03
5.242938156936870209e-02
1.069823069415593297e-01
1.589903908209124861e-01
2.071846416007551150e-01
2.504632796823534346e-01
2.877743024223520796e-01
3.182602894794576143e-01
3.412626084042315600e-01
3.562113638072736399e-01
3.628730977789754175e-01
3.611122504018521306e-01
3.510346250300606097e-01
3.330051491268917752e-01
3.074702593184673871e-01
2.751834416352010315e-01
2.369890049232713236e-01
1.938795718621648123e-01
1.470150968173494499e-01
9.758481063091081764e-02
4.687404652458368459e-02
-3.804386152430977441e-03
-5.316664140972568453e-02
-9.996322290192777293e-02
-1.429822958547315448e-01
-1.811906965940593972e-01
-2.136162792551066780e-01
-2.394710901496708289e-01
-2.581967305647175914e-01
-2.693145672654105316e-01
-2.726928421904618038e-01
-2.683199670295110528e-01
-2.564041022886278665e-01
-2.374412491203437003e-01
-2.119988409312026367e-01
-1.809364742427635453e-01
-1.452183377310514445e-01
-1.059212313790526411e-01
-6.427695123624319051e-02
-2.153582215995257509e-02
2.100871707349959150e-02
6.204855073473482946e-02
1.003378993221122617e-01
1.347213347482985046e-01
1.640874454818071204e-01
1.875584930190833388e-01
2.043511392333144661e-01
2.138709819651741229e-01
2.158112422161472255e-01
2.099430935264445242e-01
1.963987936452056271e-01
1.754621517543025755e-01
1.476095621548048908e-01
1.136254875082283455e-01
7.435821341391785078e-02
3.091336630662563922e-02
-1.549071019117120862e-02
-6.356395832223990516e-02
-1.118960647151459320e-01
-1.590687546292514909e-01
-2.036911981353912993e-01
-2.443862533550579808e-01
-2.798764529610280882e-01
-3.090613022487981310e-01
-3.308975214236250517e-01
-3.446563764492457382e-01
-3.497630184708144796e-01
-3.458488511077657535e-01
-3.329293503904774409e-01
-3.111084203970281292e-01
-2.808872286641479477e-01
-2.429705155764771141e-01
-1.982327155741537006e-01
-1.478796101350888514e-01
-9.317730058170098362e-02
-3.558916574894262219e-02
2.331551763933333021e-02
8.195317077950117768e-02
1.387125976493802648e-01
1.919945403205421952e-01
2.403498883124248753e-01
2.824150863261024602e-01
3.169727246868871973e-01
3.431234329502965141e-01
3.600479477121710237e-01
3.673230958502781140e-01
3.647620341439354874e-01
3.523787249839284152e-01
3.306439189154986025e-01
3.001256944112915548e-01
2.617604578184875574e-01
2.167154735038883395e-01
1.662748764029139403e-01
1.119991617362782049e-01
5.549688444309437002e-02
-1.542932408401045952e-03
-5.737838255286457911e-02
-1.103127221738928465e-01
-1.587678743053092811e-01
-2.012056593666779469e-01
-2.363580523892095941e-01
-2.631443994795744090e-01
-2.806541928523401119e-01
-2.884293944793275277e-01
-2.861192343133800997e-01
-2.738015322237428162e-01
-2.518664463753509386e-01
-2.208736889627937461e-01
-1.818498675901215611e-01
-1.359233885735345870e-01
-8.449663891591030485e-02
-2.918185412825979874e-02
2.835943152502951037e-02
8.633213150462706875e-02
1.429205489559159936e-01
1.963835781559012672e-01
2.450401947908530664e-01
2.873050993915690077e-01
3.218950595074798193e-01
3.476078570949187596e-01
3.635960361348443692e-01
3.693123665303903458e-01
3.643725128483662479e-01
3.489136676141652571e-01
3.232037872599969330e-01
2.878876267539123290e-01
2.439450573029434133e-01
1.924727103034082343e-01
1.349452293460020602e-01
7.292925598339750071e-02
8.134943242323278145e-03
-5.759342280703383388e-02
-1.224139460979683514e-01
-1.845134333147511740e-01
-2.420935910805252500e-01
-2.935358404225350548e-01
-3.373981176030793616e-01
-3.723509062851069196e-01
-3.974884863698103787e-01
-4.120271035827861583e-01
-4.155528610076378859e-01
-4.080336114532256420e-01
-3.895777255708315900e-01
-3.608184067854351418e-01
-3.225399322570420280e-01
-2.758226922096125855e-01
-2.220682608399595637e-01
-1.627505731514488074e-01
-9.959785162997231156e-02
-3.441092864562354803e-02
3.098555321138568575e-02
9.473981450151131023e-02
1.550372987669770275e-01
2.102486660436523880e-01
2.588073008653094531e-01
2.993874027266644755e-01
3.309516747052244079e-01
3.525740912347316014e-01
3.638064318679854470e-01
3.643603927455009717e-01
3.542698497691716408e-01
3.339743415851363362e-01
3.040213021214728806e-01
2.653987674752946169e-01
2.192467574752745563e-01
1.668959002120063428e-01
1.099290400992190553e-01
4.996730031152576967e-02
-1.124900621838445525e-02
-7.193858237458461424e-02
-1.303718252536810451e-01
-1.848911622049823067e-01
-2.338895698637677989e-01
-2.760329890735485625e-01
-3.100940198432389772e-01
-3.350906689303568275e-01
-3.503999732594678118e-01
-3.555022613869948667e-01
-3.503565588402459130e-01
-3.351151583515753485e-01
-3.101967278337951495e-01
-2.764294680789108338e-01
-2.347289145836011781e-01
-1.863669302724536292e-01
-1.327652842599040817e-01
-7.545364263187404053e-02
-1.613572759839999871e-02
4.346995142042025390e-02
1.016528771423497596e-01
1.567074444332661465e-01
2.070385672406675481e-01
2.512396353315842212e-01
2.879684478488203081e-01
3.162360024734945374e-01
3.352194584398709432e-01
3.443325077819136548e-01
3.434119944481658360e-01
3.323936902053200027e-01
3.116610101281829248e-01
2.818177813232184414e-01
2.436669674849539780e-01
1.983853642277106921e-01
1.472195869228748455e-01
9.166189439279232021e-02
3.333124029452289028e-02
-2.611626187935039978e-02
-8.495252778319203890e-02
-1.414534069568413599e-01
-1.940103314435489557e-01
-2.410782495029759609e-01
-2.812520699782923850e-01
-3.134193726828199966e-01
-3.365448332623275918e-01
-3.499907347539004121e-01
-3.533473934212919554e-01
-3.464198240401732409e-01
-3.294826775914804773e-01
-3.029117655496641470e-01
-2.674863705275747905e-01
-2.242287768942298753e-01
-1.743011592880129856e-01
-1.191848005279743106e-01
-6.041789817430592846e-02
3.321490618820588381e-04
6.131629612918632066e-02
1.208084694099334222e-01
1.771424207210306745e-01
2.286791747832300770e-01
2.740006613414038839e-01
3.118361146943168793e-01
3.410689486713570084e-01
3.609770793313645254e-01
3.709326735255474294e-01
3.707096574216929286e-01
3.603633781350936149e-01
3.401216175861738189e-01
3.106705104537357265e-01
2.727965088453842557e-01
2.275968568735954045e-01
1.763976048388110618e-01
1.206055388329766165e-01
6.184668504056486937e-02
1.788211701013620036e-03
-5.787962031920940165e-02
-1.154487111551195516e-01
-1.692661345825193231e-01
-2.178499464214081749e-01
-2.597677771507347910e-01
-2.938613978671391069e-01
-3.191956113181462218e-01
-3.349826085173099877e-01
-3.408926149753398471e-01
-3.367103989064754721e-01
-3.226019902699455155e-01
-2.990594018061520920e-01
-2.667108581541637879e-01
-2.266169380450135939e-01
-1.799427357090006563e-01
-1.280758260852791208e-01
-7.260369638847774532e-02
-1.514814272634412706e-02
4.257003842598200416e-02
9.881158686519772583e-02
1.519215487320220159e-01
2.003245806048728206e-01
2.425277248584689072e-01
2.773434768663523564e-01
3.036718987036152173e-01
3.207307534061472065e-01
3.280530687578485649e-01
3.253067353976600296e-01
3.126546666201450719e-01
2.903990548388348802e-01
2.591665296969790644e-01
2.199220452687015714e-01
1.737261868696148570e-01
1.219841484581946911e-01
6.619831860824623715e-02
7.985075086377343978e-03
-5.091428831779197528e-02
-1.087618018072238485e-01
-1.638638254264526972e-01
-2.145449309785623371e-01
-2.592966229469427786e-01
-2.968026622589149399e-01
-3.258422024101336190e-01
-3.456048478713036332e-01
-3.554140222921854386e-01
-3.549176427156195412e-01
-3.441563912929300195e-01
-3.232899270983929374e-01
-2.929674828149750332e-01
-2.540015737019692410e-01
-2.074540985245892644e-01
-1.547041910892445749e-01
-9.719224641853296820e-02
-3.657997792409747873e-02
2.539584159308599931e-02
8.698933910405189096e-02
1.464425467032500761e-01
2.020295507731367235e-01
2.522140030949577838e-01
2.955319020517471751e-01
3.307342426158074167e-01
3.568743265184898816e-01
3.731023170095533747e-01
3.790214850603945695e-01
3.744114653530888903e-01
3.593315082787785775e-01
3.342540674698606940e-01
2.997485597106812061e-01
2.567969323279153393e-01
2.065483558264360753e-01
1.503172513194829252e-01
8.967456297084713812e-02
2.622996378685218954e-02
-3.829302114100133214e-02
-1.021235556231738228e-01
-1.635334098859362317e-01
-2.208644042875570757e-01
-2.724994533705836774e-01
-3.170745673485423355e-01
-3.533407567416374517e-01
-3.802612783106343874e-01
-3.971643886509469423e-01
-4.034727760841253508e-01
-3.990624575406718777e-01
-3.840242148000510558e-01
-3.586847778508638895e-01
-3.237969368285245064e-01
-2.802009143696743143e-01
-2.290877999683037236e-01
-1.718228345664298273e-01
-1.098780064740596807e-01
-4.492704509281825187e-02
2.133059016683737028e-02
8.716907008451978134e-02
1.508493840485645721e-01
2.107068966608512395e-01
2.652270366693815218e-01
3.129440063560783303e-01
3.526810610307128946e-01
3.834209428709179912e-01
4.043336838172230663e-01
4.149835776713872160e-01
4.150254984530755697e-01
4.045176471037148502e-01
3.837517669430111633e-01
3.531975039444838482e-01
3.137165934354047003e-01
2.662497549917619555e-01
2.120134062391074159e-01
1.523916662479587458e-01
8.883940388330635596e-02
2.297306678658895401e-02
-4.356753440179172987e-02
-1.091421777251611464e-01
-1.721105513609682558e-01
-2.308968918085934907e-01
-2.840864073733747608e-01
-3.303102586635075499e-01
-3.684614235883129640e-01
-3.976092134802173272e-01
-4.169745304851464884e-01
-4.261688327799829645e-01
-4.248944060584620153e-01
-4.132142612610563148e-01
-3.914467008301339424e-01
-3.600542865781037882e-01
-3.198859203431088094e-01
-2.718741584369663844e-01
-2.171933170902809462e-01
-1.571975419743414926e-01
-9.329596018311271666e-02
-2.704678823348554556e-02
3.996509632341179591e-02
1.061640282988422501e-01
1.699815702383456195e-01
2.299023054715611802e-01
2.845750550348692398e-01
3.326941837288318604e-01
3.731810684772294273e-01
4.051436841499506114e-01
4.278055534076955491e-01
4.407519761032988037e-01
4.436591066105802783e-01
4.365004241646168182e-01
4.195062521682815793e-01
3.930172971969404516e-01
3.577289781047698902e-01
3.144246364598888288e-01
2.640979515527991373e-01
2.079335563103503759e-01
1.471682812127668438e-01
8.320568125859048592e-02
1.748881398383403396e-02
-4.851538656274614891e-02
-1.133172071276925680e-01
-1.754534168187024956e-01
-2.335675823167473464e-01
-2.863365024887341015e-01
-3.326035045742112839e-01
-3.713788720342272587e-01
-4.017588597322456212e-01
-4.231645019858936152e-01
-4.351108692708214321e-01
-4.373723737162205083e-01
-4.299966607207366120e-01
-4.131268616643662961e-01
-3.872664940065108086e-01
-3.530247639467638532e-01
-3.112129875684744307e-01
-2.628662527366857349e-01
-2.090718587065363843e-01
-1.511050047330627921e-01
-9.029642100032693464e-02
-2.801416958445568373e-02
3.433025351533242064e-02
9.533866829034365331e-02
1.536901401143981882e-01
2.080910207851409399e-01
2.573723852597489259e-01
3.005178429901338988e-01
3.365730509056291675e-01
3.648575547931976470e-01
3.847847935524080776e-01
3.959688959020561949e-01
3.982819519207652648e-01
3.916707132293837379e-01
3.763993159900260732e-01
3.528445222202618581e-01
3.215559114378928607e-01
2.833165316219633523e-01
2.389615472384667982e-01
1.895335398768414614e-01
1.361514663199665243e-01
8.000104521623296883e-02
2.236274399115250472e-02
-3.547587519044177046e-02
-9.222805420643981344e-02
-1.466085699377265850e-01
-1.973991678846882536e-01
-2.434817105327122255e-01
-2.837789279610577475e-01
-3.174280115677243774e-01
-3.436552832310438843e-01
-3.618523693735319346e-01
-3.716705120770750215e-01
-3.728298037976386925e-01
-3.653714578287353132e-01
-3.494757409158972816e-01
-3.254946448684018501e-01
-2.940635535212375307e-01
-2.558774592254819957e-01
-2.118757478556438367e-01
-1.631084827205735999e-01
-1.107051693195904157e-01
-5.593281378921311636e-02
-7.540633893386716746e-05
5.555797351225414543e-02
1.096468766221676133e-01
1.609214685366144870e-01
2.082049040581038235e-01
2.503540339331827846e-01
2.864246792298087430e-01
3.155731468366088643e-01
3.370964843958638157e-01
3.505623154593056623e-01
3.556032088389174950e-01
3.521557873860041155e-01
3.403175969590199745e-01
3.203356393731094376e-01
2.927583816427470342e-01
2.581966803293560542e-01
2.175063935218244371e-01
1.716795252538665939e-01
1.217882833312295410e-01
6.907397165243649162e-02
1.480499480328066608e-02
-3.969719871463933680e-02
-9.308036280194273426e-02
-1.440230447022102789e-01
-1.912743890115454204e-01
-2.336096223200304633e-01
-2.699819667184558680e-01
-2.994543223094542905e-01
-3.212141530238605824e-01
-3.347427180170316485e-01
-3.395912328990344231e-01
-3.356253987592263122e-01
-3.229144004094042231e-01
-3.016712718235929347e-01
-2.724632433869573211e-01
-2.359333987127483212e-01
-1.929856033038372665e-01
-1.447010479869465516e-01
-9.223691222187467564e-02
-3.694374013995478656e-02
1.979262327734793853e-02
7.653988812175782641e-02
1.318326147470100240e-01
1.842384431856224081e-01
2.324201132650569046e-01
2.750703122524403854e-01
3.110742943354030676e-01
3.394620955863149603e-01
3.593800306793937804e-01
3.703097731789943836e-01
3.718153065264575008e-01
3.637756635546227635e-01
3.463188073474334217e-01
3.197021506954873526e-01
2.845689148940930835e-01
2.416531691410258587e-01
1.919444880666433262e-01
1.366446249239324784e-01
7.702488038193414099e-02
1.456654537577299624e-02
-4.920300605963873891e-02
-1.127114750752352956e-01
-1.743473566238758765e-01
-2.325290623884951613e-01
-2.857849683526055284e-01
-3.326778385141687111e-01
-3.719722204304946600e-01
-4.026177417975738138e-01
-4.236757744712722484e-01
-4.345985937567631296e-01
-4.349449072418828388e-01
-4.246050168701294147e-01
-4.037888443297081853e-01
-3.728310759187472012e-01
-3.325073658036589164e-01
-2.837128455797390814e-01
-2.275955406987209551e-01
-1.655596359341470203e-01
-9.906998861373092491e-02
-2.979727994018497098e-02
4.053349324453765778e-02
1.101822521910293395e-01
1.773928645429295181e-01
2.404460384704363851e-01
2.977888516019061016e-01
3.479221773976591825e-01
3.895689686341967661e-01
4.217006010753572287e-01
4.433943049551349880e-01
4.541616269438611964e-01
4.536511457589403884e-01
4.418254388604545002e-01
4.190162221150454114e-01
3.856648853050171910e-01
3.426519886587853780e-01
2.910002432567113106e-01
2.319501164964130335e-01
1.670111137503396959e-01
9.774382499985713457e-02
2.588972901303503160e-02
-4.675056062679429358e-02
-1.183790714368079394e-01
-1.872013058647180872e-01
-2.514570960551835155e-01
-3.095761389228476324e-01
-3.600587121832798942e-01
-4.016181876280023877e-01
-4.332588957225923521e-01
-4.540818586051038608e-01
-4.636352655683154689e-01
-4.616366108165348425e-01
-4.480889140849783625e-01
-4.234049427309444225e-01
-3.880971280244532862e-01
-3.431034144927765928e-01
-2.895293079165173200e-01
-2.286602736364304334e-01
-1.620531170934392529e-01
-9.130858518924171718e-02
-1.816967951444879020e-02
5.556292393664175044e-02
1.281101822163159820e-01
1.977277087136265210e-01
2.627030946173807835e-01
3.215278529169788291e-01
3.727837316444102544e-01
4.152365518897241370e-01
4.479594701811970836e-01
4.701086871249480770e-01
4.812438042368718527e-01
4.811101618767189558e-01
4.696796685304145402e-01
4.473215943358549440e-01
4.144923081882590510e-01
3.720205507388638644e-01
3.209147437522413826e-01
2.623309989406209519e-01
1.976972384371121216e-01
1.284881694608036029e-01
5.632524326122079206e-02
-1.709606351260186535e-02
-9.008150490393034004e-02
-1.609403488565075424e-01
-2.279990823408571676e-01
-2.897363465329049759e-01
-3.447125865859451688e-01
-3.916279959550565959e-01
-4.294689404216832651e-01
-4.572946519387077746e-01
-4.745274227258773347e-01
-4.807938226111164726e-01
-4.759135730807654840e-01
-4.601207988145029626e-01
-4.337390785369051871e-01
-3.974542605890639124e-01
-3.521662705485921752e-01
-2.989084372757934149e-01
-2.390132029707225936e-01
-1.738684188146395748e-01
-1.050133533052165641e-01
-3.408122206318456304e-02
3.728909753009310157e-02
1.074484449895769106e-01
1.747568877219723149e-01
2.377014638625622456e-01
2.948523395032940364e-01
3.448874210592068890e-01
3.867557551784782666e-01
4.194735931913171623e-01
4.423689532212735642e-01
4.549841612223289866e-01
4.570131089900363319e-01
4.485466417910604631e-01
4.297654334368161688e-01
4.011723919199778887e-01
3.635032278447635212e-01
3.176086942649412048e-01
2.646522847054221250e-01
2.058640841001619370e-01
1.426401297490383357e-01
7.650247043523444868e-02
8.995844169034207874e-03
-5.827619798057022404e-02
-1.237039962414156063e-01
-1.857554758691972729e-01
-2.429605161407859815e-01
-2.939271762989916770e-01
-3.375067801533790934e-01
-3.726154012858138298e-01
-3.984507256919725959e-01
-4.144467271927928520e-01
-4.201699920648306330e-01
-4.156088689073205167e-01
-4.008576444079390844e-01
-3.763308650403042743e-01
-3.427254803469064193e-01
-3.008452971013854116e-01
-2.518403090657735932e-01
-1.969456003157251944e-01
-1.375580107485572523e-01
-7.522427709373910587e-02
-1.151059788241507592e-02
5.196478081576459684e-02
1.135753135466336522e-01
1.717814766277964700e-01
2.251284910537381112e-01
2.722327923237234937e-01
3.119810972356635848e-01
3.433387478716071750e-01
3.655394250391982847e-01
3.780914173680161583e-01
3.806163663239903183e-01
3.731624194393566296e-01
3.559011905250002439e-01
3.292886036382536297e-01
2.940863370020316281e-01
2.511450861831018289e-01
2.016463288586467506e-01
1.468686779650492658e-01
8.822531796504934354e-02
2.728152000888797724e-02
-3.438221796323587265e-02
-9.515192648591733193e-02
-1.534066280273865823e-01
-2.076182003868876358e-01
-2.563688200249960025e-01
-2.983059255740752036e-01
-3.323723073576206888e-01
-3.576105075430708879e-01
-3.733226442833363912e-01
-3.791348905548408976e-01
-3.747773566837674375e-01
-3.604244396102354031e-01
-3.364041005228242676e-01
-3.033015988651548422e-01
-2.620397886429210454e-01
-2.136186353509450520e-01
-1.593435454067494150e-01
-1.006288986598818380e-01
-3.898153893603589770e-02
2.396423933308228227e-02
8.656910561352189337e-02
1.472192958252805384e-01
2.043127772487897120e-01
2.563626131321348200e-01
3.020488898616716100e-01
3.401158770560092082e-01
3.696315509392614218e-01
3.897943783836224085e-01
4.000358630876364452e-01
4.001428350678334911e-01
3.899934385467636599e-01
3.698787791797733537e-01
3.402633894374215151e-01
3.018189198765762749e-01
2.555488594625587306e-01
2.025233571475036354e-01
1.440749195258816395e-01
8.165110972570699399e-02
1.676771819625247351e-02
-4.894491436240561849e-02
-1.138500754184782748e-01
-1.763466486764557750e-01
-2.348509914101365725e-01
-2.878815921215370777e-01
-3.341385635794137388e-01
-3.723798285217932436e-01
-4.016791324491023607e-01
-4.212650005531743402e-01
-4.305734965483500876e-01
-4.294278316527450068e-01
-4.177413802775516438e-01
-3.958368629979909237e-01
-3.642472066072599546e-01
-3.236897919618469954e-01
-2.752429698625450949e-01
-2.200544543602266367e-01
-1.595199881883627158e-01
-9.516889725092056440e-02
-2.858072590774562993e-02
3.856312010064043283e-02
1.045750568380272028e-01
1.678314572823650652e-01
2.267454050552391576e-01
2.798327459483310742e-01
3.258339416523557408e-01
3.635500807486717889e-01
3.921043315832855036e-01
4.108124360972794653e-01
4.191709737313835671e-01
4.170892396799356638e-01
4.045685609075066469e-01
3.819882725347629737e-01
3.499651361852181841e-01
3.092653878116501942e-01
2.610115028562249861e-01
2.063971330942009907e-01
1.468291313238314910e-01
8.385505454355918209e-02
1.905823653955965313e-02
-4.589212455239796706e-02
-1.093189234595279974e-01
-1.696189792729048407e-01
-2.252405396909255564e-01
-2.747234179551063527e-01
-3.168540740124643484e-01
-3.504831391591041734e-01
-3.747730598110114997e-01
-3.891139446668492319e-01
-3.930521002488687743e-01
-3.865686272685652236e-01
-3.697460027227805757e-01
-3.430180827829339973e-01
-3.070883527376256916e-01
-2.627823767814645439e-01
-2.112763397410778177e-01
-1.538237165040502730e-01
-9.185189742849507455e-02
-2.692853362432313241e-02
3.935849101236608971e-02
1.053690265633797224e-01
1.694576096797948683e-01
2.300688379874496203e-01
2.857236610738178584e-01
3.350215116016732608e-01
3.768208911845957187e-01
4.100499327627327162e-01
4.339105001952381913e-01
4.478483262615819416e-01
4.514301269961826235e-01
4.446279545949834433e-01
4.275194331245433244e-01
4.004746903770598498e-01
3.641377115559754074e-01
3.192490015741452636e-01
2.668771160697794853e-01
2.081758970304640466e-01
1.444568305076452119e-01
7.718650543596189406e-02
7.857133413503497588e-03
-6.196202116691035267e-02
-1.306843945250617256e-01
-1.967760766372304571e-01
-2.587575973209463864e-01
-3.152025447361258559e-01
-3.649006841958815639e-01
-4.067079805276485049e-01
-4.397063389212967355e-01
-4.632231549413577953e-01
-4.766846050754017794e-01
-4.799083088056830260e-01
-4.728316433578452216e-01
-4.556585460161852175e-01
-4.288973245164988124e-01
-3.931437957712021203e-01
-3.493337387678231432e-01
-2.985093700748645551e-01
-2.418653527468332676e-01
-1.807792843195576982e-01
-1.166577705379887586e-01
-5.099980532393533217e-02
1.466733066346731507e-02
7.885187122888054345e-02
1.401068670551858797e-01
1.970232655385833476e-01
2.483805486975348420e-01
2.930257782550812484e-01
3.299866831409146162e-01
3.585305384246098570e-01
3.780019027186702352e-01
3.880919875925855078e-01
3.886194667477079756e-01
3.796201285635997791e-01
3.614323299012925372e-01
3.344696057596768246e-01
2.994644456404404465e-01
2.572714041384776551e-01
2.088882084687844476e-01
1.555222578493518915e-01
9.841816136869246945e-02
3.895207693590641007e-02
-2.144782518568177920e-02
-8.135069126458549515e-02
-1.393217245974336382e-01
-1.939442111879247088e-01
-2.439269235258747504e-01
-2.880329612494455516e-01
-3.251616801110474020e-01
-3.544333448819134702e-01
-3.750333394444976820e-01
-3.864719860308049038e-01
-3.884050977930526560e-01
-3.806879433041715499e-01
-3.635155271530148280e-01
-3.371606771396111757e-01
-3.022391535278539099e-01
-2.595274255946524722e-01
-2.099478649036571887e-01
-1.546837407801390785e-01
-9.496482579096399146e-02
-3.217835831150826775e-02
3.221127615744556055e-02
9.672751279679303593e-02
1.598717061860324140e-01
2.201556748018448917e-01
2.762039203330304837e-01
3.266999050284979944e-01
3.704430511765891554e-01
4.064633129965379288e-01
4.338510201495239249e-01
4.520031563302129296e-01
4.604842795564543234e-01
4.590289886355765070e-01
4.477261999358592703e-01
4.267426338496961291e-01
3.965724485872691440e-01
3.578976982514477934e-01
3.115318820431939306e-01
2.585752738095153935e-01
2.001830893227773966e-01
1.376842246255282065e-01
7.251223525813643711e-02
6.127173169857391688e-03
-5.995224749085414917e-02
-1.242055242793752012e-01
-1.851869455717027324e-01
-2.414984333100725633e-01
-2.918303137455204310e-01
-3.350894555421729537e-01
-3.702388758111692102e-01
-3.965247883163379172e-01
-4.133824736924328613e-01
-4.203961284116833896e-01
-4.175294523190711260e-01
-4.048322161706352507e-01
-3.826800245200525086e-01
-3.516770861341869669e-01
-3.125482497144729255e-01
-2.663377964735878511e-01
-2.141570382873513867e-01
-1.572924439639949989e-01
-9.715963850193309881e-02
-3.520025176530378053e-02
2.707711727830053317e-02
8.815623076944106851e-02
1.465886604191435905e-01
2.009785765059621809e-01
2.500019604590221767e-01
2.925516731927599312e-01
3.275775770812376364e-01
3.542808440114115776e-01
3.720674494225141848e-01
3.804620521028108104e-01
3.793564025932639749e-01
3.687330155644905072e-01
3.488598975941317182e-01
3.202495724453076620e-01
2.835148486593377370e-01
2.395868773388171169e-01
1.894742582300751876e-01
1.343567449585865714e-01
7.556814701020148073e-02
1.447533030961967171e-02
-4.745433075376792598e-02
-1.087320735731491794e-01
-1.679008029588234252e-01
-2.235333784859043771e-01
-2.742517796417079934e-01
-3.188630915403101174e-01
-3.562287274298445716e-01
-3.854299458165459935e-01
-4.057665381441678543e-01
-4.166411906863173864e-01
-4.178387527816946889e-01
-4.092530375012300992e-01
-3.910601867597587322e-01
-3.637312602837489139e-01
-3.278335223682978250e-01
-2.842906248388821777e-01
-2.341289257171168814e-01
-1.785478189977731389e-01
-1.189366472530092589e-01
-5.671760536538430347e-02
6.581082522561704229e-03
6.940209675297698277e-02
1.302260574543574467e-01
1.875773581258540768e-01
2.400257617327098969e-01
2.863494044701321295e-01
3.253958886602558720e-01
3.562252589805435798e-01
3.781551457487376533e-01
3.905947610385127611e-01
3.933444876802531520e-01
3.863368472007123744e-01
3.697578046236513760e-01
3.441162982874904630e-01
3.100055601230695124e-01
2.683637131128822073e-01
2.202493009804784019e-01
1.668698201419271943e-01
1.096322464914282202e-01
4.997417352795063827e-02
-1.057065229825421282e-02
-7.043488908134898363e-02
-1.280905301266014318e-01
-1.820650577373103540e-01
-2.309259306452233762e-01
-2.734597969343028345e-01
-3.085400073066438265e-01
-3.352414219966644016e-01
-3.529373105392586418e-01
-3.610878200559015094e-01
-3.595607412435339878e-01
-3.483905596431686180e-01
-3.278458206442966816e-01
-2.985593211101273403e-01
-2.612437889644779743e-01
-2.169454552960803362e-01
-1.668528202438805952e-01
-1.122694350608009484e-01
-5.468679171981966070e-02
4.380431419748975763e-03
6.337547071950538902e-02
1.207236574990647182e-01
1.749173183452537028e-01
2.245646205929621164e-01
2.683188632744915036e-01
3.050954685590863136e-01
3.339348085572204639e-01
3.540670005052127811e-01
3.650658896977233558e-01
3.665885650058553491e-01
3.586804895136637139e-01
3.415808395579555956e-01
3.157164876691240796e-01
2.818711745567790139e-01
2.408999340526267741e-01
1.939314776936973406e-01
1.422376817047430464e-01
8.716530773443187385e-02
3.020976105549544322e-02
-2.711604241688259087e-02
-8.330272276731198744e-02
-1.368432722823840209e-01
-1.863049660906888061e-01
-2.304130641465957918e-01
-2.679402878087338014e-01
-2.979331844687722608e-01
-3.195973582975251137e-01
-3.323080612142848000e-01
-3.358168312910310149e-01
-3.299608364991998277e-01
-3.149469421448970463e-01
-2.912074969152615433e-01
-2.593291741603334644e-01
-2.202563882083995450e-01
-1.750050404118052572e-01
-1.248180724603295544e-01
-7.108390678473297530e-02
-1.523521159094087807e-02
4.119073458283206701e-02
9.664485025231228654e-02
1.496306676486591769e-01
1.986873128389088361e-01
2.424356961700748769e-01
2.797107449320541672e-01
3.094038176790832040e-01
3.306917043339145934e-01
3.429535930754783468e-01
3.457175469653874789e-01
3.389146278175361182e-01
3.225695788812719123e-01
2.970494458415771089e-01
2.629763701319030034e-01
2.210990249362114746e-01
1.725208952098014059e-01
1.184232211205984431e-01
6.018297800624372584e-02
-6.695481357559263103e-04
-6.257324030754185529e-02
-1.238837111337027785e-01
-1.829449885317167013e-01
-2.381771223496225165e-01
-2.880627678327047914e-01
-3.311679975488268646e-01
-3.663275951675480924e-01
-3.924490134213185488e-01
-4.087523614162189567e-01
-4.147283023019319170e-01
-4.100129283621986032e-01
-3.947182468731451621e-01
-3.690779111891813180e-01
-3.336763820519231816e-01
-2.894171444943591798e-01
-2.373159076093824815e-01
-1.787596546117171670e-01
-1.152282420771364446e-01
-4.835542216620947187e-02
2.007797850318659982e-02
8.828298607946716281e-02
1.544617889413995027e-01
2.168204294137709987e-01
2.737042923751684675e-01
3.235987024397917189e-01
3.650833763992533676e-01
3.971030818763008341e-01
4.187100403371457613e-01
4.292888341424268006e-01
4.285748091511776270e-01
4.164356857834723424e-01
3.932454156581424165e-01
3.595275699769189259e-01
3.161153734392796455e-01
2.641854803802006213e-01
2.050026626581969991e-01
1.401574366605351507e-01
7.133775547432497088e-02
3.268574351133479716e-04
-7.098096410509896481e-02
-1.406983882773180095e-01
-2.070031194316661605e-01
-2.680978108267434434e-01
-3.223568679387494029e-01
-3.683651117826378663e-01
-4.048010969073684295e-01
-4.307641245283400089e-01
-4.454982876644087431e-01
-4.485682562320140176e-01
-4.399514738152874860e-01
-4.197438932151668634e-01
-3.885446646631454670e-01
-3.471313793058133923e-01
-2.965374259413376956e-01
-2.381423452542937302e-01
-1.733938879524030696e-01
-1.039946386846628545e-01
-3.174020690310064285e-02
4.153894129664259527e-02
1.139628911010770462e-01
1.836708525808450343e-01
2.489440064120324037e-01
3.081211849733234143e-01
3.597236812602162548e-01
4.025458785313436039e-01
4.354687078841181780e-01
4.577949772530638395e-01
4.690021690402970123e-01
4.688332672659831779e-01
4.574488208729126093e-01
4.351077289000597759e-01
4.024993221968302670e-01
3.604990491499018290e-01
3.101695145731602210e-01
2.528825047579368324e-01
1.900645464715160493e-01
1.233324738643775120e-01
5.438886999938752354e-02
-1.505155375769362536e-02
-8.325363431654642099e-02
-1.484988217471401306e-01
-2.092159262159709598e-01
-2.639052048000309902e-01
-3.112215955791430844e-01
-3.501035512247714365e-01
-3.795660854752367364e-01
-3.990117067866232325e-01
-4.080384873728433170e-01
-4.064626461972737914e-01
-3.945199608150757875e-01
-3.725370892564612291e-01
-3.412243219677120187e-01
-3.014950422003264130e-01
-2.544073884835600374e-01
-2.013111310643962426e-01
-1.436065160591284418e-01
-8.283629174052364874e-02
-2.062223317580702542e-02
4.142131108179203380e-02
1.016977812506842938e-01
1.586291910514363579e-01
2.108033796169834773e-01
2.569056486992575827e-01
2.957557797545065092e-01
3.264758495747865918e-01
3.482613653193062930e-01
3.606538804880898841e-01
3.634082927572881427e-01
3.564469079097003501e-01
3.400852845552708725e-01
3.147234383001229485e-01
2.810747831013507003e-01
2.400557694522100771e-01
1.926881029474247775e-01
1.402508144633116682e-01
8.407176861422582803e-02
2.558919937194170657e-02
-3.368355110059406687e-02
-9.224087871285191476e-02
-1.486016700261013068e-01
-2.012999274094700586e-01
-2.490185584904665295e-01
-2.905471925794330113e-01
-3.247850525713287251e-01
-3.509337954387004022e-01
-3.682700187970620043e-01
-3.763890593476613144e-01
-3.751262731302518194e-01
-3.644588801681685197e-01
-3.447693680766863444e-01
-3.165339507640352323e-01
-2.805186387447928809e-01
-2.377187998032397331e-01
-1.892154861536043953e-01
-1.363399968108449656e-01
-8.047742028171978035e-02
-2.309075326400211736e-02
3.429220692911538748e-02
9.016234937747391598e-02
1.430794281669189871e-01
1.916269255799640803e-01
2.345599576480097426e-01
2.707836978528312954e-01
2.993043459631614667e-01
3.194666556871972318e-01
3.307050330061844789e-01
3.327521990354238568e-01
3.256149640116490218e-01
3.094158763667937961e-01
2.846716417591244053e-01
2.520021222623700652e-01
2.122686890199538823e-01
1.665658994275727167e-01
1.160524008646595107e-01
6.210259811065288460e-02
6.146225048997422391e-03
-5.033922224462550332e-02
-1.058277859471665749e-01
-1.588140901697201457e-01
-2.078879486568618873e-01
-2.516706903723786581e-01
-2.889549529021833152e-01
-3.187160336889416357e-01
-3.400195835011681211e-01
-3.522922297477482090e-01
-3.550705372007119109e-01
-3.481756341865125393e-01
-3.317475124082589488e-01
-3.060299704223812256e-01
-2.716747080122674518e-01
-2.294598463591803750e-01
-1.803804237556665413e-01
-1.256869200746226767e-01
-6.668282064161168421e-02
-4.862172388378382948e-03
5.822149173285762203e-02
1.210005601878618720e-01
1.818900164677055287e-01
2.393320282027477930e-01
2.919175714455537474e-01
3.382911335766722871e-01
3.772811792268218056e-01
4.079555416215132624e-01
4.294670075093631745e-01
4.413528716113743755e-01
4.432895480569940538e-01
4.352083491866984843e-01
4.173891534554587945e-01
3.902010540797824500e-01
3.543920817347364638e-01
3.108525512118220369e-01
2.606439896766978848e-01
2.050739614966550217e-01
1.454926448656730376e-01
8.339783473940398650e-02
2.034431733683494947e-02
-4.212052916901543043e-02
-1.024607253133793527e-01
-1.591669299711062635e-01
-2.109008786037396277e-01
-2.563968593421153130e-01
-2.945608234416532412e-01
-3.245717218049728459e-01
-3.456865973337324149e-01
-3.575425670859564420e-01
-3.599435615453350223e-01
-3.529134111769058890e-01
-3.368433540270094895e-01
-3.122053371145190326e-01
-2.798144139208353920e-01
-2.406431504858481674e-01
-1.957922300168561947e-01
-1.465869570695037538e-01
-9.438712001560389808e-02
-4.064510517621400254e-02
1.314259342479928705e-02
6.551032758255104227e-02
1.150502723482080825e-01
1.603837347374437172e-01
2.003264273516993654e-01
2.337935384580802634e-01
2.598516408905933162e-01
2.778620937376778954e-01
2.872584658329149221e-01
2.878192151135401389e-01
2.795075932657447026e-01
2.624599321217999659e-01
2.371660217892941347e-01
2.041893797405727184e-01
1.643846039842671303e-01
1.187700479052082869e-01
6.846096617138286433e-02
1.477940777032848985e-02
-4.091851252473155398e-02
-9.720536066576990208e-02
-1.526117168944320923e-01
-2.056980170334856695e-01
-2.550944266124801629e-01
-2.994580891583531468e-01
-3.376367355640628176e-01
-3.685969541647899916e-01
-3.914388030791009498e-01
-4.055810696599309040e-01
-4.105183115152559736e-01
-4.060824981703863301e-01
-3.923265689405237566e-01
-3.694553083879874578e-01
-3.380517472247746014e-01
-2.987798538934427484e-01
-2.525752842209652016e-01
-2.005606820108862820e-01
-1.439346620971235780e-01
-8.409093289176361452e-02
-2.245858480128504198e-02
3.949507672623209231e-02
1.002751450800873911e-01
1.584244973607704665e-01
2.125955101424641391e-01
2.614736083248714316e-01
3.039449148472035400e-01
3.390482682386146696e-01
3.659380956564136644e-01
3.841057464186211634e-01
3.931249996000041325e-01
3.928739514293457802e-01
3.834740548860144926e-01
3.651675282338153750e-01
3.385598938888154663e-01
3.043423826079019179e-01
2.634370820435680827e-01
2.169601056652297189e-01
1.660868513548425796e-01
1.121723268110432770e-01
5.661096435271417704e-02
8.268762828969045131e-04
-5.372961073436677282e-02
-1.056416932447561408e-01
-1.536154409703414103e-01
-1.963926163555669291e-01
-2.328823382150773114e-01
-2.621490785429401171e-01
-2.833843585704762802e-01
-2.962374943371735014e-01
-3.004659028350147310e-01
-2.958270010559580498e-01
-2.820782059919615392e-01
