BVP Green Neck Signal
1.184816735691722987e-02
-1.476439193946553659e-02
-4.113559081398382444e-02
-6.701698441314017651e-02
-9.216012788343706796e-02
-1.163165763713770451e-01
-1.392403342908091202e-01
-1.606957784144696921e-01
-1.804505145210478223e-01
-1.982849196342462150e-01
-2.139931288293750178e-01
-2.273770867912704718e-01
-2.382706999787030100e-01
-2.465179242503839629e-01
-2.519945546937829017e-01
-2.546124320466532365e-01
-2.542981826045725979e-01
-2.510394244996467794e-01
-2.448432766224456769e-01
-2.357624452641725876e-01
-2.239038767322531764e-01
-2.093912592974377096e-01
-1.924165644245246498e-01
-1.731942133468101497e-01
-1.519754944008138986e-01
-1.290577963275664763e-01
-1.047485029688446645e-01
-7.939275967980938264e-02
-5.334843573943297279e-02
-2.698128784536409780e-02
-6.674324719665091984e-04
2.521894915453205127e-02
5.031858589124801190e-02
7.427799654901330595e-02
9.676890627203103834e-02
1.174978794004800237e-01
1.361844978970678244e-01
1.526110058545835924e-01
1.665837584263952509e-01
1.779544353545197966e-01
1.866405580037130141e-01
1.925772519610290390e-01
1.957785374204046858e-01
1.962900303420697379e-01
1.941990301221999116e-01
1.896564745846670563e-01
1.828269302866009915e-01
1.739306142770192243e-01
1.632110243999654597e-01
1.509308690665654429e-01
1.373836520558514851e-01
1.228668814838094620e-01
1.076867915184952229e-01
9.215330382788539110e-02
7.656733104503080090e-02
6.121450164685108414e-02
4.637397260876952726e-02
3.228689436026022097e-02
1.917662330705481588e-02
7.237810984889016599e-03
-3.385907298110743188e-03
-1.256358127967532358e-02
-2.022429202791997671e-02
-2.632651056629584790e-02
-3.085945224932688108e-02
-3.386970464739913478e-02
-3.541585744691529147e-02
-3.560545209225472740e-02
-3.457117458351339351e-02
-3.246298897153594709e-02
-2.946464413456918729e-02
-2.576538823900226260e-02
-2.156853112208257511e-02
-1.708493174304252099e-02
-1.252232756804031420e-02
-8.081794902770996630e-03
-3.961050453977630476e-03
-3.330315258897823677e-04
2.643464366037473652e-03
4.828280934811438226e-03
6.121893412167436245e-03
6.434527524001444447e-03
5.721938013894446555e-03
3.967134954067769864e-03
1.175174019885471925e-03
-2.598603534856420982e-03
-7.288127629431569512e-03
-1.278675956559484524e-02
-1.896234232599613989e-02
-2.566903597530045128e-02
-3.272847691259449937e-02
-3.995633730796199767e-02
-4.715531245487741135e-02
-5.411952862488314531e-02
-6.064559948399064065e-02
-6.653695991830944900e-02
-7.160006572791279000e-02
-7.566629887128446807e-02
-7.858439225232828618e-02
-8.022103192880426781e-02
-8.049095216877429071e-02
-7.932070405887520215e-02
-7.668802836784029131e-02
-7.260810229087928669e-02
-6.711919901151446044e-02
-6.032374741174922200e-02
-5.233873463545592186e-02
-4.332681242164166530e-02
-3.348573131578894135e-02
-2.302563356117210552e-02
-1.219170764295800409e-02
-1.236053535720083724e-03
9.585124495568324646e-03
2.001230920948916803e-02
2.979462862837088666e-02
3.870939990359682781e-02
4.654219028261219471e-02
5.312348336447588609e-02
5.832190520898453828e-02
6.202969012943521793e-02
6.421550123264592458e-02
6.486753357672056519e-02
6.403526933190543946e-02
6.182288517763956381e-02
5.835546208224820508e-02
5.382664552363393418e-02
4.844707911338279327e-02
4.245873704193949688e-02
3.613297705889669670e-02
2.974391455351309971e-02
2.357186874670499227e-02
1.789759781584158299e-02
1.297847875597164108e-02
9.048844891871892643e-03
6.325905516188003522e-03
4.961510364478326565e-03
5.088483747210287983e-03
6.778558687578381016e-03
1.004019646875701707e-02
1.485744972024445956e-02
2.112232122024616104e-02
2.870008281867150735e-02
3.740002289146689141e-02
4.697049814738715051e-02
5.714452157558595757e-02
6.759942220706401106e-02
7.799631430643015617e-02
8.798355288580671230e-02
9.719489966121651336e-02
1.052681705434177911e-01
1.118645001301554476e-01
1.166533028032580022e-01
1.193462180921018440e-01
1.197056471121452220e-01
1.175161522264910469e-01
1.126597641793335436e-01
1.050514955012911283e-01
9.468137913890203872e-02
8.163423499382442550e-02
6.602330236466522062e-02
4.808231436003887471e-02
2.808705397740849513e-02
6.379390053025332796e-03
-1.661105131233938520e-02
-4.043567305896802327e-02
-6.457211072322248391e-02
-8.847148072682294029e-02
-1.115686331097213990e-01
-1.332757381731979052e-01
-1.530082835292303767e-01
-1.702120876366957358e-01
-1.843453564900090214e-01
-1.949195205419427257e-01
-2.015241757781118248e-01
-2.037772729577190800e-01
-2.014389414422700642e-01
-1.943273201333348688e-01
-1.823640085473998973e-01
-1.656302866973463628e-01
-1.442490737271558410e-01
-1.185341479039495743e-01
-8.888045494213449305e-02
-5.578090048807383267e-02
-1.988725871707939380e-02
1.811696841518183401e-02
5.742388330121696999e-02
9.717041486390047555e-02
1.364665665143863504e-01
1.743766647071064435e-01
2.099662030803660651e-01
2.423442193254388977e-01
2.706407763468345329e-01
2.940590952516756729e-01
3.119340383144560414e-01
3.236402033774525844e-01
3.287650435171078911e-01
3.270015408826263958e-01
3.181770289872118962e-01
3.023724971080338220e-01
2.797266216048031606e-01
2.506344968914104299e-01
2.156244529326246107e-01
1.753325638046497881e-01
1.306081721837736853e-01
8.233954813295321640e-02
3.154109964269423416e-02
-2.070407152317313426e-02
-7.330182377937856375e-02
-1.251361908565758740e-01
-1.750969123609413536e-01
-2.221579492653831533e-01
-2.653419084886300960e-01
-3.037536529900153881e-01
-3.366796286151998996e-01
-3.634517811026411471e-01
-3.836255447687859088e-01
-3.968915570166849927e-01
-4.030532238017317526e-01
-4.021740440006488781e-01
-3.943735416529681181e-01
-3.799848544417755436e-01
-3.594768987318114339e-01
-3.333922301695114165e-01
-3.024503182961389425e-01
-2.674041931151310281e-01
-2.290880953835733314e-01
-1.883904913907248069e-01
-1.462001350985924208e-01
-1.034039454543152353e-01
-6.088272179624288488e-02
-1.944107921523790389e-02
2.016995006475385405e-02
5.725626835475546017e-02
9.127789925363481716e-02
1.217324529315165216e-01
1.482753101239414339e-01
1.706784277668544347e-01
1.887812173759329248e-01
2.026119532947913138e-01
2.122416879620096231e-01
2.178706062364202667e-01
2.197991779846698857e-01
2.183644573338712758e-01
2.140082474062183215e-01
2.071944240979788077e-01
1.984185731636879946e-01
1.882021608813397862e-01
1.770599375956318222e-01
1.654822702078050378e-01
1.539511588598669878e-01
1.428883450357743279e-01
1.326638701714924207e-01
1.236133919120995239e-01
1.159596418923315442e-01
1.098960073532489617e-01
1.055199491036445392e-01
1.028424359967451823e-01
1.018389649815255871e-01
1.023667268501459865e-01
1.042527278172098587e-01
1.072577140831892095e-01
1.110796481357308602e-01
1.154021562120330496e-01
1.198629694767568005e-01
1.240889009392243669e-01
1.277108312480149666e-01
1.303636913326295110e-01
1.316962364462395396e-01
1.314131244093020290e-01
1.292360264092051181e-01
1.249541879379435089e-01
1.184275627962449173e-01
1.095469665829363337e-01
9.832259171972843048e-02
8.479999805672973345e-02
6.910764943977062980e-02
5.146517297670949453e-02
3.211856829798416524e-02
1.141345443860189435e-02
-1.027468540898553336e-02
-3.253123124972860658e-02
-5.489633686602937018e-02
-7.690656469221658631e-02
-9.809325684245161214e-02
-1.179871354451767357e-01
-1.361513135937331975e-01
-1.521882488894672758e-01
-1.657212625659311434e-01
-1.764689220137184988e-01
-1.841824694589279110e-01
-1.886916061785821330e-01
-1.899261938497311952e-01
-1.878463112954126824e-01
-1.825413619898991202e-01
-1.741463277737531068e-01
-1.628665058576362623e-01
-1.490015350193587274e-01
-1.328712394095444282e-01
-1.148739180786272074e-01
-9.543643449169549042e-02
-7.500497163593011773e-02
-5.405293161692271975e-02
-3.305285938993804407e-02
-1.245943244818196842e-02
7.280125164744935713e-03
2.575507042385383888e-02
4.260880095306208287e-02
5.750335862598374148e-02
7.019358981560278044e-02
8.047249064310378619e-02
8.819458634718403689e-02
9.331034530794715676e-02
9.579340761789437164e-02
9.571994383081999791e-02
9.321009211632544367e-02
8.843006002328085424e-02
8.162151682099746952e-02
7.303986084658534161e-02
6.298976028084850298e-02
5.179791984010192335e-02
3.979732996702523007e-02
2.733168036120142697e-02
1.474256322901871044e-02
2.346882715825600839e-03
-9.550351305317368936e-03
-2.067226222988144402e-02
-3.079309726468054675e-02
-3.970087231013504081e-02
-4.725292356680010908e-02
-5.334126388819212389e-02
-5.789613216053408201e-02
-6.092063938293302422e-02
-6.243350951561250223e-02
-6.251865344657281387e-02
-6.129418549143807876e-02
-5.890209660057724866e-02
-5.553205340184250854e-02
-5.138172491704233458e-02
-4.667005187245311382e-02
-4.162765473615286788e-02
-3.648200287496596028e-02
-3.145359129573263579e-02
-2.675884127209020302e-02
-2.258213638600755496e-02
-1.908919758727321142e-02
-1.642132334367244623e-02
-1.466542935844953287e-02
-1.389542073084998504e-02
-1.412497482270246886e-02
-1.533096085332095841e-02
-1.746208573228419381e-02
-2.040151254451285506e-02
-2.401866333042375345e-02
-2.813406978115828849e-02
-3.253687062347957598e-02
-3.700255137343842760e-02
-4.127371123092855171e-02
-4.508766504252646051e-02
-4.817897592163947196e-02
-5.028037207288100358e-02
-5.113618067789799104e-02
-5.052147903491679276e-02
-4.822043956879357857e-02
-4.407131854152218642e-02
-3.795079438753015677e-02
-2.976805976836361528e-02
-1.952082204162755574e-02
-7.227968782295160488e-03
7.008049844208335752e-03
2.302240049155823698e-02
4.061673944419476323e-02
5.949822819980959965e-02
7.935301129770448714e-02
9.981074524146653359e-02
1.204567650582363536e-01
1.408660230490245691e-01
1.605847794135563389e-01
1.791547029268208968e-01
1.961339357104969761e-01
2.110942099283260875e-01
2.236286691761647238e-01
2.333998024543795236e-01
2.400890141399446565e-01
2.434610268487563678e-01
2.433527854920041200e-01
2.396407751807752839e-01
2.323312542849952089e-01
2.214638514177475204e-01
2.071769405413068921e-01
1.896988485624804266e-01
1.692912026910997902e-01
1.463266089344114895e-01
1.212058018172690599e-01
9.438240284290717874e-02
6.636066293588339937e-02
3.765215159720437105e-02
8.789130631940941449e-03
-1.969210384013225790e-02
-4.727915690154256556e-02
-7.348367836713791401e-02
-9.783766305326820067e-02
-1.199530400367280064e-01
-1.394654846522465075e-01
-1.560881841124274194e-01
-1.696162693940899135e-01
-1.798765425004851259e-01
-1.868175256573699483e-01
-1.904238438917764120e-01
-1.907565716351421747e-01
-1.879617169396004817e-01
-1.822081048677894888e-01
-1.737499815418497850e-01
-1.628674211348367928e-01
-1.498726447566239017e-01
-1.351154058646503175e-01
-1.189494492720422208e-01
-1.017377057469326801e-01
-8.384547206022048560e-02
-6.562243833799036308e-02
-4.739914042074030304e-02
-2.949604504635499475e-02
-1.218724908242235609e-02
4.269147270407010197e-03
1.965090701149112967e-02
3.378205009376136769e-02
4.649990153514327318e-02
5.769838095935633793e-02
6.729155123481762868e-02
7.522394288908763882e-02
8.148138841083242545e-02
8.605916141266091446e-02
8.899058663644532352e-02
9.032312182860759153e-02
9.011994179846639919e-02
8.846661146405231102e-02
8.545301080575878894e-02
8.118516399808359263e-02
7.577538874371764210e-02
6.934176737599363760e-02
6.201101148960417447e-02
5.391155400382044438e-02
4.517849482919197163e-02
3.594967694010363368e-02
2.636574859560674583e-02
1.657177369839350767e-02
6.713516064531724684e-03
-3.061086201239704777e-03
-1.260318996728686421e-02
-2.176568627827215469e-02
-3.040435239118562810e-02
-3.837678404330534254e-02
-4.555207691009294235e-02
-5.180465175987832710e-02
-5.702105949523659373e-02
-6.110901639150365799e-02
-6.398259712715030634e-02
-6.558929279143206614e-02
-6.589269471133454847e-02
-6.487856575066301701e-02
-6.257331329736866288e-02
-5.901290962682494839e-02
-5.427703824101492297e-02
-4.846743806934556559e-02
-4.170524093613287020e-02
-3.414887461117872836e-02
-2.596360445585117749e-02
-1.733765640844001088e-02
-8.471386275219656981e-03
4.330231889658874705e-04
9.169878585700192569e-03
1.753486835661884763e-02
2.534100609331561144e-02
3.241103089835498802e-02
3.858503504292767200e-02
4.374027974196164487e-02
4.776349096733450289e-02
5.058873986305260223e-02
5.217791148233609511e-02
5.251733493746974651e-02
5.164809589252571803e-02
4.962293447676933977e-02
4.653925740576748959e-02
4.252203244137039290e-02
3.771046864986139779e-02
3.227695693462150767e-02
2.639961457235959902e-02
2.026657001210720177e-02
1.407242860627115968e-02
8.006962217555400191e-03
2.247430557887630104e-03
-3.033164839268598714e-03
-7.690786244036754149e-03
-1.160117560595624354e-02
-1.465809102006469973e-02
-1.680243613937802000e-02
-1.798615800441352025e-02
-1.820499842706401611e-02
-1.748612321074668324e-02
-1.587350625769207157e-02
-1.345666155648945865e-02
-1.033481888481360862e-02
-6.632337890668842800e-03
-2.492528854117416481e-03
1.937643832492287090e-03
6.501694309829775253e-03
1.104199063514023534e-02
1.541064892886348167e-02
1.946751631979009439e-02
2.308212517872255953e-02
2.615391731491826383e-02
2.859013201563155582e-02
3.033028750346725144e-02
3.134080041838721575e-02
3.160205654774314588e-02
3.113835640330577664e-02
2.998477881120404503e-02
2.820608970018113199e-02
2.589305401269421936e-02
2.314473635867563689e-02
2.008643067094826457e-02
1.684956085383525898e-02
1.357227001199673606e-02
1.039888531262751076e-02
7.471331594078239186e-03
4.921683594422110106e-03
2.878811163770767130e-03
1.452038586317412269e-03
7.317858387890924243e-04
7.978754680089137144e-04
1.691218639518579127e-03
3.441753186235546602e-03
6.047659690735692969e-03
9.474841179545220177e-03
1.367758313074727769e-02
1.856751240010658111e-02
2.404418985107523860e-02
2.998416532588804584e-02
3.623941089435379903e-02
4.265688698206962504e-02
4.906662935499503386e-02
5.529405096491542965e-02
6.116664204375270308e-02
6.651422470910892115e-02
7.117162491422208970e-02
7.499661215540995296e-02
7.785450803351971760e-02
7.963640681359483720e-02
8.026380588305104258e-02
7.966968600961328584e-02
7.783549671543875392e-02
7.475867044424758245e-02
7.046914264934368843e-02
6.503714631434143190e-02
5.854379944979649225e-02
5.111440932750831861e-02
4.288929497760408938e-02
3.402810327847011901e-02
2.471566419019367161e-02
1.514060044480652206e-02
5.503280787947151254e-03
-3.991974837778283075e-03
-1.314650622844038171e-02
-2.176941568255642834e-02
-2.967515211764334970e-02
-3.670652705920403325e-02
-4.271727473622272120e-02
-4.758659094114421617e-02
-5.123034607959846970e-02
-5.357514538890321282e-02
-5.459715541752253182e-02
-5.429226239378729529e-02
-5.268491636578091081e-02
-4.984280706500534425e-02
-4.584332412694975406e-02
-4.080450588163565123e-02
-3.486126416038059367e-02
-2.816377345323376608e-02
-2.088647319224287702e-02
-1.320738139144379646e-02
-5.314502356129346961e-03
2.599891529449576202e-03
1.034695263223029196e-02
1.774361104974391673e-02
2.460990885431565967e-02
3.078516584577654230e-02
3.611765854162619221e-02
4.047087654997381240e-02
4.373511542876594438e-02
4.580746807294540368e-02
4.661754077175869759e-02
4.611072815312532852e-02
4.424994469321191781e-02
4.103052588029464792e-02
3.645493601880254314e-02
3.055629291025704908e-02
2.338334494474642727e-02
1.499853154832264494e-02
5.490898315615208580e-03
-5.044985426759284255e-03
-1.649244663007507633e-02
-2.872296028512455468e-02
-4.159873635899545563e-02
-5.496306879756541336e-02
-6.865539456384932293e-02
-8.250044653921036197e-02
-9.631467204279686722e-02
-1.099098354941128175e-01
-1.230876994414245446e-01
-1.356486065257261897e-01
-1.473918299606633842e-01
-1.581160314744848583e-01
-1.676249970279120871e-01
-1.757343063893860025e-01
-1.822634829234865694e-01
-1.870574601394583147e-01
-1.899770486698960925e-01
-1.909018660815871571e-01
-1.897565539334419571e-01
-1.864769480628309939e-01
-1.810523237527592033e-01
-1.735070223994384930e-01
-1.638930393617648029e-01
-1.523316071186084086e-01
-1.389595073739998965e-01
-1.239724337900018208e-01
-1.076067026866411730e-01
-9.011910693510180592e-02
-7.181963376671292310e-02
-5.302867512472812794e-02
-3.408718612968705819e-02
-1.535101606269812478e-02
2.829181674709125432e-03
2.011855058010851571e-02
3.618848433604959086e-02
5.076116242441434945e-02
6.359747906962270880e-02
7.449425956455722753e-02
8.335391461171239025e-02
9.010570883460192193e-02
9.479014083230068166e-02
9.753681564465011000e-02
9.852480050091126651e-02
9.808316475386881506e-02
9.657683710952860712e-02
9.447341419178036104e-02
9.232692882559849490e-02
9.071668283359027307e-02
9.029825825681978002e-02
9.174284038589340662e-02
9.571241740525440744e-02
1.028608382430007684e-01
1.138074170295082926e-01
1.290489643080388882e-01
1.490462697703626715e-01
1.740850564677103862e-01
2.042882589025183104e-01
2.396873622858313457e-01
2.799910703486596653e-01
3.248198880376652609e-01
3.735332396857555803e-01
4.252354292922030932e-01
4.789396393993154422e-01
5.333364793517365587e-01
5.870297130006956188e-01
6.384772404848682026e-01
6.859871788631665135e-01
7.278562463795908988e-01
7.623617639043192007e-01
7.877812863807628352e-01
8.025348179329244713e-01
8.051960817804636461e-01
7.944412246595498051e-01
7.693722473440756104e-01
7.292243861888304535e-01
6.736324310254747649e-01
6.026842871869227958e-01
5.166314689107870395e-01
4.163875075218493316e-01
3.030750853373103126e-01
1.782199450869358659e-01
4.382820802306988672e-02
-9.797817229025761188e-02
-2.446351612584461155e-01
-3.934365837111638564e-01
-5.415613327168563584e-01
-6.860443709735534190e-01
-8.239360845749030826e-01
-9.524178068299029576e-01
-1.068721118040321327e+00
-1.170347311910640675e+00
-1.255152883030804523e+00
-1.321135963610088782e+00
-1.366959014606110800e+00
-1.391528616023680609e+00
-1.394234323717386426e+00
-1.375134197220555299e+00
-1.334465910923625209e+00
-1.273250200299814505e+00
-1.192806036926212787e+00
-1.094836667310723266e+00
-9.816043026318818088e-01
-8.554776740061839080e-01
-7.192227120969804099e-01
-5.757619756471192840e-01
-4.280698291124424015e-01
-2.791994434914083500e-01
-1.321775342668379538e-01
1.019300748376317234e-02
1.452060231727348993e-01
2.704285775172616257e-01
3.838676841985975141e-01
4.836595442014526292e-01
5.685811875800214077e-01
6.376943723238189810e-01
6.904357882147569292e-01
7.268762362133973642e-01
7.472258009260321909e-01
7.522879929966270751e-01
7.431421636123358709e-01
7.210916636056818874e-01
6.878373462488551748e-01
6.451434653814687170e-01
5.949546736549802262e-01
5.393029614274431616e-01
4.801899769817547514e-01
4.195591968053803966e-01
3.593176645111587075e-01
3.011131165063419823e-01
2.464590395409056167e-01
1.966705615043857214e-01
1.526717999854948216e-01
1.152944869894513003e-01
8.494342640283775170e-02
6.179201786514176148e-02
4.582254337883355511e-02
3.662271988576226017e-02
3.370356857922232607e-02
3.630836156078233457e-02
4.352804069108894003e-02
5.439547975228661153e-02
6.781949990267041595e-02
8.269596156733917403e-02
9.795831030516209681e-02
1.125627597910497241e-01
1.255425898541220608e-01
1.361094417918204125e-01
1.435215398461087422e-01
1.472765836309420096e-01
1.470232811976017462e-01
1.425293397140401097e-01
1.338485145050599956e-01
1.210957294169410781e-01
1.046041511657063439e-01
8.485154079222566315e-02
6.238053899979748712e-02
3.789508441429419172e-02
1.212826591585301761e-02
-1.414300577776696037e-02
-4.011134245116455138e-02
-6.499094837680592651e-02
-8.805677064559692957e-02
-1.086032333261639921e-01
-1.260523905031078751e-01
-1.399198119429953258e-01
-1.497947521293029882e-01
-1.554732222670827391e-01
-1.568003199266565784e-01
-1.538000295324193911e-01
-1.466340781890013156e-01
-1.355292396613926864e-01
-1.209002060464807876e-01
-1.032036052613293647e-01
-8.299573633606249778e-02
-6.091355989792760633e-02
-3.760940697766930463e-02
-1.377779706444015768e-02
9.880191956882684173e-03
3.269751499959938634e-02
5.403607894883528939e-02
7.329292149726518435e-02
8.998204184264681216e-02
1.036490185005186498e-01
1.139645564869346955e-01
1.207112193428740432e-01
1.237249433582871122e-01
1.230205476403526954e-01
1.186590456527291670e-01
1.108198470250923440e-01
9.979359016501765378e-02
8.590486149063274179e-02
6.959177919677049517e-02
5.132130465423060534e-02
3.159776906659442913e-02
1.096239708743488445e-02
-1.004529903583281474e-02
-3.089910765275116072e-02
-5.107818452319407704e-02
-7.011078547920170101e-02
-8.757610596934893576e-02
-1.030809048175596460e-01
-1.163401371686879626e-01
-1.271009623255834609e-01
-1.351962104384229757e-01
-1.405521145311435516e-01
-1.431256813182495979e-01
-1.429923570001822297e-01
-1.402633545779002344e-01
-1.351132299084820132e-01
-1.277891143090533477e-01
-1.185542404920543330e-01
-1.077301783919542705e-01
-9.565637440854982132e-02
-8.268357352023081308e-02
-6.917612310700763101e-02
-5.549473649050432750e-02
-4.197746963256340780e-02
-2.895420800660931243e-02
-1.671935721411548642e-02
-5.522413645776503774e-03
4.404132678280861871e-03
1.290409002093785562e-02
1.984816407818254524e-02
2.515817830373356934e-02
2.882395931625696822e-02
3.085269781955569252e-02
3.132404772718723474e-02
3.034408476867030829e-02
2.804984139639943308e-02
2.462162619015355325e-02
2.024664081525026638e-02
1.513435379458243080e-02
9.502510264883507959e-03
3.564454040646564126e-03
-2.472970540068600634e-03
-8.408479925876921959e-03
-1.407326895114569161e-02
-1.931187398543815492e-02
-2.399653030706517393e-02
-2.804230631526462292e-02
-3.137535922999835220e-02
-3.397253801770048348e-02
-3.583224677723979845e-02
-3.697613621692143193e-02
-3.746361049123062698e-02
-3.736065462894653383e-02
-3.675584960608770102e-02
-3.574775831351723054e-02
-3.443517608056072266e-02
-3.291722137167858719e-02
-3.129043984997348371e-02
-2.963125328725345342e-02
-2.800651537469202312e-02
-2.646469711966181054e-02
-2.502117624089388037e-02
-2.368309347376840873e-02
-2.241843328392743168e-02
-2.117579679931821945e-02
-1.988613605380037952e-02
-1.844709558099748292e-02
-1.675042757436193130e-02
-1.466894482022657563e-02
-1.206566639863637484e-02
-8.804407830489935707e-03
-4.750745553095424289e-03
2.269643057791308205e-04
6.236376314266905974e-03
1.337194092133758144e-02
2.170653977445383132e-02
3.126778119299803566e-02
4.207184138302794835e-02
5.407825795413376269e-02
6.721392161843907365e-02
8.137622616428569211e-02
9.639773518987364287e-02
1.120971898482496787e-01
1.282393479082837573e-01
1.445562889640687743e-01
1.607627624804731092e-01
1.765338643044049305e-01
1.915381788804620677e-01
2.054349196481549122e-01
2.178773699719845636e-01
2.285288615371436349e-01
2.370778795977586950e-01
2.432211299929590287e-01
2.467089289663133844e-01
2.473275216505675389e-01
2.448983913026088477e-01
2.393335660055631309e-01
2.305667707699809166e-01
2.186243075327371221e-01
2.035976632987928914e-01
1.856189620609487445e-01
1.649289796290548671e-01
1.417924871785429808e-01
1.165499399514805801e-01
8.959780164858717477e-02
6.135275987750357651e-02
3.228677917700056160e-02
2.882358310619607088e-03
-2.637060363858043793e-02
-5.497645793154261329e-02
-8.245201227725003357e-02
-1.083530445050090024e-01
-1.322466978413700811e-01
-1.537634575503128986e-01
-1.725856076516683046e-01
-1.884294691794231313e-01
-2.011176747878709037e-01
-2.104996039726898249e-01
-2.165144411489999809e-01
-2.191785509212867133e-01
-2.185420457932182037e-01
-2.147630964932231712e-01
-2.080265789138439070e-01
-1.985820428302728369e-01
-1.867374509081014822e-01
-1.728172022771438110e-01
-1.571981930853100506e-01
-1.402698467481436895e-01
-1.224323982598022192e-01
-1.040963445049553487e-01
-8.566680825756087247e-02
-6.752651047633959069e-02
-5.005104339083095433e-02
-3.357703761829654299e-02
-1.840226200835030912e-02
-4.803947194659260317e-03
7.018055532269249115e-03
1.688625710201802077e-02
2.468625588958763689e-02
3.036977667036166312e-02
3.391237731625948437e-02
3.537958787614863682e-02
3.486328879861508301e-02
3.250831653629419893e-02
2.851783896399788520e-02
2.310965219601452542e-02
1.655504654723990998e-02
9.141171783324998634e-03
1.169965981061400762e-03
-7.039514684565798333e-03
-1.516973174786069058e-02
-2.291519677039231123e-02
-2.997493964494060692e-02
-3.607678023796061922e-02
-4.098356762211612797e-02
-4.447374748387895177e-02
-4.639533189301270344e-02
-4.662013379504197780e-02
-4.507345346159440103e-02
-4.174898938759855765e-02
-3.666042239618760856e-02
-2.990629195193451884e-02
-2.161505004851896339e-02
-1.195937921322581983e-02
-1.171406522713967432e-03
1.050470107536817174e-02
2.277922724082913353e-02
3.534592816475459753e-02
4.789125041739639849e-02
6.009133508655689626e-02
7.162540854236214283e-02
8.219646080397724486e-02
9.151712143277168643e-02
9.933312651230315204e-02
1.054394220769232643e-01
1.096471238440616391e-01
1.118467441787113908e-01
1.119614677796329644e-01
1.099658173265227051e-01
1.059145029980445712e-01
9.988124718905731780e-02
9.202307508900685329e-02
8.253276920350234580e-02
7.163857999820670563e-02
5.962694390694824043e-02
4.679414855329820655e-02
3.346905125102946771e-02
1.999503591812337722e-02
6.714093786592136882e-03
-6.034314386442600833e-03
-1.791570311494144335e-02
-2.863254816193146896e-02
-3.790508537339280087e-02
-4.548821745387750942e-02
-5.119992204684613996e-02
-5.487476680219288000e-02
-5.642959551354297804e-02
-5.582247484962011425e-02
-5.305612262772495258e-02
-4.821851665149035071e-02
-4.141572367439967650e-02
-3.282847796835561965e-02
-2.267675278553964863e-02
-1.120678568191715678e-02
1.282680259016863965e-03
1.448440054256595541e-02
2.807073011311974481e-02
4.170282117986714304e-02
5.504814726275544107e-02
6.778792917517839633e-02
7.960947049160037314e-02
9.024366219069980544e-02
9.944682211591057697e-02
1.070068964500991565e-01
1.127823511040248888e-01
1.166482806072716705e-01
1.185552217039085310e-01
1.184998918592356509e-01
1.165126558382154343e-01
1.127022507950186242e-01
1.071935179514635628e-01
1.001658500416230529e-01
9.183372540501485992e-02
8.242554965997450633e-02
7.220320484489986534e-02
6.143387875464612763e-02
5.038652580243756229e-02
3.933127492906651756e-02
2.852771279104229785e-02
1.820744878324888349e-02
8.594197591026510319e-03
-1.324697899168000154e-04
-7.824393806872749837e-03
-1.435755790763552746e-02
-1.967361668055746249e-02
-2.372955576265605576e-02
-2.653870151747413086e-02
-2.815651208131617067e-02
-2.865909921543693256e-02
-2.818065398683046452e-02
-2.686810359136298371e-02
-2.490005319472246570e-02
-2.248000559190309333e-02
-1.981670582633372757e-02
-1.713319425683431513e-02
-1.465471301692421353e-02
-1.259675056169174377e-02
-1.116673533091401722e-02
-1.056058255033708558e-02
-1.093692418985988020e-02
-1.244424886545300417e-02
-1.518687678695166722e-02
-1.923077625017194370e-02
-2.462087299577162686e-02
-3.133290045425827369e-02
-3.932473620431188588e-02
-4.850079571535884093e-02
-5.871670921704880836e-02
-6.980950928560820945e-02
-8.155395236423144956e-02
-9.370887513852700634e-02
-1.060010636435402831e-01
-1.181265688487927318e-01
-1.297759774688056755e-01
-1.406232992637907742e-01
-1.503390066007004866e-01
-1.586058417982023350e-01
-1.651189119429145036e-01
-1.695869162907069072e-01
-1.717727302073939755e-01
-1.714557150848358691e-01
-1.684772439054988691e-01
-1.627443591560814029e-01
-1.541929746330099604e-01
-1.428720461281322851e-01
-1.288644678790743792e-01
-1.123341778966676363e-01
-9.353530649952430942e-02
-7.274842589434896145e-02
-5.035523309439652456e-02
-2.676810133018609622e-02
-2.438917361022422542e-03
2.213421980636945743e-02
4.645056930984280824e-02
7.000929760156249237e-02
9.231075647653451399e-02
1.128971232255840257e-01
1.313619941223875265e-01
1.473247671597043285e-01
1.605231067808507162e-01
1.707355717934293249e-01
1.778333392683021930e-01
1.818072528066543847e-01
1.826815177930555534e-01
1.806210714603263823e-01
1.758407496640607137e-01
1.686192440615383314e-01
1.593219487515180333e-01
1.483282406137775844e-01
1.360631981265843504e-01
1.229683116595784026e-01
1.094751296747507735e-01
9.600096162157001345e-02
8.295103328457115177e-02
7.066217384645831490e-02
5.944388643284440055e-02
4.954722635720008178e-02
4.113549251531872786e-02
3.434870553352522421e-02
2.922093119950840839e-02
2.574245661376880351e-02
2.385214832115171990e-02
2.340776542001851701e-02
2.425169125417008659e-02
2.616873501064743979e-02
2.891892057995509857e-02
3.225167486611318218e-02
3.589894774787603937e-02
3.959337641769967997e-02
4.308503705875364048e-02
4.613216347593868116e-02
4.851730184487688252e-02
5.006551615222050444e-02
5.061369674324583262e-02
5.005842502506066549e-02
4.832502550178938844e-02
4.537177325808031819e-02
4.121739963949316160e-02
3.589347336122700877e-02
2.948487317650273776e-02
2.210338696180722678e-02
1.388001447736175037e-02
4.982693835679142917e-03
-4.414488738573800475e-03
-1.412034908150782038e-02
-2.393466984212937881e-02
-3.365818263170680669e-02
-4.309373020595438919e-02
-5.204626254275138836e-02
-6.033845875078262116e-02
-6.780294744244827476e-02
-7.428652237115597468e-02
-7.966632534971096469e-02
-8.382691814692548593e-02
-8.668836856501294097e-02
-8.819163927709049167e-02
-8.829601716653166787e-02
-8.700190797898493811e-02
-8.431879372569342501e-02
-8.029319944608517834e-02
-7.499455887647998864e-02
-6.850772589739292928e-02
-6.095378996574309788e-02
-5.246136224488338884e-02
-4.318475695020877747e-02
-3.329499520169482835e-02
-2.297057762587446234e-02
-1.240825544036376453e-02
-1.807929978739880594e-03
8.626719387346907728e-03
1.868944086978946081e-02
2.817866290742161717e-02
3.690548291958602872e-02
4.468504054777253098e-02
5.135873684938183775e-02
5.678685667798354791e-02
6.084671045536636791e-02
6.346262026871901663e-02
6.457041210419341148e-02
6.415311867010667357e-02
6.222944269667249340e-02
5.883851860177861937e-02
5.407797196761982006e-02
4.805892523722151560e-02
4.093338909878358606e-02
3.288584623307190535e-02
2.411253919353491260e-02
1.484408192271737155e-02
5.318402677601091408e-03
-4.217516543798854184e-03
-1.350913765585571268e-02
-2.230612142483773264e-02
-3.037295533408394810e-02
-3.747890960420173501e-02
-4.342420254899250626e-02
-4.803620286871693179e-02
-5.116023242001170590e-02
-5.270193257074835130e-02
-5.258296040693057061e-02
-5.077823249572566144e-02
-4.731176752758084469e-02
-4.222833524923938486e-02
-3.564361366415078752e-02
-2.769189045777079722e-02
-1.855087346983707447e-02
-8.440338058321230144e-03
2.408642340340985330e-03
1.372700824483436173e-02
2.523600565305959137e-02
3.665040703011726575e-02
4.767839398173728122e-02
5.803330135933774253e-02
6.745135957940404103e-02
7.567620514984733926e-02
8.248779440034069432e-02
8.770494288702999908e-02
9.116485294449376553e-02
9.277806031019371347e-02
9.247742417456755737e-02
9.025141348416847176e-02
8.615102363997455270e-02
8.024685829586292174e-02
7.268621446237659434e-02
6.364016240849165729e-02
5.331817401518929717e-02
4.197509795874825728e-02
2.987419461457764547e-02
1.730762846927435747e-02
4.576450626861596621e-03
-8.022158626876149667e-03
-2.019583062723327715e-02
-3.166012725976401210e-02
-4.217094289382903455e-02
-5.149852754860557991e-02
-5.945556293242661855e-02
-6.591012658579124828e-02
-7.074865181287676164e-02
-7.393949853286323204e-02
-7.548066582922903500e-02
-7.541998367721920726e-02
-7.387365629155741298e-02
-7.097378018023364765e-02
-6.691738670607721984e-02
-6.192581393749797131e-02
-5.624173399825670855e-02
-5.013856777019556898e-02
-4.389175575564326776e-02
-3.777435895614767586e-02
-3.205808173939144606e-02
-2.699005936070513617e-02
-2.278011753118305838e-02
-1.962369607246339936e-02
-1.764090772121610501e-02
-1.692015033954414466e-02
-1.749605078257607249e-02
-1.931746748435885647e-02
-2.231232761081694549e-02
-2.631449464091296236e-02
-3.111658810669105935e-02
-3.647062828432610926e-02
-4.206063627031909197e-02
-4.755967930843972569e-02
-5.260734946531921141e-02
-5.682806733070660393e-02
-5.985591981473230988e-02
-6.134224521795409585e-02
-6.094909345426522546e-02
-5.841033301717209886e-02
-5.349498221018433169e-02
-4.603325212992140369e-02
-3.596902956915311311e-02
-2.327489866049257256e-02
-8.062567346766458948e-03
9.485136752992274350e-03
2.911634342910342926e-02
5.044465749574482405e-02
7.305720327831834171e-02
9.644260368257513705e-02
1.200367134834934429e-01
1.432557359282977116e-01
1.654762214245555918e-01
1.860734381322554365e-01
2.044579887346296698e-01
2.200606356842067790e-01
2.323645865856336090e-01
2.409670273452131639e-01
2.454958129745817286e-01
2.457411153386406533e-01
2.415896434020469996e-01
2.330163892951434002e-01
2.201966842797954127e-01
2.033490357932206116e-01
1.828594837407031548e-01
1.592187091789484532e-01
1.329708552927955367e-01
1.047860894858402420e-01
7.535626512014330369e-02
4.540794300958032187e-02
1.569040834077323893e-02
-1.306846588850543202e-02
-4.019674201029359295e-02
-6.504056372542536824e-02
-8.706400268886514693e-02
-1.058126333665111302e-01
-1.209013866813884869e-01
-1.321286960841121794e-01
-1.393353979845771140e-01
-1.425218923922325631e-01
-1.418044560378320662e-01
-1.373562590936812100e-01
-1.295058840950544243e-01
-1.186148507044683248e-01
-1.051230486640294115e-01
-8.953018417835975629e-02
-7.234600709935846974e-02
-5.410609426996608462e-02
-3.534905846852370165e-02
-1.658433790876421426e-02
1.702044599810745122e-03
1.904986917448509703e-02
3.507938389796471518e-02
4.943155304997461780e-02
6.182751810946410242e-02
7.205603960673440112e-02
7.993851338900288817e-02
8.539966833860934692e-02
8.838967185744689425e-02
8.892575594994360511e-02
8.708459433435364327e-02
8.296230838257237505e-02
7.671733267458540062e-02
6.852328958365989930e-02
5.857889561088126112e-02
4.710624135349049391e-02
3.433034319056895572e-02
2.048393516470372808e-02
5.801177943462229591e-03
-9.492688831026786442e-03
-2.518115780735889070e-02
-4.105440514195597690e-02
-5.692797979616614351e-02
-7.262472810397686829e-02
-8.798999341641927652e-02
-1.028922601533354686e-01
-1.172084265040402445e-01
-1.308466643267129359e-01
-1.437240600174551908e-01
-1.557737700596225627e-01
-1.669463220511454848e-01
-1.771947748039769399e-01
-1.864796857566004273e-01
-1.947634083833877372e-01
-2.019991301049349763e-01
-2.081296254112838806e-01
-2.130900512427660320e-01
-2.167819386163118422e-01
-2.190959426804506838e-01
-2.198946248440893370e-01
-2.190070054154980572e-01
-2.162540550860556909e-01
-2.114260352757503236e-01
-2.043036628581666736e-01
-1.946721767798608171e-01
-1.823224957782687006e-01
-1.670580288094121457e-01
-1.487470757133080856e-01
-1.272814997402983150e-01
-1.026318624090513804e-01
-7.487253838569427056e-02
-4.411430425782116721e-02
-1.063406940696947321e-02
2.523052388389420558e-02
6.303987640196119513e-02
1.022130373238916701e-01
1.421385348067943366e-01
1.820839792725758854e-01
2.212715843071959010e-01
2.589019226813615293e-01
2.941441040964428155e-01
3.261754802719224466e-01
3.542418490431085143e-01
3.776175796874916557e-01
3.956754381295887191e-01
4.079391015812057764e-01
4.139809583407559890e-01
4.136164802151077735e-01
4.067642264565838328e-01
3.934961378127924125e-01
3.741313107620736211e-01
3.490449401350614322e-01
3.188541088744908936e-01
2.842828851810836333e-01
2.461443004496196296e-01
2.054018263799163857e-01
1.630392545256080239e-01
1.200839303596874519e-01
7.758281818906480332e-02
3.653873331618155695e-02
-2.124700971369528416e-03
-3.751523174742500688e-02
-6.892888594353477338e-02
-9.575451189462287627e-02
-1.175125021943110859e-01
-1.339699988755886084e-01
-1.449510479055658441e-01
-1.505358771876984247e-01
-1.509368911859914342e-01
-1.464730301287862357e-01
-1.376726410148222390e-01
-1.251015946910417342e-01
-1.094440578503309003e-01
-9.144814509579290984e-02
-7.186938426263178581e-02
-5.147751054108162805e-02
-3.103590374173035432e-02
-1.122774256357573532e-02
7.309760401832581314e-03
2.400864575992277261e-02
3.845260983732014248e-02
5.026118080752786654e-02
5.921779702388311334e-02
6.520432302693768278e-02
6.817240680589882473e-02
6.823305042340566118e-02
6.552881786541536746e-02
6.030292438556727336e-02
5.286207775310256679e-02
4.353350125670271686e-02
3.269238139138228721e-02
2.072016132076934247e-02
7.986511904494376923e-03
-5.146750520055675890e-03
-1.834084105375585055e-02
-3.131635169613363606e-02
-4.380889074774298175e-02
-5.562549917603027555e-02
-6.662308343902510754e-02
-7.669005533344197545e-02
-8.579836602674728585e-02
-9.393810639042393662e-02
-1.011545188358504155e-01
-1.075333077155176398e-01
-1.131734991852697131e-01
-1.182099970835567421e-01
-1.227841946389179456e-01
-1.270379836594353051e-01
-1.311136341899457602e-01
-1.351423219170430623e-01
-1.392212294373608994e-01
-1.434380320451175972e-01
-1.478314209415074743e-01
-1.524003725899488182e-01
-1.571196977479182577e-01
-1.618896672549409443e-01
-1.665924534370891719e-01
-1.710569716273110941e-01
-1.750667583759633328e-01
-1.783917190053791735e-01
-1.807600323830940159e-01
-1.818909888680225462e-01
-1.815046288764342874e-01
-1.793216649322961764e-01
-1.750767108077908307e-01
-1.685546962468471854e-01
-1.595553157386156717e-01
-1.479478089641107497e-01
-1.336668626569022522e-01
-1.166808327039929039e-01
-9.707753730881832355e-02
-7.497726683599435782e-02
-5.058633339500739901e-02
-2.419611965474405962e-02
3.875804992574743806e-03
3.322019321944927328e-02
6.340323964369830312e-02
9.395967700894033992e-02
1.243915415686369930e-01
1.542015885919277018e-01
1.829022147435230283e-01
2.100098859514529792e-01
2.350811013424542462e-01
2.577160812895292752e-01
2.775374562607272333e-01
2.942598428859418691e-01
3.076264460537042611e-01
3.174525146339109427e-01
3.236359848396508365e-01
3.261011751327340669e-01
3.248777121810347279e-01
3.200287135760072621e-01
3.116761468080862518e-01
3.000129646805489436e-01
2.852493996849078672e-01
2.676623519613586244e-01
2.475506745422659527e-01
2.252395593054614953e-01
2.010875857768929797e-01
1.754587082908163065e-01
1.487343346794465504e-01
1.213017001946193468e-01
9.354589548943639810e-02
6.584914623983900706e-02
3.858958041797752592e-02
1.212295189754871230e-02
-1.320348149020500982e-02
-3.706704330827284566e-02
-5.917950128935401538e-02
-7.926461124972884742e-02
-9.710341695292111497e-02
-1.124993088681495584e-01
-1.252975544004948649e-01
-1.354051019939636058e-01
-1.427458387137006679e-01
-1.473210487897529120e-01
-1.491634871189472245e-01
-1.483493791865075628e-01
-1.450222481241245920e-01
-1.393406081455901835e-01
-1.315260229132858560e-01
-1.218268397563227329e-01
-1.105152553492283890e-01
-9.790223973606669572e-02
-8.430447639877666766e-02
-7.005423141133709786e-02
-5.549057962989747267e-02
-4.094569996318079413e-02
-2.673987330155117720e-02
-1.318730059016993798e-02
-5.641849219465066775e-04
1.087132366510691096e-02
2.089165480563582450e-02
2.932436423307653584e-02
3.601104710144274745e-02
4.086118173519481811e-02
4.381796082190379804e-02
4.486101564029882499e-02
4.403894823181662976e-02
4.141517939821086347e-02
3.711525327432768639e-02
3.129708847522034293e-02
2.414224018084418222e-02
1.587915950646478364e-02
6.744469265945564514e-03
-3.001205308935515903e-03
-1.308413439713841837e-02
-2.323076404766342279e-02
-3.316819325314179084e-02
-4.262597943170903791e-02
-5.135740385170955991e-02
-5.912948397585589960e-02
-6.572962568691859131e-02
-7.099036039375156149e-02
-7.475541285422959703e-02
-7.692281514159450551e-02
-7.742356900719331303e-02
-7.621653805511251212e-02
-7.332508896502992757e-02
-6.878669776474199971e-02
-6.269408527434786049e-02
-5.517521317829323507e-02
-4.637841326563518773e-02
-3.650121677939256737e-02
-2.575080280309897940e-02
-1.436052082986187008e-02
-2.581260826274940981e-03
9.333443074064723399e-03
2.112396758045674561e-02
3.253090201598519277e-02
4.331059925652901849e-02
5.323054135773858803e-02
6.207301584870859174e-02
6.966069678473406357e-02
7.582655460167829486e-02
8.045103913191986589e-02
8.344980588487091455e-02
8.476152013927772122e-02
8.438981116603277988e-02
8.235350626243553851e-02
7.872272910843093607e-02
7.360757923193304852e-02
6.713565402068498444e-02
5.948546869540154158e-02
5.084686872825150417e-02
4.143444088601583308e-02
3.148303658399161792e-02
2.123033225870942647e-02
1.092130350308137890e-02
8.016867206859417186e-04
-8.895811639322593126e-03
-1.794970315882832984e-02
-2.614980813233740847e-02
-3.332387472419282709e-02
-3.930994256607818482e-02
-4.398625210010682213e-02
-4.726741518889079202e-02
-4.908578287181256800e-02
-4.943397467888668850e-02
-4.832045982454392929e-02
-4.579646678261397458e-02
-4.195387884255148692e-02
-3.689831461095222087e-02
-3.078247905774925824e-02
-2.377143724230724314e-02
-1.605162972542321931e-02
-7.830854294464131837e-03
6.800471877855627373e-04
9.261528679223359622e-03
1.769217725162471749e-02
2.575988390070991368e-02
3.326230842591170606e-02
4.000523587953415394e-02
4.582780721614287955e-02
5.057943783552764500e-02
5.414272310983043318e-02
5.643686915886114014e-02
5.739510300200522525e-02
5.700657647011680290e-02
5.527773560920059420e-02
5.225137461823551460e-02
4.801243660775993821e-02
4.265739820897301166e-02
3.632752052603425985e-02
2.917826905363714307e-02
2.138403700306075461e-02
1.314228354915507671e-02
4.653737022246938471e-03
-3.871197318135856033e-03
-1.221918090386795060e-02
-2.018386273441126477e-02
-2.756784646880650752e-02
-3.417988066722166957e-02
-3.985917414302280609e-02
-4.445599037790925329e-02
-4.784910313280989896e-02
-4.995567848039039055e-02
-5.070510348271256573e-02
-5.008202289352046976e-02
-4.809170467884923972e-02
-4.477381021340384043e-02
-4.021668025647874567e-02
-3.452052489273495228e-02
-2.783592160888211792e-02
-2.033300208303780165e-02
-1.220303556547618594e-02
-3.668726216739092577e-03
5.042547785203603181e-03
1.368959424066068173e-02
2.202579758977656413e-02
2.981236029846564412e-02
3.682276158399935828e-02
4.283768371044164441e-02
4.768036439803471221e-02
5.119261612752045582e-02
5.325406255795193944e-02
5.380658139467432016e-02
5.280907647137246530e-02
5.030310862006266703e-02
4.636776767148354655e-02
4.112807891569477542e-02
3.478851592689586464e-02
2.757027159717059112e-02
1.976341582847419495e-02
1.169071781340723197e-02
3.695200640032127171e-03
-3.843436918749311426e-03
-1.054231225482732230e-02
-1.602461260970271945e-02
-1.991678992474504861e-02
-2.187419955615771405e-02
-2.160781148514375610e-02
-1.884640660711065646e-02
-1.342090929352974908e-02
-5.216244272261494688e-03
5.814242474508887759e-03
1.957932515025454304e-02
3.595566220868662288e-02
5.467371557706964674e-02
7.538289416793299280e-02
9.766771094057233316e-02
1.209756734836960196e-01
1.447279449275949148e-01
1.682577280319107194e-01
1.908470626711039897e-01
2.117670588691392408e-01
2.302655940641019916e-01
2.455928062003055745e-01
2.570577597911016254e-01
2.640057871130244704e-01
2.658474096631622263e-01
2.621470765201416864e-01
2.525092914655464038e-01
2.367430526914457989e-01
2.147892576126272934e-01
1.866981367690863369e-01
1.527891309632541939e-01
1.134418696772983015e-01
6.926686189023736895e-02
2.103109170036970149e-02
-3.041721859453344612e-02
-8.402215613996240340e-02
-1.386870858576905730e-01
-1.932264383963689658e-01
-2.463913242328852060e-01
-2.969424425791034050e-01
-3.436711791819072048e-01
-3.853842654952233659e-01
-4.210321517972672734e-01
-4.496729847404538627e-01
-4.704664309845838499e-01
-4.828652408301647991e-01
-4.863952516410345872e-01
-4.808773943577515642e-01
-4.663649639574926065e-01
-4.430350650038600291e-01
-4.114330150825079024e-01
-3.721903284409613932e-01
-3.261773536770737891e-01
-2.744620931596089553e-01
-2.181723283459193197e-01
-1.586142435977041798e-01
-9.713188679381147550e-02
-3.508658932337101882e-02
2.614528764362418489e-02
8.522493415119697380e-02
1.409469909139991206e-01
1.921451878539887081e-01
2.378470053155664343e-01
2.772570280984850144e-01
3.096744294507040585e-01
3.347253268617770283e-01
3.521230262702509939e-01
3.618237450431799895e-01
3.640170400807129503e-01
3.589719992256595882e-01
3.472332076337088513e-01
3.294183269632382505e-01
3.062716023467642046e-01
2.786650589648715926e-01
2.474906764183771313e-01
2.136999474377791752e-01
1.782584188735362452e-01
1.420952000218337341e-01
1.061007471169517352e-01
7.113230440570779411e-02
3.790903042748813845e-02
7.107583782054084469e-03
-2.072202007196902174e-02
-4.517094670017555297e-02
-6.587928238572197948e-02
-8.268074704183267509e-02
-9.546904635499275926e-02
-1.042492439889159128e-01
-1.091568669210049997e-01
-1.103592309286147155e-01
-1.081440077235097247e-01
-1.028371914624488515e-01
-9.480706235270412729e-02
-8.447396236371931821e-02
-7.226399301528919905e-02
-5.861661803681807864e-02
-4.397519788515681649e-02
-2.876535803709449196e-02
-1.338976185567662160e-02
1.760481075961975797e-03
1.634987154248757416e-02
3.006306528816489465e-02
4.262739815593581671e-02
5.382827287770584196e-02
6.346739361586110906e-02
7.141785791951427154e-02
7.757958309304946454e-02
8.189220451527148836e-02
8.435215230114286034e-02
8.496925903128817181e-02
8.380966347604672240e-02
8.096163515700618984e-02
7.653925154329377367e-02
7.069537498368774764e-02
6.359051932230756765e-02
5.541462185375457122e-02
4.636969374654713316e-02
3.666536922836217266e-02
2.652330195281315389e-02
1.616575347298078794e-02
5.811775677688513740e-03
-4.321095846548340599e-03
-1.402563719286343581e-02
-2.311180367358532661e-02
-3.139538080235263623e-02
-3.872353938640085702e-02
-4.495790464361798522e-02
-4.998233329450491730e-02
-5.371956908197608044e-02
-5.610206548200937643e-02
-5.710812456009873445e-02
-5.673815206253877280e-02
-5.501662937976150441e-02
-5.201227557496398979e-02
-4.780319638929935583e-02
-4.250644349610512018e-02
-3.625876419584359023e-02
-2.921123687161749499e-02
-2.154254726713416418e-02
-1.343598974350139648e-02
-5.087725475468627551e-03
3.299280727144790915e-03
1.152373169512814488e-02
1.938787884341526199e-02
2.669646666165167992e-02
3.327401680769079273e-02
3.895617391364127047e-02
4.359533632177412660e-02
4.707987558154894114e-02
4.930716401820273848e-02
5.021876480981589397e-02
4.978229231094874474e-02
4.798824604850029235e-02
4.487857107644723648e-02
4.050632664294013391e-02
3.496821158283108799e-02
2.838795155266139736e-02
2.090489824484756398e-02
1.269505106006386247e-02
3.941350503672785485e-03
-5.155167368817615767e-03
-1.438169510489823409e-02
-2.352477675904657978e-02
-3.236981817919266924e-02
-4.070331408698892039e-02
-4.832773330310975030e-02
-5.505649720635379801e-02
-6.071656317586573287e-02
-6.517064143362379103e-02
-6.829042066931723109e-02
-6.998882036556824948e-02
-7.020845132917856446e-02
-6.891206200486475753e-02
-6.611764718884638459e-02
-6.185603042938015578e-02
-5.620330458373663102e-02
-4.926982531756685102e-02
-4.118244152378196937e-02
-3.211489527497971008e-02
-2.225130446700331055e-02
-1.180138432952707560e-02
-9.952121891044808655e-04
9.933371133423263624e-03
2.074038104399296770e-02
3.118054149477537951e-02
4.102070699178807928e-02
5.003787654064412865e-02
5.802144744043113284e-02
6.480134367852836974e-02
7.021846313545210272e-02
7.415955823078063114e-02
7.655167763118848889e-02
7.734262271552819201e-02
7.654896765194599273e-02
7.420497755351383729e-02
7.039382358156197339e-02
6.524384262015783809e-02
5.889844241093646765e-02
5.155127498335776437e-02
4.340866523310126651e-02
3.469609156068136774e-02
2.565762097104059419e-02
1.653757922849267981e-02
7.578277746935004749e-03
-9.793395021050355781e-04
-8.914989473225465658e-03
-1.602946052254709819e-02
-2.213626980237135000e-02
-2.709852713065757923e-02
-3.079399395220265567e-02
-3.314234172549721663e-02
-3.410815896321559015e-02
-3.367183828261062495e-02
-3.187438766954497904e-02
-2.877491433750128252e-02
-2.446754242698047366e-02
-1.908583568817911330e-02
-1.277304868177805801e-02
-5.708241527500480111e-03
1.918650990457191133e-03
9.907494745373557343e-03
1.804608377700982202e-02
2.612281554017270579e-02
3.393259633496770178e-02
4.127284770379974904e-02
4.795815475883232620e-02
5.382445778943571735e-02
5.871691677055621006e-02
6.252244490218936135e-02
6.514252120632373078e-02
6.651000911566534723e-02
6.659881277369801567e-02
6.539460023712206915e-02
6.293351650950529397e-02
5.926991448888803415e-02
5.448511371776908890e-02
4.869749609867322915e-02
4.203340308655164476e-02
3.465050761751237163e-02
2.671819786031014166e-02
1.841445831038324155e-02
9.929680265639305448e-03
1.454515262621585044e-03
-6.824863929089021453e-03
-1.472425280192043821e-02
-2.207230988494583712e-02
-2.871725678706530532e-02
-3.451427850601946484e-02
-3.935422771002043685e-02
-4.314299034288263807e-02
-4.581130981217391290e-02
-4.732964607273738855e-02
-4.767838924978056586e-02
-4.688320966626175618e-02
-4.498970347159329114e-02
-4.206582148948376232e-02
-3.821703991207110046e-02
-3.355624109144613593e-02
-2.822505410782078644e-02
-2.237833009003954016e-02
-1.617765258675010753e-02
-9.796424828069688964e-03
-3.408516709263878855e-03
2.818209376664247007e-03
8.718901401574198629e-03
1.414070213725958369e-02
1.895312269490860915e-02
2.303222346055450176e-02
2.628918483415234458e-02
2.865320190251666177e-02
3.007472846103051434e-02
3.054577227058305477e-02
3.006763795018985164e-02
2.868222825565428652e-02
2.645328853321831514e-02
2.346124324006806927e-02
1.982067883990452917e-02
1.565247482404631685e-02
1.109745615823477458e-02
6.307703086302145559e-03
1.437159285931356202e-03
-3.356433499599267151e-03
-7.916056932215795316e-03
-1.209744650551244742e-02
-1.576395831010194565e-02
-1.879138321759821900e-02
-2.108396158775046464e-02
-2.255307154863876035e-02
-2.314504899367891833e-02
-2.282812272704133616e-02
-2.158826431075368951e-02
-1.945381791908536162e-02
-1.646238825028686903e-02
-1.268660419982725086e-02
-8.222142477097875088e-03
-3.176596770246896059e-03
2.312853996630381652e-03
8.103407028506252885e-03
1.404026255648787441e-02
1.996032874048413869e-02
2.570212705631230027e-02
3.110900668984826339e-02
3.602652926813735418e-02
4.031952655977212585e-02
4.386685515919720724e-02
4.656056370775334824e-02
4.832962912800026212e-02
4.911209664202510067e-02
4.888287750779284069e-02
4.764507652645449953e-02
4.541740882211560415e-02
4.226375467002296132e-02
3.825840466817905655e-02
3.350573642551887138e-02
2.813431046526498891e-02
2.228049120120674867e-02
1.610347389501862875e-02
9.767196893557844595e-03
3.438644537738411774e-03
-2.712626334591249772e-03
-8.521519386601641294e-03
-1.383834487875396264e-02
-1.851795752744731655e-02
-2.243920156737920502e-02
-2.550222067153806726e-02
-2.761956260999349350e-02
-2.874565383765097237e-02
-2.884598301948682053e-02
-2.791998979968995237e-02
-2.599879190768553811e-02
-2.312584478965382107e-02
-1.938688971622090640e-02
-1.487876097970845281e-02
-9.721581241810066734e-03
-4.058307871160389199e-03
1.963083018628088670e-03
8.178276261899781324e-03
1.441891505947813165e-02
2.051827740377992759e-02
2.631132575952922076e-02
3.163791958724160303e-02
3.635845031823244089e-02
4.033969086263235193e-02
4.347281299058518289e-02
4.567540790050692023e-02
4.687624624697549203e-02
4.704856931582637736e-02
4.617921660947801876e-02
4.428633949057594887e-02
4.142372036975287136e-02
3.765555556041361163e-02
3.308654415483400918e-02
2.783401431124459674e-02
2.203317434782440382e-02
1.584061516771827216e-02
9.415967978781599954e-03
2.927882227945613480e-03
-3.452328597741794597e-03
-9.559903913611078954e-03
-1.523832268474668676e-02
-2.033659333173050421e-02
-2.473055555767690594e-02
-2.830559458204426337e-02
-3.097108377998879919e-02
-3.266809241545285541e-02
-3.334752184824774784e-02
-3.300378337252605349e-02
-3.164719683826117125e-02
-2.931368958733673175e-02
-2.607475104096738244e-02
-2.201012617912022351e-02
-1.723347879588479209e-02
-1.187135248163363570e-02
-6.062645363618033439e-03
3.571964782825634566e-05
6.264657382574964628e-03
1.246040015425298880e-02
1.845745191716048617e-02
2.409703767201943486e-02
2.923072208565686420e-02
3.371477426897911966e-02
3.743141284864905105e-02
4.027394608100967610e-02
4.215651696495408690e-02
4.302691491483926628e-02
4.284191411353228257e-02
4.160094906070875564e-02
3.932245291540815979e-02
3.604814899132780665e-02
3.185927849932517625e-02
2.684545010826266953e-02
2.113088149956054984e-02
1.485591598187850117e-02
8.172266379644277032e-03
1.251870746746069039e-03
-5.730756471072736419e-03
-1.259725312004677557e-02
-1.916744756964051943e-02
-2.526840692681382033e-02
-3.074088841062540961e-02
-3.543055079904727095e-02
-3.921240982622083843e-02
-4.197671811089140337e-02
-4.363435243279630005e-02
-4.413696782385151396e-02
-4.344589827962520856e-02
-4.156741494737548753e-02
-3.853223705879083028e-02
-3.439220017479630714e-02
-2.924291058922781628e-02
-2.318876492793938565e-02
-1.636655086984529356e-02
-8.931557019745179141e-03
-1.047681201825273467e-03
7.102620484756473271e-03
1.533438886595993832e-02
2.346247120177265971e-02
3.130162812789558102e-02
3.867433311861884909e-02
4.542105056225079207e-02
5.138747281473157735e-02
5.644941681426765556e-02
6.050176950470045889e-02
6.345725024529622060e-02
6.527173306312614165e-02
6.591093636462551364e-02
6.538079313033122453e-02
6.371398079490553368e-02
6.095904008607577751e-02
5.720448609398402079e-02
5.254709519923710798e-02
4.710768467870520698e-02
4.102387499687801253e-02
3.443823923378436930e-02
2.750600206090832861e-02
2.038438370160355548e-02
1.322842328126021261e-02
6.191552436002670939e-03
-5.782078930238509010e-04
-6.948426021475634373e-03
-1.279085157563725726e-02
-1.799784633680424906e-02
-2.247769972874007205e-02
-2.614915031580461457e-02
-2.896171989879160746e-02
-3.087238725097080777e-02
-3.186370344942730110e-02
-3.193898753343322322e-02
-3.111119025025879670e-02
-2.942256061166018816e-02
-2.692232578077741190e-02
-2.367811555446030364e-02
-1.977326707462285366e-02
-1.529640145509890241e-02
-1.035254676484761473e-02
-5.050580225770769094e-03
4.942994058275878080e-04
6.161222843834040022e-03
1.182924096859524696e-02
1.737784491408869009e-02
2.268696962374099069e-02
2.764367813774624288e-02
3.214175304290146223e-02
3.607999582582194220e-02
3.937550138131153815e-02
4.195056274926946965e-02
4.374559337863854341e-02
4.471895744200754530e-02
4.483689460485409950e-02
4.409458514120151440e-02
4.249540642208395058e-02
4.006334864431813914e-02
3.684386039556205444e-02
3.288937134477858126e-02
2.827808492885335728e-02
2.309561488929412487e-02
1.744027691957480281e-02
1.142428250598153880e-02
5.162329509544061681e-03
-1.222760454415548412e-03
-7.605927492350852970e-03
-1.386445534708619955e-02
-1.987832251817312629e-02
-2.553055868353200364e-02
-3.071822244636571164e-02
-3.534303232020293006e-02
-3.932089100801239301e-02
-4.258484054323546930e-02
-4.507399416912691997e-02
-4.675330289708434783e-02
-4.759642448076017301e-02
-4.759402219590020550e-02
-4.675835588694055717e-02
-4.510756447262539992e-02
-4.268411249132055690e-02
-3.953896160158918566e-02
-3.573495432913816744e-02
-3.135079079104801519e-02
-2.646829227577719712e-02
-2.118087740714789946e-02
-1.558614422563269798e-02
-9.783658326980871831e-03
-3.875741000850328744e-03
2.035829499837918735e-03
7.853845741193556107e-03
1.348294600287457817e-02
1.883426898964625160e-02
2.382854893858873946e-02
2.838972526582767691e-02
3.245747908225128653e-02
3.597793490708524333e-02
3.890796734724080719e-02
4.122112761401715286e-02
4.289518148930115959e-02
4.392696038651637547e-02
4.432144276817229916e-02
4.409315381604212575e-02
4.327218071980416803e-02
4.189181827916270418e-02
3.999827805636550770e-02
3.764355407642740181e-02
3.488425630749672490e-02
3.178489353978777160e-02
2.841130960983643400e-02
2.483365403660337672e-02
2.112409341112601521e-02
1.735520464609266456e-02
1.360028740360555086e-02
9.932381865940954901e-03
6.421756403003099460e-03
3.137283672171399529e-03
1.444509378750492845e-04
-2.497696873730472292e-03
-4.732006858010267408e-03
-6.511593981383555566e-03
-7.794956458765911131e-03
-8.547656777216453353e-03
-8.749371122865326131e-03
-8.383298550388693787e-03
-7.449816866538802249e-03
-5.958757818654366809e-03
-3.929684923669865548e-03
-1.402586477413302404e-03
1.577974801254338269e-03
4.947715756360297409e-03
8.630958477778253798e-03
1.254425335677796481e-02
1.658708430816121029e-02
2.065590853640743296e-02
2.463955853179882610e-02
2.842225080644288082e-02
3.189008348942973942e-02
3.493374465164680864e-02
3.744606348828945219e-02
3.933681572649971175e-02
4.052662361796765395e-02
4.094881779405958738e-02
4.056792474767555168e-02
3.935601616234159217e-02
3.731920382946357639e-02
3.448647767601138725e-02
3.090223634929311486e-02
2.665026549175458781e-02
2.182282164464934004e-02
1.653954168283978954e-02
1.093940089207991878e-02
5.168011395598878441e-03
-6.117142829437866372e-04
-6.233998667169345087e-03
-1.153467145893436428e-02
-1.635076173785836307e-02
-2.052672475230129384e-02
-2.392872539333035231e-02
-2.642892809621613659e-02
-2.793062952509242636e-02
-2.836143258174948778e-02
-2.766531080251961178e-02
-2.583503347523423421e-02
-2.287529085072161072e-02
-1.883177674137806457e-02
-1.378382963906977544e-02
-7.825766285773359462e-03
-1.097800100573836923e-03
6.249076458442918286e-03
1.403926956900317102e-02
2.207597037874714507e-02
3.015841531957984267e-02
3.807452081400358734e-02
4.561020640458073733e-02
5.256028916439244719e-02
5.872765005527662979e-02
6.392452646608536015e-02
6.799647640960101991e-02
7.079844892086864516e-02
7.222204148480813879e-02
7.219375602021604887e-02
7.065655069036536062e-02
6.761202037557635658e-02
6.307784283391937308e-02
5.711366496245831592e-02
4.982113870924349819e-02
4.131556015850531421e-02
3.176090088066504946e-02
2.133451954138057549e-02
1.023531886332024361e-02
-1.315139179613705744e-03
-1.309239909557399252e-02
-2.486408227266335286e-02
-3.639602787667355760e-02
-4.746454621149035630e-02
-5.785752134796565832e-02
-6.737098960198747988e-02
-7.583587417390257046e-02
-8.309421129950127216e-02
-8.902012935266113980e-02
-9.352503468323462854e-02
-9.653339102045138675e-02
-9.802329452854911807e-02
-9.799019101102221518e-02
-9.646270578643027782e-02
-9.350996951482287711e-02
-8.921141389849221448e-02
-8.368709221479982141e-02
-7.707058614201296731e-02
-6.951105397460784208e-02
-6.117763740537134759e-02
-5.224190552685447492e-02
-4.288155506908774423e-02
-3.327621743489241057e-02
-2.359885021337720934e-02
-1.401340319558503321e-02
-4.679180193923306030e-03
4.267849127912073937e-03
1.270051436538459019e-02
2.050979433835248972e-02
2.761240407741599734e-02
3.393194935355308556e-02
3.942248889595914574e-02
4.404996150502345220e-02
4.779506735688859864e-02
5.066050220571843149e-02
5.265313840287381975e-02
5.379544116684965849e-02
5.411620302066962734e-02
5.364739367339762394e-02
5.242594419453477927e-02
5.048904910541034824e-02
4.787271476244304991e-02
4.461243067060727957e-02
4.074281874560817251e-02
3.629707051381363819e-02
3.130891099937287841e-02
2.581699845562274859e-02
1.986230758364556162e-02
1.349463924841688353e-02
6.779126501279101463e-03
-2.139750413594609241e-04
-7.386215541018766040e-03
-1.462562680959748375e-02
-2.180114872554632377e-02
-2.874690209156320619e-02
-3.528926205307246489e-02
-4.122094161021803288e-02
-4.631780583348812930e-02
-5.034647839939456609e-02
-5.305599224176706097e-02
-5.419479977480471528e-02
-5.352404345623823501e-02
-5.081171198753493823e-02
-4.585235355078898234e-02
-3.849438671904124171e-02
-2.860255768230478973e-02
-1.613465010106847342e-02
-1.100225393894880069e-03
1.643087289743369941e-02
3.626078181905230402e-02
5.816235950433982366e-02
8.177912834925905872e-02
1.066790876438467039e-01
1.323779098205113969e-01
1.582751185811432648e-01
1.837489775422048444e-01
2.081201241605153407e-01
2.306739085433273939e-01
2.507021887480129219e-01
2.675135578467683906e-01
2.804273948007257600e-01
2.888600081096774352e-01
2.922903990464200685e-01
2.902750286609816488e-01
2.825627138944342143e-01
2.689495148919108236e-01
2.494488770641108411e-01
2.242218754836280137e-01
1.935309517661880641e-01
1.579005489538679030e-01
1.179124067142772736e-01
7.433883799245613599e-02
2.808816579717745426e-02
-1.987958721458678302e-02
-6.846742768410819802e-02
-1.165536315556605917e-01
-1.630040432580846799e-01
-2.066752128394948318e-01
-2.464638605653523273e-01
-2.813866239155896620e-01
-3.104948594729011191e-01
-3.330350271797473116e-01
-3.484074910626532295e-01
-3.561196735404337788e-01
-3.560019486321870374e-01
-3.479643019997423203e-01
-3.321919153954527304e-01
-3.090981141461137671e-01
-2.791968066047721408e-01
-2.433130166973621333e-01
-2.023454368104441459e-01
-1.573594183060738061e-01
-1.095655173469222282e-01
-6.020194209439016370e-02
-1.058699570843532091e-02
3.794625623753859062e-02
8.412038932135891545e-02
1.267089274727997428e-01
1.645459392923221131e-01
1.966836904866606506e-01
2.222362526749519229e-01
2.405558708870334794e-01
2.512239701505753486e-01
2.539261627734707982e-01
2.487217319749147615e-01
2.357727063943325929e-01
2.154942383222245572e-01
1.885574339101155072e-01
1.557094918526296390e-01
1.179674945238659567e-01
7.642256257047091994e-02
3.226156821700037342e-02
-1.322686906325503016e-02
-5.875316715865416123e-02
-1.030452232778190508e-01
-1.448397120465267085e-01
-1.829852915394231117e-01
-2.164556733377979991e-01
-2.442904599931389475e-01
-2.658064517263479254e-01
-2.804085061391078937e-01
-2.877248317098810571e-01
-2.876457607988149312e-01
-2.801441601319274999e-01
-2.655273792569828872e-01
-2.442111803303875506e-01
-2.167886309175551252e-01
-1.840714865994881877e-01
-1.469169176891984840e-01
-1.063494281211407044e-01
-6.344876891480212555e-02
-1.931739025273147142e-02
2.491286128926885335e-02
6.812529300145538091e-02
1.092983134079158342e-01
1.474460200395395493e-01
1.817061349318015162e-01
2.113848926595778277e-01
2.358450499296156355e-01
2.547110779454663798e-01
2.677062696392382146e-01
2.747160699550522112e-01
2.758582153602997522e-01
2.713049007038663141e-01
2.614565714825891063e-01
2.468032545452413518e-01
2.279235402058485127e-01
2.055293006110540666e-01
1.803519769230398362e-01
1.531795549545758028e-01
1.248227175008517070e-01
9.607175931241726530e-02
6.768451962984414760e-02
4.040025278810315673e-02
1.484761431170388696e-02
-8.393435597233229323e-03
-2.883067258725207499e-02
-4.611806681690395343e-02
-5.994645265847380750e-02
-7.017864248652401493e-02
-7.675636324266750521e-02
-7.970644622091835330e-02
-7.920464137910353253e-02
-7.545655426333752747e-02
-6.878513712025577376e-02
-5.956974848821155327e-02
-4.822423510399775903e-02
-3.522564023573377529e-02
-2.105884463335240542e-02
-6.217139023021824029e-03
8.802127643285350203e-03
2.352335503268677269e-02
3.751341636387493794e-02
5.035297938251580285e-02
6.170299442789755479e-02
7.126734693185229896e-02
7.880045030032892250e-02
8.415975101041774098e-02
8.722583198298902718e-02
8.798011645389480773e-02
8.646060354020178307e-02
8.274698350805971547e-02
7.700794112643268019e-02
6.942930078653200554e-02
6.025345543647304264e-02
4.975612951551707658e-02
3.822473728691199585e-02
2.597243123442467133e-02
1.331523561962959235e-02
5.613945130849467072e-04
-1.198571578834939887e-02
-2.403821552496612779e-02
-3.534541916564029607e-02
-4.566641644406296829e-02
-5.481074829986446600e-02
-6.262089003524554109e-02
-6.896542357166512982e-02
-7.377795459428515557e-02
-7.700659590495026463e-02
-7.865396394275905867e-02
-7.876006548638894711e-02
-7.738494887532001987e-02
-7.464058398971135100e-02
-7.064978724742333738e-02
-6.556539230237562466e-02
-5.956187665770457801e-02
-5.281979699692499614e-02
-4.553562165954826157e-02
-3.790838151147379181e-02
-3.013354359434235186e-02
-2.240386863831501235e-02
-1.490446791410741760e-02
-7.797683460479988907e-03
-1.239720266046346123e-03
4.642874481467801351e-03
9.747190126747639488e-03
1.398493318392402159e-02
1.731214624525673901e-02
1.969570055246315163e-02
2.113737595513327447e-02
2.166819157586760691e-02
2.133120698511156016e-02
2.020690146470147802e-02
1.838461858991036896e-02
1.597244444701079874e-02
1.309496366683579084e-02
9.879431354770588924e-03
6.460593795707912472e-03
2.974468517267119839e-03
-4.508126348017503157e-04
-3.694412915153160934e-03
-6.642668568662015924e-03
-9.207877994227538568e-03
-1.130962428119069822e-02
-1.289326112603411158e-02
-1.392919559648616960e-02
-1.439814519696014199e-02
-1.431778449855306869e-02
-1.371591570587686430e-02
-1.264244935979832139e-02
-1.116988217429457607e-02
-9.376342900253816989e-03
-7.359414022295942756e-03
-5.221918753434350371e-03
-3.069620397720152286e-03
-1.011438675430981898e-03
8.462596803570617346e-04
2.409204352143681262e-03
3.587124082523247045e-03
4.307751520142773759e-03
4.519132160701752610e-03
4.178039781545008109e-03
3.277385999515850142e-03
1.821549235544619831e-03
-1.597348580913695790e-04
-2.606663941440160587e-03
-5.451138015204699816e-03
-8.592231357636670799e-03
-1.191838793746278179e-02
-1.530479509370490966e-02
-1.861012131670879144e-02
-2.169126314426598340e-02
-2.440121413085729468e-02
-2.659190536318522396e-02
-2.812427723260246815e-02
-2.887107603466932543e-02
-2.871133343783136699e-02
-2.755493764861943751e-02
-2.532313958219558486e-02
-2.196316855366260701e-02
-1.745802844398143538e-02
-1.180117636105323768e-02
-5.032854888628798817e-03
2.788899495918545010e-03
1.157968680832708805e-02
2.121695052270104742e-02
3.156945158249645916e-02
4.246993597612169768e-02
5.373685760813202983e-02
6.517431331083216317e-02
7.656456833657279692e-02
8.768647159255205104e-02
9.830825459436841329e-02
1.081938316941230410e-01
1.171106150821102226e-01
1.248316473774174623e-01
1.311341089118016334e-01
1.358210734116825913e-01
1.387072037276573522e-01
1.396332857757755230e-01
1.384841131944606896e-01
1.351575170197879816e-01
1.296180267248147888e-01
1.218612139802238009e-01
1.119259467268262087e-01
9.992773362576927443e-02
8.600015203479732806e-02
7.035889836734336711e-02
5.325968033373056770e-02
3.499466590452009890e-02
1.592376190613233045e-02
-3.581071729259362874e-03
-2.310822846282473836e-02
-4.222592539708294734e-02
-6.050333804851783931e-02
-7.751184683388349927e-02
-9.282838160806063110e-02
-1.060782938221646737e-01
-1.169131890206068086e-01
-1.250290841721869439e-01
-1.302137500790488400e-01
-1.322780925637266070e-01
-1.311473277930591264e-01
-1.268115363848214272e-01
-1.193192378849148444e-01
-1.088453663949366379e-01
-9.559145319356598947e-02
-7.986176991490008537e-02
-6.202181092116568900e-02
-4.246966773722447158e-02
-2.167688407723241534e-02
-1.271985566978686005e-04
2.167498068028033548e-02
4.321234952020189257e-02
6.398052290984751478e-02
8.350710144365877663e-02
1.013303673930897736e-01
1.170591112222610225e-01
1.303486459234946548e-01
1.408980310026473892e-01
1.485168436925911051e-01
1.530402708750193685e-01
1.544069838378151482e-01
1.526273900606248402e-01
1.477528620906807810e-01
1.399422604948712401e-01
1.293773589216035691e-01
1.163063235200793438e-01
1.010256936960341884e-01
8.384760837623296548e-02
6.512588473334808559e-02
4.522205261881102195e-02
2.450169110134785277e-02
3.333475362782940647e-03
-1.792188171700988264e-02
-3.892809439871281613e-02
-5.935564206946280369e-02
-7.890935386433561849e-02
-9.732171802615766087e-02
-1.143418326929986073e-01
-1.297696380272246597e-01
-1.434175918094253155e-01
-1.551384855730688350e-01
-1.648192438401073490e-01
-1.723622370554808991e-01
-1.777186805997497954e-01
-1.808519801746536759e-01
-1.817597664484343345e-01
-1.804701090813771724e-01
-1.770233800579492367e-01
-1.715003909558497630e-01
-1.639923278559808351e-01
-1.546166088973272568e-01
-1.435151700577263212e-01
-1.308384925821361733e-01
-1.167660160428944938e-01
-1.014847466767668377e-01
-8.519671543245604939e-02
-6.811871050958377694e-02
-5.047053284802389267e-02
-3.248162564664797136e-02
-1.438372975450767470e-02
3.594629142300409096e-03
2.122824390083806467e-02
3.829688466275842779e-02
5.460091489682686317e-02
6.994711296056581318e-02
8.416690466036351459e-02
9.711845013249846559e-02
1.086715619687301515e-01
1.187426602038572920e-01
1.272624853991678184e-01
1.341959801786955231e-01
1.395470738652060116e-01
1.433316776958186711e-01
1.456128899908654406e-01
1.464686338755857575e-01
1.460004824912264632e-01
1.443383405561284583e-01
1.416174510206325843e-01
1.379916467597230301e-01
1.336205963784602713e-01
1.286624887886692881e-01
1.232736465749218330e-01
1.176060492383144418e-01
1.117889884679784396e-01
1.059435841578335036e-01
1.001671097363527607e-01
9.452527440332982034e-02
8.907368231390981606e-02
8.382276647764824729e-02
7.876643973897116957e-02
7.387311368142868151e-02
6.907572532767985996e-02
6.430000199212927703e-02
5.944399722983654405e-02
5.439538181716904036e-02
4.903920453775288679e-02
4.325670146016000889e-02
3.693251260661396806e-02
2.997501939730146114e-02
2.230245232195580615e-02
1.386181112030352054e-02
4.644367470236604803e-03
-5.345251034148278471e-03
-1.603728222046564567e-02
-2.733431632315161397e-02
-3.910255473824543471e-02
-5.114937544338964831e-02
-6.327048413530220183e-02
-7.521608294250402282e-02
-8.671630106088132339e-02
-9.749432605970062560e-02
-1.072616522590956606e-01
-1.157322004594538850e-01
-1.226472860895948119e-01
-1.277612899926465206e-01
-1.308633891135732030e-01
-1.318051213384850984e-01
-1.304556246642603889e-01
-1.267746829531957442e-01
-1.207668142336166955e-01
-1.124880600554493404e-01
-1.020913427333531298e-01
-8.975008083924702895e-02
-7.572224822529555199e-02
-6.030953682822747658e-02
-4.384069475365567903e-02
-2.669767022766700304e-02
-9.269734016583741285e-03
8.044408105594315697e-03
2.484104114048612394e-02
4.073372856486302124e-02
5.537243173323083689e-02
6.841893888847050409e-02
7.960664567173615647e-02
8.871004812890780078e-02
9.554899262067628740e-02
1.000427087465939058e-01
1.021328999516205316e-01
1.018579308877784056e-01
9.931440397583636559e-02
9.463794006093294298e-02
8.805347058448556585e-02
7.980329765817065213e-02
7.018219845452697281e-02
5.951815885551824115e-02
4.814666077112386700e-02
3.642037817600041888e-02
2.469277730687076400e-02
1.329536455106471692e-02
2.544986031249404923e-03
-7.265022431777966999e-03
-1.590184872920148013e-02
-2.314794120979772607e-02
-2.885780839557042232e-02
-3.293643952681583886e-02
-3.532299311800488756e-02
-3.604775263488425169e-02
-3.516138845836030979e-02
-3.278255807021826507e-02
-2.907997362572595224e-02
-2.424254021503973594e-02
-1.851448109513802176e-02
-1.215103409616875331e-02
-5.422820063968620402e-03
1.387640467894309115e-03
8.004256996049197506e-03
1.417165094855207808e-02
1.964109911649335530e-02
2.420767106206048874e-02
2.770206501047322439e-02
2.997971390767866645e-02
3.097308796861408114e-02
3.063394828570929762e-02
2.897863577402332719e-02
2.607870773611144222e-02
2.202846454644270119e-02
1.699430878986077018e-02
1.115997216028461088e-02
4.744366340002446197e-03
-2.001985692664236260e-03
-8.824397462864614142e-03
-1.545712025669875901e-02
-2.163283392913110253e-02
-2.710386126940126511e-02
-3.164107387354795492e-02
-3.503129660747437979e-02
-3.712003022935799618e-02
-3.776942060911555460e-02
-3.689865016663492620e-02
-3.448350050081697149e-02
-3.052280563421941317e-02
-2.509954089519771114e-02
-1.832020865402739923e-02
-1.034281000592637313e-02
-1.379049120472906204e-03
8.345783726489057128e-03
1.855858091285420702e-02
2.897301751744745663e-02
3.929429822504673653e-02
4.921834546918268938e-02
5.844641423022130244e-02
6.670631090584004663e-02
7.373477978274874112e-02
7.930925921285010560e-02
8.325405451836088988e-02
8.541320302796626129e-02
8.571374083140559375e-02
8.410954176607361721e-02
8.061268376928644452e-02
7.530569398243019963e-02
6.829061336618461042e-02
5.974792483908539231e-02
4.988412392393800493e-02
3.894011854302727865e-02
2.720058987066831246e-02
1.495683881630002071e-02
2.520738884841225262e-03
-9.789111628625351072e-03
-2.166375642408367719e-02
-3.280714503158800588e-02
-4.293242445694082920e-02
-5.180054587124571092e-02
-5.919046397434236245e-02
-6.492408421126491525e-02
-6.888369881618773560e-02
-7.096941518886330791e-02
-7.116248146858925039e-02
-6.947565512098882734e-02
-6.596788063212367936e-02
-6.076634902093790841e-02
-5.401339833826464959e-02
-4.591387528469425411e-02
-3.669790586293614904e-02
-2.661706582053326858e-02
-1.595621349620592738e-02
-5.003905682409472144e-03
5.945659653886515954e-03
1.659612335928702803e-02
2.666603483849319667e-02
3.589837286433230495e-02
4.404568901197408737e-02
5.091399983390912376e-02
5.633353631871410722e-02
6.017295727696470031e-02
6.236697938567140748e-02
6.286631564418680707e-02
6.169521607075467012e-02
5.891272909863416729e-02
5.461236040938826503e-02
4.894980073820784372e-02
4.209271280402206855e-02
3.425343992873148419e-02
2.566646993704420343e-02
1.657616122611840076e-02
7.245444895819318221e-03
-2.061665651655837650e-03
-1.109006824988214603e-02
-1.958941834919634278e-02
-2.732625755435695580e-02
-3.410106413141587856e-02
-3.972377724657063375e-02
-4.405495751690576695e-02
-4.698307465397432575e-02
-4.842570184251460824e-02
-4.836160967359769830e-02
-4.678309297069799949e-02
-4.373967686918683179e-02
-3.931401538631471015e-02
-3.361190378918416793e-02
-2.679006518843852352e-02
-1.901507191654518147e-02
-1.048491031869318128e-02
-1.416665715026988251e-03
7.967172057596083948e-03
1.743197953539885048e-02
2.674229158980571258e-02
3.567308949917959160e-02
4.400606725095775745e-02
5.153637737752747583e-02
5.809246280080859748e-02
6.351138522308974466e-02
6.767346799367235377e-02
7.048816586214094737e-02
7.188726330783504204e-02
7.185992024240357712e-02
7.040828578909429092e-02
6.758282505696343312e-02
6.346819492105017224e-02
5.816662373920383072e-02
5.182721626963653766e-02
4.460891820533161717e-02
3.669561392236453390e-02
2.828973607122910183e-02
1.959699666611239288e-02
1.083145339162139981e-02
2.207952193752910422e-03
-6.069963240945544167e-03
-1.380759085280842437e-02
-2.082104934938469598e-02
-2.695936610030146008e-02
-3.208014939661959358e-02
-3.607748068118753204e-02
-3.887542092477049710e-02
-4.041472754735324358e-02
-4.068813985993636334e-02
-3.970125684756278805e-02
-3.749891012226304332e-02
-3.415982230045783857e-02
-2.977601143107581200e-02
-2.448188185981716586e-02
-1.842212892723935763e-02
-1.176239572823894151e-02
-4.687342589647309002e-03
2.615298190674188519e-03
9.949021836919785811e-03
1.711570795908788634e-02
2.392577594261172114e-02
3.019779249109751790e-02
3.575837862070152529e-02
4.046429214942472152e-02
4.418100517009338618e-02
4.680565312118357968e-02
4.826711613709407100e-02
4.850812633970238291e-02
4.752287192931739512e-02
4.532022020122162403e-02
4.194457273851562307e-02
3.747776880142418554e-02
3.201297022245098989e-02
2.568502310861110055e-02
1.864079186023824206e-02
1.104477720463724159e-02
3.081006363831104850e-03
-5.064105137923127081e-03
-1.319777702503660728e-02
-2.112566953330075742e-02
-2.866205827860542066e-02
-3.563124413017839526e-02
-4.186403388535928083e-02
-4.722035441327095129e-02
-5.156981199881417038e-02
-5.480834252684580604e-02
-5.686408136052811119e-02
-5.767600002588125357e-02
-5.722914390752694563e-02
-5.552422032157407900e-02
-5.259064988111208233e-02
-4.849475905677666510e-02
-4.331222254840599861e-02
-3.715678650455812859e-02
-3.015559352294676365e-02
-2.245168647952987262e-02
-1.420958520797385889e-02
-5.597099836328833788e-03
3.207650461789663190e-03
1.202289052663034312e-02
2.067025036772251675e-02
2.897620730361490093e-02
3.677089239312104907e-02
4.390475125328032607e-02
5.023633521691732440e-02
5.564314887792057296e-02
6.003100875249386958e-02
6.331410905809226053e-02
6.544642279022497289e-02
6.639834759632358419e-02
6.616423255559419903e-02
6.477602789955769214e-02
6.227437310747790944e-02
5.873747700011026224e-02
5.425975971778065204e-02
4.895161095439154453e-02
4.294975440356602753e-02
3.639558623165937284e-02
2.944679443714534606e-02
2.226839977746480209e-02
1.502691152180514814e-02
7.891371710632786446e-03
1.029644363172353867e-03
-5.401686375122222508e-03
-1.125150759964973525e-02
-1.638166688042676233e-02
-2.067773075328562665e-02
-2.403197010580915283e-02
-2.637155941978858859e-02
-2.764127154972089578e-02
-2.780712580034239156e-02
-2.687595347365819703e-02
-2.486385045483117950e-02
-2.182802864718856595e-02
-1.784744502058607796e-02
-1.301896732185390919e-02
-7.475546199746753440e-03
-1.357029079343203062e-03
5.172848453141088744e-03
1.193709720979585151e-02
1.875465233135646670e-02
2.543600046895697769e-02
3.179155045430284710e-02
3.764204139223352452e-02
4.281429603020532604e-02
4.714861221121701557e-02
5.051562810462301156e-02
5.279400379302472829e-02
5.390423525755875384e-02
5.379257466070982291e-02
5.242792217787680537e-02
4.983239372276958290e-02
4.603984456521047902e-02
4.113024165683451527e-02
3.521337695593351053e-02
2.841577360733614499e-02
2.090489192793731216e-02
1.285617334813600118e-02
4.465388320172078776e-03
-4.057878615411731130e-03
-1.250324321682013719e-02
-2.065889374204053774e-02
-2.831412227398363846e-02
-3.527617694347267435e-02
-4.136515476058655327e-02
-4.641576153807228100e-02
-5.030302824752681118e-02
-5.291206571806951475e-02
-5.417184461925635131e-02
-5.404430686570316916e-02
-5.251134767881977111e-02
-4.961182102788650600e-02
-4.539785457815464359e-02
-3.996409627521867874e-02
-3.343878912423185051e-02
-2.596398114407865582e-02
-1.772226055965920449e-02
-8.905209862174605015e-03
2.780213155780877909e-04
9.603695971916473284e-03
1.884768944526476336e-02
2.778605862724430747e-02
3.619589084346633984e-02
4.387235650207987198e-02
5.062640894874273489e-02
5.628191679923914142e-02
6.070635481749029477e-02
6.377894734438037394e-02
6.542160700504760784e-02
6.559540094885887851e-02
6.427925698094970330e-02
6.151326253462485738e-02
5.735365142350266204e-02
5.189764174995420420e-02
4.528195587082421009e-02
3.765561694182907593e-02
2.920984211850274903e-02
2.014691455333892864e-02
1.068469524781079372e-02
1.056824199723594912e-03
-8.502833253580923192e-03
-1.776240272550132920e-02
-2.649121187225211838e-02
-3.447619629642813266e-02
-4.152303418508556526e-02
-4.744833298948879230e-02
-5.211301176911038724e-02
-5.539158967969940589e-02
-5.719705712097370581e-02
-5.748543914113655312e-02
-5.622805934497059760e-02
-5.345724830756731771e-02
-4.922438718159934112e-02
-4.361875436035617115e-02
-3.677418004651290817e-02
-2.883612225721506050e-02
-1.999506346876385454e-02
-1.045589297875052122e-02
-4.400167067759802944e-04
9.810754468894953770e-03
2.005312471222765042e-02
3.004263409786663702e-02
3.953483243533092995e-02
4.830045906543119216e-02
5.612998535081700768e-02
6.282342424581867368e-02
6.822657606746938830e-02
7.220193517849983478e-02
7.464911672346268012e-02
7.551841476716195101e-02
7.477480510606027142e-02
7.244839960777357812e-02
6.859385091811011359e-02
6.330144946885650492e-02
5.671262094602902426e-02
4.897972640641128084e-02
4.029882198802094140e-02
3.088306221331181545e-02
2.095802067856878531e-02
1.076797833276739794e-02
5.581884366530065478e-04
-9.429959674241218323e-03
-1.895689096944765117e-02
-2.779836574488611656e-02
-3.575451176036156808e-02
-4.263394340503643548e-02
-4.828986650985192530e-02
-5.259509103044475442e-02
-5.545319390960423006e-02
-5.681909237178255773e-02
-5.666031618183865054e-02
-5.500233283419355551e-02
-5.189723989845100582e-02
-4.742564516549543224e-02
-4.171812979849537362e-02
-3.491526928243135486e-02
-2.719681531162911059e-02
-1.876137664306967018e-02
-9.818292322280026616e-03
-5.965822371450397316e-04
8.672795591932278003e-03
1.776056743189603770e-02
2.643840464918936067e-02
3.448976263036904882e-02
4.172110475072880048e-02
4.794605488216936717e-02
5.301894590787765982e-02
5.681592445566820138e-02
5.923951813794545163e-02
6.024615542370198584e-02
5.980469068008969352e-02
5.793982438331193169e-02
5.470765185713330481e-02
5.018886814707698013e-02
4.451681825833680994e-02
3.783519785358610554e-02
3.032326781623259637e-02
2.218128340709282775e-02
1.361726572339846432e-02
4.856396400909674185e-03
-3.874218513256892302e-03
-1.235262059945612008e-02
-2.036007989434839710e-02
-2.768889983546680977e-02
-3.415792310035909579e-02
-3.959314428251758250e-02
-4.385863691806541481e-02
-4.684337838029515450e-02
-4.845737588130959173e-02
-4.866317991508627150e-02
-4.743534248805598291e-02
-4.479588503926072024e-02
-4.079945236245692552e-02
-3.551951326174278972e-02
-2.907851976314189402e-02
-2.160935438770296424e-02
-1.327575672308040945e-02
-4.263755327780959642e-03
5.233392959622542792e-03
1.500326505163870547e-02
2.483008105686462103e-02
3.449850550791441067e-02
4.379354490184905052e-02
5.250699950864512466e-02
6.045108465880207060e-02
6.744377793624653505e-02
7.333370461068855484e-02
7.799395790520553817e-02
8.131426444161150846e-02
8.323510662937709526e-02
8.370960526230007692e-02
8.273474468387113923e-02
8.034431244257575488e-02
7.658874435780473056e-02
7.157068021636291133e-02
6.540540535407865508e-02
5.823919382489850527e-02
5.024564518660283585e-02
4.160573322123626433e-02
3.252336535467302558e-02
2.320763829523924543e-02
1.386935320703004855e-02
4.720890712421266233e-03
-4.030286963999062111e-03
-1.219548908500849883e-02
-1.959168972841902889e-02
-2.606308729106772415e-02
-3.148039211125860243e-02
-3.572808757295404397e-02
-3.874125585691871876e-02
-4.046926632422789133e-02
-4.090135965825646147e-02
-4.006757936333570774e-02
-3.801235528924654800e-02
-3.483310844505761034e-02
-3.064235597558483820e-02
-2.558152078720002387e-02
-1.982311173043957431e-02
-1.354645666984478046e-02
-6.954528583486238244e-03
-2.569331736583142789e-04
6.336110220699476756e-03
1.261368908339080899e-02
1.836978767832321557e-02
2.342177149097300626e-02
2.759484897223012101e-02
3.074385062013439140e-02
3.275879180470492313e-02
3.354349775359357494e-02
3.306083270788443690e-02
3.129327385141017492e-02
2.826354290807876063e-02
2.404460112298200530e-02
1.872283165082761630e-02
1.243918255623343259e-02
5.353248455017042828e-03
-2.352267711065792952e-03
-1.046434725086452071e-02
-1.876570087502513889e-02
-2.702656819810313193e-02
-3.501301796932361488e-02
-4.249979650119995594e-02
-4.927363220082379286e-02
-5.512855957468239948e-02
-5.989703885949228951e-02
-6.342640040422782566e-02
-6.559729248779942734e-02
-6.633868635264174307e-02
-6.559331183499751694e-02
-6.336705692018397562e-02
-5.969108569406639947e-02
-5.463143825646520069e-02
-4.830731226316609811e-02
-4.084937869587110248e-02
-3.243536992940726504e-02
-2.326266048862923874e-02
-1.354417302235104946e-02
-3.517707628297159217e-03
6.576210703448268254e-03
1.649362921611515626e-02
2.598925603537660667e-02
3.482950576655077096e-02
4.280059409603696741e-02
4.969626742580699613e-02
5.535295793621376054e-02
5.962703495091255246e-02
6.240587024669914246e-02
6.363183196639354833e-02
6.326073410262912644e-02
6.131122055121948633e-02
5.783262926571301060e-02
5.290513312535011919e-02
4.666633093750466310e-02
3.926538553716566599e-02
3.089660473170513511e-02
2.177742178131826523e-02
1.213824861808465543e-02
2.234764529089524124e-03
-7.674270730467731838e-03
-1.732901319524299960e-02
-2.646910924482981375e-02
-3.484568666828450484e-02
-4.223378189728718701e-02
-4.841587220942013964e-02
-5.321804835391388128e-02
-5.649122058722099576e-02
-5.811420124387412650e-02
-5.802642003502326423e-02
-5.618129911149235406e-02
-5.259441282205924023e-02
-4.731846903959476686e-02
-4.043409222192497626e-02
-3.208539126422798454e-02
-2.242958907146663794e-02
-1.167039517211376602e-02
-4.070129771021040871e-05
1.221354019165307031e-02
2.481556735525528717e-02
3.748367269667067514e-02
4.993221080817342172e-02
6.187295936737814001e-02
7.302703914921855610e-02
8.313978751753653418e-02
9.196378291704694619e-02
9.929518622148754414e-02
1.049604359174152873e-01
1.088122187589800338e-01
1.107730738685665933e-01
1.107821432727785632e-01
1.088451647050392157e-01
1.050164930157411608e-01
9.937812148532994272e-02
9.208843260516032247e-02
8.332286214994968909e-02
7.330730309265916234e-02
6.230636365205079880e-02
5.059741262182816668e-02
3.849365002729446261e-02
2.631522865635534808e-02
1.438488040049968816e-02
3.027414073043075034e-03
-7.441956422075983110e-03
-1.673909417832971508e-02
-2.458886675631308943e-02
-3.076416094972019011e-02
-3.507857119904839865e-02
-3.737147556922180286e-02
-3.756567895641267640e-02
-3.560551629814995983e-02
-3.150664426342011243e-02
-2.534826042098563270e-02
-1.723676977338967770e-02
-7.368635166136495301e-03
4.036787483820841044e-03
1.670668669087074787e-02
3.031820306608318943e-02
4.453585497459037340e-02
5.898335136704958154e-02
7.327464298379741947e-02
8.702309045757981865e-02
9.984147382590215225e-02
1.113528478508713643e-01
1.212218714551327597e-01
1.291259969842606659e-01
1.347986389403358354e-01
1.380310722910010057e-01
1.386418069811757581e-01
1.365544145057883130e-01
1.317234739569124458e-01
1.241821007831065554e-01
1.140487422390144973e-01
1.014688264867454476e-01
8.669054007238699566e-02
6.999279533534148723e-02
5.170341683752151946e-02
3.220607872675846500e-02
1.189360775836018243e-02
-8.811899495525915213e-03
-2.947995721607533232e-02
-4.969232702275256514e-02
-6.904547110354387895e-02
-8.714887778784113914e-02
-1.036737840480435741e-01
-1.183126158355165408e-01
-1.308172450512792573e-01
-1.410145260071156981e-01
-1.487561759859895583e-01
-1.540019245743834142e-01
-1.567493051064091925e-01
-1.570621572721054571e-01
-1.550922237526057290e-01
-1.510127402286735310e-01
-1.450849792076457367e-01
-1.376021316078331336e-01
-1.288917985313497161e-01
-1.193295156816149144e-01
-1.092970031828879585e-01
-9.919187788281959295e-02
-8.941738339388617673e-02
-8.036017242647568171e-02
-7.238255032624128782e-02
-6.583402575361468889e-02
-6.099443850698447328e-02
-5.811508550227540565e-02
-5.738677469810019721e-02
-5.890709728975560694e-02
-6.274706036937230391e-02
-6.885084591229073681e-02
-7.710866203429062038e-02
-8.733662027389010873e-02
-9.923083269041818588e-02
-1.124610469527748957e-01
-1.265856982780970696e-01
-1.411137841857905695e-01
-1.555178640203037643e-01
-1.692086005352462508e-01
-1.815906622087491706e-01
-1.920692057866826563e-01
-2.000500499214092898e-01
-2.049795530642028740e-01
-2.063770008319635862e-01
-2.037867577646972628e-01
-1.968960916121796911e-01
-1.854630601185226213e-01
-1.693429575581631708e-01
-1.485744110404755569e-01
-1.232385654343045173e-01
-9.360906390309024772e-02
-6.005941230453843566e-02
-2.304598021714130557e-02
1.681108447361145258e-02
5.886140765683124665e-02
1.023544839370576776e-01
1.464853580278722978e-01
1.904376682809520993e-01
2.333721899571851444e-01
2.744525067109774286e-01
3.128987341599704375e-01
3.479636016216540728e-01
3.789584246334744555e-01
4.053236704579974425e-01
4.265324733538229385e-01
4.422201790576766878e-01
4.521201012927215657e-01
4.560487783121222605e-01
4.540144197316401398e-01
4.460668571311174890e-01
4.324174186852607904e-01
4.133799149283783891e-01
3.893269357614464465e-01
3.607722731597383659e-01
3.282574795769290787e-01
2.924011527002106647e-01
2.538732675879957212e-01
2.133552937221660228e-01
1.715562498882881315e-01
1.291876595624802948e-01
8.693584828955354393e-02
4.546943650316701696e-02
5.429009358918650274e-03
-3.262109558377169344e-02
-6.813605447981992136e-02
-1.006621604715458029e-01
-1.298129219122844680e-01
-1.552462513422872836e-01
-1.767448161200751433e-01
-1.941205789214640320e-01
-2.072869580039723436e-01
-2.162360318903647216e-01
-2.209975200804888684e-01
-2.217107134707024807e-01
-2.185400901871988322e-01
-2.117181473861252383e-01
-2.015328105380083112e-01
-1.882910974937103410e-01
-1.723569467769650032e-01
-1.541071179625027876e-01
-1.339405078731502885e-01
-1.122749726843508961e-01
-8.952973356594894072e-02
-6.612660407505777105e-02
-4.248716877045748824e-02
-1.901792836075265336e-02
3.888193662621727744e-03
2.584946702798657930e-02
4.652321716372181254e-02
6.557763131427475634e-02
8.272177992142409897e-02
9.770340548964258354e-02
1.102896450952053770e-01
1.203166549100074673e-01
1.276397636965112825e-01
1.321715985167023211e-01
1.338817427018061113e-01
1.327628978098432944e-01
1.288922478453628229e-01
1.223708443908924359e-01
1.133566620074130393e-01
1.020671364140412068e-01
8.873789879116325552e-02
7.367123643896789087e-02
5.718851121587310155e-02
3.963975678756531673e-02
2.140648098301557029e-02
2.873775622040129762e-03
-1.556421969828605291e-02
-3.351137821682123596e-02
-5.058977894435406214e-02
-6.644250484433725235e-02
-8.072655067842815502e-02
-9.316076295996264522e-02
-1.034844699445345018e-01
-1.114954412779820825e-01
-1.170623062283628613e-01
-1.200783367933089957e-01
-1.205415822490929351e-01
-1.184854347856092588e-01
-1.140092656036602176e-01
-1.072965250830778261e-01
-9.855164356391626912e-02
-8.806358527315419349e-02
-7.615070357273996671e-02
-6.316258725938662943e-02
-4.949065160530707885e-02
-3.553037585304957141e-02
-2.168379829731809094e-02
-8.354807423964020693e-03
4.076147731649200009e-03
1.526165087640699719e-02
2.486938237433247018e-02
3.264422754224921563e-02
3.836140461516582972e-02
4.185610842455646241e-02
4.305233871112951194e-02
4.189760814973744057e-02
3.844553024492860377e-02
3.279295918798099535e-02
2.508874694065444527e-02
1.556264067300760362e-02
4.459704570846444865e-03
-7.917724180169883469e-03
-2.124303327951390652e-02
-3.518088518646358964e-02
-4.938176713035063309e-02
-6.349846406853164316e-02
-7.721024256229572225e-02
-9.020855441214858939e-02
-1.022179040152364771e-01
-1.130197810783252349e-01
-1.224116431148128264e-01
-1.302713174244209682e-01
-1.365148015220535027e-01
-1.411026938857003477e-01
-1.440762965914376970e-01
-1.454937894561025014e-01
-1.454824223069008104e-01
-1.442037928512008571e-01
-1.418410392114449747e-01
-1.386180893136604586e-01
-1.347641492746687042e-01
-1.305143494411310778e-01
-1.261068049728457929e-01
-1.217653096097822824e-01
-1.176847008588445959e-01
-1.140505033529374129e-01
-1.109933395942149098e-01
-1.086134964753788928e-01
-1.069772699858902998e-01
-1.060793057420218594e-01
-1.058983988469779508e-01
-1.063462192385931787e-01
-1.072955228873563732e-01
-1.085941958522105427e-01
-1.100353867754418902e-01
-1.114025301166715748e-01
-1.124547572621208691e-01
-1.129364231621606401e-01
-1.125947897078616866e-01
-1.111844947930474281e-01
-1.084642735558656729e-01
-1.042277258934202339e-01
-9.829084082029482250e-02
-9.049480697484944824e-02
-8.074285916514926942e-02
-6.895305719921500376e-02
-5.510876832517542373e-02
-3.923740433203483369e-02
-2.139594861302566292e-02
-1.717233443522746608e-03
1.964929009231543289e-02
4.249779182003280559e-02
6.658247945220753528e-02
9.164060513143335029e-02
1.173645212844221380e-01
1.434379746464144734e-01
1.695326747339930551e-01
1.953113695041364395e-01
2.204433842712853475e-01
2.446180506102285379e-01
2.675310391425200218e-01
2.889190796678987039e-01
3.085510696776344597e-01
3.262192747370494805e-01
3.417860712947509150e-01
3.551310611811362983e-01
3.661937923222501889e-01
3.749631694209090149e-01
3.814502681329848821e-01
3.857343735730388024e-01
3.879110105863207703e-01
3.881154322162427284e-01
3.865172691528174220e-01
3.832957674916278035e-01
3.786597425491167734e-01
3.728247104971854631e-01
3.660112692330403927e-01
3.584446378809426625e-01
3.503463837229799371e-01
3.419239767415783726e-01
3.333805461933802006e-01
3.248960926724839271e-01
3.166285132388022006e-01
3.087233386247213440e-01
3.012812434569140940e-01
2.943902942978971482e-01
2.881001825227321733e-01
2.824220598540717053e-01
2.773519572599222882e-01
2.728303495999832573e-01
2.687820000804465592e-01
2.650973802873274332e-01
2.616307714885663938e-01
2.582270711526438167e-01
2.546976622680010571e-01
2.508444822448658851e-01
2.464618093701700374e-01
2.413354275317406428e-01
2.352536881254413681e-01
2.280188968873962385e-01
2.194382158260312354e-01
2.093439271995348738e-01
1.975975934347644070e-01
1.840738786840690755e-01
1.687036702963244650e-01
1.514363424996990615e-01
1.322642547723174855e-01
1.112324243897095666e-01
8.840161405141593043e-02
6.389776169996146116e-02
3.786881082402106247e-02
1.049622397290535594e-02
-1.799538185560836667e-02
-4.737281682685105799e-02
-7.737132509291411164e-02
-1.077152515410071815e-01
-1.381254837488193610e-01
-1.683182409879727115e-01
-1.980129056458173886e-01
-2.269492848023400844e-01
-2.548751176277226915e-01
-2.815639037183478299e-01
-3.068258072869216591e-01
-3.304832477455516004e-01
-3.524172341825733135e-01
-3.725319011407073888e-01
-3.907701544855474163e-01
-4.071328965297230096e-01
-4.216354018185091146e-01
-4.343561761478317296e-01
-4.453997341211528571e-01
-4.548996225871909660e-01
-4.630350181210336480e-01
-4.699933232335680167e-01
-4.759913658568173389e-01
-4.812585415216070195e-01
-4.860257429425618447e-01
-4.905262678351208216e-01
-4.949900801590589872e-01
-4.996207213965815352e-01
-5.046095041471124754e-01
-5.101186962563583061e-01
-5.162599712369705385e-01
-5.231306965732918091e-01
-5.307554900178630408e-01
-5.391240378932913302e-01
-5.481837316628547230e-01
-5.578046111584586964e-01
-5.678400881685448098e-01
-5.780736440805372967e-01
-5.882536027160512049e-01
-5.981051222369925258e-01
-6.073090132457498180e-01
-6.155402042223482306e-01
-6.224664061763521827e-01
-6.277516464740202640e-01
-6.310772042792039960e-01
-6.321596252794439152e-01
-6.307273132580497599e-01
-6.265808378895361130e-01
-6.195610775368061152e-01
-6.095571116872722239e-01
-5.965607720830630178e-01
-5.805875069750414674e-01
-5.617576584340121526e-01
-5.402530371037412849e-01
-5.162988782629350792e-01
-4.902171768493353565e-01
-4.623481967402722770e-01
-4.330859043446838030e-01
-4.028572927916205249e-01
-3.720908971298854673e-01
-3.412177896822326528e-01
-3.106647127176543899e-01
-2.808035336501886192e-01
-2.519704947624230584e-01
-2.244535418267173676e-01
-1.984201042998043618e-01
-1.740076307631586161e-01
-1.512128895549307017e-01
-1.299367796373664119e-01
-1.100140042267746671e-01
-9.110753939737137319e-02
-7.284296278772024735e-02
-5.472396251234534770e-02
-3.616693957228565848e-02
-1.655962292644695688e-02
4.785745966896909863e-03
2.856882128758379824e-02
5.547028573469939966e-02
8.615650929487124465e-02
1.212490658718473613e-01
1.612370803765425242e-01
2.065733548860888835e-01
2.575271795955770271e-01
3.142225899237543474e-01
3.766907357025729985e-01
4.446825803038176317e-01
5.178812265756044253e-01
5.957537951803404397e-01
6.775877396605004543e-01
7.626033246722460079e-01
8.498150577723598831e-01
9.381908114921356789e-01
1.026628811632147142e+00
1.113966395996524694e+00
1.199051237569360939e+00
1.280774704470793779e+00
1.358044047716011393e+00
1.429890570804968286e+00
1.495459555741578406e+00
1.553966982035715594e+00
1.604877008127703064e+00
1.647721075594832385e+00
1.682233071276249881e+00
1.708342350662363618e+00
1.726049362475917892e+00
1.735604078002762618e+00
1.737323480390314812e+00
1.731651195734047022e+00
1.719159347969569485e+00
1.700445093406320218e+00
1.676186354413051749e+00
1.647081728969542969e+00
1.613818158907152744e+00
1.577070157470515932e+00
1.537490532610488847e+00
1.495638593270729899e+00
1.452044524895810707e+00
1.407146344864107723e+00
1.361278792764037515e+00
1.314741263610407440e+00
1.267692954942837513e+00
1.220249594800188797e+00
1.172451792082113142e+00
1.124251695346548452e+00
1.075582766859524586e+00
1.026310835198497307e+00
9.762804419367614450e-01
9.253250348197602504e-01
8.732643369329387006e-01
8.199220069529534749e-01
7.651469096669269998e-01
7.087969829404516808e-01
6.507616787784612500e-01
5.909714515826770542e-01
5.293689490874218251e-01
4.659495226167877369e-01
4.007272874374914196e-01
3.337379443956108305e-01
2.650467026361207901e-01
1.947216994082255626e-01
1.228357956306228432e-01
4.946325542888349580e-02
-2.533785407531821687e-02
-1.015327735432419720e-01
-1.790962961747545323e-01
-2.580518078027951301e-01
-3.384420327429928932e-01
-4.203398024570882963e-01
-5.038634503316300473e-01
-5.891398956584591451e-01
-6.763280074885932303e-01
-7.655996429958729088e-01
-8.571224482794559396e-01
-9.510573025136321856e-01
-1.047556225076203607e+00
-1.146712844382765883e+00
-1.248594810615783590e+00
-1.353209776037314516e+00
-1.460465020076454401e+00
-1.570239395680857797e+00
-1.682270086551008736e+00
-1.796228920592092493e+00
-1.911706957426729803e+00
-2.028153348039606563e+00
-2.144987196567762044e+00
-2.261503061411972215e+00
-2.376935402134372044e+00
-2.490480064346421329e+00
-2.601261858397024618e+00
-2.708397514015085328e+00
-2.811000762812005060e+00
-2.908184107607789226e+00
-2.999095702184086498e+00
-3.082953494988161847e+00
-3.158997742774682926e+00
-3.226597630005545003e+00
-3.285191530529467219e+00
-3.334299094801528529e+00
-3.373606291143275815e+00
-3.402836220689621882e+00
-3.421872568944490212e+00
-3.430689415026219269e+00
-3.429324218749110198e+00
-3.417950100575732897e+00
-3.396765416678929839e+00
-3.366045158375543078e+00
-3.326109608542399343e+00
-3.277289506805428854e+00
-3.219938231807795592e+00
-3.154410186974829333e+00
-3.081036159982653899e+00
-3.000132194008049424e+00
-2.911992468232251774e+00
-2.816858778097631522e+00
-2.714961144354656408e+00
-2.606482164208733909e+00
-2.491573395304307326e+00
-2.370372773741468375e+00
-2.242984799550794772e+00
-2.109508438089529481e+00
-1.970039214365598035e+00
-1.824670299931958173e+00
-1.673502701026392314e+00
-1.516658693001226910e+00
-1.354266034850987621e+00
-1.186478848436923528e+00
-1.013470333241710319e+00
-8.354217356840584197e-01
-6.525360376729092415e-01
-4.650199190634165536e-01
-2.730778414389817832e-01
-7.691257241186029436e-02
1.232836001385944208e-01
3.273498520012034785e-01
5.351338790422834890e-01
7.465248318826432916e-01
9.614450119264219552e-01
1.179833705157702584e+00
1.401681388975641873e+00
1.626989783890998575e+00
1.855778850772825228e+00
2.088083878533437243e+00
2.323930635989400528e+00
2.563311175954404053e+00
2.806205943999324326e+00
3.052511667258760220e+00
3.302051122399830785e+00
3.554588653092788597e+00
3.809689112561418067e+00
4.066863873883752589e+00
4.325442818370488496e+00
4.584587352799333715e+00
4.843354716438825314e+00
5.100432685236395258e+00
5.354421792261461199e+00
5.603922570583438123e+00
5.847535553271206332e+00
