BVP Signal
-8.627124233930347219e-03
-5.166311345888194295e-02
-1.115558640521016609e-01
-1.704466948469393617e-01
-2.168909343162460091e-01
-2.511092282959725419e-01
-2.798559455964338416e-01
-3.051916974093775714e-01
-3.231997286350726251e-01
-3.296286747609327161e-01
-3.242734531657435748e-01
-3.101731130176310081e-01
-2.893323326028303111e-01
-2.611754839697204011e-01
-2.248558697598622147e-01
-1.818118495704642568e-01
-1.341895795801418267e-01
-8.432417235601202821e-02
-3.327748082333981117e-02
1.830862805067373644e-02
6.832384142325197141e-02
1.153074740987912183e-01
1.574166130868530356e-01
1.934757245640819634e-01
2.228723147728148557e-01
2.443491839475758209e-01
2.574214839966191271e-01
2.616484829843943039e-01
2.569796661642335112e-01
2.435181648867291437e-01
2.217573674344001378e-01
1.925010970981739233e-01
1.563874867022638226e-01
1.149981192761837939e-01
6.916362355040941989e-02
2.065616490185687507e-02
-2.898376752513432200e-02
-7.851698645980914604e-02
-1.258077357277451180e-01
-1.699206476516311182e-01
-2.090370156067825058e-01
-2.419702369416333876e-01
-2.677932718482816110e-01
-2.853057490941252050e-01
-2.941934145331527861e-01
-2.938744882261907776e-01
-2.843873772434545311e-01
-2.658246637834745796e-01
-2.387735538161681603e-01
-2.038219857247800804e-01
-1.620518367946079674e-01
-1.147178486574778333e-01
-6.290749886516734668e-02
-8.585099705124887848e-03
4.716532592445729644e-02
1.023297516509770189e-01
1.553453513880070358e-01
2.048646679735112719e-01
2.489249900568846208e-01
2.867398065699948151e-01
3.167164109368806324e-01
3.381333393983751989e-01
3.502833997687420098e-01
3.525715585511118855e-01
3.451010429012745240e-01
3.277370414579042768e-01
3.011710911606649832e-01
2.657871746914326483e-01
2.227810062105934352e-01
1.731240634193790540e-01
1.181996793539730473e-01
5.971076216420523330e-02
-1.130652570994712669e-03
-6.212208532336112310e-02
-1.220482060814294528e-01
-1.789247632215592576e-01
-2.311658471158161421e-01
-2.775283958660898498e-01
-3.162779657086394747e-01
-3.467980457614283640e-01
-3.677981598943421693e-01
-3.789350814865256045e-01
-3.797563583450784819e-01
-3.701794599987178747e-01
-3.506757503257780795e-01
-3.214609966486253190e-01
-2.837580900329055300e-01
-2.381816166057832973e-01
-1.863605488503273511e-01
-1.295921897892200192e-01
-6.937688136945144302e-02
-7.737961533759468713e-03
5.410822955582520605e-02
1.139370357132171024e-01
1.704874896614873014e-01
2.220374502638278735e-01
2.671056117123693507e-01
3.047174759246486508e-01
3.335509169197470314e-01
3.532276594413103488e-01
3.629389947777303393e-01
3.627347992893896200e-01
3.525018298608319500e-01
3.326795214271416889e-01
3.040180238076859998e-01
2.670896752675032682e-01
2.234517006852017595e-01
1.738662617094423879e-01
1.202170736257066608e-01
6.387666111345645381e-02
6.354795755199751581e-03
-5.029857263326756311e-02
-1.050043230637101449e-01
-1.556901588325879660e-01
-2.012875801379039320e-01
-2.403779797585546552e-01
-2.717693167388653408e-01
-2.948187545987637770e-01
-3.086335807943863530e-01
-3.131852642016976218e-01
-3.080817272598718182e-01
-2.937823429143180953e-01
-2.705139677426005029e-01
-2.391369199151134328e-01
-2.006835653301236588e-01
-1.560098646209290008e-01
-1.069118600351831594e-01
-5.429080325658086625e-02
-1.605674722110483899e-04
5.411166427612296159e-02
1.070367983826008978e-01
1.566870990612768133e-01
2.021475994424495048e-01
2.415891495764181107e-01
2.742575713836383766e-01
2.990262766052486088e-01
3.151000949730917711e-01
3.221875892213011405e-01
3.198188004877092205e-01
3.083637214843006347e-01
2.877797658022699379e-01
2.589050155317976776e-01
2.222733052556984945e-01
1.790543959151006392e-01
1.305013003254921755e-01
7.768545715027419529e-02
2.252393592881965501e-02
-3.395651772110386268e-02
-8.970515073987263277e-02
-1.434115174076211752e-01
-1.935588651762338575e-01
-2.384122883761477241e-01
-2.771235202297767652e-01
-3.081038854189177556e-01
-3.308710525031506311e-01
-3.444647374600459111e-01
-3.485098062601297286e-01
-3.429330338975297154e-01
-3.276767591994635964e-01
-3.034657406903898957e-01
-2.705471682048997684e-01
-2.302035953562249493e-01
-1.832118046473064088e-01
-1.310954893872009752e-01
-7.534647488518139702e-02
-1.723707289589734848e-02
4.111978049483530628e-02
9.863386516302839746e-02
1.532111529794744631e-01
2.035864303437437961e-01
2.483300695936159763e-01
2.858964375030866867e-01
3.156380934434387386e-01
3.362581030094352608e-01
3.475870662259457067e-01
3.489693171896477986e-01
3.404568772633178586e-01
3.222921042241208012e-01
2.947962258236385691e-01
2.590607283473450040e-01
2.155950257376925139e-01
1.660436971235622061e-01
1.113899903091029875e-01
5.334451280960614272e-02
-6.398823140047776858e-03
-6.653419683289953090e-02
-1.248648851219158890e-01
-1.803173005272641349e-01
-2.309056187647740843e-01
-2.754234487383490082e-01
-3.126491399407054228e-01
-3.412583441835993492e-01
-3.608313417846789606e-01
-3.703945055702334566e-01
-3.700562627187845011e-01
-3.594946413699051657e-01
-3.391365662678552106e-01
-3.095357089844312237e-01
-2.713450398019305876e-01
-2.259602482606735130e-01
-1.741470270782762841e-01
-1.178073603881732850e-01
-5.809969638246709200e-02
3.155062257808344262e-03
6.417903754385764770e-02
1.236643145123775822e-01
1.794737102423525910e-01
2.306385104998853741e-01
2.753479596989117928e-01
3.126071391684056566e-01
3.414223495414226983e-01
3.607816695641048454e-01
3.705587887198814601e-01
3.700615143001185214e-01
3.597325433693778773e-01
3.394940087961978437e-01
3.100812086311154347e-01
2.723011821389105247e-01
2.269605075049783427e-01
1.756836936437546903e-01
1.193185951141874784e-01
5.988120064185691038e-02
-1.400715952259837249e-03
-6.274834299661996573e-02
-1.223588713164196345e-01
-1.790183127284860065e-01
-2.306781426584427197e-01
-2.764995148620907894e-01
-3.148263012133900585e-01
-3.448274928469782230e-01
-3.657141339999044893e-01
-3.766718166670262047e-01
-3.778581674559161607e-01
-3.687358320753310603e-01
-3.500154534759079561e-01
-3.218445863154177355e-01
-2.851239799235084638e-01
-2.409689354350996460e-01
-1.902241034601435954e-01
-1.347141346198604261e-01
-7.539062417542774508e-02
-1.424804440520336529e-02
4.735298037117223469e-02
1.077945909583610806e-01
1.652986117523059240e-01
2.187651414141754125e-01
2.663830706607038801e-01
3.074317501139935405e-01
3.405362452704124299e-01
3.650692058946301555e-01
3.804690692435248045e-01
3.861903521075524814e-01
3.825969761209651598e-01
3.693291060689226080e-01
3.472621553577668330e-01
3.166654657462297795e-01
2.785202278330162207e-01
2.340263037821072034e-01
1.839735252092445372e-01
1.301803088259245178e-01
7.353577672814659572e-02
1.590963508707857188e-02
-4.140535842116604970e-02
-9.698023613483533478e-02
-1.491523429794791855e-01
-1.969677533263416436e-01
-2.387992526066584631e-01
-2.740504466440075171e-01
-3.015086423733266408e-01
-3.206663303155825595e-01
-3.310888682854189469e-01
-3.323678668660929869e-01
-3.249780374686941364e-01
-3.086417028025041920e-01
-2.843234696760782443e-01
-2.523653487745651791e-01
-2.138230483920483260e-01
-1.699508541706955256e-01
-1.215463570533976689e-01
-7.046680120621723331e-02
-1.757105393798702453e-02
3.527310891225568512e-02
8.683938988413239524e-02
1.357877006614660875e-01
1.805034285357856316e-01
2.202156570897740029e-01
2.533855487256105876e-01
2.796132720758226498e-01
2.978601237158680637e-01
3.077281005569761363e-01
3.090558751214688704e-01
3.015443638936788906e-01
2.858825516438576742e-01
2.619544570812933348e-01
2.307978006731265519e-01
1.929685649103904110e-01
1.495604783093005818e-01
1.019170049023608027e-01
5.091063169477855199e-02
-1.631967438115999869e-03
-5.478593599423506322e-02
-1.067483350019540755e-01
-1.563369942386837463e-01
-2.022498941277295903e-01
-2.429859368190117608e-01
-2.778502060747450320e-01
-3.054436470794050784e-01
-3.254824195512883156e-01
-3.370772282433907585e-01
-3.399815799097339886e-01
-3.342117737152165979e-01
-3.196363819405939610e-01
-2.970805614677901607e-01
-2.666386260049858348e-01
-2.294760386951207320e-01
-1.863365261886658075e-01
-1.384172835279992575e-01
-8.715413544789360478e-02
-3.354006931027600502e-02
2.058708783043558532e-02
7.424665735645938347e-02
1.256857661968376894e-01
1.737705446063309567e-01
2.172644735125265902e-01
2.548128632593735787e-01
2.858448372246532587e-01
3.091276606625671941e-01
3.245504640927409645e-01
3.313846387331280674e-01
3.295809312665688440e-01
3.193303217481477940e-01
3.006205683129602457e-01
2.744394557541830482e-01
2.409548820040398054e-01
2.014364987109195926e-01
1.567022830660491084e-01
1.079204223173330368e-01
5.659821864021552518e-02
3.650875080231158129e-03
-4.908996786954981234e-02
-1.006891530473160296e-01
-1.495102592052437729e-01
-1.944156283454988587e-01
-2.343256679589706404e-01
-2.679316258896520253e-01
-2.947805338872377390e-01
-3.137419313815367206e-01
-3.247481705150969677e-01
-3.272340826398967284e-01
-3.211953171381269900e-01
-3.069858252749089744e-01
-2.846369393813236726e-01
-2.552250378181405432e-01
-2.190372620291364814e-01
-1.773604651297654433e-01
-1.311597258935414678e-01
-8.155451070607427910e-02
-3.012735104716918189e-02
2.221025684022068236e-02
7.368958896646821133e-02
1.233451099262860562e-01
1.697034709870009483e-01
2.116349262545488830e-01
2.482126062390653254e-01
2.782660184854687246e-01
3.014367187707273077e-01
3.167930718809641721e-01
3.243285272017391030e-01
3.236661062207447093e-01
3.149121368016725153e-01
2.985276142087883167e-01
2.746391822860013709e-01
2.443537892077109475e-01
2.080393538663085906e-01
1.669826581175609670e-01
1.221764582314759928e-01
7.468286002712350158e-02
2.605913732732201976e-02
-2.284074976670348589e-02
-7.033972076717114053e-02
-1.155285764122965797e-01
-1.570778960522812295e-01
-1.939192978381739096e-01
-2.252686606423298099e-01
-2.500783523169715084e-01
-2.681079375564088263e-01
-2.785730570163244546e-01
-2.815532003049553422e-01
-2.768345236863707926e-01
-2.646276566219558646e-01
-2.455264286615692071e-01
-2.197424007388374956e-01
-1.884513376614931901e-01
-1.521099228951662830e-01
-1.120304615263154058e-01
-6.923931129409360841e-02
-2.476151480452379317e-02
1.987614645360297194e-02
6.390592224405761135e-02
1.057340282435167839e-01
1.446062335216944383e-01
1.793361914952881497e-01
2.089890798300878261e-01
2.330183516894459572e-01
2.504792633657155765e-01
2.613965345416030539e-01
2.650982714283082187e-01
2.617705128621377608e-01
2.514214106807201587e-01
2.342364022031867277e-01
2.109986945373327205e-01
1.818804039031585162e-01
1.480227216448473104e-01
1.099601905319223250e-01
6.883413210434316531e-02
2.569670202655061422e-02
-1.856427224709066362e-02
-6.255047884850398199e-02
-1.055266347810482064e-01
-1.460655517310333606e-01
-1.834900034440538619e-01
-2.166878078684909004e-01
-2.448169874709030802e-01
-2.673812504256793399e-01
-2.834595421857127318e-01
-2.931797090662375815e-01
-2.958130322795308742e-01
-2.915546907896762741e-01
-2.804610389652312241e-01
-2.626113125952845295e-01
-2.388989826960640217e-01
-2.093781662836003421e-01
-1.751584502998987380e-01
-1.368330263311751116e-01
-9.540126337674526003e-02
-5.200446796176011466e-02
-7.428637799720444468e-03
3.696938132116004555e-02
8.041872776105898901e-02
1.216052317840321945e-01
1.598325314261014873e-01
1.940409093474150803e-01
2.234285388978118903e-01
2.475027899987092272e-01
2.653928393014088893e-01
2.772387647693652091e-01
2.823054311199870714e-01
2.807913567430927460e-01
2.727426787455065060e-01
2.582041153325739247e-01
2.380507289814877137e-01
2.122591171918991604e-01
1.819060629897404358e-01
1.475175245155238013e-01
1.100101715173715800e-01
7.049783741141218973e-02
2.964254509244618196e-02
-1.119729016993842308e-02
-5.134946440071502805e-02
-8.954749686639518202e-02
-1.250611983680277040e-01
-1.569602713396572868e-01
-1.843538660075398905e-01
-2.068449242724007542e-01
-2.235294267557099701e-01
-2.344746994622196878e-01
-2.390431423664920174e-01
-2.373034260283694019e-01
-2.293890708983003512e-01
-2.152611078876849882e-01
-1.957521820113378164e-01
-1.708807213890908283e-01
-1.416290247064894148e-01
-1.085754465384252132e-01
-7.254602034504104013e-02
-3.466108916211907420e-02
4.462379786623615896e-03
4.349067836645459373e-02
8.178045525762472900e-02
1.181306119991206161e-01
1.517731448410421236e-01
1.819008005796270977e-01
2.075644053561235547e-01
2.284657868518457091e-01
2.436969520298980507e-01
2.532611503520070251e-01
2.566461089569042064e-01
2.537817065984722675e-01
2.449076757471410626e-01
2.298909490725639937e-01
2.094957846655216560e-01
1.838048613090782490e-01
1.536408801623899700e-01
1.196714070254168427e-01
8.259377587791641440e-02
4.352216415440261776e-02
3.091396435425400324e-03
-3.745190450269007820e-02
-7.736875606202901767e-02
-1.155411498910644125e-01
-1.511134917474237782e-01
-1.832758372291692917e-01
-2.110765060848844299e-01
-2.341300830419417445e-01
-2.515637208734712860e-01
-2.632737918252620046e-01
-2.687734976803284326e-01
-2.679824330669229315e-01
-2.611092931066005818e-01
-2.480593020346539002e-01
-2.295619376934412148e-01
-2.057450091504594847e-01
-1.774713327775761518e-01
-1.454104279304245240e-01
-1.102981183058018289e-01
-7.327467986248685505e-02
-3.496346292133656330e-02
3.332086751130031166e-03
4.092035255249150405e-02
7.668834558395759560e-02
1.097577528555148119e-01
1.394241259547983336e-01
1.647028634045218654e-01
1.853110087426059760e-01
2.004125084530632428e-01
2.098955690656051087e-01
2.133947190620040513e-01
2.108165063322673671e-01
2.024402990255107504e-01
1.881942115120726067e-01
1.687987351634746835e-01
1.444236414513173083e-01
1.159521483236327644e-01
8.403519238550662129e-02
4.943131462193685322e-02
1.329740022259820464e-02
-2.378733376390004817e-02
-6.041462407370085108e-02
-9.598384669632531452e-02
-1.293093119623354714e-01
-1.594484790986398504e-01
-1.857976528205086408e-01
-2.071893498110013443e-01
-2.234935561451679153e-01
-2.337763864965062277e-01
-2.378707062526514426e-01
-2.355788479783816336e-01
-2.266475108462769616e-01
-2.115763051380048221e-01
-1.902585536344036654e-01
-1.634351462362316210e-01
-1.314986478807886883e-01
-9.528048219533441499e-02
-5.564950734501597496e-02
-1.342691270361687228e-02
3.016226439522320946e-02
7.435463592195168392e-02
1.176971283228065990e-01
1.595043887581276132e-01
1.984698731980137354e-01
2.336189270731560130e-01
2.642874309825682944e-01
2.892162257581271101e-01
3.083746695558991502e-01
3.206789831172742744e-01
3.259935131987487522e-01
3.241576009380398582e-01
3.148022243553398325e-01
2.986273094614906309e-01
2.753577763598592520e-01
2.458035231932962639e-01
2.104201162323359187e-01
1.699445942425382161e-01
1.254470553323344950e-01
7.764007447360032899e-02
2.785774710809769961e-02
-2.305118566109090605e-02
-7.361325257585382698e-02
-1.229890676767553537e-01
-1.698102771049553317e-01
-2.129603522130295024e-01
-2.516606420026452628e-01
-2.844946317984603512e-01
-3.113909583561428884e-01
-3.310387392483654101e-01
-3.432223262831610722e-01
-3.476989479725428600e-01
-3.439163088107924926e-01
-3.327028168526896534e-01
-3.135223505505189689e-01
-2.872598228606881299e-01
-2.543636675473405218e-01
-2.154763679909133811e-01
-1.719088346111753707e-01
-1.241758121077336380e-01
-7.381177931872720532e-02
-2.167344751640526423e-02
3.077426987077180875e-02
8.243986339562855981e-02
1.321205969347566955e-01
1.784644069938953193e-01
2.207309739278919269e-01
2.574622468264676778e-01
2.883750244797252948e-01
3.122932095700345911e-01
3.287817989460407597e-01
3.376385953306165755e-01
3.382169612296068717e-01
3.311847272111518303e-01
3.160444934735832656e-01
2.935262330794776720e-01
2.640663319095418737e-01
2.281947335589018522e-01
1.871869110236697442e-01
1.414874569802954951e-01
9.264023142121777243e-02
4.147588411041086554e-02
-1.056670493173125780e-02
-6.225252328800731649e-02
-1.124706466338871169e-01
-1.596674999773396442e-01
-2.030995173196328552e-01
-2.412253654118613477e-01
-2.735120297396206879e-01
-2.988739300510573349e-01
-3.166230370737924682e-01
-3.265724122082640513e-01
-3.280003585779299180e-01
-3.214041304615118944e-01
-3.064146463124810538e-01
-2.836567949434289915e-01
-2.536462081343113795e-01
-2.169539333822234350e-01
-1.748665255888955383e-01
-1.279594572294397992e-01
-7.787050803623567219e-02
-2.549622588599118750e-02
2.760402903468249514e-02
8.008438710874382638e-02
1.308124374793421807e-01
1.780552580100726034e-01
2.211296729428700036e-01
2.583903156893319064e-01
2.892292659056925341e-01
3.126762733503787861e-01
3.278975218532296232e-01
3.348890959099944387e-01
3.328657570596939563e-01
3.223468128279782241e-01
3.031171184862673229e-01
2.757380756456045967e-01
2.409412055756799398e-01
1.992547805388351079e-01
1.520873666195419194e-01
1.001147643841843737e-01
4.500556886115628097e-02
-1.216221299450367943e-02
-6.984668956489092917e-02
-1.265169961145137800e-01
-1.810165809457296993e-01
-2.315213129930412395e-01
-2.772566726357625355e-01
-3.165768251028424629e-01
-3.487384486625215718e-01
-3.728363466744744059e-01
-3.879819318451445675e-01
-3.942412262634734654e-01
-3.908496266641738881e-01
-3.783599860979160456e-01
-3.567039282052460458e-01
-3.264801240678176786e-01
-2.886363133535480019e-01
-2.437222600287002328e-01
-1.933168917747388194e-01
-1.382200257617478001e-01
-8.014220632079294138e-02
-2.036779629173346429e-02
3.963541478206933366e-02
9.819821898677227878e-02
1.541816852585038422e-01
2.058345415684225688e-01
2.523150816961304277e-01
2.921635800042773345e-01
3.246287516659848160e-01
3.489237189484489798e-01
3.643296455795422828e-01
3.709399792971582732e-01
3.681607367880058712e-01
3.566190611561439461e-01
3.363050145679015723e-01
3.079727260410756728e-01
2.725758890668771861e-01
2.307008670696623076e-01
1.840098804085166240e-01
1.332153144415433588e-01
8.010857853433553388e-02
2.591702802088452495e-02
-2.798301662118424238e-02
-7.985830876724570038e-02
-1.287658077115391708e-01
-1.729469210552270764e-01
-2.116670093552153742e-01
-2.436261441293670060e-01
-2.680600344263454060e-01
-2.844254174189972950e-01
-2.920729892516694126e-01
-2.912438415910876821e-01
-2.815314688566525891e-01
-2.636275286707714938e-01
-2.377481655469709798e-01
-2.047679547900249086e-01
-1.657706394054024868e-01
-1.214845452081191879e-01
-7.365200046746406271e-02
-2.307499171560883910e-02
2.838594989943049596e-02
7.951042759129611781e-02
1.289306935036285129e-01
1.749277138504767293e-01
2.166973048388582401e-01
2.525416889516432506e-01
2.819190053041169541e-01
3.037013408494324551e-01
3.172492580299062226e-01
3.223300430695173469e-01
3.184312684906534519e-01
3.060772255546931886e-01
2.850807173093879432e-01
2.562677270203401747e-01
2.201770752181597401e-01
1.777627617352076639e-01
1.303326276601076139e-01
7.875300972950205480e-02
2.479151394554574006e-02
-3.054106110233301141e-02
-8.545207561951972952e-02
-1.386583746642459092e-01
-1.887833138843577063e-01
-2.342544250372465831e-01
-2.742248701180828307e-01
-3.072222635123378343e-01
-3.328187444400075856e-01
-3.500138127510392660e-01
-3.584631523633218242e-01
-3.580525402645635680e-01
-3.485640972732538256e-01
-3.307602293099673463e-01
-3.046310627154986128e-01
-2.713049701138650072e-01
-2.314904056183593739e-01
-1.863036324867777260e-01
-1.372608930851884623e-01
-8.525791939597784919e-02
-3.215186306106679326e-02
2.100863869595060926e-02
7.258844040123123287e-02
1.212736425660700390e-01
1.659379322746753482e-01
2.052187367052429046e-01
2.384152124724831512e-01
2.644716972709240665e-01
2.830900336434504783e-01
2.936445098994999170e-01
2.961273093937938916e-01
2.905820449540859052e-01
2.771699715247196716e-01
2.567523029747559860e-01
2.295228351192503125e-01
1.968008099422611790e-01
1.592666591115488028e-01
1.181292494564509243e-01
7.484219022054891535e-02
3.019788560306554959e-02
-1.400135424944985718e-02
-5.692674235983890413e-02
-9.713164123637102465e-02
-1.334705901968485653e-01
-1.651304871482995873e-01
-1.909465352455802789e-01
-2.104961791229130186e-01
-2.230334415209727084e-01
-2.284128566736808863e-01
-2.263730238096022251e-01
-2.171049596119152825e-01
-2.008714461681799235e-01
-1.781197588942177168e-01
-1.497657324442892568e-01
-1.162913666825974024e-01
-7.910830053421730179e-02
-3.896558397137395158e-02
2.777906454698247929e-03
4.477255745667117759e-02
8.613331676949315119e-02
1.251434963615701279e-01
1.611241731110316933e-01
1.926806201120965789e-01
2.189326338963382967e-01
2.392149917923253322e-01
2.525946913649499415e-01
2.589681249627759363e-01
2.577854651582098811e-01
2.492111994198536462e-01
2.332655513876006337e-01
2.103671572274665724e-01
1.810982493712159358e-01
1.460939374106590138e-01
1.064623828648759984e-01
6.293084946837290694e-02
1.698816702014301072e-02
-3.044228584241001623e-02
-7.793083578113366161e-02
-1.241338459425127966e-01
-1.680506087375446822e-01
-2.080758593198692163e-01
-2.435424341556911565e-01
-2.731122653623458962e-01
-2.960983930437722234e-01
-3.118605885286335200e-01
-3.197216081823187062e-01
-3.197522460812854406e-01
-3.115490395682088964e-01
-2.955913416163435392e-01
-2.720272298820927137e-01
-2.415720823793728322e-01
-2.050499160498640838e-01
-1.632426263631739372e-01
-1.175410853229963137e-01
-6.878470344335226028e-02
-1.862854811412759104e-02
3.187548967571997294e-02
8.127860675090087250e-02
1.281749470401666591e-01
1.715953951100430142e-01
2.100166472545861585e-01
2.428688049028628060e-01
2.689469556069648548e-01
2.877570629791992296e-01
2.988084698195339617e-01
3.016727028716443271e-01
2.966508275560256203e-01
2.834856519397964125e-01
2.629406569505252644e-01
2.352693149983543508e-01
2.013997507782567531e-01
1.623266003815675707e-01
1.188453548450259245e-01
7.253504434281837776e-02
2.418701047565632867e-02
-2.448559699044482174e-02
-7.242634863249282351e-02
-1.183062724420363421e-01
-1.606939720815854233e-01
-1.987982770783381925e-01
-2.311656273109911619e-01
-2.573808999709450984e-01
-2.763990407424241069e-01
-2.878322119857420480e-01
-2.914248964869012859e-01
-2.868583763355686544e-01
-2.746824063220546508e-01
-2.547539819201093403e-01
-2.279861206000276808e-01
-1.948396630306069854e-01
-1.562871150001643172e-01
-1.135383196379980558e-01
-6.738388467452587072e-02
-1.946204839618109750e-02
2.936142708162554904e-02
7.748315420072345028e-02
1.237971698649505958e-01
1.671270897879507666e-01
2.061464946094190287e-01
2.401556604948472673e-01
2.679379940016445860e-01
2.891925054519401406e-01
3.030876190470742082e-01
3.094237639481938196e-01
3.080991033937005019e-01
2.990073448670482748e-01
2.828377876342318964e-01
2.595751883161822593e-01
2.302501365585200022e-01
1.954054649762000107e-01
1.560707232977076586e-01
1.134864414141314171e-01
6.843566240918241839e-02
2.252305058930613446e-02
-2.340919444498702762e-02
-6.787563477296854053e-02
-1.098268104400823564e-01
-1.482136060093272312e-01
-1.818576548126683567e-01
-2.101461956501282369e-01
-2.320926483151782294e-01
-2.474760839923045019e-01
-2.556683019910622190e-01
-2.566661443748812221e-01
-2.504730188178666550e-01
-2.372342085962981795e-01
-2.177008058145385172e-01
-1.920522447907057062e-01
-1.614759842547989765e-01
-1.265622357693906852e-01
-8.847549965286352625e-02
-4.846424550558151023e-02
-7.331628099161963119e-03
3.329670619116498198e-02
7.268159479780697541e-02
1.094178635124735399e-01
1.425546023434272058e-01
1.712579071306288281e-01
1.944858494933168758e-01
2.118731383279117142e-01
2.226773755635140239e-01
2.268412888344981670e-01
2.240721935211254789e-01
2.145473247232073388e-01
1.985346753513123619e-01
1.764048850308983230e-01
1.490297560224144446e-01
1.168450472468874901e-01
8.110952634427077979e-02
4.256427076389704411e-02
2.420344439962057725e-03
-3.807083492969315364e-02
-7.805199475294777312e-02
-1.160099023417270891e-01
-1.512171320360172211e-01
-1.824381838717838988e-01
-2.088506448018482287e-01
-2.297735959735856537e-01
-2.444360886788827236e-01
-2.526289034177473525e-01
-2.539201825801531420e-01
-2.484682174062880500e-01
-2.362493916824900952e-01
-2.177450586070545091e-01
-1.934284840378459602e-01
-1.639502747673587946e-01
-1.303501946691994207e-01
-9.327367324342286659e-02
-5.411397078774214664e-02
-1.370418492231210289e-02
2.668789499868517295e-02
6.584837652000119501e-02
1.029198019719104462e-01
1.365511719700180093e-01
1.661210127039335349e-01
1.906009988167423619e-01
2.094202940715702010e-01
2.220751848828745878e-01
2.281584416330910137e-01
2.276653996986174322e-01
2.204661790272305355e-01
2.070172248234561363e-01
1.874686917107418749e-01
1.626306905081002507e-01
1.331077997067185992e-01
9.973335406765870825e-02
6.371320790696544112e-02
2.572140321163493559e-02
-1.272971056378616184e-02
-5.083383716210786163e-02
-8.735140479044542494e-02
-1.211025143936095699e-01
-1.513654222401442095e-01
-1.769100006550842208e-01
-1.972885337407421225e-01
-2.116813311715163848e-01
-2.197234168978267344e-01
-2.211612878667930937e-01
-2.158654118766425156e-01
-2.040884983103191108e-01
-1.859822016444168669e-01
-1.622673047752662967e-01
-1.333525923762284293e-01
-1.003002960245114455e-01
-6.392278153945445129e-02
-2.523235865399262728e-02
1.443134832715279453e-02
5.428053459535525649e-02
9.278141426638937539e-02
1.291137748574443245e-01
1.621018018764809332e-01
1.906904978213191104e-01
2.142642568661350944e-01
2.318556496599992467e-01
2.432088011371937863e-01
2.477767656494588300e-01
2.455126902026768532e-01
2.363989444037733201e-01
2.206899629875324342e-01
1.988890340328775541e-01
1.714419936363631158e-01
1.393646712561008028e-01
1.032546110343077195e-01
6.442852253698760912e-02
2.381912425428104815e-02
-1.742842449612942712e-02
-5.790841241738188538e-02
-9.681467107118213455e-02
-1.326417084206409913e-01
-1.646832210410520969e-01
-1.918448668138854063e-01
-2.132976176588480266e-01
-2.285842744195217824e-01
-2.370166886038290732e-01
-2.386485374994692377e-01
-2.331432277944360809e-01
-2.208486781878297722e-01
-2.019735042385843171e-01
-1.771066543861497811e-01
-1.470680339642290724e-01
-1.124682817970151794e-01
-7.462578898185044662e-02
-3.424899032156814710e-02
7.199151664129245509e-03
4.869723963675574169e-02
8.912659624018225146e-02
1.270794680986937764e-01
1.618643469169633309e-01
1.921062231306384649e-01
2.173031578620105431e-01
2.365505708951041730e-01
2.492758318732466727e-01
2.552745044843854894e-01
2.541151092995432292e-01
2.461667724216143049e-01
2.312788825399908765e-01
2.100727542640925538e-01
1.829622995179557288e-01
1.506962668053955234e-01
1.142913904960478066e-01
7.442480725203888536e-02
3.251098094077913003e-02
-1.067102588333279645e-02
-5.369167989540757358e-02
-9.550394469559300714e-02
-1.350493334098158138e-01
-1.710193757869918896e-01
-2.027585315114712183e-01
-2.290807673980302384e-01
-2.495695356659488051e-01
-2.634753196236448991e-01
-2.704489281866326311e-01
-2.703874987718628553e-01
-2.631248101995146138e-01
-2.491608250613326636e-01
-2.285443413929824363e-01
-2.021366565348438338e-01
-1.704534596077399988e-01
-1.344637172578506679e-01
-9.527395874653180052e-02
-5.367960800413679179e-02
-1.121266693369116219e-02
3.135596242597840644e-02
7.254628468536117314e-02
1.113626406469546970e-01
1.468019401130938317e-01
1.776357072882684962e-01
2.033620742852464414e-01
2.229251053376343772e-01
2.360847409012667708e-01
2.422722519162012478e-01
2.413432906707990155e-01
2.333947251824607383e-01
2.184521716228971511e-01
1.972054466320093402e-01
1.698677742166873061e-01
1.374947076941173130e-01
1.007228502400702302e-01
6.064940376738629790e-02
1.849343404663596202e-02
-2.490097159379182912e-02
-6.790521184670358923e-02
-1.097590782390937547e-01
-1.489687719433036017e-01
-1.845396207598857807e-01
-2.155569525269412645e-01
-2.408235487573392730e-01
-2.599847814566794701e-01
-2.720841876847636120e-01
-2.770116025243316016e-01
-2.744027769650606574e-01
-2.642566016108323090e-01
-2.469260965129894125e-01
-2.225960858846108281e-01
-1.921724967392455796e-01
-1.561035572822874751e-01
-1.155945727813553203e-01
-7.153909915089352867e-02
-2.512356188962319714e-02
2.226968239015481021e-02
6.967481660328977977e-02
1.154670230299347788e-01
1.587730129245200072e-01
1.981958556432971141e-01
2.327635687282466059e-01
2.616285962386202257e-01
2.838128597197863145e-01
2.990354430303718836e-01
3.065886415857468350e-01
3.065615454326418021e-01
2.987609080811509110e-01
2.835002593116244807e-01
2.612896124796622588e-01
2.325384778661029328e-01
1.983799761623060154e-01
1.593700441422981895e-01
1.169175386079001344e-01
7.200630666266080726e-02
2.586012034617376359e-02
-2.004700786624190670e-02
-6.480569934200947069e-02
-1.068296807635030904e-01
-1.453045460578014092e-01
-1.790103970167758463e-01
-2.070865980464839107e-01
-2.288814657422032495e-01
-2.436721848456480100e-01
-2.513580375294922065e-01
-2.515114002978538488e-01
-2.444637779022832969e-01
-2.302308375414687247e-01
-2.094309706304340324e-01
-1.827392709789436021e-01
-1.507625319231111205e-01
-1.148240056356190364e-01
-7.553457156376799930e-02
-3.444819594334563861e-02
7.464317479895371532e-03
4.900677921032309259e-02
8.871899798139308568e-02
1.258707067922048561e-01
1.589727642156004983e-01
1.874303774370758013e-01
2.102515889835989693e-01
2.267617946069352686e-01
2.366254274152981563e-01
2.393435564452814357e-01
2.350897165436702518e-01
2.237028958257154254e-01
2.056976499603964115e-01
1.813605634470928651e-01
1.514795790406628651e-01
1.168766713105957034e-01
7.833219825698808925e-02
3.720985101489144437e-02
-5.758264942258644291e-03
-4.898657885217477803e-02
-9.155478856784045327e-02
-1.322042988298717803e-01
-1.695981850060062079e-01
-2.030373636905218604e-01
-2.311218695470201034e-01
-2.534757204951573195e-01
-2.691335087887209987e-01
-2.776600355494849293e-01
-2.788735566347164685e-01
-2.724405093372377351e-01
-2.588343250826992126e-01
-2.379941123056545926e-01
-2.106935237749960332e-01
-1.774195411948155943e-01
-1.391267821224408396e-01
-9.685363782260607290e-02
-5.150047716385704188e-02
-4.563023716491962367e-03
4.311771286584283741e-02
8.987963091526229853e-02
1.348353238574227508e-01
1.766480418091721516e-01
2.140630860851190920e-01
2.464429922714797827e-01
2.724180569809380170e-01
2.918782168334690397e-01
3.038241410345031701e-01
3.080376697974431810e-01
3.044943986419501591e-01
2.929139425318014744e-01
2.740744667704543280e-01
2.478772052669415971e-01
2.152852178179781861e-01
1.768997917036205791e-01
1.336762663354985614e-01
8.684004766726823032e-02
3.722670108986701060e-02
-1.357439475955696945e-02
-6.470772927330083191e-02
-1.145268957995093373e-01
-1.620872079633807750e-01
-2.061031799622619620e-01
-2.452757336911234320e-01
-2.790298245939296651e-01
-3.059441536649061266e-01
-3.259492287600933569e-01
-3.380445782423355250e-01
-3.419789198341047776e-01
-3.378452133997356110e-01
-3.252343464271045814e-01
-3.050532221634116858e-01
-2.771555905406444809e-01
-2.424951806338868920e-01
-2.018057405682637806e-01
-1.559061309344378921e-01
-1.061773586387347590e-01
-5.338808746114788450e-02
8.465126452796845058e-04
5.561421563739381291e-02
1.093218380934202205e-01
1.609371389998204005e-01
2.092271449378442227e-01
2.528085398151109220e-01
2.911805320412931830e-01
3.227891369294560997e-01
3.475766767786279687e-01
3.645032532394461011e-01
3.731272528605876770e-01
3.736960033797912528e-01
3.654245658818838227e-01
3.492951423949079426e-01
3.249749902512510391e-01
2.931414973774613686e-01
2.546901812053973257e-01
2.099341683021906380e-01
1.603927012660667506e-01
1.065862916126775195e-01
4.993107353722402164e-02
-8.496790646239198164e-03
-6.745702267818229347e-02
-1.256787549248553904e-01
-1.820614329142235255e-01
-2.351542541926339713e-01
-2.843013953087064061e-01
-3.279046582699600698e-01
-3.656143779744842615e-01
-3.963161816421275629e-01
-4.192015956858911041e-01
-4.344652859170152759e-01
-4.408536977357198627e-01
-4.391530428737523972e-01
-4.288011835962163842e-01
-4.099517514511996641e-01
-3.836393005165199543e-01
-3.494575273872264631e-01
-3.089450839196701271e-01
-2.623427498538497549e-01
-2.105903854464044045e-01
-1.550646030285945387e-01
-9.630046388541509128e-02
-3.580731332512981924e-02
2.554142127935418727e-02
8.653395924764109570e-02
1.461507277652679959e-01
2.031940987274142019e-01
2.569022365269078567e-01
3.061946625333318850e-01
3.501145762995738209e-01
3.884677627691842661e-01
4.198690842021765013e-01
4.445722708624156860e-01
4.617319605912476588e-01
4.709708865409875655e-01
4.729374151173407759e-01
4.665907104802382022e-01
4.529904623669660513e-01
4.318592098412146196e-01
4.035131853759301723e-01
3.691143734191222325e-01
3.284274120985289369e-01
2.828562353496134052e-01
2.328350072424630324e-01
1.792877084217632255e-01
1.234215759901470255e-01
6.596786972318979814e-02
8.152366654530340817e-03
-4.903813857643263274e-02
-1.044226454262579262e-01
-1.572159140574871383e-01
-2.060593786989194931e-01
-2.503892170279317653e-01
-2.891416813473668412e-01
-3.214675383078347548e-01
-3.473441534467774927e-01
-3.655278571990304703e-01
-3.764241862115853543e-01
-3.794516099719603686e-01
-3.746376991586327088e-01
-3.627567424088974368e-01
-3.433729190030460066e-01
-3.177725773588589986e-01
-2.861150363736640334e-01
-2.493935377287064270e-01
-2.087919459908113007e-01
-1.648489077185792961e-01
-1.191636292977138467e-01
-7.241678630271575212e-02
-2.605735794650110293e-02
1.895000389597145674e-02
6.152357257565288506e-02
1.005342507901107463e-01
1.352700707476983677e-01
1.646435126247759451e-01
1.883953436589634878e-01
2.056124354397758092e-01
2.162088676712405066e-01
2.198677183067496710e-01
2.165206376883792583e-01
2.066948381497459297e-01
1.902220417979361977e-01
1.681191112103086749e-01
1.406038948739887218e-01
1.087478240872887802e-01
7.351684132971092467e-02
3.560677672872392119e-02
-3.376519973169012090e-03
-4.288634888685582958e-02
-8.124299489324626755e-02
-1.176351037433540636e-01
-1.509334712308567639e-01
-1.798082345159298656e-01
-2.038252840398800947e-01
-2.216562488528686092e-01
-2.331496336728716701e-01
-2.375331975378065508e-01
-2.345169173437435806e-01
-2.241848398257786368e-01
-2.064016899647716508e-01
-1.818034720131911641e-01
-1.505892210594305392e-01
-1.136971688912946921e-01
-7.177338188082903192e-02
-2.603033750656361459e-02
2.249495980189558653e-02
7.265845122406938694e-02
1.228533163897594926e-01
1.722660178131670272e-01
2.190078338828954641e-01
2.623261061578091580e-01
3.007834897776702210e-01
3.330826006923247595e-01
3.587915368018436135e-01
3.764326227048173656e-01
3.860753182441073461e-01
3.868361453211448531e-01
3.785318956540626445e-01
3.614452430225085777e-01
3.353719367060670198e-01
3.012678791794748956e-01
2.593462639303804051e-01
2.107071376928403850e-01
1.562769660998486465e-01
9.727697015064390440e-02
3.510439809520621290e-02
-2.899526097594746707e-02
-9.322168129638944145e-02
-1.564517672479245891e-01
-2.167142507820042641e-01
-2.729309470746910105e-01
-3.235048205700470358e-01
-3.670123772247441130e-01
-4.027744399492253491e-01
-4.292513523736474768e-01
-4.463991568598078552e-01
-4.532185516525004121e-01
-4.496364987524943957e-01
-4.358885758196825444e-01
-4.118442796333430245e-01
-3.786892442216805432e-01
-3.366175991055146977e-01
-2.870923585100539355e-01
-2.311755020371238090e-01
-1.702344442534992064e-01
-1.060957494910548388e-01
-3.995522188532785179e-02
2.601617704194864045e-02
9.059755804788244271e-02
1.518035817394940423e-01
2.082489103777616091e-01
2.585565116665470842e-01
3.011831337199382119e-01
3.355444252889230872e-01
3.602758869287777110e-01
3.753109812343805030e-01
3.799448925482684647e-01
3.742296649333864411e-01
3.585893132618495072e-01
3.330732969576328251e-01
2.990257033892897987e-01
2.567656708226057627e-01
2.079315943067400474e-01
1.536728952602479936e-01
9.535714511902573798e-02
3.497338490323791127e-02
-2.644036670051797336e-02
-8.662673398797363089e-02
-1.444640457818660850e-01
-1.981417884123609086e-01
-2.462062828304863726e-01
-2.876358110787435862e-01
-3.208916197135687209e-01
-3.456408034514044103e-01
-3.607323262442700407e-01
-3.661299996893846442e-01
-3.615182202712745041e-01
-3.469624989241544277e-01
-3.231880183499314385e-01
-2.903542992226736397e-01
-2.498598047241202269e-01
-2.022924488198588056e-01
-1.492098040460011488e-01
-9.196947703472474478e-02
-3.186134083498479153e-02
2.915567534055371612e-02
8.999542034840024574e-02
1.486256698192405801e-01
2.039044804968262736e-01
2.542622100901356652e-01
2.983843988748211551e-01
3.353868191978949254e-01
3.640177782166671427e-01
3.840472352682821056e-01
3.945796706826136813e-01
3.957172982931399519e-01
3.873023802931135351e-01
3.695907395104247595e-01
3.433707512083621349e-01
3.089263873727046694e-01
2.676794340607665523e-01
2.202625044985689895e-01
1.682574396761221391e-01
1.129611979361556384e-01
5.565117716067644049e-02
-1.803085466870968379e-03
-5.838190610472682868e-02
-1.121351546265892951e-01
-1.620720843657809662e-01
-2.066884155845918891e-01
-2.448106310178879419e-01
-2.756713673280555277e-01
-2.981405991074519424e-01
-3.121693337859245965e-01
-3.169370851315838622e-01
-3.127070619534714768e-01
-2.994377970177516946e-01
-2.775312894045281475e-01
-2.479142691847685542e-01
-2.109461397158182150e-01
-1.681938155814928781e-01
-1.203202011891808532e-01
-6.904870874860946639e-02
-1.566036516374946785e-02
3.853829153783536188e-02
9.161593058373654341e-02
1.427064281168133608e-01
1.897701440113057914e-01
2.320380567687559126e-01
2.680544982192191727e-01
2.966751106682409267e-01
3.174447234669699469e-01
3.291836925265128611e-01
3.321613023993153502e-01
3.256398247385009492e-01
3.099278937925362132e-01
2.853148179933916451e-01
2.521581273913574561e-01
2.116340503499693215e-01
1.641936303464783253e-01
1.114186846399582154e-01
5.422616918552405907e-02
-5.686066024688352094e-03
-6.690404508976377507e-02
-1.280083822671651550e-01
-1.870689923040828595e-01
-2.430588919998919462e-01
-2.939452720979242595e-01
-3.389003311112602224e-01
-3.764012155420898287e-01
-4.053410829949157246e-01
-4.252342384633309713e-01
-4.349650788591293282e-01
-4.348454349069219571e-01
-4.242210464400145709e-01
-4.035447334193930646e-01
-3.732413899398031032e-01
-3.338343676912481350e-01
-2.866812976819395620e-01
-2.324266968764491237e-01
-1.728714103243341182e-01
-1.091377814183364658e-01
-4.307574187362356311e-02
2.368215782839894201e-02
8.961047233618862906e-02
1.526567747159609523e-01
2.116947051697726234e-01
2.647111843267878628e-01
3.108062298925425293e-01
3.485359208990088664e-01
3.768995497723111598e-01
3.954736257463916660e-01
4.033365015902927730e-01
4.009316366818150845e-01
3.877593697686477769e-01
3.645573924908723229e-01
3.318697147758630228e-01
2.904284544661158707e-01
2.418397344368664881e-01
1.867858931417366031e-01
1.273655370436627687e-01
6.473713012222481744e-02
8.115793849923225167e-04
-6.256411707116915633e-02
-1.240484063111520485e-01
-1.814388891046716523e-01
-2.337446612406255397e-01
-2.790947902559438032e-01
-3.165456865135429787e-01
-3.450287509728983126e-01
-3.636023052296911140e-01
-3.721446345966368807e-01
-3.699970961517448087e-01
-3.577425437010374187e-01
-3.352876204535500393e-01
-3.035283946343612649e-01
-2.633220205719352114e-01
-2.155842371000754043e-01
-1.620688561935993144e-01
-1.036586983301850950e-01
-4.248958293278287668e-02
2.018722190227298374e-02
8.252725661182058747e-02
1.427241120376538941e-01
1.995602645805076292e-01
2.510095255204323195e-01
2.962706244090951291e-01
3.337299725146707918e-01
3.626477406558653027e-01
3.822572317637039085e-01
3.918503761731750301e-01
3.915860254015207653e-01
3.810174338951223261e-01
3.608920759723565075e-01
3.313432401706705721e-01
2.933545901202930795e-01
2.479338779997182218e-01
1.960270860924725744e-01
1.393899301892300435e-01
7.895967834511855021e-02
1.679675024975129174e-02
-4.587612938592407208e-02
-1.072805946751024947e-01
-1.657265739915877167e-01
-2.200430326085134891e-01
-2.683178034019032543e-01
-3.099018487529032195e-01
-3.432101741081176050e-01
-3.676662314650475105e-01
-3.825891449972413372e-01
-3.873460426762022069e-01
-3.823308502616014626e-01
-3.670620542449629653e-01
-3.424693852072255851e-01
-3.087874517217893966e-01
-2.670268354061998695e-01
-2.184305212727227219e-01
-1.638616159218558022e-01
-1.052120588472680723e-01
-4.345121818292366211e-02
1.940075258693582660e-02
8.203839201187862473e-02
1.428151122883390134e-01
2.000280642027076339e-01
2.526197430965544388e-01
2.987626739790411046e-01
3.379329791155293861e-01
3.686585805414149819e-01
3.904338863419454797e-01
4.027605369821045112e-01
4.050216052292329727e-01
3.978152472770337122e-01
3.806319554502307634e-01
3.544367113773807532e-01
3.195650620981010936e-01
2.769048024976762390e-01
2.278328178203331833e-01
1.730417742503892742e-01
1.143950378775885623e-01
5.285066904309015240e-02
-9.734034404676862248e-03
-7.201708605140796915e-02
-1.325038941747820331e-01
-1.895114816113686040e-01
-2.420323013489887320e-01
-2.882909975076419773e-01
-3.278076512974833490e-01
-3.591133404495430170e-01
-3.816886766217824634e-01
-3.950926278948552750e-01
-3.986227888293943922e-01
-3.930052500791354486e-01
-3.776011246465617033e-01
-3.533661375523248771e-01
-3.206897845316717399e-01
-2.803093427703388096e-01
-2.337423768390518852e-01
-1.814926645132311778e-01
-1.254185683808611840e-01
-6.645115833411510686e-02
-6.314851732788701044e-03
5.363909220002645306e-02
1.120839276633538995e-01
1.673460022896220978e-01
2.185709900768096625e-01
2.639921033873646738e-01
3.032630388667740817e-01
3.349467886934900940e-01
3.584574052783852660e-01
3.735246787164669402e-01
3.792240961613762007e-01
3.763855340265495619e-01
3.641972406087868874e-01
3.433995372682256964e-01
3.144337588817508466e-01
2.776265298887709010e-01
2.345047794819272169e-01
1.852745101569661379e-01
1.315672457499052483e-01
7.428244193132130246e-02
1.480742794895770209e-02
-4.543519992234428678e-02
-1.053375992241503134e-01
-1.632076678815459481e-01
-2.181743933144866254e-01
-2.684820837389205739e-01
-3.135307773444053758e-01
-3.519122979437826482e-01
-3.827160118627402907e-01
-4.056018399631787230e-01
-4.193466092361365916e-01
-4.244873607235389312e-01
-4.201149284748118551e-01
-4.065668854559314482e-01
-3.842770418861577442e-01
-3.532096709164345150e-01
-3.147804470287232093e-01
-2.691018017288492326e-01
-2.175915106994753823e-01
-1.612479579887783621e-01
-1.012462018401374120e-01
-3.914911139816762420e-02
2.399068538007717577e-02
8.641684988391326594e-02
1.471268552376003569e-01
2.043696390824661091e-01
2.572491783339020399e-01
3.043821673046623877e-01
3.445952260176647908e-01
3.774363209241355932e-01
4.015169005628937415e-01
4.170593375335999164e-01
4.231085349888754066e-01
4.197002243229391305e-01
4.071599500132793703e-01
3.852173203028934068e-01
3.550982651921670286e-01
3.167844795730185292e-01
2.715584734531943933e-01
2.203377688926670686e-01
1.641644130831604320e-01
1.046770427696233491e-01
4.279599370303361489e-02
-1.954041794594129841e-02
-8.132065062571834646e-02
-1.407063218089644741e-01
-1.964612840645203196e-01
-2.472696437687770254e-01
-2.915377772570602044e-01
-3.287539013377535624e-01
-3.573056835659645936e-01
-3.770462067010532103e-01
-3.870760964253662784e-01
-3.870706278515075316e-01
-3.773862517942284667e-01
-3.576025162720103401e-01
-3.288362094073520314e-01
-2.911743828388556610e-01
-2.458420634836003260e-01
-1.939208446091377769e-01
-1.364639774757839263e-01
-7.531246563939936189e-02
-1.145719227261681600e-02
5.295919206476221164e-02
1.167798640802033272e-01
1.781034159631286196e-01
2.353888682574290236e-01
2.874184017698897531e-01
3.323468694338347351e-01
3.696900747612458793e-01
3.978268089359903725e-01
4.164157554866479427e-01
4.247980558702825760e-01
4.224880839894677442e-01
4.100221813275367055e-01
3.869978587503017375e-01
3.545081946314765919e-01
3.128669038592556961e-01
2.632406903081080385e-01
2.069272487573644292e-01
1.449705125833194996e-01
7.931908478817142893e-02
1.108102771778556039e-02
-5.758351798018740419e-02
-1.253515769651649125e-01
-1.903458845091286489e-01
-2.508762089257192684e-01
-3.057137408129712020e-01
-3.529732835627680254e-01
-3.921238903247484808e-01
-4.215668397870951378e-01
-4.409055803316337951e-01
-4.495605313088409383e-01
-4.470652412097430584e-01
-4.340744064550229875e-01
-4.102147802965557255e-01
-3.766922048416307400e-01
-3.339373690464986777e-01
-2.832031322690913289e-01
-2.259802498742602139e-01
-1.633062219932777670e-01
-9.730755656917125518e-02
-2.911376733870232880e-02
3.906172863329795963e-02
1.058220725661212780e-01
1.693889102645203815e-01
2.279926960572743466e-01
2.805526829814155021e-01
3.252184486883311632e-01
3.615788273868952296e-01
3.881650958374860960e-01
4.046252265231028433e-01
4.105843432683970451e-01
4.056208908031407323e-01
3.905790480959245858e-01
3.651049325992838934e-01
3.304777856499060418e-01
2.872145853765137868e-01
2.365431434623044282e-01
1.800651939567969595e-01
1.186960045800994901e-01
5.461512390601838685e-02
-1.111977912737682414e-02
-7.634457097501394507e-02
-1.396630242113146569e-01
-1.994438063023954988e-01
-2.538634249533122667e-01
-3.020021135469787565e-01
-3.420037641106520310e-01
-3.735540470593823881e-01
-3.952687038489063331e-01
-4.067550559253305109e-01
-4.078442532957652356e-01
-3.980788625831470084e-01
-3.784380125509703707e-01
-3.486443377442193792e-01
-3.099666856185432362e-01
-2.631222089532869179e-01
-2.093017922357532923e-01
-1.502148102577821609e-01
-8.682323182642495696e-02
-2.129376074088115689e-02
4.523584963250117108e-02
1.106698142795505962e-01
1.735931464859419848e-01
2.324434652032247028e-01
2.854414337925060274e-01
3.317583298056075991e-01
3.696340710150917697e-01
3.987800128429307422e-01
4.179817806356884713e-01
4.268658256076610646e-01
4.254135884766905851e-01
4.131963730138911162e-01
3.912078648626062805e-01
3.592773050659914813e-01
3.186366760663453257e-01
2.700843254319270081e-01
2.147514053541539625e-01
1.543555724624087466e-01
8.985466372000323887e-02
2.339388528070037582e-02
-4.387248075762589100e-02
-1.098986613615841601e-01
-1.732019508173063826e-01
-2.322690777128990636e-01
-2.852610204358722035e-01
-3.313614793134428416e-01
-3.687970281851465360e-01
-3.971930983333466503e-01
-4.154091955042018558e-01
-4.230087440841646118e-01
-4.200590133169500584e-01
-4.061196437931807179e-01
-3.822154593699379488e-01
-3.482857683098486423e-01
-3.056033980408360273e-01
-2.551285442760170552e-01
-1.980111332069434682e-01
-1.361321637193070866e-01
-7.050436973841495147e-02
-3.374573704498229354e-03
6.400428858398175824e-02
1.296209903380256268e-01
1.918444243928789372e-01
2.492855689349414150e-01
3.000652378828746469e-01
3.434519471376443756e-01
3.777985532347395425e-01
4.027070660144597136e-01
4.172948820868027653e-01
4.211605451149705859e-01
4.145726925708688171e-01
3.971992377493934745e-01
3.701282083878292273e-01
3.334931383680039829e-01
2.885879786845909067e-01
2.365292488654485159e-01
1.784395842172822877e-01
1.162670272545001937e-01
5.102935002671569326e-02
-1.506604400575862340e-02
-8.073562118811161703e-02
-1.441119417720804763e-01
-2.035312362722445645e-01
-2.577542358455989224e-01
-3.049763685561328042e-01
-3.445524968676449973e-01
-3.749977437370680677e-01
-3.959330553544920805e-01
-4.066804396168980373e-01
-4.069122458764866668e-01
-3.970477048645427720e-01
-3.768549536051878368e-01
-3.474786529733836504e-01
-3.092014914525811342e-01
-2.633497199255577792e-01
-2.111447070203937848e-01
-1.536969502591375991e-01
-9.297812403810011561e-02
-2.999511090319939566e-02
3.309089395487260776e-02
9.505006042766928065e-02
1.541352824960157686e-01
2.087404109724883272e-01
2.578052642824282259e-01
2.996133283354250887e-01
3.337106235637621321e-01
3.587379085423034186e-01
3.743954312924490657e-01
3.802150977300063350e-01
3.758952289159144255e-01
3.620366847404864474e-01
3.384196535293387820e-01
3.062097944405540728e-01
2.657898144169705823e-01
2.184191752991203606e-01
1.653985448939032099e-01
1.077497128092395340e-01
4.743174486718967214e-02
-1.456350513195513868e-02
-7.614474799805295846e-02
-1.360856636016843091e-01
-1.927218370858269914e-01
-2.444362127815841723e-01
-2.902503864859300453e-01
-3.284581582111150144e-01
-3.586849994298532129e-01
-3.796137964896795780e-01
-3.909459266026237279e-01
-3.923656690559435001e-01
-3.835634812769911361e-01
-3.653191756253453271e-01
-3.374499097669776959e-01
-3.011854008151848561e-01
-2.571011206311493713e-01
-2.064509966668121588e-01
-1.507371468719676533e-01
-9.098233999754806733e-02
-2.920486884616738804e-02
3.350484870498008499e-02
9.512756176467185298e-02
1.543707185129237769e-01
2.096731931416951078e-01
2.594663466079495939e-01
3.028493546451186402e-01
3.382748178032584097e-01
3.654730213601590227e-01
3.832804754885894560e-01
3.915268931182083745e-01
3.900436187763616780e-01
3.786575504917938928e-01
3.582942079744450004e-01
3.288301665074958025e-01
2.915925693311225420e-01
2.472187726864494839e-01
1.969814443132809900e-01
1.424486096537181945e-01
8.456949636690037908e-02
2.538270717840110380e-02
-3.407291840447504438e-02
-9.186321147035973744e-02
-1.467034834457330295e-01
-1.971848674190853634e-01
-2.417767384883405257e-01
-2.796976727270408802e-01
-3.095466072374807864e-01
-3.310906052096595498e-01
-3.433738095768307796e-01
-3.463109266051175861e-01
-3.398891790868591167e-01
-3.241058398343881208e-01
-2.999432935893164842e-01
-2.674872563806590664e-01
-2.281623513434226924e-01
-1.827240275774964229e-01
-1.325400711596117498e-01
-7.921929750586893804e-02
-2.376008420925938835e-02
3.178163357703760877e-02
8.641033952658980222e-02
1.382846338177769474e-01
1.861572716274856598e-01
2.288352542348564833e-01
2.648933250160322439e-01
2.937688457667257946e-01
3.143047405279579820e-01
3.263661932111086572e-01
3.293518849437515605e-01
3.233151020739304382e-01
3.084872298136627222e-01
2.850868089812891304e-01
2.541542056886449963e-01
2.160456835739861248e-01
1.722344402069818370e-01
1.235954207307709551e-01
7.156084781275370843e-02
1.770759467069556170e-02
-3.689722312533961351e-02
-9.027393377163828170e-02
-1.414615405651845625e-01
-1.887178947368810533e-01
-2.308981499484222821e-01
-2.669265608101836218e-01
-2.955486051299989758e-01
-3.163486735968445984e-01
-3.283782874196776169e-01
-3.316507656098151013e-01
-3.257969740425646910e-01
-3.110882212910053290e-01
-2.879467929120372305e-01
-2.568298051552461714e-01
-2.189205880708757768e-01
-1.748003460342382187e-01
-1.261118777613699782e-01
-7.383972199668453751e-02
-1.955986207774022129e-02
3.511994633699625640e-02
8.906762894338379755e-02
1.402985191955831157e-01
1.879346674476933821e-01
2.302753721829241818e-01
2.663160072948463908e-01
2.951209137158614659e-01
3.156053876387289181e-01
3.275916837921714064e-01
3.303062721730671281e-01
3.239985108463404040e-01
3.085232913472041316e-01
2.843790040180488865e-01
2.522265405748067568e-01
2.126934849960601115e-01
1.671686017866385876e-01
1.163882423219194107e-01
6.215395809362456170e-02
5.573438412514952756e-03
-5.170408029248738102e-02
-1.079744774095348914e-01
-1.620881636627984623e-01
-2.120379962352169079e-01
-2.569774650060300814e-01
-2.952615761458332599e-01
-3.259452504601675349e-01
-3.482252082925202386e-01
-3.611616012557273825e-01
-3.647682245863954065e-01
-3.584562418668442163e-01
-3.426986146752216689e-01
-3.175950966871322612e-01
-2.839074961962477772e-01
-2.425709266784307760e-01
-1.944385083294920546e-01
-1.411632340999815771e-01
-8.369310412119120024e-02
-2.402953606396197872e-02
3.655692424637177473e-02
9.632528907330994983e-02
1.534840045378041695e-01
2.068756101082582233e-01
2.545373996875640588e-01
2.957163914155045426e-01
3.288934020725714502e-01
3.533059234816407490e-01
3.683456876018629811e-01
3.733411466635326303e-01
3.685811368966244173e-01
3.537039668059953623e-01
3.295022485547957625e-01
2.962912854962267417e-01
2.551285569348806237e-01
2.071840901316068795e-01
1.534603797709057083e-01
9.584738847426686748e-02
3.535554811786274093e-02
-2.586293667711024244e-02
-8.652141616020356252e-02
-1.448734219817108815e-01
-1.991103659339613918e-01
-2.482102740714433042e-01
-2.902389600725134300e-01
-3.246913559838423557e-01
-3.501341388402983701e-01
-3.660055481108936970e-01
-3.719669217086997159e-01
-3.674745771232497127e-01
-3.532241575679747614e-01
-3.289357287575908062e-01
-2.956795232503288684e-01
-2.540287035826287454e-01
-2.051304359069422711e-01
-1.504790973013978572e-01
-9.106662880308791230e-02
-2.892824709687631668e-02
3.485048824493945652e-02
9.815683887277261432e-02
1.596848335109699035e-01
2.177862322398004258e-01
2.707280000655335472e-01
3.176353813596237141e-01
3.566647608872631214e-01
3.875890894086987393e-01
4.090207646367774452e-01
4.205654650571903908e-01
4.221124305006499489e-01
4.130897659721691761e-01
3.945264611474940120e-01
3.660395441582062759e-01
3.287679164034247314e-01
2.834398430944373715e-01
2.310029738763492158e-01
1.731534835550267160e-01
1.106950996656302644e-01
4.560404149629999210e-02
-2.097451289997910584e-02
-8.715856402718788476e-02
-1.515651488113115009e-01
-2.126796078018190761e-01
-2.688366919038596703e-01
-3.191561746778807107e-01
-3.618699967379029880e-01
-3.967383666040903423e-01
-4.223764044078478497e-01
-4.383699988480682652e-01
-4.446478810650927871e-01
-4.404774260931821339e-01
-4.269496378695185612e-01
-4.035347681888029059e-01
-3.712674167196838848e-01
-3.309377210824610005e-01
-2.831507952139863393e-01
-2.297240275270699961e-01
-1.711838351155635096e-01
-1.093749914688196545e-01
-4.544840244353508252e-02
1.907291695845470328e-02
8.269415239638833182e-02
1.442049595066230150e-01
2.019848554052829370e-01
2.552311217282118294e-01
3.023023348097632623e-01
3.428537318894356867e-01
3.756334529641522924e-01
4.000319783322755507e-01
4.160425504757265247e-01
4.226274429561930890e-01
4.207242790989464409e-01
4.096096299204052826e-01
3.898620216685022011e-01
3.622390658360872262e-01
3.266867055887490157e-01
2.848795713739379343e-01
2.369145879499271190e-01
1.841755642525698122e-01
1.277659103399263751e-01
6.858731892271209551e-02
8.204442173974514640e-03
-5.253735071353820424e-02
-1.121135565980311555e-01
-1.696342818704423272e-01
-2.236388528348547677e-01
-2.733878307149840148e-01
-3.177061175170897700e-01
-3.555813487857918398e-01
-3.867884005557500893e-01
-4.099498010997319475e-01
-4.254529014091340544e-01
-4.323951014748687594e-01
-4.306904734961102821e-01
-4.209248935501551658e-01
-4.024412634213895834e-01
-3.765480092298287285e-01
-3.430897293750747590e-01
-3.029227194710304438e-01
-2.571801717952357791e-01
-2.062363332971728636e-01
-1.516944165951858436e-01
-9.420649064210660784e-02
-3.516058480517071649e-02
2.434230334908605783e-02
8.308937167927082923e-02
1.399433830585371241e-01
1.938216882793795115e-01
2.434508336448278354e-01
2.883360049192517649e-01
3.270093042359291102e-01
3.593109036549770319e-01
3.842895568211010526e-01
4.013556338549117974e-01
4.108557120333425905e-01
4.117500326970204849e-01
4.048866851179733772e-01
3.898960317747622861e-01
3.671349536698865768e-01
3.375900324923101214e-01
3.011463145882420367e-01
2.592507914532118374e-01
2.122694708034177924e-01
1.613787112469651785e-01
1.077023901715394999e-01
5.213968741681423991e-02
-3.908910183461469789e-03
-5.955126902758495211e-02
-1.132818246795963685e-01
-1.644109619312547899e-01
-2.114318677850186012e-01
-2.536202208779479994e-01
-2.900502078697481112e-01
-3.195764345243655713e-01
-3.423275936784051510e-01
-3.569395687527446848e-01
-3.637211790967130876e-01
-3.622379655884212513e-01
-3.522911159145434290e-01
-3.348127169164487604e-01
-3.092980964506228392e-01
-2.769819700898309422e-01
-2.381598414537322572e-01
-1.937364747261734188e-01
-1.449748846619875187e-01
-9.250174677736905382e-02
-3.789787357453885952e-02
1.802628727758516514e-02
7.366554038487488354e-02
1.281362319482166057e-01
1.800026467353286197e-01
2.281101230874615360e-01
2.716424866202584165e-01
3.090512173515052030e-01
3.403476220490739279e-01
3.640049345945824966e-01
3.798441589547590924e-01
3.875146898494478687e-01
3.862620628750439433e-01
3.770074152248420463e-01
3.589014042695972129e-01
3.328180234245874392e-01
2.990741971964053780e-01
2.581098314871919097e-01
2.112921562625207916e-01
1.589310610590815021e-01
1.025567707842074405e-01
4.301636534964439762e-02
-1.818560401880836563e-02
-7.992846787718854706e-02
-1.408091427157636966e-01
-1.993509737383424296e-01
-2.546075584499060129e-01
-3.046867690133555628e-01
-3.493242458503204029e-01
-3.866931141331633182e-01
-4.161219355518601670e-01
-4.371142112570106653e-01
-4.483822274116813222e-01
-4.506999094485096280e-01
-4.428514243099087588e-01
-4.253848118862497141e-01
-3.986038447678644792e-01
-3.625765820576082876e-01
-3.188023097928286420e-01
-2.673776079918730453e-01
-2.098796452048398709e-01
-1.472807041002927309e-01
-8.103410293855826951e-02
-1.262563229186698666e-02
5.660085264987933795e-02
1.248104500733173972e-01
1.909287610931263146e-01
2.528530687698882784e-01
3.099019925460578251e-01
3.602381107743496402e-01
4.027188820844546657e-01
4.368026268288777159e-01
4.608262981559926863e-01
4.753119773655221647e-01
4.789145109197291417e-01
4.718080437312726083e-01
4.543117478298543954e-01
4.260752273624553998e-01
3.886219969421320086e-01
3.418011814486267008e-01
2.870859066927132774e-01
2.255149761261096564e-01
1.582696745493229473e-01
8.716932111197413235e-02
1.332275479437779186e-02
-6.117751349171086928e-02
-1.351260797675699621e-01
-2.063877197191989199e-01
-2.737554761839462447e-01
-3.354911322248770311e-01
-3.899411897332051291e-01
-4.364484818788004761e-01
-4.730408468332729655e-01
-4.998096026520572055e-01
-5.153814196816779436e-01
-5.194422378903325033e-01
-5.123488042729305025e-01
-4.933429748739397436e-01
-4.638640563691863727e-01
-4.236665298744464181e-01
-3.739803319379437774e-01
-3.160412323311323490e-01
-2.506805639153258380e-01
-1.799736558170277057e-01
-1.048729745595050611e-01
-2.750058168947939335e-02
5.074103481322548431e-02
1.279191070132287833e-01
2.024341078357778101e-01
2.727364771056539627e-01
3.369315080064987922e-01
3.942806602983441877e-01
4.427546017795589983e-01
4.820815646842414592e-01
5.109593672186540925e-01
5.286611308391577779e-01
5.355387443664499925e-01
5.304379191623451728e-01
5.145450043169941257e-01
4.874467264983841641e-01
4.499013493166287292e-01
4.031726203300547429e-01
3.475025757146901761e-01
2.849345027762552052e-01
2.161185923704268541e-01
1.429033554797454753e-01
6.680705841199852113e-02
-1.066590226704064968e-02
-8.762999689518061186e-02
-1.627396052014135064e-01
-2.339608838655342637e-01
-3.003470434819884294e-01
-3.598678612409695887e-01
-4.117521942687170089e-01
-4.547047163711118722e-01
-4.874972515000081108e-01
-5.103430907797500415e-01
-5.216753909033453596e-01
-5.222632076027446946e-01
-5.115787497129815620e-01
-4.897758907657081551e-01
-4.582107871581825864e-01
-4.164996876707214857e-01
-3.665737038128908942e-01
-3.089145484197574065e-01
-2.449011646099006623e-01
-1.763225335704651509e-01
-1.040563126102058700e-01
-3.017389486904487050e-02
4.419662919152694824e-02
1.172128289739900464e-01
1.876604842543524998e-01
2.539041620547272671e-01
3.147909796615543376e-01
3.692033700094408122e-01
4.157053688824637327e-01
4.543152350266873030e-01
4.833770144258867085e-01
5.031413415981316195e-01
5.130336874945931047e-01
5.125740342169433639e-01
5.029506040357110130e-01
4.831574099313639126e-01
4.545950021728095147e-01
4.174393346533908922e-01
3.722758413128166577e-01
3.208099823352706936e-01
2.631117060034396382e-01
2.010115071936583453e-01
1.353240930662941710e-01
6.743704573192327301e-02
-1.253002840818759692e-03
-6.957835354093049041e-02
-1.360749529477623954e-01
-1.996578108393691486e-01
-2.586970834449857648e-01
-3.127253465523020526e-01
-3.599749433271434151e-01
-3.999480881264825261e-01
-4.318126167574293239e-01
-4.544330104313812346e-01
-4.684702783775311907e-01
-4.724381567556432682e-01
-4.670366244907983022e-01
-4.521337831828897147e-01
-4.277081598271152973e-01
-3.952473842033781271e-01
-3.543525605822316349e-01
-3.066618349256444720e-01
-2.528227013716504157e-01
-1.940442948258240818e-01
-1.319177645971396640e-01
-6.735351308982251428e-02
-2.198789045351284832e-03
6.251486469274172841e-02
1.249051091881492326e-01
1.841015571102255777e-01
2.384022313113762226e-01
2.866456645023333083e-01
3.280431543735107258e-01
3.610181361663578614e-01
3.858525235675605569e-01
4.010299669842889991e-01
4.066590206364697480e-01
4.026541265415349291e-01
3.885907917258427102e-01
3.657653761373742540e-01
3.336726658505476117e-01
2.936787878378011030e-01
2.464465241032514631e-01
1.929600839819045621e-01
1.349099720885295894e-01
7.303143443947412994e-02
9.317696576730219449e-03
-5.520859394249578306e-02
-1.186518740011286710e-01
-1.797588505584489238e-01
-2.370375530900136474e-01
-2.888579988342955263e-01
-3.344662770626961046e-01
-3.720759192561896023e-01
-4.015332853607145869e-01
-4.215051388441516944e-01
-4.315866493617382948e-01
-4.318058776333325022e-01
-4.214722194236853459e-01
-4.016668292917619509e-01
-3.720128358909012833e-01
-3.335704327750865783e-01
-2.872071894815476645e-01
-2.336973996670460296e-01
-1.748237009488902427e-01
-1.113513761269264157e-01
-4.522621684653103241e-02
2.232931449363999288e-02
8.955826356784407638e-02
1.549385626132274707e-01
2.170733209571129030e-01
2.742231755251734460e-01
3.255330374811866712e-01
3.692815359372889628e-01
4.050418386926971648e-01
4.316164321170424811e-01
4.484352920012982802e-01
4.555011093212226747e-01
4.520742198612377472e-01
4.390522316748113330e-01
4.160909432377112305e-01
3.840970645452644883e-01
3.439178685830367455e-01
2.961717011603121064e-01
2.425986191029221306e-01
1.838528088222714518e-01
1.218213583733148142e-01
5.770764257652064022e-02
-6.884530457481607968e-03
-7.030713797210372262e-02
-1.313270193133416752e-01
-1.881140362800361177e-01
-2.398043410175177970e-01
-2.847236877537108191e-01
-3.222203433133922768e-01
-3.512234973550351635e-01
-3.709887487770168191e-01
-3.815095232404005499e-01
-3.819963188865278525e-01
-3.731793515908445324e-01
-3.547737391070356905e-01
-3.275637727409174138e-01
-2.924113638922515301e-01
-2.498483517107104590e-01
-2.015981896431146003e-01
-1.482675460965680037e-01
-9.173971972639258232e-02
-3.319591982119285412e-02
2.585736873648589174e-02
8.367918636856540304e-02
1.392334702677707203e-01
1.905946713074683496e-01
2.370278179409331665e-01
2.769396887997137013e-01
3.095534282351831701e-01
3.340899682390974235e-01
3.496324328957340910e-01
3.563715016827542770e-01
3.535133298678175828e-01
3.416589108829595212e-01
3.207620002605211518e-01
2.913745392366630105e-01
2.545186139050826246e-01
2.106076505674038257e-01
1.612565247282009562e-01
1.071677801717361433e-01
5.001567532276376959e-02
-8.939202879547997194e-03
-6.832893992332012001e-02
-1.264408777561025765e-01
-1.822492675871980050e-01
-2.338981387455511540e-01
-2.806417823855413829e-01
-3.209257689148041215e-01
-3.539122520594669696e-01
-3.788840344244455705e-01
-3.948353026206091743e-01
-4.020263510865668133e-01
-3.995889627157794832e-01
-3.880501897554300972e-01
-3.674605894078842305e-01
-3.382108367275969973e-01
-3.014644395262691678e-01
-2.575109510102824850e-01
-2.079345314544963075e-01
-1.535239088202302038e-01
-9.580408919855742944e-02
-3.615096594891042958e-02
2.418527465831360468e-02
8.350194680993877627e-02
1.407662101088927309e-01
1.942079530070700000e-01
2.430862263264395029e-01
2.858913117152197536e-01
3.217884574106245621e-01
3.501052675250730384e-01
3.697953771771924636e-01
3.812034257206321497e-01
3.833404412199000744e-01
3.766949066279427494e-01
3.612972236697195028e-01
3.373531109109973447e-01
3.060882900520471850e-01
2.675099106047034159e-01
2.231469756724994147e-01
1.736682803272335263e-01
1.203997618170525863e-01
6.475282197026477338e-02
7.706969981017885996e-03
-4.898674451505047323e-02
-1.044178157454054290e-01
-1.568360912410533548e-01
-2.054374724728137425e-01
-2.487908301396756505e-01
-2.858572401484020808e-01
-3.160225646027159385e-01
-3.380498601622840549e-01
-3.522075968474380203e-01
-3.574209244193113366e-01
-3.539368226176618504e-01
-3.418355839800181206e-01
-3.210747323670177789e-01
-2.928899666292731907e-01
-2.571785806780471084e-01
-2.153542007588439278e-01
-1.681778013504675040e-01
-1.167888935572795606e-01
-6.276196866229878657e-02
-6.946904178028220911e-03
4.886191338010673069e-02
1.036801463271566359e-01
1.559085830164620989e-01
2.044747025991385525e-01
2.481842094724569514e-01
2.858777418658492442e-01
3.169438338088763629e-01
3.402946097804091519e-01
3.559223518533216613e-01
3.630453923046207954e-01
3.617837146410406990e-01
3.522472353342935292e-01
3.344850495072748120e-01
3.095323938657755791e-01
2.774642031355701866e-01
2.395970189489861624e-01
1.966860682945753003e-01
1.498493034167732718e-01
1.005928661208592423e-01
4.974515601235829365e-02
-9.507767865291893994e-04
-5.053815517494131271e-02
-9.755865862066967487e-02
-1.408649174331361720e-01
-1.794536866699306399e-01
-2.122069743519685026e-01
-2.385290017131868889e-01
-2.575863626701594966e-01
-2.692328692666275392e-01
-2.729696628538140768e-01
-2.690238658899348767e-01
-2.574928615102026197e-01
-2.387582983145944693e-01
-2.137438474002968658e-01
-1.827707830529064770e-01
-1.473282275237805528e-01
-1.080775253936563512e-01
-6.641548954351257639e-02
-2.375575655143043544e-02
1.903365079597015702e-02
6.008662494364962192e-02
9.868847143836186053e-02
1.333160687375833375e-01
1.629535514867532786e-01
1.868417100836204381e-01
2.038888588306461414e-01
2.138594756676241992e-01
2.161025916421508986e-01
2.106457166522733293e-01
1.974119335814640275e-01
1.767840216096026040e-01
1.492126084604719627e-01
1.153847620816532415e-01
7.638522020270605006e-02
3.293413326789526585e-02
-1.331238650593427608e-02
-6.146799681607215127e-02
-1.098979389030768361e-01
-1.571213372813974052e-01
-2.020688601109483507e-01
-2.428514269717933494e-01
-2.787408948633991468e-01
-3.082119296258439833e-01
-3.303743434301725235e-01
-3.445658837161448274e-01
-3.499289851098968396e-01
-3.464711587936023518e-01
-3.338284611693907444e-01
-3.123806004594565922e-01
-2.824154034489824161e-01
-2.447350387285408269e-01
-2.002109309801967940e-01
-1.499348995389426786e-01
-9.539624804306012784e-02
-3.772843460564631601e-02
2.112602525242830709e-02
7.992552658268900490e-02
1.368499928024821677e-01
1.902875976923014967e-01
2.389775695767855090e-01
2.812078236740461201e-01
3.161803277592543093e-01
3.426008312968679137e-01
3.598998340781784377e-01
3.675061103120456640e-01
3.652075523452453232e-01
3.532093083029844705e-01
3.316374186964702875e-01
3.014803866207023120e-01
2.631989372335641897e-01
2.183411079516653364e-01
1.680104310107589649e-01
1.136667798051324285e-01
5.730400270413053831e-02
4.682109979790849419e-05
-5.578042730488022571e-02
-1.089280225091701915e-01
-1.576241783071380964e-01
-2.001981261399425893e-01
-2.356996557494310807e-01
-2.626261100435550722e-01
-2.805021725328847859e-01
-2.884988558082859367e-01
-2.864789721224819119e-01
-2.743795001952734625e-01
-2.526090862012443927e-01
-2.218754194393501300e-01
-1.828789337140939164e-01
-1.371990025678543890e-01
-8.570026671490760251e-02
-3.046458506589672099e-02
2.708994826512670095e-02
8.524881901057210221e-02
1.417689110822779042e-01
1.955345995981098151e-01
2.442164262966361465e-01
2.867309516173335293e-01
3.215736384203231601e-01
3.473937756383821407e-01
3.636908546409787224e-01
3.694740610073883880e-01
3.648282654202907871e-01
3.494969595482134150e-01
3.239603128981596303e-01
2.887448724844342007e-01
2.448398552615504986e-01
1.935014975167508311e-01
1.358916047911663538e-01
7.398674403480204331e-02
9.033293818930421271e-03
-5.670050941342286155e-02
-1.216337547210881165e-01
-1.839421181944635997e-01
-2.415366387712405971e-01
-2.932645949746557346e-01
-3.371352030307421255e-01
-3.723650382193184338e-01
-3.976584351583625221e-01
-4.123078332908706733e-01
-4.160357681751572501e-01
-4.084824513402097734e-01
-3.902864345187411210e-01
-3.614988341712788711e-01
-3.233463647922961148e-01
-2.766142038909682466e-01
-2.227855612869450719e-01
-1.635619456257692561e-01
-1.002166161730200233e-01
-3.510406793672742054e-02
3.049288516083513423e-02
9.430323021404946049e-02
1.546984218098322317e-01
2.101149372766809575e-01
2.586692299946278806e-01
2.994763641707322566e-01
3.310154181067639922e-01
3.528385677852745039e-01
3.641266039408492805e-01
3.647284635007403408e-01
3.547330914355659170e-01
3.343252503742559223e-01
3.045523363399449401e-01
2.657908451974495545e-01
2.197125216441950246e-01
1.672805996336121370e-01
1.101833434488005969e-01
5.030173806135851411e-02
-1.114236728648193564e-02
-7.175229572929595068e-02
-1.303560704532693015e-01
-1.849250729607021526e-01
-2.339470786294874372e-01
-2.762330137686292986e-01
-3.102245556090091338e-01
-3.353413408661660156e-01
-3.505700705671620510e-01
-3.557494940565911201e-01
-3.505534561763216650e-01
-3.352776961424661084e-01
-3.103437432236916260e-01
-2.764166736833069127e-01
-2.347928707656337100e-01
-1.862302386670805499e-01
-1.326626297987095471e-01
-7.522829860252142065e-02
-1.579603770151584430e-02
4.375531412163543438e-02
1.021284820782158709e-01
1.570675214418823518e-01
2.075167721287827227e-01
2.516813818034238093e-01
2.883753097305167268e-01
3.166669917587739413e-01
3.354943152674426110e-01
3.446205567576081097e-01
3.435138935305225294e-01
3.324827876686404227e-01
3.115784454255424163e-01
2.816290857097659694e-01
2.433787381007369577e-01
1.978808505828352771e-01
1.467435244840059050e-01
9.094222925892420095e-02
3.264341565847939108e-02
-2.692972486407979593e-02
-8.584961249625530644e-02
-1.422668232536007105e-01
-1.949516841467957007e-01
-2.418309008015280259e-01
-2.820497453689572165e-01
-3.140805850573119562e-01
-3.370886811541504158e-01
-3.504393912977702974e-01
-3.535368827382262547e-01
-3.465352902301255256e-01
-3.293096399194532231e-01
-3.026525785579033956e-01
-2.669701935302977724e-01
-2.235422498623297893e-01
-1.734843852613181525e-01
-1.181203268428407394e-01
-5.937215357101255364e-02
1.605742203376836486e-03
6.254065586783244535e-02
1.221051139730024160e-01
1.784613823331968330e-01
2.298550479295067284e-01
2.751956828669160360e-01
3.127650396093423213e-01
3.419415313651313348e-01
3.616082512808348470e-01
3.713688992305472780e-01
3.709253682401564833e-01
3.602512761943112984e-01
3.398600848632140625e-01
3.100504471105344773e-01
2.720602851386647592e-01
2.265498259600058073e-01
1.751769649118148919e-01
1.192613922479545396e-01
6.027006518708433180e-02
2.737310541305049139e-04
-5.956555025930329594e-02
-1.170188655499352359e-01
-1.708233996366240737e-01
-2.193366835295416650e-01
-2.610261992592730063e-01
-2.950095949437515630e-01
-3.199881122081825735e-01
-3.356162286192115873e-01
-3.411777319748268145e-01
-3.367392967525355552e-01
-3.222999983858895745e-01
-2.983889242456439495e-01
-2.658480863187059340e-01
-2.253576826130169741e-01
-1.785877913371452796e-01
-1.264027703439497274e-01
-7.081425535170848828e-02
-1.329117395625720177e-02
4.458933031903776489e-02
1.006618695453369156e-01
1.538379416825771673e-01
2.019944794227683804e-01
2.440621987390045600e-01
2.786764861957423678e-01
3.046485667503184280e-01
3.214577063421363290e-01
3.283125742035349903e-01
3.253045920300442484e-01
3.122137321215288086e-01
2.896441399714136944e-01
2.580154793661955659e-01
2.183986111771615279e-01
1.720023291254092757e-01
1.198911179809120653e-01
6.406625137876703624e-02
5.599606743392951391e-03
-5.329479644354365164e-02
-1.111197606446256980e-01
-1.662427259169387272e-01
-2.166204348626191711e-01
-2.612832772071871368e-01
-2.983694276448992655e-01
-3.271489636826164227e-01
-3.465408128632489482e-01
-3.558730189905996433e-01
-3.549909875243278390e-01
-3.436523037080568277e-01
-3.224548116999744751e-01
-2.916128281936489763e-01
-2.523131839051340197e-01
-2.053515945632137241e-01
-1.522614858918100167e-01
-9.458858773569066292e-02
-3.367529175494461680e-02
2.823877702502548825e-02
8.997569465232538310e-02
1.492725809712364127e-01
2.047146005412718295e-01
2.547519353832804478e-01
2.976146278917188304e-01
3.325767056760765561e-01
3.581298350330923141e-01
3.739863614713778706e-01
3.793837408169091763e-01
3.741982469209474971e-01
3.586490201851825210e-01
3.329128424686549903e-01
2.980575335527287928e-01
2.545437633231472097e-01
2.039734858351378577e-01
1.473619015121129805e-01
8.641669815633751250e-02
2.289435110040841798e-02
-4.185086074137096823e-02
-1.055128107003543564e-01
-1.669478083789216194e-01
-2.239997365552429676e-01
-2.753591793984966341e-01
-3.196442769304289611e-01
-3.553141547454137239e-01
-3.818735646044197907e-01
-3.980549989527956689e-01
-4.038904076486915518e-01
-3.988443163792462776e-01
-3.831314812350858356e-01
-3.572784312250939509e-01
-3.216669225795570353e-01
-2.777069213343301146e-01
-2.260201099623737886e-01
-1.684350439377697850e-01
-1.061657597210463044e-01
-4.095509486536104415e-02
2.530228193058892822e-02
9.127506486906668270e-02
1.546878590565031186e-01
2.144648351380904205e-01
2.685964422227087312e-01
3.159232631794734458e-01
3.552577764106942260e-01
3.852717230024556017e-01
4.057487652890476304e-01
4.155788183955028137e-01
4.150676012339237220e-01
4.038603052519740277e-01
3.823294018498113456e-01
3.512580237927137583e-01
3.110096409551857399e-01
2.631644891302962197e-01
2.083565299676817528e-01
1.483922791744279046e-01
8.456201415592812243e-02
1.844426292022410124e-02
-4.805512893606015551e-02
-1.137208821742471399e-01
-1.763742112116706284e-01
-2.350275172427891412e-01
-2.877811100011667955e-01
-3.335396633630889340e-01
-3.712345131699703593e-01
-3.995485377057333420e-01
-4.184492467236780033e-01
-4.267523604128372061e-01
-4.248386239090142791e-01
-4.124198935994428661e-01
-3.897555809475836130e-01
-3.578492206352794081e-01
-3.168452805145500761e-01
-2.683911601590809881e-01
-2.131281583026573279e-01
-1.526940155990500203e-01
-8.853876557424625315e-02
-2.199734657955958878e-02
4.498687426212559515e-02
1.112684662029507776e-01
1.747894094389836339e-01
2.345573374246201770e-01
2.888056402856487015e-01
3.364207161041032346e-01
3.764446169750170768e-01
4.075125768266822934e-01
4.297108036292273114e-01
4.417480261379174156e-01
4.439393281723444940e-01
4.360344822193641390e-01
4.180189882064708207e-01
3.910218288077179638e-01
3.548339616860027301e-01
3.109872448376922449e-01
2.600460601478804534e-01
2.032841516300347151e-01
1.422496585741079567e-01
7.788689399456981410e-02
1.210438618415463768e-02
-5.403942283958246273e-02
-1.186731531067719003e-01
-1.806884924153150940e-01
-2.384772288296610476e-01
-2.907750580835353760e-01
-3.366225229874826308e-01
-3.745231698387513353e-01
-4.044570269472215762e-01
-4.249791305169325906e-01
-4.361504428784789278e-01
-4.376622093930131463e-01
-4.291573699288730448e-01
-4.117676495294101402e-01
-3.849450117925556913e-01
-3.500422861735071334e-01
-3.075672418497014116e-01
-2.584487899316630366e-01
-2.043558580231223942e-01
-1.458700023295395609e-01
-8.488618904350234140e-02
-2.238879646815697400e-02
3.994489756530089641e-02
1.008677045077507606e-01
1.590268715772649444e-01
2.130106991986663034e-01
2.619543235870555042e-01
3.043078454746079298e-01
3.399495618646106720e-01
3.674481058656990928e-01
3.865811628935991728e-01
3.970646717812607585e-01
3.982300875097674608e-01
3.910934228217944897e-01
3.748608165144297066e-01
3.505493546600420562e-01
3.185680627459599457e-01
2.794303361685804843e-01
2.347123237508887961e-01
1.846486323041768296e-01
1.309526106513754229e-01
7.448372040905712477e-02
1.666293927857471699e-02
-4.115997207051391021e-02
-9.788568608478975808e-02
-1.519444350314187453e-01
-2.024988093521877530e-01
-2.479488628601695943e-01
-2.878171529428320552e-01
-3.207818868063768702e-01
-3.461887575136357587e-01
-3.637069353940196592e-01
-3.724114514506480234e-01
-3.729284481799293172e-01
-3.644924855782729622e-01
-3.477088210447893957e-01
-3.229746242386836164e-01
-2.905582817075113011e-01
-2.518742562623799697e-01
-2.071439216248005255e-01
-1.579282325500175610e-01
-1.051269325498754154e-01
-5.004759371160333314e-02
5.850994842429582676e-03
6.155217905482429641e-02
1.153695981981236462e-01
1.664491283615380790e-01
2.131911581880899798e-01
2.548613817439500107e-01
2.902957564936141099e-01
3.185812828267891028e-01
3.394117330414926359e-01
3.517922583422232741e-01
3.560762231957147472e-01
3.516365422610948643e-01
3.388194896540144274e-01
3.180262588545188507e-01
2.894273035271169858e-01
2.542558264284730529e-01
2.127711136223128796e-01
1.664158513128551342e-01
1.160593324391412523e-01
6.297226971828473463e-02
8.620529193763971920e-03
-4.601189507307548721e-02
-9.912816737238634712e-02
-1.498947219241364426e-01
-1.966288630992225617e-01
-2.384132243373010829e-01
-2.741429810646208720e-01
-3.026519017612875340e-01
-3.236585552490946482e-01
-3.360484685929507331e-01
-3.399869982628155318e-01
-3.349542015291931407e-01
-3.211214571087837033e-01
-2.989741554471225249e-01
-2.686680893317751062e-01
-2.314089647981680264e-01
-1.876015904923500899e-01
-1.387283590598875627e-01
-8.576283834673062434e-02
-3.008772117052756212e-02
2.671111656294122144e-02
8.357139879630529067e-02
1.385035584307582335e-01
1.906694955980046680e-01
2.382460585373528950e-01
2.801832935585063522e-01
3.154453401529713763e-01
3.426670231953427015e-01
3.617051312218546033e-01
3.713572973017477130e-01
3.717451754376593920e-01
3.625156538003045936e-01
3.437382506976203178e-01
3.161050857146948112e-01
2.797584378020762097e-01
2.359788785036220082e-01
1.853385957468162704e-01
1.293630505666303332e-01
6.921645746512464226e-02
6.356687916770471791e-03
-5.745448581920482856e-02
-1.210334441207075035e-01
-1.822208109564454614e-01
-2.400641767462828036e-01
-2.925964523002934081e-01
-3.385934767820757973e-01
-3.769802235839818105e-01
-4.062219118029073428e-01
-4.262166095023839918e-01
-4.356488553428309318e-01
-4.346321421693820075e-01
-4.229015543792875587e-01
-4.005135704941784058e-01
-3.683893607429279959e-01
-3.266778676235533307e-01
-2.768755452517487892e-01
-2.197282081828995093e-01
-1.569187627939517826e-01
-8.989630313599035472e-02
-2.020366394067087470e-02
5.011298799354450134e-02
1.197650660550324264e-01
1.864165119103525781e-01
2.489990732838978371e-01
3.054882030905821111e-01
3.545271922185815328e-01
3.951011103282820458e-01
4.256059730834441668e-01
4.460801479887801513e-01
4.551845826394192995e-01
4.531184960131744432e-01
4.397595786675522755e-01
4.151868349996796215e-01
3.805994197903169729e-01
3.360838007504831082e-01
2.833495204123948064e-01
2.232242965956450220e-01
1.574418070695976779e-01
8.768712005817110022e-02
1.539711980412256098e-02
-5.716247902580630369e-02
-1.287391667751454083e-01
-1.969302765608193506e-01
-2.606002166983758528e-01
-3.177934015282409819e-01
-3.670200456454001392e-01
-4.074032237039891813e-01
-4.372476116336706520e-01
-4.567458663161522714e-01
-4.645334818397067744e-01
-4.608134871538499544e-01
-4.456602531339595163e-01
-4.190453773096264323e-01
-3.824761627467789804e-01
-3.359204337908046623e-01
-2.811839928920894516e-01
-2.192464629292328326e-01
-1.517263526224590930e-01
-8.054483993747678372e-02
-6.973803282703201767e-03
6.665417605399107104e-02
1.390993138421880992e-01
2.080765431654992281e-01
2.723892775598805716e-01
3.302689377308106189e-01
3.801953487110014129e-01
4.214461116270109553e-01
4.523440023050600001e-01
4.731076619273841821e-01
4.824664120213169038e-01
4.805228563082876159e-01
4.674862509404935085e-01
4.431420915537556127e-01
4.089888598003890707e-01
3.649089310356576354e-01
3.125215299702150951e-01
2.528358212613288636e-01
1.871561201857951939e-01
1.174364330381062610e-01
4.473525880498274016e-02
-2.871217538057094926e-02
-1.016715690832900032e-01
-1.720480574264657281e-01
-2.384923389652133241e-01
-2.993842110545172908e-01
-3.530831256116093164e-01
-3.988495041484296233e-01
-4.349312475370146203e-01
-4.613330357597157372e-01
-4.767977412708753748e-01
-4.811674466416714369e-01
-4.746600843722818541e-01
-4.568029261087216963e-01
-4.289817224112866811e-01
-3.909981286409587864e-01
-3.442531130236380355e-01
-2.898150324904366082e-01
-2.287007513163753780e-01
-1.629270113867554159e-01
-9.339415001663568805e-02
-2.226997165024435094e-02
4.917079743457079821e-02
1.190407812034847412e-01
1.857998428158759985e-01
2.480385293752331299e-01
3.040072656899109327e-01
3.529767705137391021e-01
3.932321068574163858e-01
4.245201962722031652e-01
4.457312406765780999e-01
4.564428807703719837e-01
4.568696978081333016e-01
4.463638543069115561e-01
4.260591693471962316e-01
3.957330278121231615e-01
3.564855725262052188e-01
3.093415644165955491e-01
2.550361884142003932e-01
1.954847635912414505e-01
1.314377120830587664e-01
6.493081102858559717e-02
-2.764164327947112552e-03
-6.994822962669854094e-02
-1.349162500247914620e-01
-1.964066026617186655e-01
-2.525360666689707156e-01
-3.024972730318135072e-01
-3.445931540676421823e-01
-3.782357292915713431e-01
-4.024276046356724534e-01
-4.164921082729298729e-01
-4.205776593665541685e-01
-4.139863831087723378e-01
-3.975984357381625589e-01
-3.712987074509866425e-01
-3.360351590815651712e-01
-2.928555389245307561e-01
-2.424688992766715345e-01
-1.867596735933232110e-01
-1.265258312517552886e-01
-6.381182129851743767e-02
6.787446695682292086e-05
6.345787813605577310e-02
1.245352605964798881e-01
1.821531576375099437e-01
2.343581914253543286e-01
2.803814442149079600e-01
3.186386420124704966e-01
3.484092011527853971e-01
3.689413191558214566e-01
3.795062197576347662e-01
3.803494148885455117e-01
3.708978628194966598e-01
3.519449565095171817e-01
3.235892297587186772e-01
2.867538679883848696e-01
2.425548010557758150e-01
1.917602082071722114e-01
1.362325943902564229e-01
7.683992556638064020e-02
1.563445802229929127e-02
-4.606909185678184637e-02
-1.066254014610445860e-01
-1.641775548890814507e-01
-2.176580787289039698e-01
-2.650871258444402745e-01
-3.057834314453582447e-01
-3.382288170295191243e-01
-3.616888443605746351e-01
-3.756167164792300617e-01
-3.792983564246086847e-01
-3.731692628973163894e-01
-3.567788356939683991e-01
-3.309898362460384491e-01
-2.961595901130072428e-01
-2.532818315651546026e-01
-2.036727299184042106e-01
-1.482221026111793516e-01
-8.887443583169393757e-02
-2.664827626089025236e-02
3.635984901466363106e-02
9.880978460979591982e-02
1.590255608788348207e-01
2.151829060287680506e-01
2.662901032131055334e-01
3.104026421087255350e-01
3.470565108960099177e-01
3.747772010900929374e-01
3.929741156318486972e-01
4.013189441524870338e-01
3.991370512126243275e-01
3.871731058309215157e-01
3.649745091808083153e-01
3.335331750140126950e-01
2.933792923392512519e-01
2.454658956441528872e-01
1.913195342584131098e-01
1.317463964862060077e-01
6.873998108909395999e-02
3.373396511018936228e-03
-6.232908143377129118e-02
-1.269675937133004362e-01
-1.889260059754586385e-01
-2.463722637137775728e-01
-2.983296324177816539e-01
-3.428741649328183039e-01
-3.795677275462522315e-01
-4.069346680217080792e-01
-4.243912390860837824e-01
-4.316718886695483093e-01
-4.280844891137786656e-01
-4.144620741406911946e-01
-3.903572807258499089e-01
-3.568177150929736641e-01
-3.144897822187524561e-01
-2.643208011648309763e-01
-2.079885978799013990e-01
-1.463138779204104789e-01
-8.138589139517327098e-02
-1.437226027137716855e-02
5.272994147645268526e-02
1.183629610537750149e-01
1.809965526335837738e-01
2.387356742084259797e-01
2.906286758547644289e-01
3.348412399273815176e-01
3.708549042461362633e-01
3.973853726332325365e-01
4.138544838328526154e-01
4.201081389605794136e-01
4.155541361047746518e-01
4.010208243556647179e-01
3.762164127759179966e-01
3.422282410975934774e-01
2.997715850115926228e-01
2.498327766682357232e-01
1.941149912114837339e-01
1.334497671921427708e-01
6.998340664247193477e-02
4.838320101523005401e-03
-5.998951659129241054e-02
-1.229117737701435620e-01
-1.825115701429548820e-01
-2.368080611417594794e-01
-2.850077572455230746e-01
-3.252532905141024555e-01
-3.570346591076330456e-01
-3.792345379503965219e-01
-3.911847052407556591e-01
-3.929809384202145872e-01
-3.839636495870757393e-01
-3.650526939029852258e-01
-3.361054611024292260e-01
-2.981462609687630660e-01
-2.521434954613902546e-01
-1.989745392844547434e-01
-1.404648030838635542e-01
-7.748142957396977892e-02
-1.212111943141274545e-02
5.439731300550153248e-02
1.202082523987857421e-01
1.836729833696820746e-01
2.434940307736701837e-01
2.977082048272719494e-01
3.456467902077242638e-01
3.854967176376769555e-01
4.167663109156174439e-01
4.384998951021579772e-01
4.499156873868428996e-01
4.513394985058266085e-01
4.419361819728633289e-01
4.226275393012383641e-01
3.933241006768770087e-01
3.547720379387856449e-01
3.081437454904426554e-01
2.539591630789592713e-01
1.940336048391617940e-01
1.291873700855577789e-01
6.122820989584035201e-02
-8.450998747249277576e-03
-7.828991368138703277e-02
-1.465744192383021949e-01
-2.120214810740408407e-01
-2.727673791544822923e-01
-3.279686034888984469e-01
-3.758672300029129998e-01
-4.157946828005717466e-01
-4.467154145066977167e-01
-4.677294999062486802e-01
-4.790380466550672178e-01
-4.796261346291335603e-01
-4.702589687933224627e-01
-4.507219183250610883e-01
-4.215698806629412099e-01
-3.839550113850999091e-01
-3.381288757777496379e-01
-2.858810066236375236e-01
-2.278919151418318523e-01
-1.658511979590995833e-01
-1.011818447832388834e-01
-3.521626603173855230e-02
3.022819779369495530e-02
9.403272078632407549e-02
1.543050074986793141e-01
2.102001919782127692e-01
2.600433835341167677e-01
3.029774453376831156e-01
3.380957692615118027e-01
3.642963476573825021e-01
3.817879468059471870e-01
3.894130338674593461e-01
3.877066956197922631e-01
3.764352555931759770e-01
3.558415908492467139e-01
3.270411460399083592e-01
2.899682092984651183e-01
2.462536618705436775e-01
1.964043004789015889e-01
1.418941448129007465e-01
8.410302055747437278e-02
2.408902807547375069e-02
-3.625395290668420589e-02
-9.601255119530771598e-02
-1.531994704568078181e-01
-2.069556868924731230e-01
-2.556478338488048507e-01
-2.980808262665689545e-01
-3.335099541342094742e-01
-3.604373442107784431e-01
-3.790582200645313815e-01
-3.880565991847834129e-01
-3.875686816320554895e-01
-3.775299199710178133e-01
-3.577250894589887320e-01
-3.293776981834409812e-01
-2.922369771454440546e-01
-2.477124103582146741e-01
-1.965181492035032451e-01
-1.398350724758852803e-01
-7.926654726514692495e-02
-1.576513448740900214e-02
4.875987272891463969e-02
1.132311631419729847e-01
1.757295079230201118e-01
2.351972161607799872e-01
2.900157487897073727e-01
3.388341432910341178e-01
3.808583197796564512e-01
4.144818614742817875e-01
4.397992445756879754e-01
4.554268545411737090e-01
4.613019757422281986e-01
4.573787416754823143e-01
4.432254145990948135e-01
4.200294901097781919e-01
3.874098040230663509e-01
3.466147668041850149e-01
2.983825052020140367e-01
2.436742019421050953e-01
1.841510123035423607e-01
1.206282316061896287e-01
5.500266724562696830e-02
-1.160022971019886162e-02
-7.735428140064887215e-02
-1.409927428584682452e-01
-2.009755009067469567e-01
-2.557808235515215967e-01
-3.045268991293700322e-01
-3.455332004640495058e-01
-3.786217688623700339e-01
-4.024090582504941116e-01
-4.166094768127259762e-01
-4.211020431193912561e-01
-4.152966751599906359e-01
-4.002436430770873188e-01
-3.754838681881544904e-01
-3.421732794122713250e-01
-3.010137252379575523e-01
-2.528311777025327722e-01
-1.993578284050451788e-01
-1.412431318031787120e-01
-8.047972244372919581e-02
-1.812743393713189821e-02
4.405693703671564876e-02
1.046131914661973528e-01
1.622591218335064367e-01
2.152409739449056558e-01
2.628244610350718991e-01
3.033042173714871614e-01
3.362891271534272919e-01
3.606489348770268721e-01
3.757888947460432671e-01
3.817491348752349301e-01
3.777804858824256873e-01
3.647489042027800554e-01
3.423030770753280883e-01
3.112900364688961918e-01
2.725003750442875905e-01
2.265153107157069079e-01
1.749863217742920196e-01
1.185116357087054317e-01
5.892358105207851082e-02
-2.672644380283639709e-03
-6.468879179493769449e-02
-1.255461765192207313e-01
-1.840601349963093547e-01
-2.383820289387074132e-01
-2.877165573502925566e-01
-3.303512752832978294e-01
-3.656192028525405702e-01
-3.924748233884102766e-01
-4.100692250684234708e-01
-4.184151269319785760e-01
-4.166667379636324609e-01
-4.054627574960176783e-01
-3.845626429200952323e-01
-3.546211389967421357e-01
-3.165126132141554693e-01
-2.707657693992915338e-01
-2.190065003467000504e-01
-1.619566727231061820e-01
-1.014192324952656460e-01
-3.863742239642535548e-02
2.480698409431392193e-02
8.721762668200780388e-02
1.473775322996309367e-01
2.033869249160683013e-01
2.543891214206841500e-01
2.986986722996360921e-01
3.355368084498988046e-01
3.639422932941190902e-01
3.830334492112225098e-01
3.928606524205819905e-01
3.926106356686565046e-01
3.828913560165541630e-01
3.635450962955626419e-01
3.352335359829056172e-01
2.988899448557010285e-01
2.550197840228388135e-01
2.053096614647462737e-01
1.504570626484226237e-01
9.231150601375531783e-02
3.214953770822043255e-02
-2.852346809932909677e-02
-8.787188505430809649e-02
-1.448048628495334778e-01
-1.973442213972901316e-01
-2.446414225317137814e-01
-2.851054745966604131e-01
-3.178210852797647701e-01
-3.420209291686179820e-01
-3.567765345437636237e-01
-3.622364763258458797e-01
-3.576992377707458592e-01
-3.437560704761494779e-01
-3.204791633179043808e-01
-2.885620581107258831e-01
-2.491218894353649516e-01
-2.027529816220176029e-01
-1.512346131343396682e-01
-9.541580771660723714e-02
-3.717179578076362789e-02
2.209171536398141233e-02
8.091936949080830166e-02
1.374241223165846848e-01
1.905764843661696961e-01
2.384991129606137683e-01
2.803902752068671012e-01
3.148818525701170268e-01
3.411299117758896937e-01
3.586050679997699886e-01
3.665767499783368910e-01
3.653475154629347577e-01
3.544724945460293597e-01
3.346514525606326673e-01
3.061762308837974178e-01
2.698884154332592544e-01
2.269965068277854936e-01
1.782258644013863247e-01
1.253827927271848885e-01
6.937621589137132894e-02
1.209348380339214657e-02
-4.511473707436230995e-02
-1.008089069020543516e-01
-1.531859561558646110e-01
-2.013061575200456588e-01
-2.433936369648717069e-01
-2.788185248708356934e-01
-3.063116111712138601e-01
-3.251965271927337309e-01
-3.351096779807023474e-01
-3.354915547149289745e-01
-3.268552918033026389e-01
-3.088916391316127719e-01
-2.825005340963908096e-01
-2.481255923907958738e-01
-2.068032099382687283e-01
-1.598523169482895523e-01
-1.081328564961101524e-01
-5.358075073059198612e-02
2.875116286452428227e-03
5.922908530511761249e-02
1.141923903384380878e-01
1.663090874610435588e-01
2.137842607162558917e-01
2.558449276813274942e-01
2.907375209690705731e-01
3.180097381806910040e-01
3.365410682809564236e-01
3.457604282270694274e-01
3.455675212550664011e-01
3.355246534732680974e-01
3.163073427203002552e-01
2.878429610127337668e-01
2.511487634302616012e-01
2.068937886393242831e-01
1.562511361829554968e-01
1.006607974890425528e-01
4.117736129202165252e-02
-2.015760733869242927e-02
-8.228141405458644364e-02
-1.430784791715258297e-01
-2.011767466235145907e-01
-2.550271482924193478e-01
-3.027812192719787632e-01
-3.436507887360497060e-01
-3.758707447034490556e-01
-3.990086272087329800e-01
-4.120215288113786567e-01
-4.144443818197439677e-01
-4.063352262486145117e-01
-3.874278457830728772e-01
-3.586033440925201488e-01
-3.200410141724384649e-01
-2.730448055708220023e-01
-2.185604074176492606e-01
-1.580419186867454417e-01
-9.322121058496879442e-02
-2.540025725787264932e-02
4.310832598498226531e-02
1.110675840051444929e-01
1.762005337398646621e-01
2.370060674000897816e-01
2.919076614327418273e-01
3.390378625805574586e-01
3.777011499004347961e-01
4.062175508992544870e-01
4.243189082054625860e-01
4.311499121634980725e-01
4.264951328204473757e-01
4.106911875070425877e-01
3.836835746282712956e-01
3.466981208814871041e-01
3.001041310481518121e-01
2.455279118586907172e-01
1.841575332122616926e-01
1.175807710029290742e-01
4.783562493334414523e-02
-2.376010866286171197e-02
-9.469814519822483678e-02
-1.636967958564930492e-01
-2.285056908906459294e-01
-2.875221930487514288e-01
-3.393449173733336099e-01
-3.821141985044888001e-01
-4.153329824504582435e-01
-4.374532373684641984e-01
-4.483617712902803198e-01
-4.474787457451617767e-01
-4.347399710968649078e-01
-4.108474301350599212e-01
-3.758530815651822121e-01
-3.312800280247280571e-01
-2.777142224712066398e-01
-2.168989700417756628e-01
-1.503428232924873820e-01
-7.957133548480121998e-02
-6.824336617467174904e-03
6.658120728466510041e-02
1.382158230606796989e-01
2.067293817308454296e-01
2.701225099399009455e-01
3.268276151825650899e-01
3.756576681105781024e-01
4.149839222169016129e-01
4.444797986931365852e-01
4.628514645451833331e-01
4.701518870680312379e-01
4.660226436136909456e-01
4.505564262040393508e-01
4.246514933919431911e-01
3.883902791387532361e-01
3.433907633623780598e-01
2.902758084951018169e-01
2.307257573833783049e-01
1.663121932164282057e-01
9.835472237865561240e-02
2.905903124877351473e-02
-4.038747412851906304e-02
-1.077526568623707881e-01
-1.717410976495825636e-01
-2.306030632653737200e-01
-2.828530263071740158e-01
-3.274650838931383312e-01
-3.629740937665606459e-01
-3.891560714168114110e-01
-4.048461794731514907e-01
-4.101647508151979871e-01
-4.048618240831061144e-01
-3.890844526150551985e-01
-3.638328420065617408e-01
-3.291650283832088242e-01
-2.867337062935915171e-01
-2.371690497473437631e-01
-1.820997860811899294e-01
-1.231199312220989661e-01
-6.139194610216769377e-02
9.039724625403700031e-04
6.273426912276303113e-02
1.219931817912409677e-01
1.775122112359857063e-01
2.277775711443701390e-01
2.713764340467927916e-01
3.075701604746827744e-01
3.349995969998023071e-01
3.536475532891472096e-01
3.625302687311611205e-01
3.617853133301001112e-01
3.514176158624409130e-01
3.315345320203910706e-01
3.032605348170218651e-01
2.666580697446845338e-01
2.232725164176561083e-01
1.738246973063111156e-01
1.197569842943684293e-01
6.265643141490984114e-02
3.554281790304258948e-03
-5.551837718777596908e-02
-1.135627263212189986e-01
-1.686677392608739168e-01
-2.197108946368863391e-01
-2.653179548884206929e-01
-3.041537497268524959e-01
-3.355544516200281713e-01
-3.582872031296351345e-01
-3.723319071341166797e-01
-3.768516010193352361e-01
-3.719886462176500430e-01
-3.578506303281363543e-01
-3.346425826237342527e-01
-3.034525970233752368e-01
-2.645322188317535961e-01
-2.194141986308908443e-01
-1.689214597842907395e-01
-1.145743321664567382e-01
-5.790502690214083259e-02
-7.920927258808774241e-05
5.691774150311257330e-02
1.120932052869774154e-01
1.635591130776630209e-01
2.102870425022196343e-01
2.509646798785682975e-01
2.843699411994462523e-01
3.099889980869567907e-01
3.267269223654407639e-01
3.346839921947779573e-01
3.332202577551655054e-01
3.226165656084418742e-01
3.031406015154782807e-01
2.751503398441945691e-01
2.398014470225318107e-01
1.974940852875892716e-01
1.498603293043103690e-01
9.774668887890847202e-02
4.277057995331112750e-02
-1.355129660893084065e-02
-7.004114131389105324e-02
-1.246463451075792150e-01
-1.765069538337034061e-01
-2.236673769840349379e-01
-2.651728156660375646e-01
-2.998062162501131667e-01
-3.262889530857870923e-01
-3.443601268437159746e-01
-3.528621526110029549e-01
-3.520410948112031591e-01
-3.414230129091606614e-01
-3.212719800307173301e-01
-2.922004876132078266e-01
-2.545215202539221622e-01
-2.096209366225831872e-01
-1.580815771103534217e-01
-1.015533138722073403e-01
-4.122018345379707682e-02
2.136398087242508126e-02
8.446684388134606536e-02
1.468306656859006409e-01
2.064407336531459691e-01
2.622663390322976795e-01
3.124959681395029776e-01
3.561058691674263699e-01
3.919663182839250304e-01
4.189346584714326305e-01
4.367907328420579383e-01
4.445523358131469038e-01
4.425430261961804668e-01
4.304395752960392674e-01
4.086462788382776434e-01
3.779091044575693115e-01
3.386091726560470638e-01
2.922466840171260016e-01
2.394676519784030011e-01
1.819526435832806710e-01
1.209882858451745147e-01
5.803278400136147042e-02
-5.112166087167580031e-03
-6.724163353979806246e-02
-1.264386386158653508e-01
-1.816316108775852811e-01
-2.311988850517572303e-01
-2.741211482681356060e-01
-3.093661797918914047e-01
-3.359786311155055216e-01
-3.537411698352332934e-01
-3.618619279686150492e-01
-3.607466365452296486e-01
-3.501280586495134628e-01
-3.306345799221430681e-01
-3.029969498055731236e-01
-2.677124827335060075e-01
-2.263835691028361907e-01
-1.795700258511647718e-01
-1.291337912839072288e-01
-7.621096216001888024e-02
-2.224560457318780493e-02
3.093467793048887415e-02
8.241900017912939802e-02
1.301956758876610110e-01
1.735258259390999314e-01
2.108956307832432486e-01
2.413362925796391778e-01
2.642293642844606438e-01
2.785413341326226089e-01
2.844431740214989901e-01
2.812107145578401912e-01
2.692749552294539939e-01
2.487140798041540535e-01
2.200099385057843193e-01
1.841704232684211462e-01
1.416494035076709679e-01
9.400645325764855897e-02
4.198119978505232552e-02
-1.273897326241524297e-02
-6.889831475356977819e-02
-1.251362603786976280e-01
-1.796755518140091823e-01
-2.315676421938128726e-01
-2.788987658224559851e-01
-3.209421920433879194e-01
-3.562281992367903882e-01
-3.838093940682476557e-01
-4.031540914348266114e-01
-4.132295144500091055e-01
-4.143474261992441399e-01
-4.058087502046063832e-01
-3.880677870802209384e-01
-3.614148869301541112e-01
-3.262827185063414959e-01
-2.839067940910080523e-01
-2.347816134096856189e-01
-1.804789481106077176e-01
-1.219928608582740992e-01
-6.091034026805619561e-02
1.339723280555205065e-03
6.337230894782575064e-02
1.234916980279319176e-01
1.805760542110705913e-01
2.328862376050984118e-01
2.796820796063643755e-01
3.194882071782134680e-01
3.515504308065116046e-01
3.752418487463239360e-01
3.897177713981290204e-01
3.950152593145053181e-01
3.911228437674636460e-01
3.790168025300832966e-01
3.578835144695968751e-01
3.272862787582937472e-01
2.892989817432294331e-01
2.463112632972634941e-01
2.005532028999290617e-01
1.498812870679273601e-01
9.274470826770375709e-02
3.357893076124085496e-02
-2.088629444247835920e-02
-6.810284104856911824e-02
-1.147559635026063063e-01
-1.664437428462548496e-01
-2.156544994872646726e-01
-2.472484393831173577e-01
-2.581362679087888523e-01
-2.662072781549085221e-01
-2.898954881416884177e-01
-3.178484496965019446e-01
-3.086291211489928799e-01
-2.330469545258040398e-01
-1.117265267404583540e-01
-5.943437885590041603e-03
