BVP Green Neck Signal
1.066258483239833701e-02
-5.558477961878505874e-02
-1.179503472804568770e-01
-1.725487093341102340e-01
-2.157314164722243521e-01
-2.443093607696365244e-01
-2.558593829596465530e-01
-2.490742067148672689e-01
-2.240768679039512601e-01
-1.826046058636387470e-01
-1.279867860733243101e-01
-6.489154343210838671e-02
1.129087904739330302e-03
6.423026952097708742e-02
1.189231503549525587e-01
1.606981562241950878e-01
1.865362781630521272e-01
1.952292811215144142e-01
1.874590886154414715e-01
1.656318610279139680e-01
1.335029708309680430e-01
9.565160382651109738e-02
5.687335749305699739e-02
2.156761445151221188e-02
-6.797095260501299745e-03
-2.606444271257838882e-02
-3.557082796703468774e-02
-3.611378542884754322e-02
-2.972584069210392962e-02
-1.929011118937025426e-02
-8.051070569567671253e-03
9.077850579683102022e-04
5.138732603155882900e-03
3.188023984973457729e-03
-5.203827741243077613e-03
-1.907381955106947705e-02
-3.637863988547607869e-02
-5.429587701096632441e-02
-6.965722608612838485e-02
-7.946286606653929496e-02
-8.140437805657750603e-02
-7.431356828395084546e-02
-5.845600160119008432e-02
-3.559740678850242118e-02
-8.794123458034649315e-03
1.809336710932536382e-02
4.109480891370029254e-02
5.689710612178910248e-02
6.351759437619759752e-02
6.073432334558368645e-02
5.017629138814042739e-02
3.504396644838589370e-02
1.950140421098329677e-02
7.850063550610051483e-03
3.647276246632896908e-03
8.947963236302470397e-03
2.381744911682056112e-02
4.620180471545206474e-02
7.217647568648924428e-02
9.653779970981082870e-02
1.136530496730571577e-01
1.184409859077884958e-01
1.073266243462968894e-01
7.901457368592244845e-02
3.495550927493808885e-02
-2.057460393588167111e-02
-8.081819259981952441e-02
-1.372952348386458910e-01
-1.809199769340679997e-01
-2.033562210952959137e-01
-1.984328210493816746e-01
-1.634024569458520926e-01
-9.981965080277405145e-02
-1.383862447431319018e-02
8.420968128046942003e-02
1.810014599209347486e-01
2.620650353244498576e-01
3.140357334585600069e-01
3.269478463564456927e-01
2.961338942450425504e-01
2.233282557191125506e-01
1.166927306647615598e-01
-1.030958773538180259e-02
-1.410098310348013861e-01
-2.581925734788331206e-01
-3.468001271725519308e-01
-3.961872563478370246e-01
-4.015600611740425263e-01
-3.644091502827894180e-01
-2.919269428195260807e-01
-1.955602428070591925e-01
-8.898163064783017051e-02
1.414914002084953840e-02
1.022419008250043809e-01
1.673162016361360027e-01
2.058093825802875809e-01
2.185849783276512803e-01
2.102177067329270843e-01
1.877483922663446270e-01
1.591744693746071915e-01
1.319559321121356044e-01
1.117749689793259560e-01
1.017126982876711411e-01
1.019272713263235791e-01
1.098480704028935717e-01
1.208360278685952083e-01
1.291941726091373477e-01
1.293543088389234874e-01
1.170342481857292449e-01
9.016538124542756993e-02
4.942663226784629188e-02
-1.721076130942962405e-03
-5.752656993087339882e-02
-1.108941549477628769e-01
-1.546106276432616389e-01
-1.826131512261203738e-01
-1.910504343322149134e-01
-1.789427168710865657e-01
-1.483339874370105116e-01
-1.039255829167048256e-01
-5.227004108337010568e-02
-6.798840940807999653e-04
4.394583311401965148e-02
7.616882944217467921e-02
9.276235901668249129e-02
9.305992014055113060e-02
7.886860216918080424e-02
5.398433388652121301e-02
2.341266492779096181e-02
-7.549505113200144328e-03
-3.419784811356931659e-02
-5.312239188877978385e-02
-6.263411453437826848e-02
-6.287950728794378108e-02
-5.564901382928953699e-02
-4.392080017947234266e-02
-3.121930236133764122e-02
-2.090224304300713695e-02
-1.550224294830554808e-02
-1.623101659222298335e-02
-2.271699398460057945e-02
-3.301035480685095974e-02
-4.386031319881543433e-02
-5.124075790871922970e-02
-5.106458242179208462e-02
-3.998799442360327638e-02
-1.617498352754353358e-02
2.012182787547100657e-02
6.629891387357000898e-02
1.175547673817417954e-01
1.674811249073539232e-01
2.090162450073921319e-01
2.355909267006523200e-01
2.422495300686068054e-01
2.265389943312091370e-01
1.890105150722464766e-01
1.332444249108807321e-01
6.538029099201969618e-02
-6.783403766796823435e-03
-7.496835335525996180e-02
-1.316574971781425685e-01
-1.711674651556590321e-01
-1.903658427806457776e-01
-1.889288868391623133e-01
-1.691289243932071196e-01
-1.352289927424182303e-01
-9.263484089563119028e-02
-4.699440567865181828e-02
-3.423510041083754722e-03
3.402571438827766553e-02
6.262092028184662595e-02
8.096435058599128765e-02
8.883376699855145830e-02
8.692630457507420638e-02
7.658135281344118084e-02
5.954684374410862402e-02
3.782386845270016562e-02
1.358309904790709621e-02
-1.088786970248540806e-02
-3.325825558833944706e-02
-5.128819310279870286e-02
-6.303672867314430439e-02
-6.712673547008835007e-02
-6.301693589279865060e-02
-5.120339729423057512e-02
-3.326771973865066956e-02
-1.172014953916207525e-02
1.035585128237477212e-02
2.979371015032481959e-02
4.387240899249451875e-02
5.078304637820852535e-02
4.994420922979790622e-02
4.209884991549795591e-02
2.916244674068462286e-02
1.384563798639994181e-02
-8.712670116873882584e-04
-1.230192357373597473e-02
-1.854394151254368933e-02
-1.880373838085903568e-02
-1.349623050438387636e-02
-4.100654959048293489e-03
7.194549401329549190e-03
1.797470168516931976e-02
2.609914788540447853e-02
3.011553518396323584e-02
2.951742645262615122e-02
2.481242247478351523e-02
1.739948372125601356e-02
9.281882565480868708e-03
2.669771681103672197e-03
-4.526871257807775148e-04
1.283224487081909872e-03
8.349567949465126759e-03
2.019204125555056420e-02
3.527507272933071147e-02
5.130412886296749353e-02
6.559801217803727658e-02
7.554809685272163844e-02
7.907674488219841591e-02
7.500921235619709138e-02
6.329817513943983287e-02
4.506916872199125818e-02
2.247838352896832509e-02
-1.602142186009926188e-03
-2.402565889796284479e-02
-4.186169417414885990e-02
-5.284854132933346910e-02
-5.573124234770673174e-02
-5.043530142318481541e-02
-3.805473370783132164e-02
-2.066200962600216184e-02
-9.793569512743472913e-04
1.802084926570576492e-02
3.350902719521333534e-02
4.312278096529097854e-02
4.519114339723887680e-02
3.885335701858381313e-02
2.408194871986705024e-02
1.630375439980982950e-03
-2.706349966343182464e-02
-5.998338932626446490e-02
-9.463125823174373119e-02
-1.281279343992804132e-01
-1.573568654769135766e-01
-1.791894090679373719e-01
-1.908033577338640319e-01
-1.900718390688717896e-01
-1.759707842809891398e-01
-1.489296262829145900e-01
-1.110307813995477233e-01
-6.596024086059018576e-02
-1.864049524961076607e-02
2.546108629169830176e-02
6.128049794090446173e-02
8.522915856665179424e-02
9.620869154893847697e-02
9.635152654751268086e-02
9.125393998295348863e-02
8.949626136107120822e-02
1.013431909548564852e-01
1.366864091147638183e-01
2.025008907601993091e-01
3.002847579468487793e-01
4.240845321318969519e-01
5.597209302554330135e-01
6.856852558492360084e-01
7.758671124253843088e-01
8.038511233230845043e-01
7.480890251626787224e-01
5.969383690825955657e-01
3.524569344103324342e-01
3.199618088966445922e-02
-3.329672723548203206e-01
-7.007624365429105939e-01
-1.025624468715498061e+00
-1.264898830950134112e+00
-1.386039730508183077e+00
-1.372116935062867027e+00
-1.224807527358293679e+00
-9.642910728574946022e-01
-6.260192264336488233e-01
-2.549129784940374344e-01
1.019546397353881667e-01
4.028276782596421079e-01
6.175094946898938009e-01
7.312804027338871693e-01
7.458937276364913105e-01
6.776480164054904387e-01
5.530921345835625447e-01
4.033348656407420019e-01
2.581271035144377946e-01
1.408345553183058818e-01
6.515024473013310280e-02
3.398662065707255125e-02
4.053442496938438472e-02
7.106644940390823006e-02
1.087641750970447380e-01
1.377026454691366864e-01
1.461726533448963194e-01
1.287390763624278456e-01
8.676659964135881309e-02
2.749163255514414442e-02
-3.800452327601811647e-02
-9.740367627137581918e-02
-1.397761992785349072e-01
-1.577178050995375613e-01
-1.486351852694034192e-01
-1.150162399787002798e-01
-6.372603062887167991e-02
-4.538172020010717948e-03
5.177812527843175111e-02
9.544350396731809960e-02
1.193599515999101829e-01
1.202092849813739955e-01
9.878834406011398339e-02
5.957586622973911478e-02
9.680828705665094763e-03
-4.257517646162354424e-02
-8.915163868247315271e-02
-1.235883916177708680e-01
-1.419040691406294463e-01
-1.429842154600032278e-01
-1.284577579026760230e-01
-1.021509884818456587e-01
-6.925998891993576101e-02
-3.539669552361206922e-02
-5.658312794874618794e-03
1.614163699977792452e-02
2.796404993515364326e-02
2.968531910326546383e-02
2.288537788003281934e-02
1.034947253732769815e-02
-4.600308423337302714e-03
-1.880571962873784156e-02
-2.986679311636454906e-02
-3.651192702207899793e-02
-3.867311381516150975e-02
-3.726763422251551383e-02
-3.376115818334509550e-02
-2.963452012758583179e-02
-2.588610177005101418e-02
-2.268246111306252907e-02
-1.923423053671994079e-02
-1.392733840081604793e-02
-4.684676557754916502e-03
1.051763849724631286e-02
3.308579473422038758e-02
6.330565922435454906e-02
9.999783867310065022e-02
1.404060508847548294e-01
1.803685201840878327e-01
2.147818218201536511e-01
2.383104431507694909e-01
2.462375943174569537e-01
2.353137648726423559e-01
2.044492373486495040e-01
1.551117508633358677e-01
9.132650151025796526e-02
1.923718855157513855e-02
-5.372407049979150556e-02
-1.199135476947259665e-01
-1.725911823266089440e-01
-2.068650959523980204e-01
-2.203119237926269014e-01
-2.131985873050901426e-01
-1.883039952956996055e-01
-1.503974472763784931e-01
-1.054754789974255563e-01
-5.988551611138678149e-02
-1.946492282774213087e-02
1.119881381158141856e-02
2.931034449626989877e-02
3.415678188219304495e-02
2.711005175732574338e-02
1.133435874568581095e-02
-8.764050537889731679e-03
-2.826346730719957526e-02
-4.252190383851756073e-02
-4.792668355215288362e-02
-4.248842534174693264e-02
-2.618205105616792580e-02
-9.677082741939594876e-04
2.952291922752764072e-02
6.058711455200677803e-02
8.723969007244346263e-02
1.050619491669836092e-01
1.109727788204593196e-01
1.037879093844030071e-01
8.445987738166998993e-02
5.594719076535546037e-02
2.273640541400471018e-02
-9.891463003158521700e-03
-3.672026615096938423e-02
-5.344451598482827942e-02
-5.736889995368273792e-02
-4.784615008448988432e-02
-2.637426125941940910e-02
3.666654715590166209e-03
3.758944233302310284e-02
7.018378200485912710e-02
9.657531176620164082e-02
1.130159767064841531e-01
1.174675464562153909e-01
1.098701665650556603e-01
9.204859563891897023e-02
6.728809086605036516e-02
3.968022719716036290e-02
1.337291206730779544e-02
-8.141671703578021863e-03
-2.258761275065674853e-02
-2.923040690810985512e-02
-2.892281212328308773e-02
-2.387772230145076766e-02
-1.722270791069628257e-02
-1.242059525275515663e-02
-1.264670890912793916e-02
-2.020742552910019529e-02
-3.607816419557498960e-02
-5.962927465917767372e-02
-8.858580558394288373e-02
-1.192338433116644641e-01
-1.468573210098704507e-01
-1.663732920276045080e-01
-1.731182456625211252e-01
-1.637037971339188325e-01
-1.368070288974593818e-01
-9.371622804118467931e-02
-3.845222237831247974e-02
2.265290037766800116e-02
8.192143411698074584e-02
1.316952660819166732e-01
1.658169790226438622e-01
1.808629428219558632e-01
1.767928189005435469e-01
1.568305250506126514e-01
1.266166826521140654e-01
9.288029993961420538e-02
6.198796547232036241e-02
3.871852870830020527e-02
2.551035775135579789e-02
2.228588745089555082e-02
2.681522445783693018e-02
3.546658082618941304e-02
4.412895719027836589e-02
4.909266688592196087e-02
4.772530312299974598e-02
3.885554872375567015e-02
2.284691740219697495e-02
1.397711764477342807e-03
-2.285576734189142742e-02
-4.683093476828833340e-02
-6.748488854750636645e-02
-8.222269821721414629e-02
-8.919579290034375385e-02
-8.748699258713453497e-02
-7.718919293475488830e-02
-5.938602648760612362e-02
-3.604425678133026806e-02
-9.827290111754760638e-03
1.616729712841228836e-02
3.874804274312099173e-02
5.503639737064883186e-02
6.289485576814003720e-02
6.129765432384112062e-02
5.055920145572147251e-02
3.236262704770571930e-02
9.572140113495646724e-03
-1.415174557394961730e-02
-3.488730274805797865e-02
-4.906246829949655747e-02
-5.404253303044328355e-02
-4.858977181392522965e-02
-3.311165141272030821e-02
-9.653515282724605545e-03
1.836892800488052965e-02
4.666874315408504198e-02
7.075577294725744759e-02
8.667263985221325406e-02
9.166955033988234691e-02
8.468955595993397922e-02
6.657047008073359307e-02
3.992321510457211980e-02
8.701139309734168964e-03
-2.247522960250131555e-02
-4.912742432899287748e-02
-6.771656498670784730e-02
-7.627588696487869191e-02
-7.475422139169272950e-02
-6.500195695459011491e-02
-5.039264660507514898e-02
-3.513108007046960440e-02
-2.335542189358195270e-02
-1.819506636953938453e-02
-2.097855960007421680e-02
-3.077559235057632583e-02
-4.440072221396167834e-02
-5.692109233703410848e-02
-6.261444787727458994e-02
-5.622679118118930480e-02
-3.429190846419110511e-02
3.778287427514311243e-03
5.511348165943933536e-02
1.135090186493476344e-01
1.703030170882149086e-01
2.158885878601015107e-01
2.415912208308563791e-01
2.415297777456756612e-01
2.140345737432125806e-01
1.622490452322109256e-01
9.370848008982417265e-02
1.894248151659536430e-02
-5.058855535285384369e-02
-1.047305050797107534e-01
-1.365149864028669113e-01
-1.432624940192447627e-01
-1.267133112860045763e-01
-9.225365266725334135e-02
-4.752603822322498672e-02
-8.232130295632534775e-04
4.035948428945403815e-02
7.036094263101907997e-02
8.587913879565033104e-02
8.600775466626549293e-02
7.188964818312187921e-02
4.613578934025554940e-02
1.216741167722633701e-02
-2.638747979372479610e-02
-6.616470975407630351e-02
-1.043750613424364593e-01
-1.389549818142958026e-01
-1.685528703331524991e-01
-1.923382830464442639e-01
-2.096376300773145906e-01
-2.194579761409960750e-01
-2.200486261220585826e-01
-2.087237475195857506e-01
-1.821663063415351613e-01
-1.373093529932127854e-01
-7.265796589217511647e-02
1.033577484060592758e-02
1.063652626774512638e-01
2.062685868968830161e-01
2.981018997165160167e-01
3.691213919064264548e-01
4.082487669889715565e-01
4.084652091076584335e-01
3.685708514838880734e-01
2.938500808740487913e-01
1.954003687183262783e-01
8.819152154614938455e-02
-1.175198582538237654e-02
-9.041491872422284526e-02
-1.383994316306732808e-01
-1.524888817516665551e-01
-1.358393393884694544e-01
-9.681004055379538453e-02
-4.677816240347573012e-02
2.477599537203040332e-03
4.117021085726784574e-02
6.314069747829756385e-02
6.646438603260708400e-02
5.305113780969290121e-02
2.750153089647939392e-02
-4.392174065432570378e-03
-3.710063455210047684e-02
-6.645299446368362062e-02
-9.020439017176511143e-02
-1.080625112326627918e-01
-1.212758308542163238e-01
-1.319366606776310735e-01
-1.421553688876586452e-01
-1.532566587642719413e-01
-1.651543165140907099e-01
-1.760592658060234628e-01
-1.826337390004609817e-01
-1.806102100964001034e-01
-1.657704020876348272e-01
-1.350675367667328042e-01
-8.761060866507293377e-02
-2.523851011721007717e-02
4.749448891288132052e-02
1.239385702856500432e-01
1.964143678785212344e-01
2.574489978498383236e-01
3.008934897912293738e-01
3.227128582742057605e-01
3.213585686049875156e-01
2.977395059393130317e-01
2.548801154015370996e-01
1.973912177737956464e-01
1.308789036665250205e-01
6.138008654385527368e-02
-5.144044254887176863e-03
-6.327063982257570551e-02
-1.085541168339884260e-01
-1.379305626620078995e-01
-1.500364848383309024e-01
-1.453714492870267494e-01
-1.262467123513343059e-01
-9.649799605880564346e-02
-6.098623216109459039e-02
-2.495416833607445178e-02
6.662100149352733099e-03
2.986090587080320394e-02
4.205608116233720134e-02
4.235764450855575292e-02
3.162557256359383590e-02
1.228967275464133355e-02
-1.204645022931347467e-02
-3.716226258775786467e-02
-5.884850924508575748e-02
-7.350757625186918331e-02
-7.864505575674544946e-02
-7.319870337797872162e-02
-5.767001853515037885e-02
-3.403865096006213065e-02
-5.464996835402728508e-03
2.417769632631825219e-02
5.087008067950391649e-02
7.102935170774141160e-02
8.202839598090297391e-02
8.257902936106037428e-02
7.291688345227329004e-02
5.474982183921790063e-02
3.097514046920128716e-02
5.218795237008637573e-03
-1.871983129020695150e-02
-3.742971735810580319e-02
-4.837864769488819938e-02
-5.026565999532517370e-02
-4.318337637859230582e-02
-2.856613522170876537e-02
-8.939294313475659032e-03
1.248152342405946594e-02
3.227809697695245561e-02
4.733947973369943135e-02
5.532689478254233101e-02
5.502304189371364646e-02
4.650542075464558778e-02
3.111572499081035822e-02
1.123981824538712246e-02
-1.005669265794937803e-02
-2.948192448525959256e-02
-4.400370616249862227e-02
-5.130795288654275976e-02
-5.016634701260323098e-02
-4.065843237561517914e-02
-2.421311927367929967e-02
-3.454954416400607235e-03
1.814552378481941453e-02
3.680131086764198284e-02
4.906924267825444469e-02
5.254617754985966421e-02
4.647048772222096141e-02
3.209320916456063350e-02
1.270975728843879576e-02
-6.709404158131155281e-03
-2.028792162561682960e-02
-2.233266899200307687e-02
-8.577423071037513364e-03
2.265068278441799421e-02
6.959295438366351616e-02
1.267644404272021685e-01
1.853406935650373233e-01
2.342599020365561946e-01
2.619479268885588907e-01
2.584326281408133030e-01
2.174868708435463704e-01
1.383708024303609563e-01
2.676539731589243701e-02
-1.053967950144834159e-01
-2.413110497636221652e-01
-3.617642449124743309e-01
-4.483113088928050161e-01
-4.865869067629679523e-01
-4.690770274956916897e-01
-3.967354622087485017e-01
-2.790509149485823071e-01
-1.325018762432589037e-01
2.230545317278483444e-02
1.642288669875908436e-01
2.751721701325684499e-01
3.429405780579901641e-01
3.628401478360801513e-01
3.377950016896324459e-01
2.770917078028653502e-01
1.941370802063791812e-01
1.037714007193161619e-01
1.969796802051284115e-02
-4.750877496918538140e-02
-9.153590171782570450e-02
-1.105451012215417778e-01
-1.066086197526456419e-01
-8.464051293953518684e-02
-5.112777312870962765e-02
-1.291871778973561341e-02
2.375809790277920094e-02
5.395913260218754282e-02
7.436839191176075614e-02
8.337106922549213095e-02
8.094137508331783470e-02
6.841810479804162626e-02
4.820885937368817736e-02
2.343885052435360980e-02
-2.440153843869900634e-03
-2.605185897136085352e-02
-4.447279778303013520e-02
-5.555367052413277829e-02
-5.815782854269144903e-02
-5.228896596177331352e-02
-3.908255601560368248e-02
-2.065233395930873503e-02
1.904835911644741156e-04
2.030793035962730544e-02
3.665348497030581493e-02
4.669443593690558031e-02
4.878662505652741482e-02
4.243893970293571155e-02
2.841065328074455359e-02
8.616118557895728614e-03
-1.414555432746348457e-02
-3.658661290698603935e-02
-5.539221732990795566e-02
-6.768688313712435678e-02
-7.144620898620460125e-02
-6.579921131400644219e-02
-5.118131326898661682e-02
-2.931772130473892998e-02
-3.031529192532102061e-03
2.411864198413953345e-02
4.834698381402080525e-02
6.623366313885765966e-02
7.530104753734183365e-02
7.445314957274024037e-02
6.417919603769309256e-02
4.647415046298592617e-02
2.448997889579332399e-02
1.984300558551786893e-03
-1.732806366757540587e-02
-3.039509768232861661e-02
-3.530232316090785305e-02
-3.152616950888857683e-02
-1.994646576039275573e-02
-2.644547216891908643e-03
1.746365884629529769e-02
3.710068270669195784e-02
5.313765544481007658e-02
6.306368794636539599e-02
6.534243512479391558e-02
5.960818931737216914e-02
4.668487895292281614e-02
2.843554387775630576e-02
7.466200241495896291e-03
-1.327543764198369294e-02
-3.094675861449596929e-02
-4.323136308568682057e-02
-4.867027981588296914e-02
-4.686062715136952300e-02
-3.849946042319282030e-02
-2.526345893683610774e-02
-9.531315358111653452e-03
6.014888596902749802e-03
1.884008455969337845e-02
2.697422020347731153e-02
2.932549609788790909e-02
2.584241100335936403e-02
1.750236442603073095e-02
6.126423775674491416e-03
-5.952044253588255514e-03
-1.630511154073759766e-02
-2.283511315143977802e-02
-2.413250998282226445e-02
-1.971512349079466986e-02
-1.011826933281287713e-02
3.181042488940420514e-03
1.800509280365101064e-02
3.184962560302301293e-02
4.232439942665646576e-02
4.757601376073958971e-02
4.661722586281653868e-02
3.950914695118860204e-02
2.736511934728706394e-02
1.216890325520262120e-02
-3.566859785481285398e-03
-1.723783270942388923e-02
-2.659337910095992477e-02
-3.010822841325925744e-02
-2.722528924430446182e-02
-1.844218788432457415e-02
-5.232345403143562161e-03
1.019202343818699161e-02
2.524283066794677163e-02
3.738510185418083415e-02
4.455742728729776558e-02
4.551465893614644459e-02
4.004008727987886512e-02
2.899087028078970243e-02
1.415993277999988420e-02
-2.030318419566099451e-03
-1.694634057403419589e-02
-2.818939285420887439e-02
-3.398531936172103501e-02
-3.345843477865049348e-02
-2.675744071146604272e-02
-1.502169268195869753e-02
-1.944684440744462103e-04
1.528686523504490385e-02
2.887163266828791930e-02
3.828721757568603890e-02
4.188853347811349881e-02
3.892402493120480228e-02
2.968030408991000416e-02
1.547144001854764903e-02
-1.541736896236821884e-03
-1.868117390877576181e-02
-3.317388832525779846e-02
-4.259417564694317759e-02
-4.525532797037491728e-02
-4.049084127172890984e-02
-2.877723755264336922e-02
-1.167056796755617729e-02
8.437751985193683857e-03
2.870170428089397277e-02
4.626867870886215012e-02
5.872056822198348791e-02
6.443999416922616130e-02
6.284178670740489525e-02
5.442594175827457359e-02
4.064322015884987843e-02
2.361170002304704973e-02
5.756928072146721455e-03
-1.054893295925635535e-02
-2.329565635528993775e-02
-3.106238654957213172e-02
-3.314908475674607086e-02
-2.960645883378162577e-02
-2.117328174313381703e-02
-9.145709065597754789e-03
4.792892740198854452e-03
1.876386592427888370e-02
3.090060147438738331e-02
3.956281039814793510e-02
4.353659935203139930e-02
4.219129137441842564e-02
3.556839984595568799e-02
2.438830444056480293e-02
9.967884263331842215e-03
-5.949270970697153292e-03
-2.143153948143192156e-02
-3.462633751294226514e-02
-4.400427410337546391e-02
-4.854009720060554339e-02
-4.781375973778081295e-02
-4.203203730141750333e-02
-3.197507694724060351e-02
-1.887416588405365497e-02
-4.237466682943127026e-03
1.034631801220932748e-02
2.339438903538664655e-02
3.368591007206818422e-02
4.037892040088334605e-02
4.308041084119448860e-02
4.185884511132818842e-02
3.719606442584254269e-02
2.989455653645699262e-02
2.096917932697163131e-02
1.154559628649955497e-02
2.768462011414818923e-03
-4.289484130768318575e-03
-8.722986887015660856e-03
-9.892031737898012572e-03
-7.516972626790601429e-03
-1.764917014546251751e-03
6.689779739139346815e-03
1.666567264207068425e-02
2.657458345579266981e-02
3.463882501200764991e-02
3.919978576657515840e-02
3.905557628921980245e-02
3.375141407522357778e-02
2.375354650021794037e-02
1.045660120347635669e-02
-3.996505501106458434e-03
-1.706163856188251671e-02
-2.624293226688261330e-02
-2.955382379535553480e-02
-2.590197390931752927e-02
-1.533318973732218995e-02
9.062851079683119718e-04
2.050829759338218192e-02
4.043277295915969488e-02
5.738066439213274084e-02
6.832646893197312499e-02
7.101525396761833309e-02
6.434239325906451756e-02
4.855757360416419061e-02
2.525774523215965073e-02
-2.838443803001691572e-03
-3.230259012431065113e-02
-5.952003971376249730e-02
-8.122564720901037649e-02
-9.495910162074809591e-02
-9.937563887802806917e-02
-9.437775458475265722e-02
-8.105596784525627430e-02
-6.145096982916265632e-02
-3.818300312814571634e-02
-1.402547354380366887e-02
8.491457830906084386e-03
2.737966968270676496e-02
4.135599184165099362e-02
4.985655349503281819e-02
5.291406086045961216e-02
5.094176822843066860e-02
4.450261245881927813e-02
3.415611104840179935e-02
2.045174022118624590e-02
4.082884900034934768e-03
-1.384573917410232904e-02
-3.153330331356456184e-02
-4.630778660569326299e-02
-5.469417858031164204e-02
-5.282524083589098390e-02
-3.720681693280684932e-02
-5.725019287449814413e-03
4.133455874047165662e-02
1.005475610591748531e-01
1.651666189437333843e-01
2.256735595452524779e-01
2.710948354047355568e-01
2.909176553490107620e-01
2.772638256594241457e-01
2.268618591753086833e-01
1.423481143874845978e-01
3.253295225616877756e-02
-8.853621680419886120e-02
-2.036374489394270904e-01
-2.952365123597288643e-01
-3.486250158868564042e-01
-3.547165959812064173e-01
-3.119282207581264843e-01
-2.267497414933631605e-01
-1.128612748092824719e-01
1.106992768026051135e-02
1.245420368771010117e-01
2.087712842575676075e-01
2.500030981598452273e-01
2.419608783110921146e-01
1.869576403599044201e-01
9.544631987049381761e-02
-1.591151066826387503e-02
-1.272849146529437259e-01
-2.192287630303290102e-01
-2.760750441634903796e-01
-2.885428494317384684e-01
-2.551297042035639562e-01
-1.820868443107044876e-01
-8.203352113257006417e-02
2.849971737800409757e-02
1.321202562399407532e-01
2.136290738882544449e-01
2.625027175664240708e-01
2.743543408588689503e-01
2.511632236755891867e-01
2.003390548013601891e-01
1.329218456624743638e-01
6.134971076307737387e-02
-2.756538955880137413e-03
-5.041250892505518694e-02
-7.643345347268255818e-02
-7.982703454940660859e-02
-6.344840935759901712e-02
-3.307193707877378180e-02
3.894316342698129520e-03
3.980559318173874928e-02
6.805977030164402086e-02
8.406753789371608498e-02
8.578174269327328016e-02
7.373976481667045280e-02
5.066989890067850194e-02
2.079041112687903675e-02
-1.103533726460350847e-02
-4.013111195130025094e-02
-6.270094813279042389e-02
-7.629659572307125048e-02
-8.001955413641247128e-02
-7.446832078772200325e-02
-6.148162544999279805e-02
-4.374529157783905303e-02
-2.432725354959677788e-02
-6.199065511936228783e-03
8.196766028316378183e-03
1.727378251358164044e-02
2.047608895428904008e-02
1.827999289135253183e-02
1.202984113306049610e-02
3.636151375187986375e-03
-4.816661144852347858e-03
-1.148413060469139976e-02
-1.511379065638636388e-02
-1.526062734309041602e-02
-1.232624290271443213e-02
-7.426545489741572491e-03
-2.124643136133557396e-03
1.920295725740854380e-03
3.329322790537111477e-03
1.336532806378518297e-03
-3.992160050708297610e-03
-1.170598971934265486e-02
-2.009639248714181065e-02
-2.697990623981510669e-02
-3.008600123222347419e-02
-2.748281322642386407e-02
-1.796364061073680782e-02
-1.319521653016661293e-03
2.155050555969996104e-02
4.869451224668761707e-02
7.729299675388325019e-02
1.039329359395806396e-01
1.249514194867292899e-01
1.368515926336542343e-01
1.367888752940361885e-01
1.230926414807292230e-01
9.574555874536619382e-02
5.670849407883075260e-02
9.967289440291546981e-03
-3.879667842951699946e-02
-8.293649962964608213e-02
-1.158834500189784983e-01
-1.323092781810467355e-01
-1.291556012251208752e-01
-1.062984639552027460e-01
-6.669693987981516192e-02
-1.598321965135604192e-02
3.843785003773610848e-02
8.861247584691993306e-02
1.273446626498058454e-01
1.493233368480954282e-01
1.518520594648490873e-01
1.350657061554051130e-01
1.016436634005791068e-01
5.613929821568303807e-02
4.114041867838123985e-03
-4.872172143083170620e-02
-9.719970546039548298e-02
-1.371359136503048359e-01
-1.655323032166677588e-01
-1.806075287093937554e-01
-1.817385598707432492e-01
-1.693679256678173595e-01
-1.448958950536663459e-01
-1.105554112231603298e-01
-6.925865035171692441e-02
-2.439777798713428300e-02
2.041875408678730033e-02
6.169765527498775187e-02
9.643057163028409540e-02
1.224403434065453183e-01
1.386309039651947017e-01
1.450838779372499721e-01
1.429751625362420120e-01
1.343150630066099194e-01
1.215443064159198866e-01
1.070498911634939904e-01
9.269286601464049591e-02
7.944862575221495193e-02
6.724252716081430270e-02
5.502993621569229887e-02
4.113051870611266619e-02
2.377739457019173788e-02
1.777478306958253824e-03
-2.488261797048955601e-02
-5.467281816814210244e-02
-8.454083167366351070e-02
-1.103588765463532767e-01
-1.277166358117254041e-01
-1.328862019691317564e-01
-1.237355976977020239e-01
-1.003679458584999379e-01
-6.531450515041430094e-02
-2.320939871989148931e-02
1.999788056845957021e-02
5.811959193711519617e-02
8.585902955409349668e-02
9.975548956582300231e-02
9.876133216526095104e-02
8.434957221884760437e-02
6.014564257758145405e-02
3.117230973608256864e-02
2.872002855325209332e-03
-1.989586698011505325e-02
-3.369920661581735088e-02
-3.708047373129849666e-02
-3.072210338345355771e-02
-1.720397010401821317e-02
-3.968862085710197704e-04
1.538739009519612955e-02
2.631176187572629999e-02
2.980435783476770295e-02
2.506823823436542947e-02
1.321842104160683359e-02
-2.972699641415911358e-03
-1.966806762540065576e-02
-3.277680279797327845e-02
-3.881612334276670490e-02
-3.564810113509197381e-02
-2.294847572290670615e-02
-2.324356210292637982e-03
2.293882621039591146e-02
4.846119265499786166e-02
6.958366961181559895e-02
8.226023317242531219e-02
8.384405270932739074e-02
7.360336806435069379e-02
5.286759904502739277e-02
2.478854842558144561e-02
-6.223211730552939518e-03
-3.527369820375585857e-02
-5.782882367675892116e-02
-7.047471141303685016e-02
-7.146586488224387912e-02
-6.097957045875154053e-02
-4.105077655239579987e-02
-1.520847296163582371e-02
1.212916469245054960e-02
3.640843871444046642e-02
5.371589601946387404e-02
6.143326236520784550e-02
5.864859460487878429e-02
4.625500263980725918e-02
2.673502234390840587e-02
3.685430702130139576e-03
-1.882403503021090260e-02
-3.694201149652596300e-02
-4.765618815631844640e-02
-4.924257840397979619e-02
-4.148491978984179124e-02
-2.565285986099254470e-02
-4.261480912788244944e-03
1.934572979575891263e-02
4.153104438689980693e-02
5.893411350548447003e-02
6.898917465189914611e-02
7.030508982118911787e-02
6.285361759819865779e-02
4.794412993124126665e-02
2.799197379157630783e-02
6.116480265086520103e-03
-1.436436759628766449e-02
-3.045290936604687013e-02
-3.991575695784966432e-02
-4.159026271507278855e-02
-3.552493904312504364e-02
-2.294820306562153633e-02
-6.071708713083740806e-03
1.225049810979393985e-02
2.896152543867236764e-02
4.127235546174998215e-02
4.709045329336433022e-02
4.534281497998234739e-02
3.614466416127376514e-02
2.078189190285164786e-02
1.502843922427128838e-03
-1.884510169646561734e-02
-3.726273249035572110e-02
-5.104671974446242655e-02
-5.816969644546900881e-02
-5.754957666238338237e-02
-4.918290637566922335e-02
-3.412791543732870969e-02
-1.433881700556273453e-02
7.622034682554253322e-03
2.894522090254373139e-02
4.695396222361438582e-02
5.945640613945041980e-02
6.503234386788425692e-02
6.321719131307963757e-02
5.455174614260262927e-02
4.048860124479080475e-02
2.317731175158646920e-02
5.169283647088710083e-03
-1.091878432825544101e-02
-2.275308629767022403e-02
-2.861083605910058267e-02
-2.764518755740503694e-02
-2.003978090821933664e-02
-7.019264301786252123e-03
9.294699405816644194e-03
2.617230047958396880e-02
4.068270550861250584e-02
5.016969534934281189e-02
5.271741044462489867e-02
4.751170034435639455e-02
3.501714501419568581e-02
1.693189232369357936e-02
-4.069634563943275683e-03
-2.476013808982719180e-02
-4.187958575635019470e-02
-5.266611636166332322e-02
-5.530589562497092992e-02
-4.922573354311853694e-02
-3.518807625620992002e-02
-1.518565517932876988e-02
7.843354469296442283e-03
3.044536596594350428e-02
4.917427767524779059e-02
6.113030173232859854e-02
6.442292829894291639e-02
5.847653391176185073e-02
4.412917956803154990e-02
2.351246781298361663e-02
-2.677129117535882383e-04
-2.360188621636745768e-02
-4.292580436151320622e-02
-5.525821152847559120e-02
-5.864348239161904647e-02
-5.244030548116650897e-02
-3.742670811716485024e-02
-1.571018864381523716e-02
9.556015158044040697e-03
3.462753018278953016e-02
5.573603768863895358e-02
6.967854519228852683e-02
7.432775792713919305e-02
6.897616854360884286e-02
5.445397776635563930e-02
3.299604292731637967e-02
7.876672156452966395e-03
-1.712141148305263913e-02
-3.830331074365774663e-02
-5.261846140728870108e-02
-5.809660967830763273e-02
-5.411506897098129071e-02
-4.147215278109119690e-02
-2.225710412221025558e-02
4.711865697518699894e-04
2.315244122539918473e-02
4.226843479269760950e-02
5.488031216088950365e-02
5.908340241010784366e-02
5.431077169607454597e-02
4.142783168109975128e-02
2.258863658510176092e-02
8.744208174957775540e-04
-2.021291504104468992e-02
-3.730272617623466708e-02
-4.766019515214130198e-02
-4.957586461694467317e-02
-4.259624430134310857e-02
-2.757062807787443934e-02
-6.512000434255825303e-03
1.770203352995491572e-02
4.174014212398493434e-02
6.228420653100011362e-02
7.649724774981116193e-02
8.243450973520523306e-02
7.933453845525648140e-02
6.773431780931681023e-02
4.938258409330219950e-02
2.696803100272784567e-02
3.712095384889761880e-03
-1.711106400714993217e-02
-3.266279567468140244e-02
-4.096938353783737691e-02
-4.122621922392266658e-02
-3.392505469045616756e-02
-2.078222952592862285e-02
-4.476988609951683233e-03
1.176841702099835213e-02
2.471655115563259689e-02
3.167614371172811083e-02
3.099802438022326509e-02
2.240193781512301099e-02
7.059663142098600123e-03
-1.258629302945590139e-02
-3.323432122836545571e-02
-5.129167458439828214e-02
-6.350005433775071650e-02
-6.750770011463903819e-02
-6.228308105916343512e-02
-4.829744219811926004e-02
-2.745390793602240156e-02
-2.788226569657911540e-03
2.200454893109077617e-02
4.314800861501053020e-02
5.738439477042717868e-02
6.250294659829057353e-02
5.770697169465385801e-02
4.375757386117092723e-02
2.287371305689731710e-02
-1.592516998358581119e-03
-2.565716009725313093e-02
-4.531035844070640389e-02
-5.713503471521575588e-02
-5.883882487905053166e-02
-4.961586334985983171e-02
-3.029035506904867794e-02
-3.229366413906242621e-03
2.796470380636624856e-02
5.895338695028728981e-02
8.529749536566409718e-02
1.031394795927981917e-01
1.098230730738747329e-01
1.043466630000334794e-01
8.757446860992183779e-02
6.216473322176131050e-02
3.221172278800530503e-02
2.642134817486254013e-03
-2.154636494291757923e-02
-3.608255812515608757e-02
-3.812744896412974260e-02
-2.678152096237759391e-02
-3.316919502862571666e-03
2.891277749977364322e-02
6.489794174097857082e-02
9.869596379190107016e-02
1.243544464164271224e-01
1.368881653941287080e-01
1.331431592947702192e-01
1.123905808689598801e-01
7.652652792906632084e-02
2.981412298276949965e-02
-2.180694207775740398e-02
-7.171787178664784657e-02
-1.137268528733237499e-01
-1.430721211899188550e-01
-1.571547798975953536e-01
-1.559041862800747136e-01
-1.417426107472199714e-01
-1.191657625593753184e-01
-9.400113849168861835e-02
-7.244850382595632854e-02
-6.003208446945685478e-02
-6.059483458645995718e-02
-7.545864683402594975e-02
-1.028830265120154186e-01
-1.379710486587180374e-01
-1.731544705706329068e-01
-1.993013627666854470e-01
-2.073324854910046089e-01
-1.900588191021190532e-01
-1.438365478359412697e-01
-6.963402381350326797e-02
2.677099732797246293e-02
1.355338346092108126e-01
2.442656676034883068e-01
3.400044498826754746e-01
4.112318056179428138e-01
4.495676958384691724e-01
4.508788966528486930e-01
4.156711315321680589e-01
3.487696094429336147e-01
2.584108752899600403e-01
1.549523578357697995e-01
4.943838619586276434e-02
-4.775850821607603020e-02
-1.280553869747134699e-01
-1.854311381160006489e-01
-2.168044076257124586e-01
-2.220224778847326441e-01
-2.035215164379857999e-01
-1.657633988101769040e-01
-1.145693284576154852e-01
-5.644988569724425365e-02
2.008908968058571894e-03
5.468064649556517859e-02
9.635457154678386815e-02
1.231220466814858805e-01
1.326981776773123178e-01
1.246607606434930876e-01
1.005568138312428056e-01
6.381051729478383339e-02
1.938590712252862003e-02
-2.679181333499932802e-02
-6.859653602444186482e-02
-1.005438988091878344e-01
-1.185972620592240512e-01
-1.208095234571439774e-01
-1.076767937291525229e-01
-8.210939185996712908e-02
-4.899012729815420408e-02
-1.437558067825095084e-02
1.552636831837940837e-02
3.542151224313567354e-02
4.184048919801131722e-02
3.371650779017288518e-02
1.250458514328041740e-02
-1.818741046214769272e-02
-5.337099422691458234e-02
-8.767601903524770146e-02
-1.163632071058512546e-01
-1.361543740700590921e-01
-1.457325559124177661e-01
-1.458268768563299178e-01
-1.388738051691420783e-01
-1.283345188524164238e-01
-1.178251403985178941e-01
-1.102531483515361704e-01
-1.071397004758416344e-01
-1.082594577871753977e-01
-1.116652484676232404e-01
-1.140891117210608846e-01
-1.116273084993270742e-01
-1.005481086210707059e-01
-7.804267677147928850e-02
-4.278223473322404630e-02
4.783665025098760189e-03
6.240144617840661517e-02
1.262595284199096446e-01
1.914962903182216569e-01
2.529167137362658968e-01
3.057908427038378840e-01
3.465574455421511213e-01
3.732780880029423209e-01
3.857704429024442772e-01
3.854420804297259417e-01
3.749049368285768402e-01
3.574703996692277785e-01
3.366180374845886836e-01
3.155067335335326462e-01
2.965650070897918322e-01
2.811766650902630116e-01
2.694831224322111751e-01
2.603424593154308742e-01
2.514855652628255611e-01
2.398747576991770158e-01
2.222173535415445655e-01
1.955473410355934305e-01
1.577768353720134242e-01
1.081260117258457665e-01
4.735381570372464155e-02
-2.226398064156348902e-02
-9.721754246556398027e-02
-1.732558352639423926e-01
-2.459937380368171500e-01
-3.115269257013044135e-01
-3.669647382838535088e-01
-4.108124378074921590e-01
-4.431496842745384357e-01
-4.655709613025150739e-01
-4.808849081316727281e-01
-4.926063312585274301e-01
-5.043045984640699420e-01
-5.188942274626968665e-01
-5.379762556326407319e-01
-5.613608210801426246e-01
-5.869014793540099362e-01
-6.107275633467467157e-01
-6.278741802333875910e-01
-6.332105157814379437e-01
-6.224913476632075726e-01
-5.933201848447056115e-01
-5.458131080293486814e-01
-4.827886728755324541e-01
-4.093863612320994827e-01
-3.321296957630281987e-01
-2.575747157596880998e-01
-1.907870897779018471e-01
-1.339522273837336908e-01
-8.543715126308489005e-02
-3.958480161233817601e-02
1.258192548772986766e-02
8.174486616539818062e-02
1.779915360510322120e-01
3.082872875831688675e-01
4.743201872212399195e-01
6.713115028692251407e-01
8.881868584468327610e-01
1.109152901280550996e+00
1.316334898706981615e+00
1.492845778718595584e+00
1.625571232198991467e+00
1.707070589707391006e+00
1.736245485296013635e+00
1.717736133115582708e+00
1.660292923055003644e+00
1.574578151922187974e+00
1.470938409213283338e+00
1.357636157585534908e+00
1.239856735104662100e+00
1.119572415428036205e+00
9.961279854292894864e-01
8.672723078263269159e-01
7.303120502040664208e-01
5.830889556857382638e-01
4.245588654041927978e-01
2.548669224616292306e-01
7.495501583901952036e-02
-1.141267704982865533e-01
-3.119460208656191225e-01
-5.191825554215457883e-01
-7.376872267601164435e-01
-9.700156519111892139e-01
-1.218489475577591685e+00
-1.483981566130272212e+00
-1.764731307852006159e+00
-2.055528860572088501e+00
-2.347538772567894672e+00
-2.628880612829109786e+00
-2.885897087669364591e+00
-3.104870209322980745e+00
-3.273828098828127420e+00
-3.384042956321351880e+00
-3.430876975267277640e+00
-3.413793941048832270e+00
-3.335584143807130086e+00
-3.201069883671501248e+00
-3.015684768147828709e+00
-2.784312562037750460e+00
-2.510648884353494648e+00
-2.197163029239085574e+00
-1.845543674206438833e+00
-1.457364661891802582e+00
-1.034654266644458698e+00
-5.801179210006804920e-01
-9.692608711149679201e-02
4.118324070550382632e-01
9.437891114206510279e-01
1.497728775399692180e+00
2.073550293162853553e+00
2.671592597312447470e+00
3.291317857023415616e+00
3.929529092058118067e+00
4.578473705298893748e+00
5.224299526745808997e+00
5.846349970746688385e+00
