BVP Green Neck Signal
1.044831425206186118e-02
-9.178130829726254339e-03
-3.947464423988088222e-02
-7.074529817291529132e-02
-9.657813835546959214e-02
-1.178994366422958934e-01
-1.389117694500802969e-01
-1.612631669687664415e-01
-1.828409138628057928e-01
-2.010767193259975494e-01
-2.156465976184489541e-01
-2.282756300334487232e-01
-2.395167843520066009e-01
-2.484715884419564924e-01
-2.541645137130680854e-01
-2.562350537772359882e-01
-2.556466936704616666e-01
-2.525126346873809990e-01
-2.465036826822611937e-01
-2.375212385812413285e-01
-2.253898413876496420e-01
-2.107983263900207460e-01
-1.938446666776806604e-01
-1.745878357271758163e-01
-1.533942257407903409e-01
-1.303471115130961644e-01
-1.060181881857887448e-01
-8.064448956808428770e-02
-5.449439213491454048e-02
-2.811997547355373980e-02
-1.787912167123910205e-03
2.419619137190300029e-02
4.925872642796276513e-02
7.328278971343812898e-02
9.579793619931914472e-02
1.164346900251536643e-01
1.352512858627535619e-01
1.515894922048632021e-01
1.655694778644789256e-01
1.769624498421993875e-01
1.854843222655385149e-01
1.915384002474667668e-01
1.946236915048673299e-01
1.950964048287439634e-01
1.930149534738038186e-01
1.882986746046772242e-01
1.815453789892786662e-01
1.725432222600676857e-01
1.617686863260619778e-01
1.494869103190347437e-01
1.358182282798711671e-01
1.213289177315147876e-01
1.060904736822992495e-01
9.051638455080361634e-02
7.492717098874432380e-02
5.954103869812248095e-02
4.468766544352625880e-02
3.060919151424279505e-02
1.748742334176942373e-02
5.552711532025412546e-03
-5.020227119235038879e-03
-1.423622330931645363e-02
-2.182978575754428510e-02
-2.792245311158748564e-02
-3.244257218768330231e-02
-3.535692148969526993e-02
-3.695459157108441084e-02
-3.705078059051956918e-02
-3.600911541781820491e-02
-3.388685852117295783e-02
-3.079942425431500888e-02
-2.715785768000933756e-02
-2.288173862362812352e-02
-1.841416825622408868e-02
-1.384766178589506846e-02
-9.363123224454868859e-03
-5.301282563051129201e-03
-1.636913504742821580e-03
1.297415206782056435e-03
3.468776253535615483e-03
4.754662037557268704e-03
5.015879115467423814e-03
4.292962874578564077e-03
2.489997139598146714e-03
-3.286890376001730396e-04
-4.138104248786994566e-03
-8.857535465167142366e-03
-1.439139588371470338e-02
-2.059044441664537733e-02
-2.732085225124693609e-02
-3.440619957330325052e-02
-4.162873567356339954e-02
-4.885287849080630074e-02
-5.579429154245885147e-02
-6.232073096497059428e-02
-6.819961438118726793e-02
-7.321892364573955037e-02
-7.727389641203259718e-02
-8.012674057595631227e-02
-8.173143624117425177e-02
-8.194999940841943276e-02
-8.071335703979530540e-02
-7.803553261881271408e-02
-7.387934729735823325e-02
-6.834112020994621839e-02
-6.148691281820979626e-02
-5.344501543393768983e-02
-4.438908221535850518e-02
-3.450350790043132942e-02
-2.401126022453379388e-02
-1.315716783037905457e-02
-2.184197005173109038e-03
8.634536429275176117e-03
1.904934364735648422e-02
2.881701760921851971e-02
3.768698014207931546e-02
4.549482967764049979e-02
5.200866461991716927e-02
5.715448201823061791e-02
6.080431095348828863e-02
6.289920508223112439e-02
6.351833526988290290e-02
6.258310790199136942e-02
6.032935976613658380e-02
5.680194065363439182e-02
5.219201955530819448e-02
4.681988441635621945e-02
4.075545604069652494e-02
3.444696617079254924e-02
2.804731512108090546e-02
2.185834319982245949e-02
1.625291418702576665e-02
1.133672467738511616e-02
7.483245963453747686e-03
4.820980165579361737e-03
3.514367212571923183e-03
3.738515658424574825e-03
5.512776254451593957e-03
8.850206814038254557e-03
1.377077571526328509e-02
2.012234915453000456e-02
2.775173987667610073e-02
3.656306769826511011e-02
4.612549296554267764e-02
5.638041159346268705e-02
6.687645651297664806e-02
7.721311983202103213e-02
8.725928314364711502e-02
9.633373807396795885e-02
1.044005675765980468e-01
1.109391708783825509e-01
1.155488842994105148e-01
1.181923830930487751e-01
1.183284913236959807e-01
1.160204504524965236e-01
1.110181573768471708e-01
1.031871993518296143e-01
9.266738536846011454e-02
7.943086562476700530e-02
6.363515873387270982e-02
4.554139227289416558e-02
2.541041555937216187e-02
3.531600660489126256e-03
-1.947335977452544289e-02
-4.344679190828833193e-02
-6.762809441103943831e-02
-9.145938885975805899e-02
-1.146342960586272247e-01
-1.361037553103448816e-01
-1.558427898061714723e-01
-1.729024377712017058e-01
-1.867397320207608291e-01
-1.972154200369645172e-01
-2.033831867931405191e-01
-2.054632824881523212e-01
-2.028119052009200174e-01
-1.952905239204307530e-01
-1.830705118231318040e-01
-1.658904543941264464e-01
-1.442381334403792792e-01
-1.181850040359803539e-01
-8.823001920796619268e-02
-5.485207426016522336e-02
-1.875455835325791354e-02
1.944394657473476340e-02
5.890446846677721560e-02
9.862453175938304395e-02
1.380346950272044182e-01
1.757279137540594394e-01
2.112739233286980711e-01
2.434744813611376679e-01
2.713449437054606950e-01
2.946085327424016187e-01
3.118736102314708103e-01
3.232797430410938588e-01
3.279387764630975477e-01
3.255102592221043034e-01
3.163390592903302379e-01
2.997985397220970794e-01
2.767631973894623676e-01
2.471637071588659307e-01
2.115842800027842863e-01
1.709823389856890141e-01
1.257770219975930803e-01
7.728192577917698813e-02
2.624427814609578760e-02
-2.616191817157781027e-02
-7.881196697455043754e-02
-1.306060849166478799e-01
-1.804752035633013785e-01
-2.273444132414620122e-01
-2.701933615373709463e-01
-3.083519529824580996e-01
-3.407357221010492432e-01
-3.671538361249053750e-01
-3.868019122518141506e-01
-3.994245448518027319e-01
-4.051868446270180391e-01
-4.035518336185377475e-01
-3.953520770580271626e-01
-3.803970227524125503e-01
-3.592714719241215660e-01
-3.328904134252977376e-01
-3.013603303952401280e-01
-2.660912959413877510e-01
-2.274726883030495084e-01
-1.864615331894693973e-01
-1.442460894737985500e-01
-1.012861172185544889e-01
-5.880061195193954371e-02
-1.745435551144687222e-02
2.209265155901541863e-02
5.894931435584013779e-02
9.270729512397703209e-02
1.229608768289560117e-01
1.491100810780481845e-01
1.712129614772990860e-01
1.890037673858169232e-01
2.023601869299298806e-01
2.118072754200392704e-01
2.169901930810888557e-01
2.186170643125034119e-01
2.169873557757807381e-01
2.122242226165488577e-01
2.053845770928728887e-01
1.963384952730365673e-01
1.859881042262904738e-01
1.748644074301591300e-01
1.631186874037315049e-01
1.517235682618588710e-01
1.406491334801931725e-01
1.304711764347115666e-01
1.215995751018397880e-01
1.140072799914435553e-01
1.081224211503699212e-01
1.039092966046192418e-01
1.013366683488623465e-01
1.005193344560396523e-01
1.011904742261310469e-01
1.031403557151450712e-01
1.063079410899037819e-01
1.101360676976344960e-01
1.145004542003226350e-01
1.190167831314343505e-01
1.230985047392314513e-01
1.267383966474885104e-01
1.292227857433490279e-01
1.303985895473363243e-01
1.300120788343908929e-01
1.275211035633116163e-01
1.230953802222641974e-01
1.162946474084344956e-01
1.071385406824754000e-01
9.572976181264902795e-02
8.188245634233100312e-02
6.600412923021543865e-02
4.816124977734083379e-02
2.858644443393696527e-02
7.787384346275530445e-03
-1.404863184526108227e-02
-3.636330344303091711e-02
-5.868388241984233422e-02
-8.073221818126431748e-02
-1.017864245088601488e-01
-1.215579721410651182e-01
-1.395611882270304804e-01
-1.552749179472091845e-01
-1.686373319741195087e-01
-1.790375151783034635e-01
-1.864297525172650682e-01
-1.906205388904966269e-01
-1.913973346576177126e-01
-1.890565513020298072e-01
-1.833522256710667653e-01
-1.746290293621950152e-01
-1.630482860480017282e-01
-1.488306150411188578e-01
-1.325154745070057094e-01
-1.142771554738953588e-01
-9.469250690376153357e-02
-7.414568413580019390e-02
-5.312719398198890997e-02
-3.212331978570946711e-02
-1.156920444263073375e-02
8.069447939127952912e-03
2.642450821253926677e-02
4.304248863933807234e-02
5.778277867618512864e-02
7.019414161796481977e-02
8.020903432985637682e-02
8.767148967884370869e-02
9.239608011235321550e-02
9.469265036516609502e-02
9.427102457690922366e-02
9.150320176678654327e-02
8.649447812871426111e-02
7.934997214830399881e-02
7.068569997683597783e-02
6.040728677977819094e-02
4.910406890827709314e-02
3.703904401893926002e-02
2.443889095745824247e-02
1.192624648123245812e-02
-4.835225144654061585e-04
-1.231703487750515635e-02
-2.332209443726556905e-02
-3.336920597560850965e-02
-4.209633405287435681e-02
-4.949091806209515720e-02
-5.542483197184515376e-02
-5.977715113289559790e-02
-6.263082221794785687e-02
-6.397797502046768947e-02
-6.386860435665252245e-02
-6.252575065424184619e-02
-5.998375627174550029e-02
-5.648807299070253418e-02
-5.229069365094381194e-02
-4.748284328164399659e-02
-4.243931691796078154e-02
-3.729054542360304980e-02
-3.226005074175325449e-02
-2.765873802470345325e-02
-2.353609421094829401e-02
-2.013812550254044306e-02
-1.760723677122659828e-02
-1.593918758462166407e-02
-1.532576759917048462e-02
-1.570049773638625135e-02
-1.698628697093518616e-02
-1.929310625109611349e-02
-2.229445621985415640e-02
-2.599922984547242341e-02
-3.022285416739696126e-02
-3.456231171051410422e-02
-3.910780281438115680e-02
-4.329876818209855982e-02
-4.702433490889462719e-02
-5.007420379632392116e-02
-5.191493446032496850e-02
-5.267290466120080894e-02
-5.180869994956742441e-02
-4.923939951609014598e-02
-4.488790468587162963e-02
-3.839080967973275416e-02
-2.997169740764676557e-02
-1.941476420777826437e-02
-6.803823436909422345e-03
7.672449259557538245e-03
2.397658233189083749e-02
4.178788516085245319e-02
6.083425630243664839e-02
8.084953199938656188e-02
1.013905095707531706e-01
1.220241069270525253e-01
1.424489522312918366e-01
1.620156908283879038e-01
1.804366906488688027e-01
1.972135203244539114e-01
2.117835723744707077e-01
2.240624822781456527e-01
2.333639228549507783e-01
2.396198063160396574e-01
2.425537361058514585e-01
2.418216538420526196e-01
2.376927585482487559e-01
2.297979721679113962e-01
2.184185594198373992e-01
2.036760673795937338e-01
1.856383838390153473e-01
1.648801666905851671e-01
1.415141656707189499e-01
1.160677662167391849e-01
8.902831866805066552e-02
6.079490073009446993e-02
3.199938010905767349e-02
3.138479263470302441e-03
-2.532235900701415576e-02
-5.275660243067709088e-02
-7.872419826069954052e-02
-1.028685086306680430e-01
-1.245767922379283077e-01
-1.437668084663737689e-01
-1.599521292706752029e-01
-1.729330270487703658e-01
-1.828334212745314213e-01
-1.891751962793292718e-01
-1.923604871883148326e-01
-1.922056405158843462e-01
-1.888332031649133380e-01
-1.827810832621241943e-01
-1.738180064203731501e-01
-1.626341169914705120e-01
-1.493280178322178020e-01
-1.342132413502846733e-01
-1.179406040502335995e-01
-1.005094027495671977e-01
-8.253954307927606482e-02
-6.427079437949129170e-02
-4.600859942919706402e-02
-2.817725594255085855e-02
-1.095306182769498898e-02
5.390506629534614312e-03
2.061098515480713766e-02
3.451769946719596832e-02
4.708678343590672055e-02
5.800538447329930958e-02
6.739367565478962541e-02
7.508134749606958092e-02
8.098391871151332244e-02
8.542858091497751438e-02
8.802840405659588530e-02
8.915273364042554383e-02
8.872555278645216648e-02
8.672366587914295821e-02
8.362775135198659282e-02
7.908800200801602287e-02
7.351990285579755591e-02
6.693617003619516115e-02
5.936485362064418403e-02
5.122901800530772765e-02
4.234660164362812063e-02
3.304226181551811470e-02
2.340383091233906587e-02
1.353952348870775431e-02
3.690282434146421528e-03
-6.082106021073920704e-03
-1.558801714797921484e-02
-2.469525733065046011e-02
-3.322278003947497227e-02
-4.111631047485328483e-02
-4.814109974181436657e-02
-5.423935992790065996e-02
-5.929592466557503938e-02
-6.313707917789164459e-02
-6.585961468321757661e-02
-6.722253008475002900e-02
-6.730448145582135222e-02
-6.608165917748666518e-02
-6.350399075498182333e-02
-5.977927644162631116e-02
-5.481882657090873801e-02
-4.883093464809359907e-02
-4.191676289807523548e-02
-3.420143957880454610e-02
-2.593807870135384983e-02
-1.722849320787005201e-02
-8.333901791733091743e-03
5.725775143303694220e-04
9.269424191574369282e-03
1.756555106703013361e-02
2.526610875216621366e-02
3.219551414339374973e-02
3.821640382982265105e-02
4.316392313377399870e-02
4.701000418714659790e-02
4.960763907969294173e-02
5.097971536856328589e-02
5.110921039640393959e-02
4.999819350102653603e-02
4.780795379662526601e-02
4.451969005528265411e-02
4.035352004909630030e-02
3.541428739001471759e-02
2.985514620921469325e-02
2.394049663694821500e-02
1.775114506820577726e-02
1.157008086501571872e-02
5.538241168837436390e-03
-1.668000709425711964e-04
-5.335463565893637863e-03
-9.883501244753033210e-03
-1.364310703884057466e-02
-1.654412755882645261e-02
-1.851576609253909392e-02
-1.952724546890060794e-02
-1.956826222499697537e-02
-1.868021179752782715e-02
-1.691460041946192538e-02
-1.434284606245323640e-02
-1.111865742014462449e-02
-7.306932932231719260e-03
-3.101182211690365828e-03
1.363729407346502172e-03
5.958537486445506133e-03
1.046029418145736495e-02
1.479650118445805830e-02
1.878481299961478473e-02
2.229593741208845889e-02
2.527361286425446052e-02
2.757007831626469979e-02
2.917404282193764714e-02
3.005727639866033821e-02
3.015906205818775360e-02
2.957038196968949859e-02
2.828938711809435985e-02
2.638195112155959990e-02
2.400185157540593237e-02
2.115645272411747352e-02
1.805596555488077001e-02
1.480676477888265806e-02
1.150975626899047172e-02
8.404066004506207874e-03
5.512138638981372782e-03
3.053604858718921185e-03
1.132978812275095906e-03
-1.844392878743023045e-04
-7.274239062729451893e-04
-5.189838213193152805e-04
5.484334889512233399e-04
2.476947126250217054e-03
5.245231965166091519e-03
8.847249727206870848e-03
1.319413608583773836e-02
1.822095276441241390e-02
2.380371098907157687e-02
2.983598228688413151e-02
3.613459781309343727e-02
4.258221011291976610e-02
4.897970152915033515e-02
5.514700551319116906e-02
6.095479824106482536e-02
6.615571690351183809e-02
7.068244157098611813e-02
7.432386782943750658e-02
7.696323502505096614e-02
7.853840189309814479e-02
7.889090213702357191e-02
7.806509004499634363e-02
7.596818201857633013e-02
7.262678611949717478e-02
6.810217137508767227e-02
6.241766189001825282e-02
5.572209469930650139e-02
4.810406316144588690e-02
3.971784893993657306e-02
3.073607531264590728e-02
2.134424411118376538e-02
1.171638456002137285e-02
2.085922636509918160e-03
-7.371628563993218308e-03
-1.645028437121800330e-02
-2.492254951508548685e-02
-3.269931985913120120e-02
-3.951809341155865241e-02
-4.531364288449743483e-02
-4.994421846615940130e-02
-5.328515039596753988e-02
-5.539464150904591100e-02
-5.610855657105703886e-02
-5.553670010624797704e-02
-5.365453845120463083e-02
-5.052663754737354851e-02
-4.631659229743871620e-02
-4.103810432903320926e-02
-3.493030707169682281e-02
-2.806167577170179742e-02
-2.068060208171717054e-02
-1.291945698846041699e-02
-4.976893318421134541e-03
2.904180843782230414e-03
1.064756508532728116e-02
1.789334895440905515e-02
2.469190199916401762e-02
3.070877302689527591e-02
3.581486103363779039e-02
4.001271277792874115e-02
4.291814889086979778e-02
4.482277392755389112e-02
4.534194793489669528e-02
4.449887649677129742e-02
4.241362702123253892e-02
3.875975755809178691e-02
3.398890874381054611e-02
2.778511063884352844e-02
2.028174413914273638e-02
1.169601258891333345e-02
1.829016630299423914e-03
-8.859106356392029008e-03
-2.051441806526492148e-02
-3.295849647037207841e-02
-4.593598941365759081e-02
-5.946089211491213666e-02
-7.319872637944493943e-02
-8.707055319626071099e-02
-1.008910530811104739e-01
-1.144268483645995843e-01
-1.274914367694683637e-01
-1.399267369074242984e-01
-1.514659211051384569e-01
-1.619379051027566574e-01
-1.711869039023199146e-01
-1.789093406984192114e-01
-1.851105265265140243e-01
-1.894880229350491552e-01
-1.919347656281789327e-01
-1.924335692754759186e-01
-1.907399966458841190e-01
-1.870005809072288749e-01
-1.810779635728077819e-01
-1.730012862483368830e-01
-1.629532373574459903e-01
-1.509012658278836017e-01
-1.371372817309108594e-01
-1.218074873939742619e-01
-1.050919647209812291e-01
-8.741643849322433546e-02
-6.892093575990559939e-02
-5.005017355942248392e-02
-3.115617364492529254e-02
-1.241934407322304451e-02
5.499228572236199500e-03
2.259995008444138850e-02
3.834172184776564463e-02
5.242841336846731926e-02
6.499806753794883096e-02
7.523305292419539547e-02
8.370891596081896091e-02
8.994496200522984763e-02
9.397746390880253042e-02
9.656636942764171283e-02
9.689235048208956480e-02
9.631185755526774916e-02
9.461003818490651418e-02
9.222029993526285885e-02
9.050252607525559323e-02
8.882087988814285628e-02
8.893852992347059394e-02
9.098284299747126658e-02
9.548281918252503331e-02
1.038108235028436938e-01
1.156104569193925208e-01
1.320529220917235347e-01
1.533850916514597207e-01
1.796547074348052442e-01
2.112435812666978718e-01
2.480222968512527937e-01
2.894477487398966487e-01
3.354675444563688935e-01
3.852062507907745847e-01
4.372900710606113517e-01
4.917543787167076852e-01
5.459628760524507518e-01
5.993738683571001591e-01
6.503886969742342927e-01
6.961253883164797429e-01
7.369586860005212792e-01
7.691250959552344835e-01
7.920159956482990538e-01
8.042934696800205785e-01
8.030036572543248763e-01
7.892860472718636888e-01
7.602372027608094163e-01
7.160353732221937939e-01
6.568272642624276569e-01
5.813837164704737104e-01
4.918636502814985323e-01
3.879984753003489217e-01
2.712595112078600712e-01
1.438052752059764128e-01
6.956372193491141241e-03
-1.365601844749795568e-01
-2.840794367981062662e-01
-4.333893882309315937e-01
-5.810536773004351119e-01
-7.240880595460132962e-01
-8.604115011872821572e-01
-9.858703953656109409e-01
-1.098997090289028034e+00
-1.196725759823205726e+00
-1.276448458607287728e+00
-1.338043611479223793e+00
-1.378098173167715546e+00
-1.397282323600854248e+00
-1.394441815454020128e+00
-1.369088062482016754e+00
-1.323528480372318850e+00
-1.256691415131220069e+00
-1.171538243454143036e+00
-1.069318992156840897e+00
-9.518822324911201394e-01
-8.230661453150439621e-01
-6.842399037799220540e-01
-5.391980210940461316e-01
-3.907769156658539300e-01
-2.417366622287289157e-01
-9.552036440180919352e-02
4.528141241054095545e-02
1.783027208642110895e-01
3.006664303131845184e-01
4.106759729641561996e-01
5.071039491930466880e-01
5.876513345919546216e-01
6.529204210896151217e-01
7.012415153347532071e-01
7.330449264851230939e-01
7.498576155573916102e-01
7.504662682420034647e-01
7.381726982647620616e-01
7.127748816322880820e-01
6.763167463282647729e-01
6.320118517384563095e-01
5.795557482164764851e-01
5.230699453050307035e-01
4.631805572863174070e-01
4.020147876778663587e-01
3.425522609442317457e-01
2.847601664599983540e-01
2.313824923263091693e-01
1.829956877990359387e-01
1.404804102988608805e-01
1.050648748257823617e-01
7.658119388177102305e-02
5.528306181199574287e-02
4.123884084746944068e-02
3.383669470543802099e-02
3.231556787022474286e-02
3.647039299497477349e-02
4.457009843782396008e-02
5.633708312453514222e-02
7.047557591430980706e-02
8.522644203780906091e-02
1.007090234514733951e-01
1.147428330616683256e-01
1.271924844057226722e-01
1.372021996748306050e-01
1.433121595443329621e-01
1.462236216740307460e-01
1.446745915407169070e-01
1.389943069163575851e-01
1.293510934949114177e-01
1.152794579329032704e-01
9.792733045450445484e-02
7.731722714676469987e-02
5.413743036624200922e-02
2.932385065581471703e-02
3.208620678703659381e-03
-2.305965835208328638e-02
-4.877762538095491152e-02
-7.329838711558259168e-02
-9.566299006953858652e-02
-1.154461667390645485e-01
-1.319443431930110155e-01
-1.446833856532079854e-01
-1.534255539196312246e-01
-1.578250908997647362e-01
-1.579449015469960305e-01
-1.537066534563863440e-01
-1.453764969974173371e-01
-1.332027185025191074e-01
-1.175873878463862404e-01
-9.913408535864955129e-02
-7.824207075357882124e-02
-5.575667315309670857e-02
-3.216857436242051560e-02
-8.276731786548382694e-03
1.520357274038195219e-02
3.773946342782076580e-02
5.849932722697168130e-02
7.713521101367783184e-02
9.297656528531092479e-02
1.057302093440585927e-01
1.150609909885322441e-01
1.206886785933005135e-01
1.226751672722877495e-01
1.208180099593241796e-01
1.154728616556160853e-01
1.066398117884097552e-01
9.469430944514876936e-02
8.007987515381632948e-02
6.303717775541145540e-02
4.434005503474543197e-02
2.422836540558775259e-02
3.392176207979015305e-03
-1.761992771285725290e-02
-3.841077746010754246e-02
-5.827216671787464886e-02
-7.693404424934083274e-02
-9.387593482885923935e-02
-1.087551173308985569e-01
-1.213201089242431918e-01
-1.313143354238510974e-01
-1.386067031368685143e-01
-1.431355888656006825e-01
-1.449083441382005288e-01
-1.439499501087770916e-01
-1.405120103306690127e-01
-1.346486613815466860e-01
-1.267097914786063928e-01
-1.169722450742462089e-01
-1.056748708527529002e-01
-9.332500580946756497e-02
-8.010388652527825060e-02
-6.649202875011155089e-02
-5.281702447189570715e-02
-3.937396607876843257e-02
-2.656251421817800926e-02
-1.458512405475721405e-02
-3.749384345275582134e-03
5.788841638562777607e-03
1.381934125160899987e-02
2.030416373701067478e-02
2.511374441696863705e-02
2.825629210610028016e-02
2.984888934976096669e-02
2.980789908563432136e-02
2.846253113759160056e-02
2.577943871845829807e-02
2.199823303803885577e-02
1.743283590667038530e-02
1.206162627082955560e-02
6.363131524919020746e-03
3.481302892412033514e-04
-5.727349395347785393e-03
-1.154529218211147387e-02
-1.715574699222616184e-02
-2.220642254346980732e-02
-2.671654336113459330e-02
-3.058219592302859405e-02
-3.366387728262755508e-02
-3.605829725512406381e-02
-3.768796020809682401e-02
-3.863080279895149405e-02
-3.892567166970209436e-02
-3.867416527260421344e-02
-3.792690364936324166e-02
-3.682115877913999524e-02
-3.545700061536485870e-02
-3.384584863796198662e-02
-3.226468982856142698e-02
-3.058821576696878555e-02
-2.898274558248636543e-02
-2.752253693297794859e-02
-2.601460747356050887e-02
-2.479849494237823179e-02
-2.352840371248714202e-02
-2.224628602225274879e-02
-2.099908882057967274e-02
-1.936013030240615537e-02
-1.765113340036902900e-02
-1.541184149322742669e-02
-1.254655332296222836e-02
-9.128978676720835017e-03
-4.662984978821413037e-03
5.708785032872828666e-04
6.928904739577582822e-03
1.452670157421701892e-02
2.320029913796588239e-02
3.325240233160364767e-02
4.444525187178123560e-02
5.682154607880256225e-02
7.037350190107675985e-02
8.483419858624303977e-02
1.001156403321320360e-01
1.160458191798560273e-01
1.322760546900434986e-01
1.486207882913649359e-01
1.647784736725680099e-01
1.802716925403390902e-01
1.950582908926705439e-01
2.085211722816061874e-01
2.203911235150499137e-01
2.304761136410444222e-01
2.381428701555566851e-01
2.435478639077339746e-01
2.461135359972542458e-01
2.456737840937223971e-01
2.423025291411490811e-01
2.355431654485708737e-01
2.257855896666726980e-01
2.128032794661383897e-01
1.966798354805930071e-01
1.778206522031830772e-01
1.561758828355324646e-01
1.322903631387440659e-01
1.064278384362967456e-01
7.889324880207670976e-02
5.032110266262261600e-02
2.104701646656801511e-02
-8.445549030923579781e-03
-3.752442984753903699e-02
-6.588693583791833952e-02
-9.291750990723217363e-02
-1.181496400301139671e-01
-1.414166626650599778e-01
-1.620158997366381859e-01
-1.799124710412338957e-01
-1.947517385468004181e-01
-2.062334935065742725e-01
-2.146208823052463133e-01
-2.194220008846554104e-01
-2.209763596809780906e-01
-2.192781521744136264e-01
-2.143489636178007307e-01
-2.067650091209262408e-01
-1.963799943070109466e-01
-1.837857735006533100e-01
-1.692364196721353742e-01
-1.530331921689402075e-01
-1.357870300104811745e-01
-1.176640450568463975e-01
-9.923687990194876574e-02
-8.083238987898520855e-02
-6.284984747653397930e-02
-4.565165160012023271e-02
-2.957023847213614484e-02
-1.489375280818890784e-02
-1.848148571995648741e-03
9.279242010067946522e-03
1.852213921138691488e-02
2.555944690522611584e-02
3.051748082456216121e-02
3.335757837355428357e-02
3.404292685805423990e-02
3.296407255234978795e-02
2.993930645021724429e-02
2.544874240733280626e-02
1.961231220028964578e-02
1.263859006084637818e-02
5.077521722796836910e-03
-3.101429311775923819e-03
-1.129161854022759162e-02
-1.933618132559289382e-02
-2.693351863552602768e-02
-3.363025927187739128e-02
-3.940397198785795807e-02
-4.380364371282594038e-02
-4.677270220143600610e-02
-4.812872742422133476e-02
-4.770290450218546419e-02
-4.555096093804389401e-02
-4.157194477589006010e-02
-3.587970477419608062e-02
-2.855494390045785688e-02
-1.974254407022044827e-02
-9.640877168489466256e-03
1.501921880875839097e-03
1.344806896924574668e-02
2.587874959270044378e-02
3.848174180203928207e-02
5.097463820731290562e-02
6.296139747304871359e-02
7.421898817914927837e-02
8.437689281804421071e-02
9.319058353373906034e-02
1.004374643311385790e-01
1.058561121978892766e-01
1.093780833973655858e-01
1.108154121876030185e-01
1.101730299304858607e-01
1.074189181801501608e-01
1.026198363913856104e-01
9.590485160646983198e-02
8.740194863401683223e-02
7.737513232602095947e-02
6.600261124520132028e-02
5.365915166356277632e-02
4.057274448359532437e-02
2.713217760822336788e-02
1.368502070246642270e-02
5.096476322495142527e-04
-1.192681249614676794e-02
-2.347709594332415134e-02
-3.369067520958154982e-02
-4.238007931649169502e-02
-4.933202160914446077e-02
-5.425388170361623852e-02
-5.722394471951233741e-02
-5.794801783000733120e-02
-5.655535867102866321e-02
-5.301929477650284273e-02
-4.737487879235401100e-02
-3.994135543382118514e-02
-3.069074279711470413e-02
-2.003204983923694352e-02
-8.127637672483785727e-03
4.715334102027638787e-03
1.807582163646827278e-02
3.177094626831139523e-02
4.532950155423548511e-02
5.851620509996662001e-02
7.097063056909470868e-02
8.238635857054803224e-02
9.253669052198866540e-02
1.011505612881605232e-01
1.080777223307140961e-01
1.131364817885224666e-01
1.162983640265518037e-01
1.174549527465219706e-01
1.166742565346090416e-01
1.139888544874535087e-01
1.094837811060572763e-01
1.034120319202321003e-01
9.583125215509476214e-02
8.706772086855725512e-02
7.731272023139412752e-02
6.680495228087565684e-02
5.592380256786590176e-02
4.481070565962795571e-02
3.381042971917506273e-02
2.316570958485621168e-02
1.304725973029312834e-02
3.765771558692162201e-03
-4.587071508099662895e-03
-1.188202438663449323e-02
-1.792745871944131583e-02
-2.280068557405191820e-02
-2.636906961196704494e-02
-2.868369328197409654e-02
-2.991889265143807611e-02
-2.996940403614902979e-02
-2.918844892539687944e-02
-2.759467246181219677e-02
-2.537485539194656026e-02
-2.290817259283061541e-02
-2.013708424839488753e-02
-1.754863761034352806e-02
-1.520024575729977956e-02
-1.330951491889439606e-02
-1.224969549504784788e-02
-1.194723747605484429e-02
-1.278780667344489239e-02
-1.476528669622338349e-02
-1.798072181711032891e-02
-2.259871381328219103e-02
-2.849157871816146090e-02
-3.573348208230862910e-02
-4.422013302644642319e-02
-5.382984547000019271e-02
-6.442488125986137182e-02
-7.583756910496845804e-02
-8.776431929300664014e-02
-1.000429538421670206e-01
-1.123426891264176358e-01
-1.242883765533783769e-01
-1.357348719835366757e-01
-1.461338818825383135e-01
-1.553536100194756742e-01
-1.630058320580350106e-01
-1.686796537304800780e-01
-1.723477691954562185e-01
-1.735062888283371019e-01
-1.721700768530119718e-01
-1.681342673974843271e-01
-1.612078923660352769e-01
-1.515926456170317849e-01
-1.391306966071820250e-01
-1.240805461479868588e-01
-1.066175710085599526e-01
-8.691460798589120684e-02
-6.544128465634120595e-02
-4.248246747348841112e-02
-1.849138488271069927e-02
5.999222804493919634e-03
3.058778878791043251e-02
5.468734541163540464e-02
7.779874521892962691e-02
9.954068567034468629e-02
1.193070832809413201e-01
1.368438405153911686e-01
1.517544444334816833e-01
1.637266368344126310e-01
1.727773254061436559e-01
1.785662158469805416e-01
1.812959751327705982e-01
1.809798726046114858e-01
1.777134970471992148e-01
1.719808198377814623e-01
1.638051170198631112e-01
1.537721214799021852e-01
1.422147496253487464e-01
1.294827962249573139e-01
1.162215664741107629e-01
1.026296248548146800e-01
8.927035984397409252e-02
7.649026458022058217e-02
6.455972383580343976e-02
5.386153571988115674e-02
4.453822231860128655e-02
3.675873877976164328e-02
3.064763290544181285e-02
2.620594407677359627e-02
2.335254921091340155e-02
2.210805891160334477e-02
2.219005192414227196e-02
2.349954876629718400e-02
2.583699054636041589e-02
2.878994147589094069e-02
3.234923730282793231e-02
3.602177451758981075e-02
3.965611714413773414e-02
4.305236429161582445e-02
4.577538696366435789e-02
4.789749611047802724e-02
4.902294099873949484e-02
4.911482040098008595e-02
4.812177435542674964e-02
4.582367644866840173e-02
4.240511186449058556e-02
3.773560509594860168e-02
3.193333466473202709e-02
2.512245343977810574e-02
1.733287785969784070e-02
8.812840412971468390e-03
-3.262805547059131200e-04
-9.900748058251264069e-03
-1.967316682172657108e-02
-2.949630973031736395e-02
-3.913848747511676496e-02
-4.838442174157918385e-02
-5.711659533301438607e-02
-6.507370054052029340e-02
-7.215494773792922867e-02
-7.820739425963128821e-02
-8.305355473666017896e-02
-8.671467182948640329e-02
-8.898890256219421646e-02
-8.990773137373335444e-02
-8.942779764977368262e-02
-8.750077001079979711e-02
-8.426872048339185961e-02
-7.966559315193424973e-02
-7.384505901119521598e-02
-6.687931843556034484e-02
-5.887989286994188554e-02
-5.003042300270818532e-02
-4.044865066704449175e-02
-3.033757745377520590e-02
-1.986279794875746643e-02
-9.261410636509868552e-03
1.331519937586130020e-03
1.163553484040476607e-02
2.149336230270467232e-02
3.070469353790985026e-02
3.901065907640012542e-02
4.639303757638271741e-02
5.252648965217888988e-02
5.739382844492077473e-02
6.085208600610769736e-02
6.277043035472745780e-02
6.327466054135544304e-02
6.216327080971170704e-02
5.961025508083125923e-02
5.560089387194615262e-02
5.023692737002426190e-02
4.374385381157337715e-02
3.614936719339501003e-02
2.777352214981292436e-02
1.872089069952021304e-02
9.300562262288885121e-03
-2.702202942043412798e-04
-9.765318263986933270e-03
-1.885618980095702182e-02
-2.740480441963189309e-02
-3.505309250873911431e-02
-4.170790333804488825e-02
-4.710033946847595743e-02
-5.106070546113330999e-02
-5.352831020751083746e-02
-5.430398269957936730e-02
-5.347727149863522322e-02
-5.092127633686228949e-02
-4.672330930810371374e-02
-4.096088729875113632e-02
-3.371681351454358655e-02
-2.522801565195260942e-02
-1.559733843333124467e-02
-5.129275486658427946e-03
5.991137397653254620e-03
1.744061340817894268e-02
2.895777264678535759e-02
4.026852642071843125e-02
5.102150218692355632e-02
6.103404191316712246e-02
6.993027701900560167e-02
7.758406442311928386e-02
8.371886399639277831e-02
8.815069112850934530e-02
9.083012022764848370e-02
9.154731697065729423e-02
9.042027434543392639e-02
8.733469483482227125e-02
8.239269688865842600e-02
7.574223575045317680e-02
6.743635680420591305e-02
5.781540027600219622e-02
4.697478811345499883e-02
3.523412639230990434e-02
2.288979275548635658e-02
1.016476145491384056e-02
-2.533801004805859292e-03
-1.499562559960853497e-02
-2.690897222567498540e-02
-3.796705646060562211e-02
-4.799498988813376277e-02
-5.673081904911164708e-02
-6.401370833974429075e-02
-6.977855497205169566e-02
-7.385564323891870286e-02
-7.629515428312041991e-02
-7.712281846567502208e-02
-7.633409057808029918e-02
-7.418566398447629107e-02
-7.071421637945306260e-02
-6.618009303447661140e-02
-6.087617378249586542e-02
-5.492491193874039779e-02
-4.873933877445485452e-02
-4.252030791619534900e-02
-3.651695103194618763e-02
-3.110659909537039428e-02
-2.639449816393624540e-02
-2.262682783805317066e-02
-2.004154749613240930e-02
-1.859041160646376228e-02
-1.849178922907384476e-02
-1.968664811582207519e-02
-2.199284158785286269e-02
-2.556072660097897381e-02
-2.992649894383339962e-02
-3.501603779057486932e-02
-4.059622589334872800e-02
-4.608119466947913079e-02
-5.150909698035947837e-02
-5.619794091977035888e-02
-5.987478198368491322e-02
-6.230611531108345980e-02
-6.285268997106556454e-02
-6.154483608928942862e-02
-5.791431148683054420e-02
-5.176924581726657926e-02
-4.313246516679279663e-02
-3.177280316411702776e-02
-1.786709119498622322e-02
-1.533168458956796730e-03
1.708907597852733426e-02
3.758922530703616427e-02
5.957962365993781095e-02
8.269955281808197278e-02
1.062483987441512484e-01
1.297860412007990627e-01
1.526701963678264162e-01
1.741539425187947354e-01
1.938790852720474189e-01
2.109965799061117586e-01
2.251219592822916449e-01
2.357695401548003944e-01
2.424101957237349003e-01
2.450040292924013929e-01
2.431298560882000359e-01
2.368737627456131978e-01
2.262596133602727821e-01
2.114224517771340350e-01
1.928049320319573934e-01
1.706943120435936434e-01
1.457166486810163863e-01
1.184168512420530617e-01
8.951159752777261558e-02
5.969700179254802674e-02
2.972846215332233116e-02
3.406367605787753716e-04
-2.777358415381958254e-02
-5.387493598261820782e-02
-7.751870559880581768e-02
-9.800891932416254393e-02
-1.150965504586646815e-01
-1.283754937401770657e-01
-1.376247459474483625e-01
-1.429954584394654837e-01
-1.442063917891438507e-01
-1.417253343505979479e-01
-1.355680121592191256e-01
-1.261192217887163458e-01
-1.139994887844832105e-01
-9.931707034401685008e-02
-8.294353334670173661e-02
-6.511790684461543632e-02
-4.650028566541042352e-02
-2.770736353943014860e-02
-9.021207413210679052e-03
8.832424400315669680e-03
2.566404096733082563e-02
4.091058172859446396e-02
5.439342152319469326e-02
6.579271730238438198e-02
7.488631563879642739e-02
8.167238567545323513e-02
8.582649329681568684e-02
8.774247171986002125e-02
8.707476606233779948e-02
8.409458926374170640e-02
7.898386249413318072e-02
7.157837025920660290e-02
6.266753562815495504e-02
5.188031886655987412e-02
3.970630630711281805e-02
2.644000525545740776e-02
1.195007380830293356e-02
-2.922101734531947284e-03
-1.849326878713643263e-02
-3.436269761369660503e-02
-5.021484346470996007e-02
-6.616216121034657061e-02
-8.167107543410291604e-02
-9.684662608101309023e-02
-1.115436831004378987e-01
-1.255417598870744444e-01
-1.388314036011870090e-01
-1.513797692546490492e-01
-1.629974901332848780e-01
-1.737441227423704715e-01
-1.836006911931048480e-01
-1.922783896813701487e-01
-2.002034267310719706e-01
-2.068940885502552063e-01
-2.123953643372672173e-01
-2.168857590492019316e-01
-2.197022859255593208e-01
-2.214433511522623521e-01
-2.214391607246789517e-01
-2.195037961280018879e-01
-2.159049865100135523e-01
-2.097453946883688636e-01
-2.014846797505706888e-01
-1.905489359439488661e-01
-1.765789257415915081e-01
-1.599088917643432251e-01
-1.398812707962911739e-01
-1.167842738607044739e-01
-9.058613315976150882e-02
-6.113590452247287532e-02
-2.897042593459215817e-02
5.792857383315547053e-03
4.284139072336642928e-02
8.140308963078457527e-02
1.211293086614089326e-01
1.612540057665984572e-01
2.008446757628548351e-01
2.395352252762869838e-01
2.760505784479093672e-01
3.097735187109347255e-01
3.400129336280721115e-01
3.656462119808533417e-01
3.865549267776314246e-01
4.016882601161142485e-01
4.107791717563672451e-01
4.136612360822800039e-01
4.098355081374299158e-01
3.997813150119053360e-01
3.832851862454267344e-01
3.608708182870180026e-01
3.331002508679075103e-01
3.004439512833506076e-01
2.639433576424060623e-01
2.242644773272367831e-01
1.825054809351835672e-01
1.396535973700297473e-01
9.674628348979133485e-02
5.479970486198545987e-02
1.482327224471031817e-02
-2.229776816035825004e-02
-5.580493464826544181e-02
-8.487654527606071364e-02
-1.092708512927748343e-01
-1.282799491707168060e-01
-1.419317196328039876e-01
-1.501827716068587226e-01
-1.529106305916371478e-01
-1.509091921236152545e-01
-1.440167614162702892e-01
-1.331757331372539765e-01
-1.189700362790172689e-01
-1.018204404164515936e-01
-8.305920610397234116e-02
-6.282356811598625856e-02
-4.229778428938407719e-02
-2.212772983399820953e-02
-2.760991469986859292e-03
1.478852180719001340e-02
3.046656713146380507e-02
4.357095468442197250e-02
5.393057130000343535e-02
6.139134858243452952e-02
6.578250325090369277e-02
6.726206287160306496e-02
6.580220689947090251e-02
6.181488392448218627e-02
5.533147657544323916e-02
4.689753443845140479e-02
3.673979164470594916e-02
2.515290111169807968e-02
1.284930958304636092e-02
-2.468865296155224251e-04
-1.340705288283954022e-02
-2.650684614973463152e-02
-3.939561874538592690e-02
-5.143344369485064460e-02
-6.292776657296063336e-02
-7.343992846983245226e-02
-8.297098721038199953e-02
-9.169286971382811791e-02
-9.926063479658048250e-02
-1.060614218674696269e-01
-1.120776528161554625e-01
-1.173479123409288810e-01
-1.221887029839046901e-01
-1.265761680589580773e-01
-1.307068034218929198e-01
-1.347987594570643488e-01
-1.388445506185403688e-01
-1.429677433583221580e-01
-1.473521040754066647e-01
-1.518104394466739393e-01
-1.564901806805026052e-01
-1.613080761516862971e-01
-1.659556317930317992e-01
-1.706736100989424409e-01
-1.749029529220229029e-01
-1.785403319678317002e-01
-1.814906590983275947e-01
-1.830730317675476615e-01
-1.835395497386919372e-01
-1.822220770576510607e-01
-1.788645994933813210e-01
-1.735342535712023071e-01
-1.655312113289144904e-01
-1.552080734296286402e-01
-1.421784902972528242e-01
-1.263009211718879310e-01
-1.079730945267049075e-01
-8.686561270843566607e-02
-6.349113627294210305e-02
-3.800090364629890582e-02
-1.051478960831096071e-02
1.826738714079794573e-02
4.818378482249371930e-02
7.871467607022987478e-02
1.092348502487371087e-01
1.395051447106314402e-01
1.687922734389919743e-01
1.966461911764391668e-01
2.228480362295802708e-01
2.465922030093397888e-01
2.678013140478474052e-01
2.860172819334412808e-01
3.008047427580112232e-01
3.124322216104177263e-01
3.202122208345194454e-01
3.243734082044748002e-01
3.248700438825745662e-01
3.214738657434457747e-01
3.148291780587486599e-01
3.045664788740303774e-01
2.911260986063750611e-01
2.748134511559905957e-01
2.556450542617028643e-01
2.343398146600514653e-01
2.109235479616524966e-01
1.858295947848399299e-01
1.595539857670450756e-01
1.323152910559174944e-01
1.046034665104695893e-01
7.683101475229274502e-02
4.923695700565275390e-02
2.234428556694618637e-02
-3.503431492138225564e-03
-2.820632676308705220e-02
-5.108377287086440788e-02
-7.218046291417147542e-02
-9.109120277736043603e-02
-1.074778661111466666e-01
-1.216363303488374459e-01
-1.328569371710821567e-01
-1.414755580077515229e-01
-1.473156816437769245e-01
-1.502065248455252411e-01
-1.507224465744063102e-01
-1.483795824323650425e-01
-1.437298137978509083e-01
-1.368428049799219892e-01
-1.278082692361096340e-01
-1.172714329459640104e-01
-1.050971998314401690e-01
-9.189187747840228682e-02
-7.786882189393699860e-02
-6.332950838800537052e-02
-4.875716478704431034e-02
-3.430389007133068102e-02
-2.042843608649150614e-02
-7.323755253608843496e-03
4.659022490468301032e-03
1.536216377426110301e-02
2.452113496477121776e-02
3.197703912765476053e-02
3.768174120547558570e-02
4.140941081356713793e-02
4.335068167752059720e-02
4.330221775631057368e-02
4.143694443291094653e-02
3.787522937524266664e-02
3.261483827046847417e-02
2.607631730797127165e-02
1.820850813347965266e-02
9.413082374199705643e-03
-1.000068683572608030e-04
-1.013560172236223356e-02
-2.024986936770614351e-02
-3.036776364882015980e-02
-4.005655596403615015e-02
-4.915063951406162257e-02
-5.738995103760272110e-02
-6.450392584608011237e-02
-7.039590962759605108e-02
-7.479557476461544396e-02
-7.768437249763046615e-02
-7.889509237056047120e-02
-7.842087468663119787e-02
-7.625189360831306773e-02
-7.237991434132300117e-02
-6.695008566817899076e-02
-5.999234804144037980e-02
-5.171884039693530610e-02
-4.225801738003774621e-02
-3.183131342924820639e-02
-2.067187129316159708e-02
-9.002846872207060161e-03
2.896508368606328515e-03
1.479846505842325952e-02
2.639911997898767779e-02
3.750705488318184511e-02
4.781664313036854130e-02
5.716017483849891723e-02
6.531510160039766255e-02
7.207665955307894501e-02
7.740485486252729475e-02
8.106635863026796784e-02
8.311662190458068977e-02
8.344597216910139281e-02
8.207012277611025475e-02
7.912852106805660923e-02
7.457428091662496317e-02
6.867138121778189330e-02
6.146677880099678248e-02
5.318940734107727164e-02
4.408011478888085311e-02
3.428381198720749368e-02
2.413476564164673127e-02
1.378731913354358518e-02
3.552837599204437900e-03
-6.365873616180524330e-03
-1.572984147997300713e-02
-2.431279474453218459e-02
-3.195494198635712157e-02
-3.843370499517831385e-02
-4.369734662559593419e-02
-4.755035438299035078e-02
-4.999124603889378016e-02
-5.094723796066023824e-02
-5.040276873811630476e-02
-4.848081561060477163e-02
-4.513295212183800198e-02
-4.057615051101065573e-02
-3.485594317277053433e-02
-2.816591472956391298e-02
-2.072416959279396731e-02
-1.264476555679383551e-02
-4.238858231258439344e-03
4.372291227844378285e-03
1.289519868008424247e-02
2.114815977067396185e-02
2.892702276169962020e-02
3.599437689904791404e-02
4.223718203341496336e-02
4.742050136028062857e-02
5.150575851439401220e-02
5.432000161385731885e-02
5.582368540607307583e-02
5.598940075568571706e-02
5.476705077554580581e-02
5.228321705474148207e-02
4.849809371617076759e-02
4.358244849291280365e-02
3.761425656773718929e-02
3.074892235970500681e-02
2.320089270779913254e-02
1.508402896847734972e-02
6.675763768067720025e-03
-1.886301204844551861e-03
-1.033530974855044471e-02
-1.848891896227469744e-02
-2.614819929123616063e-02
-3.308444869691593015e-02
-3.917657934640463024e-02
-4.420575037984431077e-02
-4.811200023671367842e-02
-5.073727013967117838e-02
-5.203078094069632509e-02
-5.195617866872356827e-02
-5.048310902293916269e-02
-4.770055591972385822e-02
-4.359956439459955480e-02
-3.834519641555396430e-02
-3.201556277876534129e-02
-2.479554659166341782e-02
-1.689597212062762463e-02
-8.464393057140849955e-03
1.976961717130637161e-04
8.914837960359028521e-03
1.741874325771560622e-02
2.544008669885722274e-02
3.279556224615658155e-02
3.923034352019003079e-02
4.453529544942375074e-02
4.861246901954799360e-02
5.122701427797551887e-02
5.235493382054098865e-02
5.200009927294493850e-02
5.000503370692954697e-02
4.666580352444933688e-02
4.187144163734415891e-02
3.588046312032465435e-02
2.905077695105182101e-02
2.132643407727163182e-02
1.338920496247804001e-02
5.279934080963716650e-03
-2.543750628183733334e-03
-9.512697864386722435e-03
-1.560501379826839674e-02
-2.008572321172251429e-02
-2.283452597036714909e-02
-2.348894253366791071e-02
-2.163778187114281243e-02
-1.726607593285518424e-02
-1.011075482465441031e-02
-1.177635161445401979e-04
1.264670059207534392e-02
2.804361493267082048e-02
4.601232130759314032e-02
6.596675529903836543e-02
8.779038770822193694e-02
1.108761608463833814e-01
1.344217590296448717e-01
1.583254058366115880e-01
1.812522205299249567e-01
2.029744378871367605e-01
2.226049663269296652e-01
2.390227525681815346e-01
2.522472118547522957e-01
2.608348062340255513e-01
2.646988186420812239e-01
2.632214923592081646e-01
2.556455794750280286e-01
2.423257302468092567e-01
2.225688297639407676e-01
1.967232943135083512e-01
1.649510671881995738e-01
1.274418434429149261e-01
8.496169613663488718e-02
3.807800166896585514e-02
-1.238341237699861624e-02
-6.539635775159120812e-02
-1.198225922345637351e-01
-1.747249878806505230e-01
-2.285265384053878079e-01
-2.803250430054925468e-01
-3.287208446180046040e-01
-3.723277429282171314e-01
-4.105734357169023019e-01
-4.417905001376189467e-01
-4.656870500609697205e-01
-4.813002145250146468e-01
-4.879649382993231921e-01
-4.859835172743730003e-01
-4.745774637215179892e-01
-4.545171825593255499e-01
-4.258532089143730603e-01
-3.891387215841121683e-01
-3.455785530075051182e-01
-2.956329210845372590e-01
-2.408642925882615859e-01
-1.822567027587809751e-01
-1.211835124183667511e-01
-5.913731546966037589e-02
2.650647026700759992e-03
6.275882970744063594e-02
1.199174518769780817e-01
1.729193831144229809e-01
2.208696101315845706e-01
2.625998244465138076e-01
2.977732930953341794e-01
3.255356778085667369e-01
3.456432071795518257e-01
3.583151624401730295e-01
3.630020273225136873e-01
3.606929785998724269e-01
3.512271581634484052e-01
3.353664496585587185e-01
3.142245212286450262e-01
2.878712345449807586e-01
2.579967744071573477e-01
2.249271317041678930e-01
1.898110011155714483e-01
1.539023489719745785e-01
1.175567748651884376e-01
8.216888760645940648e-02
4.815767738350736071e-02
1.634116948327865582e-02
-1.261655969628679846e-02
-3.836690234258416377e-02
-6.048504586723607579e-02
-7.872005888745541025e-02
-9.290550546935438803e-02
-1.032172912402995607e-01
-1.093953319678256791e-01
-1.119802399067531540e-01
-1.109167500988562510e-01
-1.065405408486779504e-01
-9.959053640180516587e-02
-8.986449676524524421e-02
-7.835850706555778922e-02
-6.511899697175918544e-02
-5.063818371277666042e-02
-3.571423743155607844e-02
-2.020836639260341350e-02
-4.990590886704854984e-03
9.879452207860794921e-03
2.401754161220626127e-02
3.695901710341382984e-02
4.873275537786257716e-02
5.892403086980670113e-02
6.750701906149370046e-02
7.430090278663688264e-02
7.928855856443715877e-02
8.238857570819474452e-02
8.365176130553997336e-02
8.310976812569438599e-02
8.077343530115579928e-02
7.694571203697123107e-02
7.152674193564034777e-02
6.484870175544248105e-02
5.701146612929802737e-02
4.817472677424237959e-02
3.871906792541886244e-02
2.864978340229116724e-02
1.834426058118668670e-02
7.943556422468366768e-03
-2.321396603771286316e-03
-1.219240397600679371e-02
-2.153874103750812175e-02
-3.011799047562085593e-02
-3.781067921611304394e-02
-4.441903640116182106e-02
-4.989735016360541398e-02
-5.407460901460557634e-02
-5.692525924332711429e-02
-5.841039968901780288e-02
-5.846548153288860794e-02
-5.723319030618412295e-02
-5.462361631762821523e-02
-5.081335617951576733e-02
-4.586033311289407222e-02
-3.988050026928967318e-02
-3.310179853664450833e-02
-2.558324081103439257e-02
-1.760920347271319533e-02
-9.291500677855000709e-03
-8.851996151105594179e-04
7.425397693236503172e-03
1.546043239420234229e-02
2.296131990404017692e-02
2.983826884931101847e-02
3.581298405291601789e-02
4.084234445017485837e-02
4.472945442825619622e-02
4.736351453649405296e-02
4.874524407636425527e-02
4.871352680811684432e-02
4.739712825073653935e-02
4.470058612222740924e-02
4.071886859306347861e-02
3.556014488793226430e-02
2.926570307430198872e-02
2.207859925107978627e-02
1.405664839762641935e-02
5.453822789813665521e-03
-3.570814174987219439e-03
-1.279962272229998727e-02
-2.199602621421548401e-02
-3.099291315653149650e-02
-3.950538593472711912e-02
-4.741482949838037031e-02
-5.444675345532369592e-02
-6.048641968583758077e-02
-6.536299127943977216e-02
-6.890333332303325009e-02
-7.110039347280801281e-02
-7.177305679973451646e-02
-7.098325286096644759e-02
-6.866456693267113109e-02
-6.484345460973925390e-02
-5.964034129685386043e-02
-5.306995712274080457e-02
-4.534191927241826292e-02
-3.654770735548025506e-02
-2.690009237893255592e-02
-1.660194336690706818e-02
-5.862154986499857126e-03
5.063664814352215708e-03
1.595932931145100514e-02
2.654464100558470360e-02
3.662864467795304974e-02
4.592734011881889622e-02
5.428227764679646739e-02
6.147005029487283279e-02
6.732199097297386636e-02
7.176850205817433825e-02
7.462799143787517131e-02
7.595226143835681620e-02
7.564057182395847456e-02
7.376219789042247343e-02
7.041463000099780489e-02
6.563015889198300923e-02
5.966208398333588958e-02
5.257453586356400366e-02
4.464904843973838133e-02
3.608185959478114879e-02
2.708685468264060425e-02
1.797529844484757611e-02
8.905020254324297335e-03
2.048681165607831381e-04
-7.970792312446760286e-03
-1.536878081257735812e-02
-2.180817655162848798e-02
-2.715868197258535996e-02
-3.123463181902453104e-02
-3.403432518473588353e-02
-3.541030079128472396e-02
-3.541651881841387239e-02
-3.402870724715600925e-02
-3.129435720034270951e-02
-2.736629996168875659e-02
-2.226350502683291030e-02
-1.623310516464962494e-02
-9.354701904094443396e-03
-1.861105803069204936e-03
6.036127208261686181e-03
1.418479989434439335e-02
2.229134286834552614e-02
3.023440035165407547e-02
3.773554197436282398e-02
4.465310764889880712e-02
5.079837582184354439e-02
5.599423215823147448e-02
6.016116372249236122e-02
6.312488916897644742e-02
6.489930315003343553e-02
6.536520176746586641e-02
6.454722402925551494e-02
6.246319056166053929e-02
5.912059019867010878e-02
5.468089943620728366e-02
4.915553041421993896e-02
4.273713728535398493e-02
3.554027313556223922e-02
2.772798577351051272e-02
1.951896772567598276e-02
1.104513048253588300e-02
2.543016590297835725e-03
-5.830663641267526745e-03
-1.386687703402670127e-02
-2.141025052305835577e-02
-2.828457809351917276e-02
-3.435327530952272945e-02
-3.949601359162821512e-02
-4.358715392782916420e-02
-4.661642242656199864e-02
-4.845971701298411316e-02
-4.916176236534233746e-02
-4.869410424733230935e-02
-4.708949510552123963e-02
-4.448199105176581236e-02
-4.086266291573655007e-02
-3.643547685830855754e-02
-3.126827191785867821e-02
-2.553351583102154987e-02
-1.942905012653640268e-02
-1.305475343017106077e-02
-6.657824537692891634e-03
-3.491827359788386015e-04
5.667446198443978726e-03
1.124746949563151452e-02
1.625996415558801644e-02
2.056010671543405388e-02
2.407073190028540671e-02
2.668674596068254176e-02
2.839655889426714527e-02
2.912982799896922034e-02
2.892691890935314425e-02
2.778956139780435278e-02
2.577633319068469223e-02
2.300730501920279433e-02
1.951351112284688966e-02
1.549392499675590444e-02
1.101654758958661023e-02
6.264537248055947888e-03
1.410773369085487582e-03
-3.447466593217979672e-03
-8.073631966390456757e-03
-1.239424020322541301e-02
-1.622091318756716666e-02
-1.943604512476097487e-02
-2.195845995215246760e-02
-2.365319793993436032e-02
-2.450357544045380850e-02
-2.443497180809418162e-02
-2.345241700868941695e-02
-2.155991295532622490e-02
-1.879597108618918239e-02
-1.522364020177391711e-02
-1.092934764609709494e-02
-6.031845717399789836e-03
-6.344041201466190869e-04
5.085194472516735287e-03
1.101444567167428334e-02
1.695985958571558441e-02
2.277117395385567372e-02
2.830210012066870784e-02
3.335993993567818588e-02
3.785418784420427341e-02
4.161034418618024533e-02
4.455359450789739273e-02
4.658559922150884436e-02
4.763221442835723074e-02
4.768663841725098718e-02
4.670661919193362654e-02
4.474994919295548212e-02
4.182826628756609877e-02
3.804035960056860455e-02
3.347065140604208594e-02
2.823803290332996263e-02
2.250125225531592055e-02
1.637417799894003156e-02
1.006808391257464977e-02
3.702518613909879658e-03
-2.517857953493376350e-03
-8.438559571353520042e-03
-1.391814646710035769e-02
-1.877056451159707720e-02
-2.292401187014825314e-02
-2.621523702815650378e-02
-2.859985030079328569e-02
-2.999432472803935032e-02
-3.035674755520275866e-02
-2.971089616965156763e-02
-2.802881421383777646e-02
-2.541115254383098307e-02
-2.187579082441273859e-02
-1.755338102556874488e-02
-1.255007792020153626e-02
-6.984551897554211811e-03
-1.048935498316296185e-03
5.155704817985795087e-03
1.140272728556023484e-02
1.756985627545721781e-02
2.346873387701157651e-02
2.892983118420185823e-02
3.383940908759243416e-02
3.801239359716145072e-02
4.139146965378132093e-02
4.383626903430308530e-02
4.530435872507297679e-02
4.574629886462654171e-02
4.513050878377572461e-02
4.350698756464813077e-02
4.086938007128956829e-02
3.733101149883291670e-02
3.294221997453596062e-02
2.784310211419261868e-02
2.216499296070924968e-02
1.603762462551158383e-02
9.660273646697938726e-03
3.150565746573693628e-03
-3.271205252651643650e-03
-9.477403720718927810e-03
-1.528791018448997022e-02
-2.054582861796058410e-02
-2.514408643574366289e-02
-2.892304627780139040e-02
-3.184112328428663485e-02
-3.377927691797677490e-02
-3.472054541830887908e-02
-3.463173669078870032e-02
-3.351177213316761105e-02
-3.142591069171318807e-02
-2.838628365944112150e-02
-2.452466628539340388e-02
-1.989559223118925191e-02
-1.466024322139199837e-02
-8.942549862903888258e-03
-2.880932316425059009e-03
3.324102085072766759e-03
9.569419881430996783e-03
1.562126771088756701e-02
2.138213327024874461e-02
2.666269943234616732e-02
3.131342706017676419e-02
3.524825386371312208e-02
3.829083848426755032e-02
4.043715589133738131e-02
4.155079491486961263e-02
4.162318321531818799e-02
4.064068160877026825e-02
3.858624313412491180e-02
3.556174996552063233e-02
3.156530563303391185e-02
2.674298040269213958e-02
2.116885488881873820e-02
1.500296136273631190e-02
8.398987179728978347e-03
1.497180443494681816e-03
-5.481141499747698223e-03
-1.241910363929439251e-02
-1.906611334181619252e-02
-2.531575271901083043e-02
-3.096355485644575536e-02
-3.584388170540581120e-02
-3.987660989555648350e-02
-4.285987535128027437e-02
-4.481550957041242900e-02
-4.558912722125599282e-02
-4.517191898566449981e-02
-4.358221985135755927e-02
-4.077704080058587588e-02
-3.691220365087140298e-02
-3.197119470658550677e-02
-2.610970477502043766e-02
-1.944734791064008442e-02
-1.211398777968744622e-02
-4.322271969252621665e-03
3.803529323765225938e-03
1.203827459036397457e-02
2.022535243107094136e-02
2.815053858351315719e-02
3.566385663572962939e-02
4.257884461851647873e-02
4.873838799231051955e-02
5.403862151439180195e-02
5.830874874069771896e-02
6.155173089749500781e-02
6.362320338576184231e-02
6.452859343844506712e-02
6.427557595512496669e-02
6.282716665604255735e-02
6.034148312740458819e-02
5.678450343515227539e-02
5.231584479922148090e-02
4.704077076459831086e-02
4.105800516137307621e-02
3.458436883142865931e-02
2.769298048340243859e-02
2.059519453268507730e-02
1.341951466021524403e-02
6.331736750489995805e-03
-5.198326644745192640e-04
-7.004538399980116126e-03
-1.297509510855514997e-02
-1.835297396277853210e-02
-2.298641244808818235e-02
-2.686937014113307751e-02
-2.987401946592537286e-02
-3.198098442905512873e-02
-3.319444440449498268e-02
-3.343719853009911869e-02
-3.283536067144582349e-02
-3.131507490687353290e-02
-2.897932623401739197e-02
-2.589891173572030428e-02
-2.209660630143307075e-02
-1.775499328675215344e-02
-1.287990110310905517e-02
-7.641555578119085118e-03
-2.130684417857761290e-03
3.538457207396490667e-03
9.215838435480998986e-03
1.482180478994996747e-02
2.018713594312786241e-02
2.525181565981129278e-02
2.985135370927975706e-02
3.393176895028949397e-02
3.738351481639548557e-02
4.010090665185699066e-02
4.209516263884870158e-02
4.322053825264403348e-02
4.354075136704320392e-02
4.298120105817936076e-02
4.153712866603946618e-02
3.930112330834351075e-02
3.621030169701744406e-02
3.241730977052195706e-02
2.792836364334396609e-02
2.283432978101032629e-02
1.727731780475714324e-02
1.130185802084108723e-02
5.080692203537007928e-03
-1.301469855669933756e-03
-7.707623043419689970e-03
-1.401179765824594331e-02
-2.009310811922228324e-02
-2.584130559207881497e-02
-3.114334008067372664e-02
-3.588680108130647139e-02
-4.002687459162064532e-02
-4.342969501406576671e-02
-4.609801954542525060e-02
-4.794970837457912527e-02
-4.894473545614948240e-02
-4.914093718690615287e-02
-4.844800498366735875e-02
-4.697232576318553787e-02
-4.469959286137116516e-02
-4.166838185885519963e-02
-3.801040498975311044e-02
-3.371099299733912313e-02
-2.892268015809467199e-02
-2.370308881411672258e-02
-1.813906480913170596e-02
-1.237279709732996141e-02
-6.463835301429013067e-03
-5.336179572087264636e-04
5.316438323563365057e-03
1.099903274157132058e-02
1.642704504610113109e-02
2.149428174515039675e-02
2.616590284339978187e-02
3.033783543845565076e-02
3.396101081360375362e-02
3.703628279609953722e-02
3.945282677699332718e-02
4.127286607256140660e-02
4.242702305128888407e-02
4.292460549245642742e-02
4.284177588369503242e-02
4.210725935994702462e-02
4.084603516763339603e-02
3.903886008264828567e-02
3.674974685878380776e-02
3.407682264027712959e-02
3.101554146744283508e-02
2.769505492035821692e-02
2.413690775719935441e-02
2.044106179679374205e-02
1.667195330083930810e-02
1.289775070033612366e-02
9.207518379838445025e-03
5.646525268148979045e-03
2.325592327263356195e-03
-7.480929432536649604e-04
-3.458362601203513603e-03
-5.776227738978305729e-03
-7.654457192821047251e-03
-9.011367292440633503e-03
-9.889275529348887095e-03
-1.018201144412460638e-02
-9.926041774832987732e-03
-9.096299379561408743e-03
-7.687363461463515846e-03
-5.769732263944138753e-03
-3.312973596902798329e-03
-4.170345777053368480e-04
2.899610664961160735e-03
6.538774885205291681e-03
1.041768489007211321e-02
1.446118689991994326e-02
1.852617256616959085e-02
2.255187201114187967e-02
2.637279017402585635e-02
2.991615976666051058e-02
3.305289637232280975e-02
3.566064755888413706e-02
3.768036209575027773e-02
3.898948947010791310e-02
3.955926512934607175e-02
3.932085874042259843e-02
3.825379806993312037e-02
3.635597593023970342e-02
3.365731439036468570e-02
3.019412893014502761e-02
2.604049708293316306e-02
2.131066464884035991e-02
1.607363889547690217e-02
1.052946314526432940e-02
4.755945000642534774e-03
-1.049683426210024778e-03
-6.698666977009095844e-03
-1.209876423477665094e-02
-1.698565746658765863e-02
-2.130800129915032953e-02
-2.486047292231707492e-02
-2.750778129406572861e-02
-2.920870991329190328e-02
-2.979882208948343367e-02
-2.931484380019485150e-02
-2.767022337427581594e-02
-2.489040144694850201e-02
-2.102388201492749742e-02
-1.612062361404390312e-02
-1.030839307431731175e-02
-3.677228607438947500e-03
3.573620979536025651e-03
1.133240293113733747e-02
1.933996201375874635e-02
2.744723591543109242e-02
3.543399889214118165e-02
4.302688662027773225e-02
5.013560449119976170e-02
5.641861175873645606e-02
6.181680402398051499e-02
6.610467659948793262e-02
6.908922012316644212e-02
7.079259837649547193e-02
7.095986393232481260e-02
6.969837876962636791e-02
6.690249819907898021e-02
6.256682849415283465e-02
5.685962073123397575e-02
4.972449200699144423e-02
4.141774278434197376e-02
3.200927707096066360e-02
2.167412738694598356e-02
1.067339724423316608e-02
-8.541159452112130276e-04
-1.262033860386254161e-02
-2.442447861047808769e-02
-3.603073103181105019e-02
-4.720663520401519042e-02
-5.772424590913513565e-02
-6.741833803978738993e-02
-7.606801786830055812e-02
-8.352474274571924928e-02
-8.970015071838227660e-02
-9.440470261568491284e-02
-9.768672434742513289e-02
-9.941006051597005289e-02
-9.959123953595534762e-02
-9.832610489499618578e-02
-9.554214242661726586e-02
-9.147196072816435319e-02
-8.611512511177621398e-02
-7.962334040298305049e-02
-7.221814012986398079e-02
-6.394976154180868899e-02
-5.509740719838687739e-02
-4.577657109685892567e-02
-3.616698385159521079e-02
-2.648435691018498003e-02
-1.685928627584643014e-02
-7.451553691165678159e-03
1.570339470212111024e-03
1.009602221862697380e-02
1.804078306609661897e-02
2.523258410754900677e-02
3.171839411087962884e-02
3.733719169685523198e-02
4.207065132084580883e-02
4.600556025631183377e-02
4.895081240897532215e-02
5.111620406215279522e-02
5.237913385976269987e-02
5.277210803851589693e-02
5.247205735999904697e-02
5.130301108726144366e-02
4.949382445027672439e-02
4.695949137715024757e-02
4.375404485621692263e-02
3.998467056280642640e-02
3.558372995357761415e-02
3.067372062661394283e-02
2.521135980922668482e-02
1.933637711978963836e-02
1.296749160149350544e-02
6.292592982161201824e-03
-6.725152858446884624e-04
-7.900647523663687291e-03
-1.504422171954742857e-02
-2.236105287293309665e-02
-2.932631442705043237e-02
-3.592800455468975196e-02
-4.205277100310238214e-02
-4.712684835853055143e-02
-5.145915847667742460e-02
-5.432849621956453712e-02
-5.566304128250833261e-02
-5.532764755415078839e-02
-5.275979376525022357e-02
-4.820195876070770824e-02
-4.113907315266412956e-02
-3.154693005497059832e-02
-1.942954604734727087e-02
-4.672978128830171732e-03
1.256057699307098693e-02
3.212972852220747494e-02
5.380363253649819710e-02
7.730598518601643210e-02
1.020000299952430051e-01
1.277691836971434625e-01
1.536986047233717678e-01
1.792529666691169143e-01
2.039583576818886912e-01
2.266182845994177963e-01
2.472089841595745685e-01
2.644773308322962424e-01
2.778723980659021930e-01
2.870456207866963205e-01
2.909411453049259300e-01
2.897870745680902194e-01
2.827823470024519725e-01
2.698462722065182451e-01
2.511257705536972251e-01
2.264683515582642803e-01
1.964605170079259944e-01
1.613591199043164781e-01
1.218136106139917907e-01
7.856392556333562094e-02
3.257853801217720086e-02
-1.535952255536677732e-02
-6.398925480171663294e-02
-1.122330917720727322e-01
-1.590879277701941208e-01
-2.030556913421370235e-01
-2.435818759116469001e-01
-2.791548883849137019e-01
-3.090247299625604183e-01
-3.325059204452848749e-01
-3.486037479782050363e-01
-3.574442709584295663e-01
-3.581917207702422501e-01
-3.511059882994985171e-01
-3.362408376187936421e-01
-3.138383479891048156e-01
-2.848018390854998305e-01
-2.494285545422045836e-01
-2.090300966550322492e-01
-1.643419537589991819e-01
-1.167408598346289239e-01
-6.746494248537451832e-02
-1.766091898237997365e-02
3.103064973159650602e-02
7.770629247710116039e-02
1.207262616553757967e-01
1.592884634030545254e-01
1.921864850408065706e-01
2.184993258180636944e-01
2.377906899091113690e-01
2.492027442770687606e-01
2.529717014024323030e-01
2.485801319270472542e-01
2.364780497313444252e-01
2.170108513011099471e-01
1.906027503267179457e-01
1.584944385662689637e-01
1.210703753401170674e-01
7.991063985210800080e-02
3.589297787643223880e-02
-9.644572912805664949e-03
-5.518304558511227809e-02
-9.984971490379272729e-02
-1.419275064494840699e-01
-1.806514840315343873e-01
-2.146946806975985333e-01
-2.432136101100166869e-01
-2.655273323709075317e-01
-2.808297004387034779e-01
-2.890424799959888658e-01
-2.896522414048604555e-01
-2.830155590679917510e-01
-2.690984295304379437e-01
-2.483972615048591348e-01
-2.216261973870914115e-01
-1.892603929560614240e-01
-1.525976897799520837e-01
-1.122237795359918855e-01
-6.945710349749330270e-02
-2.537841216876068895e-02
1.902449097970286551e-02
6.237957903820978700e-02
1.039064042845688068e-01
1.424369665401345464e-01
1.771894905998170344e-01
2.073845796790059481e-01
2.324582393991599938e-01
2.519174830421098688e-01
2.655080234985711107e-01
2.731815798273579676e-01
2.748058377426235155e-01
2.709127607118321235e-01
2.614937045185127817e-01
2.472600960228376055e-01
2.288090449472496013e-01
2.065748475929510275e-01
1.817319536139032632e-01
1.546058926985166559e-01
1.262913968262632247e-01
9.754936848775751235e-02
6.897641493416729885e-02
4.159328763345408742e-02
1.576868185698802882e-02
-7.735155427521036436e-03
-2.848911861825372330e-02
-4.610880661864863450e-02
-6.031021729741754822e-02
-7.089105965651898433e-02
-7.779932082440649266e-02
-8.113997298662534163e-02
-8.087177857840827100e-02
-7.749978825043807307e-02
-7.102389871689289425e-02
-6.199003896449578610e-02
-5.087852194723152532e-02
-3.788629696708489814e-02
-2.389636492231245884e-02
-9.011517425464020056e-03
6.045309863507241852e-03
2.077719253779800740e-02
3.495020006393435852e-02
4.784856582578619899e-02
5.940804589183364126e-02
6.914692402537857274e-02
7.686615400356133776e-02
8.245545642259469177e-02
8.570609018088673481e-02
8.668483132423365767e-02
8.533090504928210474e-02
8.182707951017360870e-02
7.622786449306456769e-02
6.880517375107171596e-02
5.974458576138320931e-02
4.930122415589242857e-02
3.787489715242445265e-02
2.562015040243182176e-02
1.299428273513696455e-02
2.135550873217538156e-04
-1.239964709037920734e-02
-2.449161430932410982e-02
-3.590291629730442413e-02
-4.631597504775389340e-02
-5.557753390786462910e-02
-6.350957093376806417e-02
-6.999019286088205283e-02
-7.492388574342925822e-02
-7.829645598856480038e-02
-8.006608690353547719e-02
-8.027124060681720130e-02
-7.903980181924477599e-02
-7.636420853283390486e-02
-7.248506078269535691e-02
-6.746322531000581435e-02
-6.149128679658380503e-02
-5.482519987352123259e-02
-4.753563023875491400e-02
-3.993791226993485821e-02
-3.214831863914613397e-02
-2.438670535678431547e-02
-1.686804864059582992e-02
-9.705719038377424307e-03
-3.098019469565777353e-03
2.850248914333993171e-03
8.010711780579606381e-03
1.233729352826728326e-02
1.572327367210642896e-02
1.819113417392985432e-02
1.970182666500520235e-02
2.026713863066635299e-02
2.003196271033966941e-02
1.892959817767213282e-02
1.717162677163419984e-02
1.479387139305614329e-02
1.190279808963208563e-02
8.752473486612944581e-03
5.307881743738201638e-03
1.834274946639862305e-03
-1.598370755427389045e-03
-4.898593790676780690e-03
-7.831649149245285824e-03
-1.044813230190264064e-02
-1.258242125655959984e-02
-1.419150469992391458e-02
-1.529472826106226604e-02
-1.577638147503895513e-02
-1.573518682021062334e-02
-1.517675498315241081e-02
-1.411486829818275890e-02
-1.268292825478802358e-02
-1.089824564524018505e-02
-8.883797696586100134e-03
-6.766021938977274941e-03
-4.598745988345831828e-03
-2.536033585362073087e-03
-6.681331295108079021e-04
9.231784798851101412e-04
2.118609180127003621e-03
2.864194595274753997e-03
3.115239622802140704e-03
2.792435299504257128e-03
1.919398989193008432e-03
5.053685468731717104e-04
-1.475600501457338849e-03
-3.876962760761628463e-03
-6.721423516962768407e-03
-9.870365173984006757e-03
-1.315604279126381809e-02
-1.659287253278854402e-02
-1.987390537543014951e-02
-2.299019060773447101e-02
-2.575521723329747201e-02
-2.792496360112689188e-02
-2.955203792448582792e-02
-3.030451725247104364e-02
-3.020441398735912789e-02
-2.912843941218024382e-02
-2.689641402159903896e-02
-2.363317114723788651e-02
-1.915285508093272221e-02
-1.354518330674977719e-02
-6.839046628880445650e-03
9.723195340563938610e-04
9.719981131628946391e-03
1.933253161368396478e-02
2.968154636392179857e-02
4.057644458280273980e-02
5.183326821891365288e-02
6.331520211344603133e-02
7.469791863751501504e-02
8.587487944773473936e-02
9.655845064138274259e-02
1.064444472943650022e-01
1.154849488885953124e-01
1.232255831741017466e-01
1.296268222997915553e-01
1.344202191202774899e-01
1.373258873535152524e-01
1.384046871868699624e-01
1.372989689125660995e-01
1.340756191566871702e-01
1.286377015391080847e-01
1.209167541051528183e-01
1.110876931804019724e-01
9.913510578981331312e-02
8.526223092369462908e-02
6.966111969248565960e-02
5.259407155865626626e-02
3.432173786064911941e-02
1.526842073304052541e-02
-4.272028436769563856e-03
-2.385154617419124948e-02
-4.296409994663373533e-02
-6.137872132321035845e-02
-7.841032505674370989e-02
-9.385095245682861798e-02
-1.072229770288061074e-01
-1.180817568066964973e-01
-1.264076447843685003e-01
-1.316335096461706544e-01
-1.338545931457005844e-01
-1.328441271833913362e-01
-1.285367341852472201e-01
-1.212222019524435979e-01
-1.107650893640032830e-01
-9.762149898381061730e-02
-8.193493288997200086e-02
-6.410089718032699335e-02
-4.460216249311654835e-02
-2.377726242183682975e-02
-2.238977523302310840e-03
1.962627232506149871e-02
4.117914531964385338e-02
6.204610225907908339e-02
8.163567035272310812e-02
9.953919017621480625e-02
1.154037721817197659e-01
1.286962696336453604e-01
1.394486958915528430e-01
1.471151804408967756e-01
1.517509666992757633e-01
1.532578124857275903e-01
1.514325334962835501e-01
1.467734832945979118e-01
1.389609155626972958e-01
1.284710202095386555e-01
1.154869054509632120e-01
1.001116722109410828e-01
8.307506381907291126e-02
6.430693571132987951e-02
4.440389044992680556e-02
2.369801230173090162e-02
2.429314577416923863e-03
-1.880471208378950779e-02
-3.986588922343951846e-02
-6.035754975063342687e-02
-7.995526273606973211e-02
-9.841783281694094221e-02
-1.155336001078591385e-01
-1.309905145249510017e-01
-1.447277624799343798e-01
-1.565248274845845722e-01
-1.661756369648656473e-01
-1.738875296943413196e-01
-1.792379353000794762e-01
-1.824405994252994712e-01
-1.834317965962380115e-01
-1.820453401881612643e-01
-1.787738231439257031e-01
-1.732245394372861069e-01
-1.657351517795307427e-01
-1.564297299601528635e-01
-1.452085627620455510e-01
-1.326494099845883790e-01
-1.185532397030764074e-01
-1.032331996308969435e-01
-8.698924662706562783e-02
-6.981824061978621210e-02
-5.219181040097416180e-02
-3.419871984233266438e-02
-1.601924499301995639e-02
1.943550896048805952e-03
1.962104920170738842e-02
3.675367881085234156e-02
5.303576035256829524e-02
6.847952519218644674e-02
8.270407802198991021e-02
9.564854291962041066e-02
1.073136517825858949e-01
1.173396722756021304e-01
1.259444844071265224e-01
1.328918663354888563e-01
1.381955686125053151e-01
1.420980220269894290e-01
1.443233847267362813e-01
1.452291511495712728e-01
1.447800178169192931e-01
1.430463550048580168e-01
1.404192635115643351e-01
1.367471626046660171e-01
1.323790931516324321e-01
1.274499105165180779e-01
1.219845309067172784e-01
1.163719177151048695e-01
1.105387881217460705e-01
1.046503546413664193e-01
9.891636597307297551e-02
9.321296989829146173e-02
8.777245704003761029e-02
8.254398520345034018e-02
7.741334378825776019e-02
7.256655746651761996e-02
6.773828929181872904e-02
6.292973836760568096e-02
5.812231669663464606e-02
5.299287288809620411e-02
4.766430063860682687e-02
4.188656791494144160e-02
3.549231003083348768e-02
2.858281664671223979e-02
2.084890249424370401e-02
1.239582110048901425e-02
3.212834038849734977e-03
-6.867537695676304704e-03
-1.753316750994394352e-02
-2.885321432914668069e-02
-4.067400581593490216e-02
-5.266528195668651602e-02
-6.487156249406635100e-02
-7.681068448247470315e-02
-8.828882441784514923e-02
-9.913265913649281502e-02
-1.088294583544551636e-01
-1.173527626471845692e-01
-1.242604098524284495e-01
-1.293169274697595628e-01
-1.324614045687667330e-01
-1.333259854440829728e-01
-1.319852080834610919e-01
-1.282784506223491605e-01
-1.222036347154397129e-01
-1.139248558364695796e-01
-1.034630880837594802e-01
-9.109756398788319831e-02
-7.703249329837616455e-02
-6.157623674374955447e-02
-4.507643300961852728e-02
-2.790797665474453390e-02
-1.044685287233652893e-02
6.887188772349929489e-03
2.368181479269909975e-02
3.960782647837032822e-02
5.421292693336088320e-02
6.728431334220058568e-02
7.844942421446685077e-02
8.750856394368408675e-02
9.436396014585880787e-02
9.877247227882043901e-02
1.008801058365720316e-01
1.005440535312151912e-01
9.794100148677359341e-02
9.326854155533559343e-02
8.658458479528112484e-02
7.835595981020417045e-02
6.867051434162359247e-02
5.796490344671710593e-02
4.660361793286349474e-02
3.481143365354107816e-02
2.311495350959584527e-02
1.169130281797428096e-02
9.352547256901277278e-04
-8.847462866815042001e-03
-1.748833063953483119e-02
-2.470415814749025996e-02
-3.038672066469358043e-02
-3.444252090169928893e-02
-3.679549593244769989e-02
-3.747256942037663352e-02
-3.657673404135376727e-02
-3.414095581825969672e-02
-3.041255915837752163e-02
-2.556101976614934615e-02
-1.977539933375704884e-02
-1.343635370793191605e-02
-6.667508391047436561e-03
1.480925554301071312e-04
6.740062527009232918e-03
1.293250214454697532e-02
1.835193396556057677e-02
2.291062831007415965e-02
2.638865517802085198e-02
2.860940636984552615e-02
2.958444061264805733e-02
2.920002884231070669e-02
2.749538052474358868e-02
2.458191250984998605e-02
2.047497491044592000e-02
1.540601291738249827e-02
9.565215209385330430e-03
3.099635537435292340e-03
-3.628113968071593892e-03
-1.047030355732301438e-02
-1.711328295240633485e-02
-2.324441507096989407e-02
-2.872397574468675205e-02
-3.320368383307938098e-02
-3.656335835325497108e-02
-3.861827219424716906e-02
-3.919516895889488262e-02
-3.828220659597648956e-02
-3.579921056579217498e-02
-3.177920044225637786e-02
-2.629855244631587943e-02
-1.946573231403406212e-02
-1.142740553421026789e-02
-2.434255459383664541e-03
7.336921943275911961e-03
1.758334756210016420e-02
2.799211757004433157e-02
3.834374857955613614e-02
4.822370075639222098e-02
5.745311215059667465e-02
6.568553886249602070e-02
7.264480161706399208e-02
7.819138692101483545e-02
8.202979398290854984e-02
8.414551695684978350e-02
8.436380296215921504e-02
8.266617086860385266e-02
7.910021587311386049e-02
7.368135095648245536e-02
6.661233111420815367e-02
5.798278102049199412e-02
4.806028515168524196e-02
3.705559218351181516e-02
2.526652046528568216e-02
1.299978984222998832e-02
5.320199229685105419e-04
-1.176346187338708771e-02
-2.364492533552564960e-02
-3.474179405553110001e-02
-4.484143123247802398e-02
-5.365874212899066076e-02
-6.096978363151767111e-02
-6.664802892655566358e-02
-7.048921673335267757e-02
-7.251922710697208951e-02
-7.260476533340309846e-02
-7.082487234567116929e-02
-6.723439749125253995e-02
-6.191125251844023514e-02
-5.511354765091652785e-02
-4.691378837637358301e-02
-3.765062356383856723e-02
-2.751419136638208127e-02
-1.680098270378216352e-02
-5.849662466142633438e-03
5.130665680671752868e-03
1.574993015809906388e-02
2.581138102595548905e-02
3.499551240381203188e-02
4.309217680915536364e-02
4.990325980642000558e-02
5.523089430379184150e-02
5.900437056792599833e-02
6.108194566516300661e-02
6.151304025753899507e-02
6.023532503561672413e-02
5.735957149447187819e-02
5.298096264707252701e-02
4.720910152222834721e-02
4.031319113130452103e-02
3.238675784168240646e-02
2.376747498330418484e-02
1.463820340275493424e-02
5.274242007817916619e-03
-4.012967121729204070e-03
-1.305573504988953235e-02
-2.150180721240972995e-02
-2.921494672687714386e-02
-3.592768846193757082e-02
-4.148010947351314648e-02
-4.574796669917143010e-02
-4.856596172051146076e-02
-4.994025006180009829e-02
-4.975894602860074512e-02
-4.810009399422729426e-02
-4.495914552831241362e-02
-4.043003709283600478e-02
-3.466008063152176133e-02
-2.773833213016093854e-02
-1.991980270964938821e-02
-1.132109104499571042e-02
-2.216597607350894242e-03
7.191202573372577553e-03
1.667693254314610296e-02
2.596769056132788162e-02
3.489347757795077665e-02
4.317250580152344475e-02
5.066721477526441031e-02
5.715109039483708131e-02
6.249719216140341149e-02
6.658214313398801154e-02
6.928242943819960808e-02
7.060757869915908203e-02
7.045724327758073890e-02
6.892110299636138027e-02
6.599248114975460322e-02
6.176926420683077901e-02
5.639993500045252517e-02
4.995963237102811483e-02
4.269460966724812623e-02
3.471412881803648959e-02
2.626952937403088592e-02
1.755554660878849704e-02
8.770506787687121220e-03
1.657978738852129708e-04
-8.103538398480377575e-03
-1.578746998382998812e-02
-2.276417038407735349e-02
-2.883071189487763572e-02
-3.387908869315849059e-02
-3.779773494014881940e-02
-4.048256936426564145e-02
-4.195018440298958762e-02
-4.210358152179992375e-02
-4.103497883278653391e-02
-3.872938517285005877e-02
-3.528591147685995744e-02
-3.083812595095835121e-02
-2.544552927250409713e-02
-1.934604389700870716e-02
-1.261764342149043067e-02
-5.512386475190374224e-03
1.808441602063418259e-03
9.161382646387397632e-03
1.629605028075978290e-02
2.310134485321107753e-02
2.930456421678990370e-02
3.482635324894699236e-02
3.946079473561957263e-02
4.308506299795454575e-02
4.563649483035427112e-02
4.696360994600730365e-02
4.713223739050316496e-02
4.602749890045548797e-02
4.372112717942160109e-02
4.025029788267622810e-02
3.565915871657476810e-02
3.013309886867951079e-02
2.371019521519341158e-02
1.661148646911733695e-02
8.957999094489351583e-03
9.544965691933192040e-04
-7.202454714408312517e-03
-1.534856988956658300e-02
-2.324662288260221851e-02
-3.076734943426139360e-02
-3.766390417346840436e-02
-4.385128904553986517e-02
-4.912860085245512876e-02
-5.337583795807876452e-02
-5.653393161726637250e-02
-5.843915345779696069e-02
-5.917332379819160992e-02
-5.859834356821211343e-02
-5.676956946574369944e-02
-5.373550297306180223e-02
-4.948969663753695347e-02
-4.423718865862270866e-02
-3.797401436899247584e-02
-3.088990593862242159e-02
-2.312101866433508360e-02
-1.480805633780363922e-02
-6.169505583827441728e-03
2.663842830446324587e-03
1.147964570819670106e-02
2.012044469310789174e-02
2.838281898907765374e-02
3.614556921505809872e-02
4.321196221271388083e-02
4.946314362902862194e-02
5.479343477163915732e-02
5.904750801060350274e-02
6.225642440557063728e-02
6.425815132765000381e-02
6.509255664218435711e-02
6.474994715944486223e-02
6.320903713188870399e-02
6.063003310381902267e-02
5.696558219245868859e-02
5.239824341354995529e-02
4.700460143608822805e-02
4.091128121399396911e-02
3.431955190950164436e-02
2.731034199995759429e-02
2.012082834925120467e-02
1.286057018185962630e-02
5.741026234376848426e-03
-1.094354705020696844e-03
-7.488632683805711981e-03
-1.326187550252831346e-02
-1.833285545470822800e-02
-2.251525811381412459e-02
-2.578822399990632688e-02
-2.801253019644276213e-02
-2.915779259446161023e-02
-2.921689627970293704e-02
-2.813793051368619277e-02
-2.603381601264964998e-02
-2.286841558092628235e-02
-1.878900848206206328e-02
-1.386786506892023416e-02
-8.229313730487882242e-03
-2.068215726155809078e-03
4.528280875859214127e-03
1.129809739024271315e-02
1.813368945416824612e-02
2.479557240685204347e-02
3.110446040959418887e-02
3.691298913902221757e-02
4.197939346019187445e-02
4.623724324431137400e-02
4.947427443144405967e-02
5.163024858880219115e-02
5.261059641555984601e-02
5.233512737331656728e-02
5.084133125697254396e-02
4.808227484660385076e-02
4.416077504803428422e-02
3.911444886182571801e-02
3.307571986980095691e-02
2.617791054208503526e-02
1.857484753102595088e-02
1.047365825948205244e-02
2.030075706340522639e-03
-6.490668136084684972e-03
-1.493924308060404216e-02
-2.305007708606207628e-02
-3.064068641279491315e-02
-3.753002136809416300e-02
-4.348249235886104958e-02
-4.843041018749305593e-02
-5.215286100823628146e-02
-5.461186959983202471e-02
-5.570940716112555979e-02
-5.538522668929442283e-02
-5.370133302371572770e-02
-5.060876863337049336e-02
-4.624629559180620797e-02
-4.065351726162441670e-02
-3.398595569870947741e-02
-2.640103776631422608e-02
-1.805092299479053863e-02
-9.177183773952952289e-03
6.633468025043012806e-05
9.390645152731514483e-03
1.863581236102248434e-02
2.752818415130413657e-02
3.586210933530785405e-02
4.345818181861391127e-02
5.005697851772639151e-02
5.559956359920489866e-02
5.984176415461268939e-02
6.274350046860156793e-02
6.420648036184285756e-02
6.415363728768704032e-02
6.267538048024037800e-02
5.969193569609825001e-02
5.536547086492513148e-02
4.973370539046276240e-02
4.295077796178918550e-02
3.521027801106008104e-02
2.663758179263709877e-02
1.751408799757491613e-02
7.984215544970861209e-03
-1.649213621328841743e-03
-1.120405833735161824e-02
-2.042354150695078335e-02
-2.906300807419668827e-02
-3.696456761801525381e-02
-4.384393157125515694e-02
-4.964375330417952759e-02
-5.412014957057798004e-02
-5.720324955818990864e-02
-5.881852176804618082e-02
-5.885525091684079557e-02
-5.742098695538629116e-02
-5.441745212781530505e-02
-4.999061864893430962e-02
-4.419531540401225311e-02
-3.715561937234732048e-02
-2.909127116604065880e-02
-2.010628989768316333e-02
-1.048826366371324523e-02
-3.960092383585561010e-04
9.875967336564185628e-03
2.011558739024299838e-02
3.007092446307227732e-02
3.947218737781603426e-02
4.814933758313583168e-02
5.580319590705476451e-02
6.236045058094361049e-02
6.756399453771230745e-02
7.132321848043191026e-02
7.356415030030506730e-02
7.415490681540364004e-02
7.322046285255567888e-02
7.064213245544187503e-02
6.657016046259604802e-02
6.107496645464291496e-02
5.426448109406320497e-02
4.640166976039754310e-02
3.756360448662432461e-02
2.805836810590736641e-02
1.805483787486055619e-02
7.829128511907526219e-03
-2.371145944035688014e-03
-1.233151743172265780e-02
-2.176724243292092395e-02
-3.051793136092483330e-02
-3.830812944573561141e-02
-4.504297180144338497e-02
-5.050530284965612515e-02
-5.459335720627059296e-02
-5.724583415221122518e-02
-5.834325902029674493e-02
-5.798873962772882473e-02
-5.608335873182895837e-02
-5.276128796867590731e-02
-4.808818402180221885e-02
-4.216383559818978610e-02
-3.522843900981272036e-02
-2.735037864326079690e-02
-1.882503991664194118e-02
-9.801248324617236121e-03
-5.384093929129973866e-04
8.720025033143315521e-03
1.778810149143109781e-02
2.637370283467951534e-02
3.433803412646830450e-02
4.141225939659416710e-02
4.748553277229505820e-02
5.237205713992097722e-02
5.594631795662473317e-02
5.816705556651743936e-02
5.891225035947221522e-02
5.826662468643141468e-02
5.616075177040888433e-02
5.270855775209361271e-02
4.799369587225146838e-02
4.211470958713896262e-02
3.530131517981412170e-02
2.763968669920483304e-02
1.941772932303041307e-02
1.078247541576782612e-02
1.995791732037323785e-03
-6.711407010640315848e-03
-1.516018231013407241e-02
-2.305343101364161484e-02
-3.028930019244979385e-02
-3.658614220355045632e-02
-4.185375622093040482e-02
-4.593028105600047151e-02
-4.866608317112582072e-02
-5.008061332049611181e-02
-5.001252935490181628e-02
-4.856663137769555438e-02
-4.568878553719316060e-02
-4.144355876235920888e-02
-3.597410382445567767e-02
-2.930912854489607297e-02
-2.169328846609167721e-02
-1.320810704019080573e-02
-4.082967032011962372e-03
5.484251808083797676e-03
1.530465768473405347e-02
2.512315889558456791e-02
3.476815059356923310e-02
4.397720397994213382e-02
5.259738678147519997e-02
6.038833996985402963e-02
6.721661148371588235e-02
7.291501684276296968e-02
7.733290804026579646e-02
8.044257880093927393e-02
8.208752122525521389e-02
8.232694336543802671e-02
8.109468086600435388e-02
7.843651940491286334e-02
7.446775224809513982e-02
6.920239467733793615e-02
6.286053855848124094e-02
5.551361904310904427e-02
4.737387100376960758e-02
3.863723236908317427e-02
2.947086303885514125e-02
2.013425810998316010e-02
1.079224995808091003e-02
1.695093670745928364e-03
-6.982583168727917594e-03
-1.502718522439249957e-02
-2.228126826474599240e-02
-2.857843968702178036e-02
-3.378586259389541879e-02
-3.783358946847752147e-02
-4.059703284967687564e-02
-4.211028450792629607e-02
-4.229200037320893224e-02
-4.122409726548828535e-02
-3.896287671897094573e-02
-3.555620896779265738e-02
-3.121724024402098771e-02
-2.597884808037857415e-02
-2.011448239937180943e-02
-1.375457642194729060e-02
-7.097580366852606487e-03
-4.231598617764203984e-04
6.165740819009214897e-03
1.234307653952134223e-02
1.800210340512196916e-02
2.291408567675988495e-02
2.689259804688080846e-02
2.985937267996761207e-02
3.162164783237305515e-02
3.218903124461686138e-02
3.145333521235058050e-02
2.943957518748917951e-02
2.617487012108871136e-02
2.171542906888619326e-02
1.620558934027587633e-02
9.730726999065606592e-03
2.515838041079625654e-03
-5.309416320560924121e-03
-1.348109627566200855e-02
-2.180189559679790098e-02
-3.005216147132689850e-02
-3.794847546956847673e-02
-4.534414845442855113e-02
-5.194084028399771624e-02
-5.761496090478179788e-02
-6.216263426947839232e-02
-6.542224405304122858e-02
-6.733530353443398231e-02
-6.776349387342257835e-02
-6.673825101006901350e-02
-6.421361816826219593e-02
-6.024873662551832876e-02
-5.492128519268732467e-02
-4.834353325984880323e-02
-4.067481973923992022e-02
-3.207300742146047823e-02
-2.277072838152653655e-02
-1.294265011482530897e-02
-2.888957030335672499e-03
7.218755101968272678e-03
1.708691620038451167e-02
2.646689299416804184e-02
3.518241275213782743e-02
4.291964854759532100e-02
4.962135604747852646e-02
5.500534759696805442e-02
5.898007027399558566e-02
6.146491335305670489e-02
6.232316368724034883e-02
6.166514105363853082e-02
5.937160122098589232e-02
5.558904877998183114e-02
5.036963837582200676e-02
4.384540446238610611e-02
3.624194614747593135e-02
2.766028419227365212e-02
1.842460285921541235e-02
8.671492357873931273e-03
-1.257034354822593805e-03
-1.115065734343350518e-02
-2.075441222549296791e-02
-2.973346707045669904e-02
-3.797074239604747437e-02
-4.509091807309080491e-02
-5.103209831919994222e-02
-5.553834741594970703e-02
-5.844424465455799744e-02
-5.974864653111255919e-02
-5.923847620302100103e-02
-5.705607023523417975e-02
-5.309292989818070740e-02
-4.744104638243792915e-02
-4.024289405748288084e-02
-3.155073384805011372e-02
-2.165676031076448071e-02
-1.066080358753648469e-02
1.139024262093649500e-03
1.350880495945827771e-02
2.617533054315203042e-02
3.882836146720755610e-02
5.122012009461471282e-02
6.301485713362586782e-02
7.399351861280344111e-02
8.384189518787389661e-02
9.237994411697300623e-02
9.936959146422778832e-02
1.046438811264290558e-01
1.081037136046504588e-01
1.096160168582599875e-01
1.092153146424907351e-01
1.068336743832982716e-01
1.025977994383757280e-01
9.656346719191417904e-02
8.890872282258678594e-02
7.984782748631252813e-02
6.954429294898537006e-02
5.837965607183695504e-02
4.650355993415687672e-02
3.435557955049814427e-02
2.218628076883371811e-02
1.030918471612275733e-02
-8.377048256511506266e-04
-1.113515268303769817e-02
-2.009870727031691506e-02
-2.762004426129125237e-02
-3.341277564421744894e-02
-3.723728439145741753e-02
-3.911142810497900135e-02
-3.876755291353808919e-02
-3.634740857999455010e-02
-3.175318582672626011e-02
-2.510806035376481754e-02
-1.658588344696807979e-02
-6.292298158236361502e-03
5.410099553242532326e-03
1.837992889134627827e-02
3.215741725802467865e-02
4.650078674739779871e-02
6.097682414964816777e-02
7.517175570239235938e-02
8.880688923432618342e-02
1.013103775974878301e-01
1.125399665801042060e-01
1.219723800586128004e-01
1.293805251004831458e-01
1.345541175906261877e-01
1.371121251659171703e-01
1.371688867277298940e-01
1.343983991529976718e-01
1.289239247745704031e-01
1.207825744738593166e-01
1.099712238079986748e-01
9.689753192286217065e-02
8.158198897202950661e-02
6.446225832065961836e-02
4.584824180996542597e-02
2.604490755213925354e-02
5.618516067258036428e-03
-1.516151712047330083e-02
-3.578873301449222999e-02
-5.583328068898429919e-02
-7.497958954107336593e-02
-9.273104507006267594e-02
-1.088409715731628036e-01
-1.230329130751595945e-01
-1.349662241675137486e-01
-1.446317224040397920e-01
-1.517600491137384155e-01
-1.563747120035366978e-01
-1.585810509585310890e-01
-1.582510332401349251e-01
-1.558075038521023470e-01
-1.512143764287579573e-01
-1.448344231637002377e-01
-1.370807272256865383e-01
-1.280299443024748296e-01
-1.183862657759964937e-01
-1.082433749810459422e-01
-9.814533579480042014e-02
-8.856133673400060080e-02
-7.966454613562980180e-02
-7.207066527084865504e-02
-6.587903277060493112e-02
-6.149901900317367165e-02
-5.915579490566140464e-02
-5.897996910596250975e-02
-6.109019386834962928e-02
-6.551144469845346374e-02
-7.220384922025542551e-02
-8.094351325039612910e-02
-9.171568085952028215e-02
-1.039167078080810991e-01
-1.174907546250451157e-01
-1.318326757529734716e-01
-1.462942639990170712e-01
-1.607435246912930216e-01
-1.740123022850503520e-01
-1.860906502692575015e-01
-1.960596898907427943e-01
-2.031818178152746124e-01
-2.074397167422474819e-01
-2.076573538203546343e-01
-2.041132477806025802e-01
-1.961226456653877570e-01
-1.833386200850719294e-01
-1.661503277756575248e-01
-1.439988574492741258e-01
-1.175781486011684418e-01
-8.690544236094230324e-02
-5.226025141033228960e-02
-1.448601288825238087e-02
2.611927225474426628e-02
6.867860141374301786e-02
1.124285746939054920e-01
1.567073273093998742e-01
2.005330735123175279e-01
2.430508473717698514e-01
2.836810385458100048e-01
3.213132603373149432e-01
3.554294244679777615e-01
3.853733631528634129e-01
4.102917381816205133e-01
4.302928401941887304e-01
4.444416828106775297e-01
4.527647424400779719e-01
4.552254258857631464e-01
4.514025311436579146e-01
4.421025684378899201e-01
4.269213211858252088e-01
4.064364275620643285e-01
3.811989960897982366e-01
3.513301634672507112e-01
3.179359538345661873e-01
2.812321529799803876e-01
2.419932475309792552e-01
2.010588191302137839e-01
1.589336665627036349e-01
1.164533298841103487e-01
7.432476048196727525e-02
3.307115330839220657e-02
-6.557320949039914526e-03
-4.392751094363184228e-02
-7.888778168270640934e-02
-1.104920949082022763e-01
-1.387365490543276125e-01
-1.632343615833093675e-01
-1.834442780758712421e-01
-1.999546411956581449e-01
-2.118684538734537104e-01
-2.196803976645732848e-01
-2.234356167685610517e-01
-2.228188281844328267e-01
-2.188665026759934185e-01
-2.109659423478157936e-01
-1.998709562138165641e-01
-1.859265512715160551e-01
-1.690961466843866612e-01
-1.504170045293079516e-01
-1.296828569966095579e-01
-1.076236730766097216e-01
-8.466069422457123128e-02
-6.103055810708953033e-02
-3.741155679768126685e-02
-1.398942541754425936e-02
8.720894203571605621e-03
3.041843926040527571e-02
5.066988492274999978e-02
6.930082957984061431e-02
8.588469717218336075e-02
1.002029254046208628e-01
1.121859867511115355e-01
1.213698984416373972e-01
1.280328859410586606e-01
1.317480645908548076e-01
1.326078013677618461e-01
1.307953927620267576e-01
1.260295286731871189e-01
1.188809266094664335e-01
1.091468630551334917e-01
9.719091161969369008e-02
8.338587824707915930e-02
6.776807365118746318e-02
5.098965122560326912e-02
3.314956415674648327e-02
1.474668056629634474e-02
-3.800704372817433410e-03
-2.219835840866921095e-02
-3.994017869293685352e-02
-5.673931789782483970e-02
-7.219034612104006932e-02
-8.600124249696182444e-02
-9.785174172612420840e-02
-1.075624119046277027e-01
-1.148771676042906753e-01
-1.197102447577837181e-01
-1.220124646581842442e-01
-1.216962958093927016e-01
-1.189659712786993728e-01
-1.137754426491120741e-01
-1.064449664212742397e-01
-9.715598912471322401e-02
-8.616444987444234205e-02
-7.392897812544761693e-02
-6.063104711656307211e-02
-4.685266586922270937e-02
-3.283878235105781862e-02
-1.907257974925276323e-02
-5.977891935316732852e-03
6.187937759563458262e-03
1.688854372351547561e-02
2.605720988313437250e-02
3.323116457330005380e-02
3.831501933406866733e-02
4.117743606264696876e-02
4.159444568452820568e-02
3.984167229285112688e-02
3.566534430769247033e-02
2.940232452877412916e-02
2.114589704339377846e-02
1.101622040672384055e-02
-4.084994865637143341e-04
-1.318271045121091264e-02
-2.671441044625997088e-02
-4.076117836139268868e-02
-5.508316965520909658e-02
-6.902974803190924102e-02
-8.262445883630788190e-02
-9.535771711447499355e-02
-1.070065085217664497e-01
-1.174997844343761422e-01
-1.263760138862619620e-01
-1.337839862839590999e-01
-1.395544707649356009e-01
-1.436105679998430917e-01
-1.461740483063747320e-01
-1.471030607266714252e-01
-1.466819633729975758e-01
-1.450892733754756136e-01
-1.424010647556552822e-01
-1.389949872323009983e-01
-1.349842246053989947e-01
-1.306417764827716710e-01
-1.262563237236145886e-01
-1.219628587759728211e-01
-1.179953281159062811e-01
-1.145429314590588332e-01
-1.116812802949902483e-01
-1.095144890099886553e-01
-1.081468693576735918e-01
-1.074272719333937420e-01
-1.074913042839004962e-01
-1.081382163080694681e-01
-1.091515505070452113e-01
-1.106113505508864031e-01
-1.119631075556555277e-01
-1.133127196772809181e-01
-1.142722172073936393e-01
-1.144104906722933496e-01
-1.138925376619711188e-01
-1.119705310318824254e-01
-1.088522765729764419e-01
-1.041693488426145009e-01
-9.751279254368722116e-02
-8.925232937717174353e-02
-7.871489357887428984e-02
-6.632361466430093666e-02
-5.189630820241220022e-02
-3.522434131245821831e-02
-1.691413405881408288e-02
3.473285038672198257e-03
2.530628762192689563e-02
4.852590195008645024e-02
7.312149215149649217e-02
9.831960874108428006e-02
1.243295815115549180e-01
1.504416833481133364e-01
1.764263280292907021e-01
2.021937694636548877e-01
2.269645514265382080e-01
2.508736386992841960e-01
2.733374523599636507e-01
2.941313215750119836e-01
3.132908194077782538e-01
3.302137572408389010e-01
3.451486945348493651e-01
3.577735955837914594e-01
3.680306044170533197e-01
3.761704019602024052e-01
3.818473273823404512e-01
3.854918327803113498e-01
3.870014387597938699e-01
3.865383962645089766e-01
3.844745837038519576e-01
3.806774653013644816e-01
3.756864826458750639e-01
3.694583041380071764e-01
3.623372376419894958e-01
3.546233564714185715e-01
3.463116175863857338e-01
3.379071064158055693e-01
3.292720413474301555e-01
3.208540651418624323e-01
3.127031234146815941e-01
3.048801345580217648e-01
2.977097662701245762e-01
2.908874758961854656e-01
2.848716691805424639e-01
2.793629878118273901e-01
2.744633274311399362e-01
2.702108532945480812e-01
2.661539795238626605e-01
2.626860254519335913e-01
2.591718338783716713e-01
2.557777218174946410e-01
2.522476458443415614e-01
2.480947292322120135e-01
2.436506708429022894e-01
2.380851228831970812e-01
2.317117652246374615e-01
2.240970843002657586e-01
2.148813644112902155e-01
2.044227454316141224e-01
1.918975910637391591e-01
1.778587506872777446e-01
1.618662824482722529e-01
1.438106056511666009e-01
1.241761252291756074e-01
1.022968697593567844e-01
7.899596616533968718e-02
5.394250125540728247e-02
2.728954710819498156e-02
-3.247530612864781702e-04
-2.939583138377476271e-02
-5.889707121680409774e-02
-8.907178927489754761e-02
-1.196157528009695881e-01
-1.498178858846903883e-01
-1.801330608926016430e-01
-2.094647752340815239e-01
-2.381101967812663256e-01
-2.657757874068789605e-01
-2.918147135393775460e-01
-3.168152777785171459e-01
-3.397301323246619820e-01
-3.610726990079744514e-01
-3.806707453396298013e-01
-3.980598912169330816e-01
-4.140625756589558781e-01
-4.277368736168138397e-01
-4.398964805620881324e-01
-4.504914253236132482e-01
-4.592888457328910823e-01
-4.672942142438430979e-01
-4.736554772300075045e-01
-4.794278082855507050e-01
-4.845650470309587066e-01
-4.890261136706144929e-01
-4.937935240515803903e-01
-4.980361422563505669e-01
-5.028634226537866958e-01
-5.080453820571297907e-01
-5.136297821065984870e-01
-5.203085888195804198e-01
-5.271867397416639678e-01
-5.352112412786569351e-01
-5.438082065267796361e-01
-5.530136912906812308e-01
-5.630579409942579883e-01
-5.729428594628883653e-01
-5.833579460408419015e-01
-5.933773044153056730e-01
-6.030241592421659025e-01
-6.121385573053294005e-01
-6.197016160635332449e-01
-6.262695175795256475e-01
-6.307681052157619872e-01
-6.333438036920160386e-01
-6.337371137404131938e-01
-6.311111227605147311e-01
-6.261373517986328352e-01
-6.178998363186406495e-01
-6.068554706439408530e-01
-5.929204563471126566e-01
-5.756706166799563373e-01
-5.560274338722155374e-01
-5.334244550675482088e-01
-5.087331813713826811e-01
-4.820249939299498521e-01
-4.534271937420608078e-01
-4.239351909082946235e-01
-3.932308708232898908e-01
-3.625358866705808425e-01
-3.316599327644136896e-01
-3.012513325930907815e-01
-2.719196815936857359e-01
-2.432240756976109530e-01
-2.165414208829706810e-01
-1.908304179013803059e-01
-1.670993194704511187e-01
-1.451120287770528428e-01
-1.239265016425022681e-01
-1.048988024173719419e-01
-8.581345576094838445e-02
-6.789050328799171863e-02
-4.995828216979653069e-02
-3.053263805813156637e-02
-1.097272698701739352e-02
1.181250424969489642e-02
3.636924518184327104e-02
6.431075697974072969e-02
9.721285797536498297e-02
1.334184089741803914e-01
1.760592659528013582e-01
2.231539281960361332e-01
2.759898192970992592e-01
3.355350761824686945e-01
3.994944207975143491e-01
4.702105278499614238e-01
5.449653757276947674e-01
6.242287688002265966e-01
7.080284947054272804e-01
7.934770591774906734e-01
8.819397809918814168e-01
9.702677909393202516e-01
1.058305617911269980e+00
1.145533986783826785e+00
1.229065946880413929e+00
1.309822422676024001e+00
1.384991288126910858e+00
1.454464779481209780e+00
1.517937100540547091e+00
1.573279977251584638e+00
1.621638174163018808e+00
1.661184919031188922e+00
1.692425472950925158e+00
1.715673128918506762e+00
1.729950024858057045e+00
1.736819025146011164e+00
1.735451487299797702e+00
1.727068829704975661e+00
1.712289978061725559e+00
1.691133539471391778e+00
1.665221093628782123e+00
1.634116967399582787e+00
1.599513023834387093e+00
1.561578082951729174e+00
1.520884023472117708e+00
1.478602206356145921e+00
1.433975154147927089e+00
1.388913362544390573e+00
1.342552262752355619e+00
1.295698818524761986e+00
1.248842695223257637e+00
1.200626832814978950e+00
1.153116767119742425e+00
1.104383935523440163e+00
1.055488709334642117e+00
1.006327635373168050e+00
9.552377187295693073e-01
9.044711034417790563e-01
8.514198131762481525e-01
7.976602567920588749e-01
7.426226636923984881e-01
6.849103790018328253e-01
6.269136775556974905e-01
5.657295064936589402e-01
5.037325174907233416e-01
4.397997121885006133e-01
3.732347084063235565e-01
3.063812566457470021e-01
2.361199025889126613e-01
1.657369493006044248e-01
9.326171944704975125e-02
1.876104474736988575e-02
-5.569141821608321330e-02
-1.336164056198536620e-01
-2.109018822510224378e-01
-2.906007819137059189e-01
-3.720836206104757848e-01
-4.536294798980834986e-01
-5.392807251917427491e-01
-6.242589412585465292e-01
-7.125802686074870218e-01
-8.032225260260096311e-01
-8.946645340915765354e-01
-9.912480417023786794e-01
-1.087635545003031279e+00
-1.188293786634051274e+00
-1.291770666921523647e+00
-1.396457375986455585e+00
-1.506472409071836216e+00
-1.615995766525267108e+00
-1.729316974034295962e+00
-1.844421806536696407e+00
-1.959456317595890340e+00
-2.077834504506869795e+00
-2.193480927038236050e+00
-2.310156643248941322e+00
-2.425336137216747012e+00
-2.537123116367783204e+00
-2.648096946444660205e+00
-2.752440802647131424e+00
-2.853466943621749685e+00
-2.948476243990717727e+00
-3.036063888601951533e+00
-3.118153509053262162e+00
-3.189873166081074629e+00
-3.254388245609255659e+00
-3.309223255414521336e+00
-3.354046681589904377e+00
-3.390267159524451124e+00
-3.414486032489322032e+00
-3.429882059776614867e+00
-3.434286751796107318e+00
-3.428750802416480781e+00
-3.413955589981595207e+00
-3.388073317706057797e+00
-3.354133954816132857e+00
-3.309916164785259518e+00
-3.257820071443620513e+00
-3.197296593597453107e+00
-3.127855391679597030e+00
-3.052063720191787066e+00
-2.967155314854418080e+00
-2.876743237084314231e+00
-2.778620344195321223e+00
-2.673468917081715190e+00
-2.563186533809358458e+00
-2.444267282700818278e+00
-2.321533495679095616e+00
-2.190998650390611147e+00
-2.054707408703113636e+00
-1.913793400437852954e+00
-1.764225411641778596e+00
-1.612145554625838528e+00
-1.451841604411262310e+00
-1.287172939206851385e+00
-1.118306630546779923e+00
-9.410377094368582718e-01
-7.628398465536613271e-01
-5.762363949233340055e-01
-3.872594994428750770e-01
-1.946971676925093320e-01
5.645717244817920893e-03
2.051805849091931366e-01
4.133199486555103608e-01
6.332464934523047706e-01
8.440065423557041591e-01
1.043720592777857226e+00
1.252066363796076720e+00
1.495743918256839278e+00
1.759940156462506788e+00
1.982325606966562237e+00
2.156354589640224084e+00
2.359313808062156514e+00
2.663512757041184287e+00
3.007600000115826511e+00
3.235090688580025908e+00
3.331373775979234342e+00
3.498141537527321709e+00
3.908864495893666913e+00
4.408279820705391927e+00
4.627223573098557807e+00
4.506415121236600818e+00
4.523069304518965161e+00
5.167858732790662657e+00
6.157315656745171673e+00
6.411154591313832363e+00
5.068424141169967534e+00
2.502530571654068225e+00
1.410020338666101158e-01
