BVP Green Neck Signal
1.170186698737543879e-03
-6.812575800617023947e-02
-1.846494029763030842e-01
-2.926280287176778461e-01
-3.045164870323537887e-01
-1.783375519583420832e-01
1.000058093185738489e-01
4.609651506461523995e-01
6.768407745603823855e-01
5.449252188806611441e-01
1.577243210080745695e-01
-1.992117279844494437e-01
-3.964082358055001643e-01
-5.088400685109288890e-01
-5.576758182421398535e-01
-4.380038719864824404e-01
-1.343053141733544231e-01
1.771732740044998644e-01
3.239098224418973104e-01
3.293199622039629793e-01
3.224000048717333700e-01
3.235163155627098219e-01
2.337492584753775027e-01
2.389354051858479100e-02
-1.805422788935960865e-01
-2.453612514346728557e-01
-1.871593600816232328e-01
-1.266554442291490390e-01
-1.166688226956912738e-01
-9.153879981594292836e-02
2.356481285442915078e-04
9.082032030637014752e-02
8.620047083500183283e-02
1.764713168017736228e-02
7.252316108748449452e-03
8.878361658656203081e-02
1.542839047226037263e-01
1.036358961585525790e-01
-2.542832118714587197e-02
-1.160832769797354030e-01
-1.130385110138171362e-01
-6.427735238350400226e-02
-4.480508958130227648e-02
-6.835098935531623565e-02
-7.885568884532152822e-02
-2.817870856206428770e-02
5.437599578089584440e-02
1.028960563003074036e-01
1.135225710743064526e-01
1.422322321651465493e-01
1.957766435017513629e-01
1.935034307908525542e-01
7.475466972418635947e-02
-1.018277756983770738e-01
-2.149827892740520940e-01
-2.251486310131918522e-01
-2.160675639388295599e-01
-2.666903449549377081e-01
-3.200140604552396684e-01
-2.496204831850481753e-01
-3.740856479465996809e-02
2.185467872220563101e-01
4.552796205558729548e-01
6.519363199210411741e-01
7.012081116156680949e-01
4.808957208060157806e-01
7.310341312579383966e-02
-2.831345274275589019e-01
-4.745111629660942465e-01
-5.860794121570190862e-01
-6.936428118587795177e-01
-7.175248077623275211e-01
-5.022714887074700707e-01
1.801640755540748423e-03
6.178901535649968801e-01
1.003867933517210265e+00
9.085779360092001156e-01
4.103259868077359096e-01
-1.440045855277858056e-01
-4.644731752105762945e-01
-5.263831487243577634e-01
-4.493470083711050278e-01
-2.954889508905646500e-01
-5.066100498096186289e-02
2.878203765773206246e-01
6.393200617337920777e-01
7.968797547230066503e-01
5.296692532541628085e-01
-1.448311077480525511e-01
-8.588685498976419419e-01
-1.181834986032310741e+00
-9.620270868513127738e-01
-3.496767528846028150e-01
3.814002815918499656e-01
9.401960099297411722e-01
1.078330344624982562e+00
7.371238416243380831e-01
1.536294273232102492e-01
-3.056365525072896605e-01
-4.679729611482029705e-01
-4.420553894520128924e-01
-3.840345820523284881e-01
-3.058532053180210153e-01
-1.560491329997301668e-01
5.335264521257367110e-02
2.872632148602795588e-01
5.267677557112013798e-01
6.640989957915667263e-01
4.917322433848243524e-01
-5.099791413214803393e-02
-6.988260468735145725e-01
-1.057292469200270757e+00
-9.284628265225999266e-01
-3.807430036661152983e-01
3.745094559651193644e-01
1.028951878764652772e+00
1.202705875493264021e+00
7.065857696723850667e-01
-1.293546412483518593e-01
-6.406727705351231705e-01
-5.253131742193175580e-01
-1.537800133964453142e-01
-2.083476180861339178e-02
-1.417112673479146434e-01
-2.116937327803534441e-01
-1.233725131508997125e-01
-3.265141022550420435e-02
-2.532820576103464449e-02
1.706361551114045361e-02
2.072785868331371850e-01
4.582255251217746683e-01
5.470675874579092879e-01
3.370572612201377383e-01
-7.327974327337459515e-02
-4.342221529899821797e-01
-5.885617981962050216e-01
-5.619756337708302629e-01
-3.768450506060675997e-01
4.067395590666463001e-02
5.852686201214373218e-01
8.080452539875059292e-01
3.922869235238270469e-01
-2.989531129890938277e-01
-5.651193983743889593e-01
-2.378810093992238528e-01
1.867484769677046907e-01
2.734122482179253133e-01
1.071440551117953804e-01
-1.837635871562273704e-02
-2.876261621795055123e-02
-5.105827151793572438e-02
-1.656051887244537058e-01
-3.118406182596580312e-01
-3.615653959897521807e-01
-2.056598458865251666e-01
1.630301412495834545e-01
5.609715247721591691e-01
6.786247345059455149e-01
3.869193361857957147e-01
-5.562382066446235063e-02
-2.791014264080712293e-01
-2.478323505373818125e-01
-2.153473608721640509e-01
-2.785073842882452300e-01
-2.606647052438637036e-01
-7.202673480272829554e-02
1.019783194122412390e-01
1.002212228957280876e-01
3.960078830669533367e-02
8.214163454735760872e-02
1.380844168819459761e-01
5.539687764784947954e-02
-3.242680622890022069e-02
1.181218544103451312e-01
3.838098956504114034e-01
3.487527698923582054e-01
-8.302637112058434965e-02
-4.943366576973861615e-01
-5.016999027981600134e-01
-2.097766989439468488e-01
3.107645025763862423e-02
8.353724008680012136e-02
6.210795361556305239e-02
7.594870379867975363e-02
1.152306308852346223e-01
1.320632110488736410e-01
1.102699277402859057e-01
6.367387164067297989e-02
1.935285058687165327e-02
-6.687236833284350424e-03
-3.041053006029879879e-02
-7.030721217154961566e-02
-1.007208521947669244e-01
-7.893298757011765754e-02
-1.985885369597253924e-02
6.853763356417012786e-03
-2.827131315438125708e-02
-6.233807076971169259e-02
-1.721379056490807136e-02
8.714745274262664099e-02
1.416697877690214491e-01
8.534387103037405220e-02
-9.372116866300100879e-03
-3.003840894101185433e-02
2.717327879193483578e-02
6.146787680247257912e-02
9.764373485281391263e-03
-7.792718751860625015e-02
-1.191537873521138075e-01
-1.022774155102899041e-01
-7.096800661805947874e-02
-3.649003191975187799e-02
3.196743781774967486e-02
1.215947935286725290e-01
1.499047226640312369e-01
7.280050577922748956e-02
-3.183526921267731957e-02
-5.330100892141537150e-02
8.152949029757296934e-03
4.994896241265537468e-02
6.631434381162273906e-03
-7.672045598509229236e-02
-1.140067240614719285e-01
-7.559113787587043443e-02
-6.957296146357855923e-04
5.697928687279315424e-02
7.480177320350957226e-02
6.693912488916224646e-02
5.828426837045966313e-02
4.759766850962213885e-02
5.867047361796162708e-03
-6.899099330340953407e-02
-1.173784507895288681e-01
-8.331765078155256576e-02
-3.829242691064646542e-03
2.629912742412278751e-02
-1.182967748491511872e-02
-2.603488383943367013e-02
5.222486279765975459e-02
1.517584511253881330e-01
1.466443054709670457e-01
3.114868532591846817e-02
-7.199438708018637834e-02
-8.126872016500916174e-02
-4.997850803244714701e-02
-6.067234844859494686e-02
-1.006402305542489634e-01
-9.603326090444681828e-02
-2.604437201651271794e-02
5.374293993300024996e-02
9.066342476831401598e-02
9.321747602939786659e-02
9.859477978369224349e-02
1.088605276224189067e-01
8.468798293630835916e-02
2.012255074626198570e-03
-1.007692654700087787e-01
-1.483520900789000729e-01
-1.097619102374144534e-01
-4.054664293294581168e-02
-1.891564430833998778e-02
-4.655612642209837337e-02
-4.889147620967478763e-02
2.068379371577654113e-02
1.140520959908891963e-01
1.476657059239690761e-01
1.055083793150847077e-01
4.939358514286568136e-02
2.687867693801274799e-02
8.266543165884196465e-03
-5.334603460498292538e-02
-1.282189671436414213e-01
-1.346303063370369035e-01
-5.810890087447707908e-02
1.377116756985968110e-02
3.966884824759292494e-03
-4.787303660361291041e-02
-3.580708377058369751e-02
6.792967669095802130e-02
1.657213631877945403e-01
1.534358237167832428e-01
5.214735377554038931e-02
-2.653199637213218137e-02
-3.146330365160649595e-02
-2.273673940113440928e-02
-5.994409898086713873e-02
-1.073413475666929878e-01
-9.303910639958393181e-02
-2.153584196740536416e-02
2.601467706930497836e-02
5.226127263427437532e-05
-4.704613377971038346e-02
-2.290888398683978144e-02
8.152627554995905967e-02
1.658744116618805775e-01
1.395912270144822886e-01
3.626777014809003108e-02
-3.627490462629645585e-02
-3.914074150275956981e-02
-3.301607299274168794e-02
-6.597621671301169555e-02
-9.886988494908673097e-02
-7.348906587440634519e-02
-7.879694580153542849e-03
2.363581622181219061e-02
-8.346901452422415824e-03
-4.653266889686295815e-02
-1.750173391444798110e-02
7.328294161653658989e-02
1.393124845151112179e-01
1.148917212137018917e-01
3.716371169084839443e-02
-7.297753229906403516e-03
-2.387997845992809870e-03
-1.189154275263078209e-02
-6.572994685884059329e-02
-1.051079408301040102e-01
-7.363544842963050396e-02
-9.353839683225229074e-03
5.426934939554275972e-03
-3.893244748985578985e-02
-6.499111993435498225e-02
-1.247739776561140879e-02
8.300770484964016538e-02
1.338343408427674630e-01
1.034106167120585201e-01
4.207984609007545118e-02
1.565459229409020547e-02
1.897968053637256319e-02
-6.086167945455786543e-03
-6.957856143062550458e-02
-1.030293508938186636e-01
-5.775351768048084949e-02
1.283565601005178664e-02
1.883622440732092562e-02
-4.278318496671930371e-02
-8.573241978536012831e-02
-5.126082711568139688e-02
2.453073924685800905e-02
7.166069597075057362e-02
7.260388524226561724e-02
6.574681606498286590e-02
8.278683607398462652e-02
1.008320194704678957e-01
6.502607855381130342e-02
-3.235017861136935124e-02
-1.166145725138445916e-01
-1.139936492996511952e-01
-5.224861287625910677e-02
-2.099767392630250140e-02
-4.329795988335306822e-02
-5.504484045845034479e-02
-1.540737003433863272e-02
3.182401151364677716e-02
3.431056399150695518e-02
1.624604655548138321e-02
4.024319829291360395e-02
1.053985033416319772e-01
1.348311807281303565e-01
7.466225821560595888e-02
-3.134542450773122185e-02
-9.021249205786605052e-02
-6.636094733478363483e-02
-1.593018945065729358e-02
-1.324892805139303575e-02
-5.947297678256500963e-02
-8.414627869269415694e-02
-4.227906759872253339e-02
1.786490010655199245e-02
1.884614799259850745e-02
-2.784267585273626083e-02
-2.571698350502318875e-02
6.627657001864455111e-02
1.570234097492025083e-01
1.378796479901446270e-01
3.172966118674891423e-02
-4.250950410012424574e-02
-3.429899721501052795e-02
-1.083839838909245873e-02
-3.570145263507216310e-02
-7.553887417364057999e-02
-6.518635015386388398e-02
-1.300307068734137678e-02
1.208395001583623812e-02
-2.027513461187746557e-02
-6.279159459979156976e-02
-5.480125052833642596e-02
5.949833260361650500e-03
6.943456077351879696e-02
9.375547501847392162e-02
8.317426837555766395e-02
6.850542853401646315e-02
5.982272587634183958e-02
3.170091781741923853e-02
-3.223198475815450270e-02
-9.208557453509158552e-02
-8.528115953576431707e-02
-1.598431741820455221e-02
3.130312111924690721e-02
-2.832159440700476871e-03
-6.877214298124122160e-02
-7.396055204008800121e-02
-1.228307596231043020e-02
2.979528788853598106e-02
2.681832882596466711e-03
-2.979700845577646501e-02
1.418408973554784874e-02
1.023534048578161187e-01
1.219690623663868961e-01
4.046197189520389648e-02
-4.124222733093996923e-02
-2.261153049221167888e-02
6.443409899777627348e-02
1.009889002438152245e-01
3.405995079623279354e-02
-6.263163472184662961e-02
-9.714115647262241970e-02
-9.488635831269168208e-02
-1.551327894983584310e-01
-2.581015646684141629e-01
-2.254679420319705974e-01
3.492790839024502436e-02
3.379615468701854808e-01
4.127947583834601919e-01
2.335590540615322397e-01
2.115901127171358753e-02
-5.452971819434122847e-02
-3.909497308550924366e-02
-5.859455001651241168e-02
-1.354827272179920661e-01
-1.845301638834518920e-01
-1.410084999145773121e-01
-4.637718118380314974e-02
4.693754360485899446e-03
-7.843105165158244241e-03
3.447434975330468387e-03
1.031792921267326996e-01
2.136286747029233768e-01
2.016988082191180087e-01
6.540868686943061838e-02
-5.838058838460544187e-02
-7.766642961957347102e-02
-4.732510326520246446e-02
-6.119879831183251684e-02
-1.165655130166895065e-01
-1.345111646619218670e-01
-7.914645670010461709e-02
-4.879861894131351518e-03
2.401201293656540781e-02
2.654754655185349865e-02
7.284021714480742871e-02
1.632368347569293221e-01
2.019690484779402551e-01
1.202239132375626102e-01
-2.515742886196641048e-02
-1.156306701770809103e-01
-1.036115191342523029e-01
-4.955527008939268618e-02
-3.834918978640126930e-02
-7.950895099382351838e-02
-1.045895631820325938e-01
-6.590627447204445988e-02
-1.854929881813418896e-03
3.126831387941088336e-02
5.172325764887179822e-02
1.102614820694767794e-01
1.791411664867315068e-01
1.638212671555958622e-01
3.670064366944125744e-02
-1.032834074610930325e-01
-1.393213624044262466e-01
-7.434626011218521680e-02
-1.839082761345647854e-02
-4.287256718685639179e-02
-9.496231538671218164e-02
-8.178476464844974814e-02
2.624338923864058537e-03
8.217659534197672977e-02
1.052755540155038833e-01
9.235402939540147960e-02
8.186338160923209428e-02
7.280327100430662723e-02
3.441955598572100927e-02
-4.099894590423136531e-02
-1.075165619741381418e-01
-1.042011905588768050e-01
-3.333750586632722168e-02
2.460863832287127351e-02
2.394546625785282101e-03
-6.464480283121097626e-02
-8.008654825930248966e-02
-1.699011875490621937e-02
4.026321443906274999e-02
1.968821826859341872e-02
-1.043007064880045742e-02
7.781139100617313897e-02
2.536731728758898630e-01
3.035061834149581084e-01
1.015209591612176027e-01
-1.934922358385309238e-01
-3.273965077745512042e-01
-2.603963810680376967e-01
-1.530260387480401885e-01
-9.718277097057580194e-02
-1.985118163071729336e-02
1.365263904540127970e-01
2.763932508664699861e-01
2.663970786205133723e-01
1.177212345054692161e-01
-2.830502399655693280e-02
-7.384665719270079587e-02
-5.517274896320854827e-02
-5.874672391178156761e-02
-1.026544015221430156e-01
-1.280325946380523050e-01
-8.663597159970692907e-02
-5.704734780605791311e-03
4.804144281742925293e-02
5.373645048844741257e-02
5.422008883761607334e-02
8.371754715935836311e-02
1.104556043302656193e-01
7.729931442680527953e-02
-1.292263685325259481e-02
-8.499518384575330265e-02
-7.923860350028646971e-02
-2.988184642453386303e-02
-2.105489205038075379e-02
-6.963073764811573974e-02
-9.722700943605763757e-02
-3.638732022022297952e-02
7.465408130413878074e-02
1.370389128109637811e-01
1.115540294387749182e-01
5.568557989122789598e-02
3.407142977030487574e-02
2.722825579198044632e-02
-2.828744194416633884e-02
-1.208122754662260684e-01
-1.523125087331964889e-01
-7.340450206731256866e-02
3.109841618748908354e-02
4.558967279943307305e-02
-2.164565373386862640e-02
-4.938763877563120963e-02
3.148760151808517593e-02
1.406922339955284929e-01
1.521802736778942455e-01
5.942399256531309681e-02
-2.651273062894890509e-02
-3.724529585061214787e-02
-2.658011647089518481e-02
-6.259040727352292721e-02
-1.134339819753613643e-01
-9.989864574320596324e-02
-2.210945183993728164e-02
3.360318303870593604e-02
1.599080503098860434e-02
-1.571338693392813207e-02
2.660717831305180192e-02
1.272586516269171297e-01
1.712908941598864920e-01
9.176285689816277014e-02
-4.030424172516071379e-02
-1.057196969019681548e-01
-7.895962477744843111e-02
-3.700610703188925849e-02
-4.386318867531324023e-02
-7.415592163753921551e-02
-6.528190744967656001e-02
-1.083135941707332600e-02
3.626364524290509594e-02
4.573527679164487991e-02
5.076708496592693964e-02
8.791192222237902143e-02
1.282157387496941914e-01
1.045863911975728339e-01
3.872017753902459725e-03
-9.902740162270222413e-02
-1.193836610206059912e-01
-6.377531033374453373e-02
-2.054949041897931317e-02
-4.328608754343604703e-02
-8.390312164501635694e-02
-6.635498908766086779e-02
9.958572819703012668e-03
7.937788779482299328e-02
1.001838326136717666e-01
9.316285869462732905e-02
9.232133721668224491e-02
8.936474072059713558e-02
4.575575892203417872e-02
-4.273378591972259999e-02
-1.150742525598581617e-01
-1.076598058386196571e-01
-4.247742638784342273e-02
-7.698746014971509510e-03
-3.908304503218163611e-02
-7.234964149131116462e-02
-4.139094598260797953e-02
2.683202975659054051e-02
6.103336375687193338e-02
5.158700840767038720e-02
5.109606585377790555e-02
8.359932667949661333e-02
1.049006232648179437e-01
6.201628539093959058e-02
-3.322469160025461055e-02
-1.034966456595801804e-01
-8.587384438279652143e-02
-1.182010386267322299e-02
2.311488700927994550e-02
-1.558765645725523896e-02
-5.556334943275528099e-02
-3.183087752166348372e-02
1.109288595623460910e-02
-5.654234870171005733e-03
-6.116002158877090894e-02
-5.651987216874156117e-02
4.017342553005727457e-02
1.427971728071391333e-01
1.538497783671994579e-01
7.437636683910654745e-02
-1.026934519409149205e-02
-3.161211859163468030e-02
-1.091765808686586542e-02
-2.375901756428443201e-02
-8.914222140199885847e-02
-1.297773786555076192e-01
-8.062469527808882597e-02
4.395779108841299521e-03
2.564033063877141361e-02
-8.406884557069324582e-03
5.459943169490263926e-03
9.392081383395148309e-02
1.494562995022677698e-01
8.559801521819539183e-02
-3.098743215919919081e-02
-6.884883018576912206e-02
-5.483830246421433907e-03
5.338325378038487334e-02
1.605591717636577209e-02
-8.390637670038096629e-02
-1.360584988430212638e-01
-9.191642803048072352e-02
-1.946661131374236714e-02
-7.775917328076121203e-05
-8.469272509336850385e-03
4.248549242733000442e-02
1.495456749915184125e-01
1.971588159816398123e-01
1.140336880927722979e-01
-2.391439545274620659e-02
-9.445643288851736374e-02
-7.752616338842939492e-02
-5.029494565179899734e-02
-6.778512091340829770e-02
-9.911295993619499700e-02
-7.939507900548270491e-02
4.868310514303671958e-04
6.968337745812473727e-02
5.624085477281593609e-02
-1.225529705005879572e-02
-2.753085228194469825e-02
5.521971613612182417e-02
1.412969428507032665e-01
1.195747647056517454e-01
1.888763208979624131e-02
-3.949532090359796771e-02
-2.044975773831120280e-02
-8.219432924189792877e-03
-5.800096137810205332e-02
-1.112400223860419146e-01
-9.472040810620981077e-02
-3.213933395585222286e-02
-3.617400081193392070e-03
-3.126600820638709977e-02
-5.491080380853798765e-02
-1.211041721193083232e-02
8.874077098227424465e-02
1.755129258237292655e-01
1.822514303597005947e-01
1.143799532623777093e-01
3.693365769866320536e-02
-1.074993283766600971e-02
-5.903252236850299595e-02
-1.361502883444578038e-01
-1.925289173038961521e-01
-1.587438335546610679e-01
-5.610602270549171211e-02
2.151477687309384657e-02
3.209258959131973399e-02
2.658106545319388614e-02
5.793077152890442616e-02
1.058285312456393040e-01
1.154433849383559169e-01
7.615603217590834195e-02
3.177884740153616439e-02
1.815433156956754168e-02
1.315240054596689828e-02
-2.964822049222803901e-02
-1.001154491865219737e-01
-1.241803646418670887e-01
-6.339023118710759852e-02
1.701925131100422151e-02
2.646130234448999807e-02
-3.062724934359881135e-02
-6.667838600568637419e-02
-3.089157421301874651e-02
3.768625360149442660e-02
7.940459389278139990e-02
8.601717051577910389e-02
8.546378384492100966e-02
8.789189271515186752e-02
6.929030356007563618e-02
3.411462066260709247e-03
-9.050831883779202058e-02
-1.409736328425769403e-01
-9.835508142720847391e-02
-1.400302609277065402e-02
9.447954214135884099e-03
-4.209855064983491352e-02
-7.120116017188922453e-02
-1.338527457000372733e-02
6.801024237988269328e-02
8.393680294760647032e-02
5.466233667102245175e-02
6.651396375224892521e-02
1.256590243152262143e-01
1.384235964723493917e-01
4.469300432648933008e-02
-9.178521390164098848e-02
-1.581979518375659921e-01
-1.278789872968315033e-01
-8.177430400174987013e-02
-9.337878348527434147e-02
-1.299481400834525957e-01
-1.032158663005041666e-01
2.552977846011758589e-03
1.122325278019451061e-01
1.731457873901823541e-01
2.141296368441702458e-01
2.564791200496606138e-01
2.361293675070117448e-01
8.414283759308906208e-02
-1.488643997219353532e-01
-3.136677389482351308e-01
-3.065600367853567598e-01
-1.646281043659676147e-01
-2.027281342882127080e-02
3.028730343977305284e-02
1.261994983972479500e-02
1.878162884299372504e-02
7.466805423485413373e-02
1.083631455653767672e-01
6.912455741161228906e-02
1.888601046143473239e-02
4.530781001847647427e-02
1.193355410888039120e-01
1.209473947679069183e-01
7.357255846384289089e-03
-1.198018158221793722e-01
-1.427760926323342339e-01
-7.054385180228216201e-02
-1.180893849822396702e-02
-2.984386325177155325e-02
-7.344937582989270741e-02
-6.307922029778049999e-02
-2.852616426027645979e-03
3.735756905407899148e-02
3.370511732107206448e-02
4.211709573194344358e-02
1.033904678744778233e-01
1.641551281247797534e-01
1.349603758834284628e-01
8.438368113662275682e-03
-1.193957312207490767e-01
-1.505344030343548078e-01
-8.828630803413468897e-02
-2.482019958931862280e-02
-2.560571919914163969e-02
-5.100140911038617691e-02
-2.445375544523063771e-02
4.272938515357281586e-02
6.275427946193615214e-02
1.442852918078109392e-02
-8.915942954371883222e-03
6.040486357691551150e-02
1.472706848478511910e-01
1.279727542412297248e-01
1.244378166941229264e-03
-1.089879614533589280e-01
-1.115354700357222700e-01
-4.848513782493822644e-02
-2.321710045764364266e-02
-6.325107616751855788e-02
-9.234419546954213132e-02
-4.518733654715610670e-02
3.403365403351989865e-02
5.795021695425467412e-02
3.233600005437098357e-02
4.590061133291696571e-02
1.216514017619131222e-01
1.639522720504240638e-01
9.015381633872279754e-02
-4.704458543044390262e-02
-1.203512004259531254e-01
-8.247154858226217466e-02
-1.299682719668638492e-02
-1.079889794392378810e-02
-7.480783409346886126e-02
-1.184599092438647916e-01
-8.822832880728044558e-02
-2.284131066521301323e-02
1.771494153279643685e-02
3.442006618680891472e-02
6.726562841209547672e-02
1.259044228678110888e-01
1.751356420734325459e-01
1.684856676860725655e-01
8.852537435434949808e-02
-1.680055547004548344e-02
-6.151787106426480356e-02
-4.420330744139565338e-02
-8.863198855220462413e-02
-2.544306874645073102e-01
-3.819569300003191614e-01
-2.819147914916378395e-01
-4.423445147111668141e-03
2.411302866562024250e-01
3.440782038225949635e-01
3.304924894767700683e-01
2.500838537688475638e-01
1.399035502612886173e-01
2.436838905629092056e-02
-9.078825081773443662e-02
-1.812552609322881925e-01
-2.154353463369024779e-01
-2.358692215138809278e-01
-2.942292537697848709e-01
-2.783036593263195635e-01
-2.030363699758301610e-02
3.638119810272653631e-01
5.052207605828810122e-01
2.651067302345582744e-01
-5.875519881805345290e-02
-1.422240257348495740e-01
-3.085635589100311355e-02
2.596510879353786105e-02
-4.772849336200050974e-02
-1.231103695693807482e-01
-1.056954076920370439e-01
-3.896449904048503166e-02
-8.858335337326159794e-04
-8.419739264658603062e-03
-2.323111753155114936e-02
1.814334538481801812e-03
7.118457614896453456e-02
1.228990066443572116e-01
9.280342680300848746e-02
1.043774085090106579e-02
-2.910593077844737808e-02
-1.078979214458753366e-03
1.439690993714647094e-02
-3.939912243582199824e-02
-1.040386947609797663e-01
-9.116013038376699629e-02
-1.359053624158296225e-02
3.061838696070917284e-02
-1.215712242460722159e-03
-3.112579386433202838e-02
2.875921802290538898e-02
1.380713150657122690e-01
1.654526340820254016e-01
6.125042256012173947e-02
-7.331983150541522554e-02
-1.142272806258892159e-01
-6.136956175779482298e-02
-1.697328522147688312e-02
-4.156341000998151070e-02
-8.087229341187086862e-02
-5.431144758486861068e-02
2.113335027820478426e-02
5.416476217886167371e-02
2.291718750279191086e-02
1.651882950829337837e-02
9.388737368201677258e-02
1.721452433284272054e-01
1.287823040640867223e-01
-2.330430110895713447e-02
-1.418519041598205743e-01
-1.317651053797700700e-01
-5.039282213423619539e-02
-1.561549902680420265e-02
-5.360527199217977878e-02
-8.291782764028650388e-02
-3.941885111392823271e-02
3.784017124049813413e-02
7.327209799863845796e-02
6.377607466079041054e-02
6.756374585376681563e-02
1.022815057094067642e-01
1.114438478180207748e-01
4.276980303620432633e-02
-7.214015303438817139e-02
-1.375408851761494022e-01
-9.684745419261896193e-02
-6.026148084367771718e-03
2.401958811777347991e-02
-3.614853978746522534e-02
-9.569985060571918611e-02
-6.209985290206504471e-02
4.266696655773276337e-02
1.190857721126202667e-01
1.142962316985627474e-01
6.793128979787323163e-02
3.975094139291095868e-02
2.874445234934232263e-02
-1.080432408668055566e-02
-8.398701651914865229e-02
-1.264387345109065641e-01
-8.543714848856207023e-02
-2.875457081336157961e-03
2.694382870057002860e-02
-1.797572837091891695e-02
-4.960020799174513079e-02
1.437128066657657188e-02
1.276897461836089820e-01
1.636922403003953363e-01
8.265185825346711701e-02
-1.761624386934594610e-02
-4.306068371281712021e-02
-2.482850788540755249e-02
-4.700068627999488824e-02
-1.068261844142663203e-01
-1.201811667481294671e-01
-5.290869418128662377e-02
2.074237064247699824e-02
1.979784827219395471e-02
-2.199653215018705643e-02
4.857079588280674431e-03
1.223554164683754580e-01
2.091852175923889501e-01
1.531834353130712423e-01
4.995660338833626812e-03
-9.058152159506267787e-02
-8.412599764106702682e-02
-6.072819388755197612e-02
-9.298120035821780260e-02
-1.344659975257576634e-01
-9.807646753157268915e-02
5.157161280941312265e-03
6.979025932336561933e-02
4.338241472000749915e-02
7.904376739903143378e-03
6.397093868651873572e-02
1.726724901952706170e-01
1.911176069161366342e-01
6.395333032259055417e-02
-9.783825329949971672e-02
-1.561753462083083910e-01
-1.062613677122441619e-01
-5.499436496068094149e-02
-6.796057179113441926e-02
-9.147070637831578033e-02
-4.394870803212942711e-02
5.614295876435820842e-02
1.117060413916295958e-01
8.779951523895158927e-02
5.609923770055434689e-02
7.492117425096321559e-02
9.676062514467938247e-02
4.428845935981380599e-02
-6.937039659963308014e-02
-1.478226204651993114e-01
-1.226848641784559213e-01
-2.885716181336518693e-02
3.452278791128186863e-02
1.509949203366357795e-02
-3.642598006443573122e-02
-4.059108191203070204e-02
6.153405211598690638e-03
4.578603918697697617e-02
5.524883782482002681e-02
6.674802768351760507e-02
9.453014252376057414e-02
9.761197548932179502e-02
3.448637389717022772e-02
-7.043984803072483869e-02
-1.365295281520545190e-01
-1.110679695819090512e-01
-3.605411292847157667e-02
-2.622892017963250610e-03
-3.401954688479205680e-02
-5.680443519830292304e-02
-7.514780350805508324e-03
7.952940348428533257e-02
1.238371333751574627e-01
1.006066822413445722e-01
5.326472465524068056e-02
2.344509580585010106e-02
2.790016666184141902e-03
-3.820441242049206487e-02
-8.942169430725974144e-02
-9.781669926720074071e-02
-3.957918576887918538e-02
3.058654092127457286e-02
3.670195120319742765e-02
-2.122387401154146244e-02
-6.178001016211454727e-02
-2.158067912020193713e-02
6.375562249328428632e-02
1.008081448936253427e-01
5.513601719259010603e-02
-7.054851881452908063e-03
-1.354536816897484314e-02
1.337631608425681774e-02
-6.469983893559458962e-04
-5.893475817178668585e-02
-8.186916380808638427e-02
-3.034499281101901008e-02
2.715410737096863106e-02
1.575076193269278960e-02
-2.752457329474846531e-02
-4.719761659784743602e-03
9.180414798919041275e-02
1.514545285505265737e-01
8.624107034028612173e-02
-5.235624761309359831e-02
-1.339182893240307148e-01
-1.027354041116576439e-01
-2.997076745146911442e-02
-8.969374955727277277e-03
-3.806186419447665087e-02
-4.233991760062130738e-02
1.068872228672358704e-02
7.218890408961189942e-02
9.118945113104587330e-02
7.846473051998688331e-02
6.993732712659260498e-02
6.424845247426640149e-02
2.613737603384021224e-02
-5.619832819744405294e-02
-1.340802366720816596e-01
-1.365140971252488400e-01
-5.712855308940108234e-02
1.911662847281663663e-02
1.116992973681965595e-02
-4.742338129451941636e-02
-4.154280317524988719e-02
7.039915714971077543e-02
1.834941563538649845e-01
1.704958242791939915e-01
4.701985776685460583e-02
-5.288547461789337018e-02
-5.886846609201551450e-02
-4.052467402865694845e-02
-7.565040452284388373e-02
-1.235348548834663551e-01
-9.617479624014900474e-02
-6.473386717204543395e-03
4.320015465639943930e-02
1.789216255864545246e-02
8.095246336413189359e-03
8.814539422626839482e-02
1.841244451333264587e-01
1.601834513613047684e-01
7.668016268323404883e-03
-1.333296540833300847e-01
-1.465244424459967998e-01
-6.799287635636652727e-02
-1.564459973278194138e-02
-3.636572197321821104e-02
-6.969231965289832131e-02
-4.767813844115918742e-02
2.105846906897193560e-02
8.123634335562300579e-02
1.053577548250199947e-01
1.073806518190432158e-01
9.951983947841117062e-02
6.645254045368480245e-02
-8.538678638727911774e-03
-9.981571276866345321e-02
-1.424452600768559007e-01
-1.010507803441882679e-01
-2.449222950484798711e-02
2.581470929489876331e-03
-3.594958748209801241e-02
-6.423506379030713420e-02
-7.842367980291378715e-03
1.093867048792261099e-01
1.830141843886294861e-01
1.444397560062522234e-01
3.916879007821667119e-02
-3.419106548513865113e-02
-4.684817986737147000e-02
-5.533512202733423258e-02
-9.349631574729470873e-02
-1.122269545883054082e-01
-6.329001112543482244e-02
7.180844990497453617e-03
1.488196965050738244e-02
-2.874222933599956606e-02
-1.649891897414194897e-02
9.523056905929817850e-02
1.980698512437082393e-01
1.635955542939872553e-01
1.742747434278071883e-02
-9.481169968250384439e-02
-9.571191266686651655e-02
-5.260926615253964933e-02
-5.728252226345378895e-02
-9.663027533644344413e-02
-8.886897962835470233e-02
-1.592879924410474379e-02
4.893590512965761974e-02
5.654304286191183526e-02
5.447841253260053695e-02
9.835337299956488366e-02
1.462972773886327682e-01
1.099637609222141182e-01
-1.478625806462731396e-02
-1.292130833885767049e-01
-1.434788365554611478e-01
-7.267313452077732439e-02
-1.191830558854398148e-02
-2.603195111919150845e-02
-7.767253458464638827e-02
-7.587172753396677349e-02
1.422766412247221390e-02
1.324135765970873846e-01
1.925405315075058299e-01
1.674957270428019118e-01
9.552689157834021172e-02
1.746861521983039678e-02
-6.441689085321918029e-02
-1.515418051034934932e-01
-2.030732799935141553e-01
-1.715341123975799020e-01
-7.629959972915482946e-02
9.867260111667913725e-03
5.100383701484957621e-02
7.850838354533030972e-02
1.257232955672922536e-01
1.697178623994671232e-01
1.511086648947128630e-01
4.525281960647255242e-02
-8.615376112248974982e-02
-1.386292323249311564e-01
-8.472753722107535801e-02
-9.244594913490097876e-03
1.605300790535563876e-02
2.877014038644054583e-02
6.866305764757804631e-02
4.199324545835093903e-02
-1.595514593740526843e-01
-4.018405842457253296e-01
-3.434990162503849254e-01
1.464116182528628352e-01
6.888636820629703283e-01
7.067844982560954614e-01
1.041744315155027634e-01
-5.362552709508077164e-01
-6.012568466430118219e-01
-1.511385253103785520e-01
2.479440125903887016e-01
2.595871463833457349e-01
5.404870855198552759e-02
-8.095140207183336434e-02
-9.413769856150210058e-02
-7.840938836564474712e-02
-5.375471288739808173e-02
1.998459755402948179e-02
1.134890584521265761e-01
1.357021571772979163e-01
5.521533495053602969e-02
-5.431462911791611753e-02
-9.520165553869675001e-02
-4.553571207060924664e-02
2.458440711329683975e-02
3.147376696460003204e-02
-2.869107447902185040e-02
-7.584164456276375199e-02
-4.055907856219653773e-02
5.337768961261672718e-02
1.152559784093381418e-01
9.007359743238121941e-02
1.677078934225319923e-02
-2.845762070778033032e-02
-3.095950168508981859e-02
-4.128804694277314613e-02
-7.842067754487576370e-02
-8.697668696524298027e-02
-2.687709267047567324e-02
4.440304273604347984e-02
4.354838827986041994e-02
-7.543972719878139221e-03
-6.890534549431751640e-04
9.501696988037282299e-02
1.645831730977203311e-01
9.441141944605023484e-02
-6.427019165796496458e-02
-1.536638563009910807e-01
-1.098111709995600593e-01
-2.639033392483898510e-02
-1.005093706190485908e-02
-4.513912732853325727e-02
-4.367658295639655075e-02
2.026518912523167515e-02
8.743256339981587966e-02
1.056388401716617936e-01
8.640849467255122540e-02
6.463802634477539000e-02
4.219441538845587758e-02
-8.777822021270406672e-03
-9.229824391652338700e-02
-1.532147213644898531e-01
-1.251892147766459351e-01
-2.527210741313619391e-02
4.252450626289050462e-02
1.613823941816591723e-02
-3.104432196847593112e-02
1.333550378246099732e-02
1.322336948887437025e-01
1.867548981370154293e-01
1.017701598021369669e-01
-3.532603896189848158e-02
-9.711822134882804047e-02
-7.108154984460392234e-02
-4.140254687356637042e-02
-5.995425568540034555e-02
-9.026625687214741289e-02
-7.009713645861456732e-02
5.846611337127965990e-03
7.797827312206286055e-02
9.165228451025105028e-02
6.172594478945520047e-02
4.605400319104743789e-02
5.471062406057435046e-02
2.891576841699942946e-02
-5.914667747839107148e-02
-1.320991001311275503e-01
-9.777648337507162390e-02
9.837324162188968574e-03
6.109559657757240858e-02
1.169084970049016209e-02
-2.840707796601239787e-02
4.334300052829087591e-02
1.554909422820852649e-01
1.460704532037706282e-01
-1.057802628498480391e-02
-1.608250269181754899e-01
-1.715144302751427097e-01
-8.212925319753190678e-02
-1.599095564244818607e-02
-1.280313714802429337e-02
-1.294000544765983030e-02
3.154260801314778817e-02
9.774546080895810118e-02
1.378373320318804773e-01
1.330149701780358462e-01
9.155075021126295176e-02
2.529602575399579611e-02
-5.659063534397203166e-02
-1.382333221304705428e-01
-1.852543531179615954e-01
-1.577606729555479925e-01
-6.151618649010975881e-02
3.014025862149714852e-02
5.359170055462723903e-02
4.381337139509068612e-02
8.361884100553813870e-02
1.667563481588043850e-01
1.877564968581544591e-01
8.705179099175926194e-02
-6.202160388863113549e-02
-1.435779221767541636e-01
-1.287974588618365501e-01
-8.243598151128191109e-02
-6.808704836727301479e-02
-7.767516803370670686e-02
-5.304741808800302050e-02
3.363660395384006352e-02
1.305438184554594538e-01
1.545568319414485081e-01
9.422464924210646742e-02
2.809713535945496110e-02
1.070467405342252765e-02
-7.752855007533185350e-03
-8.360801036441622980e-02
-1.563331658275214364e-01
-1.232310834526455928e-01
-6.823672019745208317e-03
6.390929230863705290e-02
3.968846855804786244e-02
1.430157464847803261e-02
7.090386794021300010e-02
1.497060605933371591e-01
1.303279890292142473e-01
4.835207748361827155e-04
-1.237320747973028462e-01
-1.384164067589140346e-01
-6.558900930685085395e-02
-1.203482728349089537e-02
-3.609670338254279687e-02
-8.096676770712894766e-02
-5.200186929700721661e-02
5.449969059214121447e-02
1.364555327778804728e-01
1.127297764694252247e-01
2.390512622320196956e-02
-2.891719769719904021e-02
-1.155353201218510539e-02
2.417616588564067137e-02
2.812179738263550360e-02
1.629919852339664632e-02
4.644132358623828671e-02
1.277256633246728612e-01
1.497984078175065570e-01
-3.090238051797523922e-02
-3.611815209993613496e-01
-5.393944413159673656e-01
-3.503442505465466650e-01
1.817409948742072789e-02
2.048475168209880071e-01
1.766469855894742536e-01
2.356850298289282775e-01
4.997440019587258697e-01
6.598233794136948438e-01
3.995175238865863454e-01
-1.449357498331599603e-01
-5.434339704774653335e-01
-5.799957668062768468e-01
-4.007909123722115385e-01
-2.217598261305507579e-01
-1.012162206194178599e-01
-6.395915803847754266e-03
6.201774560539902170e-02
7.846948278190794823e-02
6.380421532826259512e-02
8.582405518418127766e-02
1.786702312227870515e-01
3.018697696672553721e-01
4.017250900202133379e-01
4.482603622629373064e-01
3.703450760394875751e-01
6.476845772845481186e-02
-4.264659945602509716e-01
-8.427879956663758554e-01
-9.357074824256926826e-01
-7.071195505240198687e-01
-3.120535342353674135e-01
1.820136107446473639e-01
7.658186418043567700e-01
1.248082633540126052e+00
1.268481576182876491e+00
6.736968535966134652e-01
-2.425969030248186498e-01
-9.933940625802635260e-01
-1.292317325137337214e+00
-1.126890166336127708e+00
-6.261709445965117915e-01
-1.218012305930719907e-02
4.550735881861312504e-01
6.811615345683217360e-01
8.314549900921569536e-01
1.037777597827325593e+00
1.067281372908960524e+00
5.637529926721537299e-01
-3.637043098825131771e-01
-1.123998281204433347e+00
-1.307803423527640563e+00
-1.053545625256622209e+00
-6.554245561403496678e-01
-1.653597212516129400e-01
4.143971691187667283e-01
8.433807213077101350e-01
8.493248781688782501e-01
4.996214471414358593e-01
1.346262033774059674e-01
-2.105361653949504308e-02
-2.766254320908211051e-02
-4.984761785516415855e-02
-1.384404122576737284e-01
-2.124897516144933773e-01
-1.948771897736795988e-01
-1.157093302792989026e-01
-6.460849482966703194e-02
-6.634635292977718313e-02
-5.752805490242259012e-02
8.368698834094245864e-03
9.125769110750606150e-02
1.225267333401344888e-01
8.789355183704869456e-02
2.750714784756571468e-02
-2.212657156731587249e-02
-6.716615475147978687e-02
-1.292930607713363989e-01
-1.762761513374105082e-01
-1.206697399861237502e-01
6.549475433089664567e-02
2.745423910105196930e-01
3.649757320314144793e-01
3.056828100014278848e-01
1.662280335207651782e-01
1.131179789499532629e-02
-1.400588891849588180e-01
-2.849366457564281307e-01
-3.983795896764812938e-01
-4.116466361260762707e-01
-2.584242990588352384e-01
1.332629098137204371e-02
2.271840011357965650e-01
2.510543863099652939e-01
1.497614191578327536e-01
9.250827780807484302e-02
1.371001270310515940e-01
1.849765490613915486e-01
1.402224931696152421e-01
2.957251662930508729e-02
-6.207204266200071208e-02
-1.115057663160916174e-01
-1.561614782817941360e-01
-1.994804290139767511e-01
-1.862434603224847607e-01
-9.217915914917983178e-02
1.711756176577607091e-02
6.599099542949256325e-02
7.296577244546188779e-02
1.111890555846214851e-01
1.792461487480297710e-01
1.853064230800955670e-01
7.550463033630980259e-02
-8.129563572588868747e-02
-1.686465474602766579e-01
-1.493493653335324078e-01
-8.880195786277930714e-02
-6.330025136040849654e-02
-6.576829868755530717e-02
-1.923317781787316216e-02
1.074880513786839048e-01
2.254431237312611025e-01
2.137628034926517540e-01
7.396081658218013610e-02
-6.580187003201287688e-02
-1.108720817609308018e-01
-9.626627368342251245e-02
-9.460517883133105765e-02
-9.939383260640120843e-02
-6.049322835175829222e-02
9.992675644905829602e-03
4.599176542127361711e-02
3.396851960960639571e-02
3.736530505267153524e-02
9.311188882978897741e-02
1.414562581552905596e-01
9.971761818107995057e-02
-2.379828556456767275e-02
-1.294925832853845438e-01
-1.358174744597941130e-01
-6.454768192717924569e-02
-8.003756800707369223e-03
-1.850966273698211387e-02
-4.608442716058257227e-02
-4.798829920934485904e-03
1.024419309305412834e-01
1.674759161263620899e-01
1.123674365252329832e-01
-3.565530906249468612e-03
-6.496449068174341146e-02
-5.174032879260851564e-02
-3.947284982334842152e-02
-6.866930682113146778e-02
-9.061417758689364887e-02
-5.402724583715504125e-02
1.499242097328541690e-02
5.375982576410416602e-02
5.174029583392771026e-02
5.513372813555735691e-02
8.541263475057583876e-02
9.447090523474592494e-02
2.944457130844151116e-02
-7.712829145648622542e-02
-1.268910404798790359e-01
-7.712695810929118267e-02
-2.791045525968684216e-03
-9.191773013701371505e-04
-5.582213594098273113e-02
-5.432220704196953631e-02
5.556472926399451395e-02
1.755399295034270057e-01
1.700257637813351319e-01
3.887869896228712818e-02
-8.156012391078566737e-02
-9.043540298752651696e-02
-3.676615169845967590e-02
-3.182524701682468149e-02
-9.061369048401600457e-02
-1.178195759798342235e-01
-4.598505463049556985e-02
7.122480691444281475e-02
1.320450330287334662e-01
1.113007870479607170e-01
6.818732610018406193e-02
4.901842214981336210e-02
2.997818516406270534e-02
-2.926314015314211703e-02
-1.040318339589353797e-01
-1.198089327865117931e-01
-5.659602476176446573e-02
8.760608259537699949e-03
7.985167145081047916e-04
-4.764821541031910579e-02
-3.672376399359275623e-02
6.185898076217290209e-02
1.561751536380030225e-01
1.444396522960621765e-01
4.279984634072445809e-02
-4.051037144400667506e-02
-4.943844788672647345e-02
-3.876100505841738320e-02
-7.022477662907176954e-02
-1.114248240269985757e-01
-8.834038007673934711e-02
-4.819927287577970010e-03
5.341255715395400172e-02
3.921308053422263573e-02
1.296183463082693776e-02
5.191299527140005865e-02
1.269646085536069169e-01
1.332080462519328046e-01
3.591015024590242521e-02
-7.975555231674524848e-02
-1.186694052280101025e-01
-8.146345846211376640e-02
-3.793051113057591128e-02
-3.498780633496686304e-02
-5.711491172552998763e-02
-5.517566880390189360e-02
2.858737184469425929e-03
9.309500388532061799e-02
1.455975045559148029e-01
1.184046213879273585e-01
5.153284008219943813e-02
8.479696511432002759e-03
-1.569499383179703833e-02
-6.781200479609081344e-02
-1.312735921887514812e-01
-1.256088530922984670e-01
-3.298541463111268057e-02
4.512570528297664418e-02
1.887603576927723847e-02
-4.618649668336310965e-02
-9.984578614016706433e-03
1.252823766409568995e-01
1.943757754333014509e-01
1.007386261499363389e-01
-4.553528460345139528e-02
-9.213681956242426863e-02
-4.834624312618652359e-02
-3.026223986294224177e-02
-7.187132995433638538e-02
-9.620642639707216448e-02
-5.055067197996766792e-02
1.979498445380093244e-02
4.766316708312003797e-02
3.726372493403150299e-02
4.598502230067166852e-02
9.395389636683738888e-02
1.280454079107588850e-01
8.315093120224871515e-02
-3.618728951490450541e-02
-1.449874434655194777e-01
-1.558059137934732219e-01
-7.347565520910342984e-02
6.878232862713218321e-03
1.464399973381844133e-02
-1.461890619884850806e-02
-2.937289576677631908e-03
6.126657931336017271e-02
1.172164866505963493e-01
1.098548410934907099e-01
4.672488448483258505e-02
-1.445283150171215725e-02
-3.390789088760141901e-02
-3.967717901658297797e-02
-7.627866538421566867e-02
-1.136902998911013402e-01
-7.729687328250946232e-02
2.030519026094890905e-02
6.486734258401714859e-02
4.756097103757163380e-03
-5.101193973032078222e-02
1.881108478492121705e-02
1.552154378942277313e-01
1.813312741228994829e-01
4.668405666166236534e-02
-9.952677933987215397e-02
-1.134734162641411748e-01
-4.062613716110622525e-02
-2.027780761990281150e-02
-7.304881147271048702e-02
-9.083645934126377552e-02
-1.871532961637582815e-02
6.503801787824677050e-02
7.628895592592239983e-02
4.338954510271433862e-02
4.604461060670892586e-02
8.988559622377673142e-02
9.874297120228524294e-02
1.810818102782020544e-02
-1.050940379536335623e-01
-1.585949383754678976e-01
-9.186465325335693710e-02
8.830238812477221588e-03
1.994432389879658568e-02
-5.123074902443908174e-02
-7.076570975430480914e-02
3.310909105069249903e-02
1.626268868660692701e-01
1.766545876579629082e-01
6.939638464417892394e-02
-3.694803269252937283e-02
-5.693808892299184743e-02
-3.492175078659080778e-02
-5.242469136108696137e-02
-9.632539700403736083e-02
-8.533984882757549018e-02
-8.473783954241385918e-03
5.067779619206158603e-02
4.298086858127261878e-02
2.088036358817040028e-02
4.148817032505920654e-02
7.441345921097321237e-02
5.026987499013627070e-02
-3.790656518572209366e-02
-1.122011068053555966e-01
-8.722350707314148466e-02
2.546512070641273467e-02
1.068298018939972810e-01
6.135090618534465301e-02
-5.399609330337447333e-02
-8.780100996698254889e-02
9.657921041014682836e-03
1.111487734370632391e-01
8.019230889085558756e-02
-3.920984986085199187e-02
-8.983279349743421294e-02
-3.156777898047063297e-02
1.632368712426584406e-02
-2.379765173961208985e-02
-7.250432698313886981e-02
-3.534309715676673541e-02
4.397770119728901944e-02
6.062522456947715827e-02
1.611073745803354856e-02
8.946160728734040002e-03
7.647789947884141293e-02
1.337871285171609304e-01
8.534640390760256379e-02
-5.345108016504317161e-02
-1.663501212076912428e-01
-1.567670296357139281e-01
-5.387339528763857022e-02
1.780521130094636639e-02
-1.142474007579560163e-02
-6.669777914183953882e-02
-2.437127254911235219e-02
1.212496892137285426e-01
2.347688621414132648e-01
1.962294925129081935e-01
4.220954464364698455e-02
-8.829572748771463697e-02
-1.245814833800416438e-01
-1.188355403586926623e-01
-1.289080820386638571e-01
-1.229724996088814165e-01
-4.901428389833435706e-02
5.553027877535153534e-02
1.026595456247015731e-01
8.349974067242783848e-02
7.569585283683889776e-02
1.135509291258524345e-01
1.267615476439119260e-01
4.170190470874034216e-02
-1.023071999816349137e-01
-1.809560298256996658e-01
-1.266080337661082134e-01
-1.477017814071594770e-02
2.043208424108088062e-02
-4.497420241843011479e-02
-8.941210210416085380e-02
-8.807485318784738504e-03
1.355389361059639863e-01
1.937599390361111340e-01
1.212174986280594446e-01
1.796627136434729433e-02
-2.192568787495138144e-02
-2.126357263201299197e-02
-5.043980089830647773e-02
-1.072480362183219210e-01
-1.226564214128876423e-01
-6.854340967130900797e-02
-3.279456851109835425e-03
1.108766223157563874e-02
-4.057656679993593748e-04
3.574308654740675217e-02
1.221958504625800662e-01
1.658041941177910428e-01
9.401506314662651242e-02
-4.220628317944977170e-02
-1.200778384577346342e-01
-8.756394615845874974e-02
-1.552278868421785168e-02
1.194787582773526808e-03
-4.148844804736168124e-02
-6.843422666032689117e-02
-2.738513675523018831e-02
5.444214220630090584e-02
1.086607562462293397e-01
9.784057262674564215e-02
4.540012231399635084e-02
-2.827114216704455091e-03
-3.537801781037473725e-02
-7.046393170404330331e-02
-9.858428161513042853e-02
-7.475613627571546516e-02
6.541859636900487773e-03
6.861951993034741404e-02
3.942063276063592636e-02
-3.465056998800217919e-02
-3.177824967210012008e-02
7.460510712392097454e-02
1.586585565255599628e-01
1.008452844423127492e-01
-4.775880350490445403e-02
-1.278075141770837753e-01
-7.817711967992023447e-02
-2.126594389877896341e-03
-1.003258056434319645e-02
-7.029218989412942820e-02
-7.258749229546536397e-02
8.912434526657811440e-03
8.939064712309670313e-02
9.504318539012002187e-02
4.593866208795525236e-02
1.020304669731168096e-02
1.612335999149907412e-02
2.591390749566994944e-02
-8.003114759940983813e-03
-6.651644115591508200e-02
-7.499107616428316025e-02
-1.589712223051047840e-02
2.116065401153452430e-02
-3.229081530670117883e-02
-9.268533529977672492e-02
-2.597468915999819050e-02
1.369347989322391712e-01
2.094859854961625412e-01
9.969660931917237456e-02
-6.372497595026155315e-02
-1.132563531098260134e-01
-5.612373203961897039e-02
-2.259129973680383541e-02
-6.332784061250364138e-02
-9.957613777374639541e-02
-5.870229951174921884e-02
3.140633822306793110e-02
9.770068774473028572e-02
1.089888040631755983e-01
8.636406112407714331e-02
6.060463366928449391e-02
3.455953484731433267e-02
-1.410935190112685977e-02
-8.312273175239895395e-02
-1.158536383381262441e-01
-6.682289702555473110e-02
1.301411138086604191e-02
2.345757162953061858e-02
-4.006906513299964001e-02
-5.972868768662034644e-02
4.279201899568933765e-02
1.734476427575609159e-01
1.698496160205614225e-01
1.555173312087577975e-02
-1.348411493012113549e-01
-1.524368876686300889e-01
-7.602038122833321143e-02
-2.595700106057885481e-02
-3.943335293446367795e-02
-4.463497819610261902e-02
2.533578364386403214e-02
1.402819010286735502e-01
2.051935445814050130e-01
1.683371285456711219e-01
7.541568853656184512e-02
1.516909137633582145e-03
-4.799974132400179616e-02
-1.213920410680388168e-01
-2.142855024155591315e-01
-2.520164041065552918e-01
-1.991409635857668559e-01
-1.149768401517485966e-01
-5.413698125162284824e-02
3.585513493749294123e-02
2.461879401831385261e-01
5.278763885858198668e-01
6.408630041532540345e-01
3.690698208813054659e-01
-1.889488592046660032e-01
-6.311231474860453661e-01
-6.362088098630183097e-01
-2.936898214090509218e-01
2.804532237226926850e-02
1.044839174207278093e-01
4.573577527798716735e-02
6.818634083969744852e-02
1.926758873733855348e-01
2.531910449904440918e-01
1.562122027379249933e-01
8.847568245668416265e-03
-5.073490456851896535e-02
-4.185623224871101722e-02
-6.279587425134479373e-02
-1.066023029374039283e-01
-8.933659015404900317e-02
-1.649707350029797071e-02
2.042464086082240032e-02
1.375743821634835490e-03
2.812577623019493767e-03
5.563501062292322552e-02
8.683303250971170784e-02
2.811355424927299007e-02
-9.228026852473386610e-02
-1.824434074080164836e-01
-1.662011173330344704e-01
-4.342991497494076703e-02
9.337283846408099552e-02
1.450299591208048799e-01
1.423926522852876353e-01
2.181410667225376354e-01
3.802020234954128219e-01
4.132813642800914899e-01
1.239583807850107716e-01
-3.756480495520037599e-01
-7.531870867914540746e-01
-7.971843127883321278e-01
-5.615386028696144338e-01
-2.017258484447614075e-01
1.838636036150144981e-01
5.366190532209228481e-01
7.977730148996222681e-01
9.034823323969195519e-01
7.399772001726148130e-01
2.120893857900981450e-01
-4.957696159961189619e-01
-9.085433505828363066e-01
-7.524206484974379494e-01
-3.064328199129787711e-01
-3.091363965105319023e-02
-6.725603104010838273e-03
9.210196148599011923e-03
1.148520024814507212e-01
1.566013376016985037e-01
8.087356205820724064e-02
1.018465145553493906e-01
3.649520117836307365e-01
6.224965602185822400e-01
4.890634346521015585e-01
-3.198387583133115164e-02
-5.219781805961692944e-01
-6.568263134509296775e-01
-5.104981812393479812e-01
-3.067933435975965795e-01
-1.045902128727150687e-01
1.448262929810502919e-01
3.794477501766561622e-01
4.257959614106873736e-01
2.013795569277859188e-01
-1.415193370713113963e-01
-2.883356731284554275e-01
-3.779135201484197515e-02
4.310029759922427428e-01
6.492781859890780494e-01
3.314614011874723598e-01
-2.908222025109937214e-01
-7.015410404563112712e-01
-6.344283831122025097e-01
-2.935609642684744447e-01
-4.795667810645885820e-02
-1.350418431274015563e-02
-2.263937396102966293e-02
7.408558807463085094e-02
2.424090361556377748e-01
4.030195857677552618e-01
5.626351863531707798e-01
6.942172639803091405e-01
5.899092738406561676e-01
4.775516291839949912e-02
-7.458614142957464832e-01
-1.230736042966964927e+00
-1.031340062364143551e+00
-3.695370544744210339e-01
2.260909931607445189e-01
4.822024775422662501e-01
4.878362645119359575e-01
3.936526057116692678e-01
2.520844124794307528e-01
1.157468458229871794e-01
7.017551542780760265e-02
1.109999629392029036e-01
1.142760407941130069e-01
-7.806552327756274834e-03
-1.899078097139599020e-01
-3.001456653743597713e-01
-2.951949925858819990e-01
-2.356244784613024945e-01
-1.730594245150274824e-01
-9.063186870939611561e-02
2.965333707943730579e-02
1.489492747402674511e-01
2.323048648377531722e-01
2.944997210639605512e-01
3.065277394648917020e-01
1.733355751382117116e-01
-6.600605807336488995e-02
-1.907270633359430534e-01
-1.250545579872285318e-01
-7.595313730540016739e-02
-1.583949931734561500e-01
-1.857930856027296962e-01
-2.746611966427918439e-02
1.409875362185001035e-01
1.310547747683000752e-01
1.946320489358551245e-02
-2.507139543188425038e-02
3.428680175754785647e-03
5.702327592702512160e-03
-3.246830441515793919e-02
-3.495166754455486524e-02
2.472236440787341921e-02
7.735184804952562054e-02
6.187762857732725941e-02
1.293498929414643728e-02
5.517082896303600326e-03
3.903852958784102822e-02
3.122044443558621984e-02
-5.794568920322996919e-02
-1.469701139551919111e-01
-1.314869127478293376e-01
-3.368632465696046879e-02
2.553412777762139457e-02
4.620155011565384856e-03
2.077790925161651647e-03
9.977772063411267933e-02
2.184209262248237859e-01
2.024593749453074965e-01
2.546395193123038303e-02
-1.589085582810370878e-01
-1.915781365922740453e-01
-9.109005815551927954e-02
-1.474727750408409699e-02
-4.677158533839690518e-02
-9.269748792368442958e-02
-2.612381577182955328e-02
1.161800794602036724e-01
1.747236272363100473e-01
8.881546882405270960e-02
-2.759880808078594983e-02
-5.788631345257784500e-02
-2.688093557265995581e-02
-1.812594192079646296e-02
-3.768357771352313229e-02
-3.106135259024201539e-02
2.627851829095669001e-02
1.103051808650386129e-01
1.744968667555916175e-01
1.647362035703348326e-01
5.231599025608918430e-02
-1.246307078670712970e-01
-2.783910100805391252e-01
-3.365547664072842116e-01
-2.745980830649845661e-01
-1.053159352099856810e-01
1.182792282753785812e-01
2.939642715543344109e-01
3.252325278023597832e-01
2.149508769518797824e-01
6.539668148016418436e-02
-3.753349328232366555e-02
-9.536128905376116405e-02
-1.313830278906699400e-01
-1.178495767239654685e-01
-2.014045072957236504e-02
1.253681339716297416e-01
2.270375858911695965e-01
2.134317887972104477e-01
6.822290428529316497e-02
-1.729481821581084766e-01
-4.158168906077528426e-01
-5.255402526046150102e-01
-4.143943477772935036e-01
-1.229416799495669371e-01
2.052427126457967710e-01
4.175263835898706533e-01
4.364329833566092387e-01
3.294257555313547803e-01
2.821610160257902455e-01
3.599156235438039642e-01
3.139640675357462940e-01
-1.228661257442909410e-01
-7.142768707955701180e-01
-8.435218301568736532e-01
-3.164912601874422804e-01
2.936661435139016896e-01
3.521904006532625142e-01
-4.809112821926436743e-02
-2.931541246316197169e-01
-7.373816951832289079e-02
3.080429786590708208e-01
4.001991943887295844e-01
9.169906604635977287e-02
-3.610458592352548401e-01
-5.768913090786982334e-01
-3.109265196417290711e-01
3.399795173448391106e-01
9.566096489456030749e-01
1.115059761074201905e+00
6.957521461448538114e-01
-1.060328681666068834e-01
-9.368907014016895074e-01
-1.401761706100402627e+00
-1.227056494985520052e+00
-5.030882366811212369e-01
3.091735047489954646e-01
7.573450313733752770e-01
7.580140096608700695e-01
5.407650921801414601e-01
3.367802081424668970e-01
1.940054859774345553e-01
2.603255660278865069e-02
-2.241042579060507356e-01
-4.598163141958802602e-01
-4.960552110972990536e-01
-2.798737010616379473e-01
4.281305021699351177e-02
3.277319963749877885e-01
5.198356495453094750e-01
4.778479463846563302e-01
4.594443983220238004e-02
-5.388231730515945506e-01
-7.234519482657010281e-01
-3.455136814894068653e-01
1.427454418632774780e-01
3.201285814345350422e-01
2.450192408955198520e-01
1.481063956721958841e-01
8.896351020365060591e-02
4.040083170105815413e-02
1.342670733210275802e-02
-3.249916927195270477e-03
-4.763005945031476701e-02
-8.776060327368012670e-02
-5.256918455789771905e-02
2.963892589976663966e-02
4.212205846826887201e-02
-4.890552774317834250e-02
-1.303710161287287006e-01
-9.325537444957340827e-02
1.672646310958350591e-02
6.368219446880707402e-02
1.319748936781282855e-02
-1.952443387709540401e-02
5.882049172286792083e-02
1.696614824951353795e-01
1.586589512353698550e-01
1.002211101612322797e-02
-1.251042208729269689e-01
-1.238394553245083379e-01
-3.760597920394383176e-02
-3.871888354100051777e-03
-6.146551443970230122e-02
-1.106012799274226494e-01
-5.166597071428404020e-02
8.102255452140209868e-02
1.560191820117539374e-01
1.058235226147840324e-01
6.219682587271090080e-03
-3.112890648077826228e-02
-2.650872805486668982e-03
6.724926036359490933e-03
-3.717138159769006744e-02
-7.008444526912988026e-02
-2.965561481514774125e-02
5.346303510410842230e-02
9.577262383768707366e-02
6.599731159800041602e-02
1.301006770683760944e-02
-1.525138124137528917e-02
-4.266959305523770896e-02
-1.148197120674424726e-01
-2.009800581280385690e-01
-2.124503290365330199e-01
-1.199132802420604244e-01
2.210704383493562741e-02
1.773557419266141577e-01
3.520745843700963107e-01
4.775181421204051091e-01
3.927283527666101115e-01
4.865096355040017528e-02
-3.501689592121373096e-01
-5.229927759043415669e-01
-3.978576919801043998e-01
-1.387363720150524560e-01
6.592654568204832366e-02
1.489478560778993155e-01
1.349154141139428942e-01
8.042331670613764305e-02
5.324863323411740956e-02
8.018491256988095894e-02
9.944232291708328397e-02
3.791788811017022393e-02
-7.016984511908568034e-02
-1.304672911456264683e-01
-1.360639179777382024e-01
-1.456739241286577058e-01
-1.199066664143730726e-01
5.775167666304434344e-02
3.420552091176397025e-01
4.700001541851645537e-01
2.658407358120892794e-01
-1.058939209597300063e-01
-3.272034405746355179e-01
-2.961898993913173461e-01
-1.785339476392825142e-01
-1.336535769092412063e-01
-1.283590155809571087e-01
-4.464470553672707231e-02
1.222809698756455871e-01
2.428297156142005531e-01
2.136838026656094625e-01
8.169108635855996947e-02
-2.177849912277519950e-02
-3.415230912349113968e-02
-2.198268332776046052e-03
1.023898503093674528e-02
-3.245339218767767653e-03
-1.377930257939693863e-02
-7.380146254274050355e-03
5.777127741864229726e-03
8.145149829315807832e-03
-1.337716080562539184e-02
-5.907817099247675979e-02
-1.105634181735288130e-01
-1.408080409251037945e-01
-1.350463486171988026e-01
-9.378890658062039032e-02
-1.049277299190647106e-02
1.308230740218674637e-01
3.015238181420871744e-01
3.914870344726781859e-01
2.978432450007670318e-01
6.221755841746624827e-02
-1.559991054362382112e-01
-2.612719907160561683e-01
-2.887449241847641068e-01
-2.740687081960023197e-01
-1.843924472314155127e-01
-3.378062853194914450e-02
6.664740708281030601e-02
6.698695659269006397e-02
7.434429098567758853e-02
1.806690156949802006e-01
2.868372538756898682e-01
2.264058688742428826e-01
1.313359270457546690e-02
-1.598383239699610880e-01
-1.612021087918287521e-01
-6.457687467199599296e-02
-2.553429816164107247e-02
-7.984035279977839961e-02
-1.179231871267239357e-01
-4.534046842946430622e-02
8.790921761893313868e-02
1.497383835826493759e-01
8.943724900339532213e-02
-1.038382766864043294e-02
-4.847717014998034757e-02
-2.308090211126765517e-02
-5.573872375891103514e-03
-2.988016807270087866e-02
-5.518916683613133561e-02
-3.314440769636587542e-02
2.727039926803337053e-02
7.392272519320262913e-02
7.333437146263935280e-02
4.582389791330886836e-02
3.157222939345485230e-02
2.459491682919093258e-02
-2.280091286851568255e-02
-1.062734482144043341e-01
-1.371111958575605694e-01
-6.389856210521825675e-02
2.960957220480253671e-02
3.683379375708030479e-02
-5.907492600804288563e-03
2.325870703558850783e-02
1.278750468347513991e-01
1.677639963397671019e-01
5.887337944391335398e-02
-1.009428159251360146e-01
-1.543315318889031118e-01
-7.406027742110159184e-02
2.007853762975733009e-02
1.520072442884178032e-02
-6.055009026324806309e-02
-7.766029274711504227e-02
2.311161100202875629e-02
1.408021184762162925e-01
1.395897690124025536e-01
2.835513458657381441e-02
-5.976909003574973345e-02
-5.140776748988082345e-02
-1.023809624275849595e-02
-2.107579425838437825e-02
-7.118357618007323251e-02
-7.866119973549277888e-02
-3.444805275293658098e-03
9.730508277658196647e-02
1.284568981370203256e-01
6.988254891661742352e-02
1.924348984992757050e-03
-8.102501907133862619e-03
1.097026419527441727e-03
-3.864949104787061829e-02
-1.063357402525248185e-01
-1.308583276739376799e-01
-1.079367681406220164e-01
-8.573570438859139109e-02
-5.951952650341982981e-02
2.223164468595588417e-02
1.498836431296996508e-01
2.440343110363631940e-01
2.705183801064170446e-01
2.690239110179427073e-01
2.287439487490654511e-01
4.845725215435266187e-02
-2.787844680105170392e-01
-5.320284669672120659e-01
-4.742572656040228152e-01
-1.772337626243631614e-01
3.032417233504260123e-02
-2.190385710352064919e-02
-1.301141494317901159e-01
-8.315337127560371022e-03
3.260293954374949288e-01
5.988544153580021012e-01
6.196534339384229817e-01
4.053665414400535183e-01
4.403699827088421170e-02
-3.567466505805477750e-01
-6.172307432991892551e-01
-5.862348255434544075e-01
-3.227692157117226790e-01
-4.631558965812178352e-02
1.061098599641191326e-01
1.691337379316487088e-01
2.029427292849012854e-01
1.876642612290429779e-01
1.047191979616826502e-01
1.901969657036460537e-02
3.833493611795010803e-03
3.743323669511162965e-02
4.557391159129912939e-02
1.739471321744277821e-02
7.374538920352148585e-03
2.944409362123198703e-02
2.137775821898023343e-02
-6.195750123799166620e-02
-1.673277686912361117e-01
-1.915630220999035294e-01
-9.934778527160831318e-02
3.226156108701780378e-02
9.699695274155746560e-02
7.660596774497864525e-02
4.727941947129712941e-02
6.052936899373902169e-02
6.391010819432746404e-02
-1.397236133109201750e-02
-1.373646376610561937e-01
-1.881103381519471374e-01
-9.935338323773763858e-02
8.542673070017493819e-02
2.613987335932587697e-01
3.281814402716607959e-01
2.431241477519227590e-01
5.385852218630714228e-02
-1.397225989740264185e-01
-2.648084285143586514e-01
-2.967547128828181280e-01
-2.336435614909615210e-01
-1.066458949182946953e-01
8.774608998273383809e-03
5.550864343268677170e-02
5.893450371092477658e-02
8.050453854848246826e-02
1.227640712401153328e-01
1.337118293717437789e-01
9.917496389060097284e-02
7.055331679528932531e-02
8.213200467364580037e-02
8.857973040518474228e-02
2.099525143984927456e-02
-1.137866028028573367e-01
-2.200192151227275128e-01
-2.064666131076097477e-01
-8.887106394079626048e-02
1.663154284409963657e-02
2.306109826380060845e-02
-2.052041477752450382e-02
2.931824640356087142e-03
1.088537186019595954e-01
1.780495261993487455e-01
1.179139446995219331e-01
-1.076989979872404468e-02
-7.755277767031905356e-02
-4.580648111601699074e-02
3.289399816579077068e-03
-9.100586547737134213e-03
-6.255189047896801691e-02
-7.225400322334334102e-02
-2.005272315995190735e-03
8.299288371274896048e-02
9.162220000159405908e-02
2.059937200253764839e-02
-4.365690211050993891e-02
-4.202868864491447753e-02
-1.347952523906211474e-02
-1.960957476094381952e-02
-4.707747513747928547e-02
-3.861176165289880585e-02
9.496511011021724347e-03
4.243480625974690307e-02
3.343925637446363425e-02
2.275130870872096173e-02
5.287803752395044132e-02
9.451034989306171530e-02
7.121159747263887396e-02
-3.388856808248143226e-02
-1.291484152941951569e-01
-1.168828668219401290e-01
-2.842961108420897359e-02
1.294170575392276923e-02
-2.840665158822423125e-02
-4.498654252606219817e-02
4.394556944083408134e-02
1.491456451197878397e-01
1.248837993018939996e-01
-2.023855529133744557e-02
-1.257067765555573147e-01
-8.714481127568531049e-02
2.324119176929619057e-02
6.698698293936965198e-02
1.327114459368342742e-02
-3.771412440142585254e-02
7.643709116115171565e-03
1.094953077376584205e-01
1.349003519869533818e-01
2.304934284802247213e-02
-1.331150572557814882e-01
-1.965246308506206352e-01
-1.409967714416476003e-01
-5.573732147121123609e-02
-1.473426400296755368e-02
8.256397505857784869e-03
7.821039959810881237e-02
1.827097177216599755e-01
2.227679508453997981e-01
1.365478922794299832e-01
-7.540951755438521364e-03
-9.129987147149452864e-02
-9.413535282963005069e-02
-9.008152890586357264e-02
-1.119035553671581945e-01
-1.063882714407316382e-01
-3.905786947475432813e-02
3.755323170814486161e-02
5.906864361652737483e-02
3.953681568603387847e-02
4.040424417479109021e-02
7.456682280899934456e-02
8.605364298944272183e-02
2.942330253639601975e-02
-5.866821460167571944e-02
-9.306589730422036577e-02
-4.649668350921923321e-02
8.845071743409635423e-03
-3.265615711533376847e-03
-4.980442732636448239e-02
-2.907904396713029138e-02
7.466414642946900271e-02
1.482765681230198140e-01
9.410756701162212301e-02
-3.920613655376026241e-02
-1.174884498593609244e-01
-8.119125236943652846e-02
-1.847256018588913423e-03
1.532156857239352910e-02
-4.036166186274495887e-02
-7.122549795026199282e-02
2.438796458862010907e-03
1.218390646246980125e-01
1.491353097226561786e-01
4.987639367919807776e-02
-6.029069831475197816e-02
-7.783999728161306031e-02
-3.735135532814219672e-02
-2.842094489117214656e-02
-5.968348607056498528e-02
-6.636306148662639293e-02
-1.118974290796449778e-02
7.177847557654140620e-02
1.200647883339802519e-01
1.078228798837825853e-01
6.632677531667377502e-02
3.183241238696350034e-02
-1.122064298692053430e-02
-8.854045703598999173e-02
-1.528624933692141474e-01
-1.259406803423563093e-01
-2.975184744247307000e-02
2.151320672200102146e-02
-1.148345250316035182e-02
-3.047146367337497108e-02
4.809294143093927054e-02
1.596738864027988647e-01
1.721171644557550062e-01
5.158230726565633806e-02
-9.288894872787233081e-02
-1.081683905897922182e-01
4.689390098409197682e-02
2.070409784370331463e-01
1.262921369821465301e-01
-2.105593558597755877e-01
-4.785501090321001572e-01
-3.591994107683817439e-01
5.987207284113006678e-02
3.923272972520329138e-01
4.093872200828603813e-01
2.167600773831205863e-01
1.633435805505233096e-02
-1.191394914067760852e-01
-2.113184867019577973e-01
-2.566058865542504841e-01
-2.109773591328432951e-01
-5.952592186294784760e-02
1.297269903473565189e-01
2.389226580536464861e-01
2.105594494602568700e-01
1.074803292878627609e-01
2.499822360531526316e-02
-2.566101786016912467e-02
-8.753663445253895281e-02
-1.484900889087839293e-01
-1.477308707198412285e-01
-8.170163230421741141e-02
-2.022485848665100949e-02
-1.654608934614345888e-03
2.421906682193171456e-02
1.139258791617919070e-01
2.231886996333598272e-01
2.274893618802250050e-01
6.677982627992763709e-02
-1.534489701668872719e-01
-2.540963634833202645e-01
-1.844098249424755143e-01
-7.250844404894622730e-02
-4.101935803691449112e-02
-4.359261881271522809e-02
3.835190065375508606e-02
1.878193457520047349e-01
2.552727272442070761e-01
1.687446793165530146e-01
3.043274131916137715e-02
-3.351367095791350781e-02
-3.141705409158748741e-02
-5.589039620499501593e-02
-1.316188780669442504e-01
-1.825477885001815792e-01
-1.438032575637963884e-01
-5.732086069580545618e-02
-2.201681632885650608e-02
-5.426515026818031634e-02
-5.299663767632288580e-02
5.116647464122521527e-02
1.758460388436327293e-01
2.158361951646614318e-01
2.297097941610787286e-01
3.357600699232666241e-01
4.404490307347956879e-01
2.573239892474454282e-01
-3.240062793131671115e-01
-9.735932077957091257e-01
-1.136502918642900983e+00
-5.745519458820393943e-01
3.334410695013170778e-01
9.182636602822848992e-01
8.518461195169172440e-01
3.815489623489522475e-01
-3.677353186291050513e-02
-2.029950684915536874e-01
-2.237977449413857400e-01
-2.274876584253364975e-01
-1.876634938500219285e-01
-4.865187737107645738e-02
1.055671244181699137e-01
1.256217242325556593e-01
5.846000918338783992e-03
-9.742313619102760391e-02
-7.554827877976987016e-02
6.551200415618604282e-04
3.585274156110221377e-03
-6.858736763427059069e-02
-9.453247150519468456e-02
9.583923139874259145e-03
1.789554118303740282e-01
2.659172916995629632e-01
2.064009985784666101e-01
8.519768576211057820e-02
1.201911985008048689e-02
-1.915023765900118746e-02
-8.372234806177801525e-02
-1.811394327654806957e-01
-2.323484736603499134e-01
-2.113225905431928564e-01
-1.801641833677614102e-01
-1.783071556592605578e-01
-1.593892045375030764e-01
-6.860211538893092043e-02
7.306817916725376338e-02
1.948679951870662952e-01
2.611660882437088493e-01
3.077396183082046766e-01
3.910335644554893131e-01
4.999240985973336104e-01
5.355757565678164189e-01
4.131179930125494226e-01
1.715635925081833157e-01
-7.495242404917133727e-02
-2.963983777581784551e-01
-5.787381999664085175e-01
-9.621971577030228318e-01
-1.316201941437103784e+00
