BVP Green Neck Signal
1.204207218926156391e-03
-2.778224100406361755e-03
-8.103975301485348212e-03
-1.477976495150699551e-02
-2.276238385413253268e-02
-3.196671566264484149e-02
-4.227659123159430155e-02
-5.355704233319096702e-02
-6.566644753480244123e-02
-7.838673090769764096e-02
-9.163705965512908280e-02
-1.053448901733667620e-01
-1.194433063362340952e-01
-1.338816340059135745e-01
-1.486150989013473589e-01
-1.635923247396545155e-01
-1.787427682380273164e-01
-1.938484778831750521e-01
-2.087825887304516070e-01
-2.234724902263650614e-01
-2.377583403262888972e-01
-2.514608334759288466e-01
-2.643853368454548436e-01
-2.763273864250974099e-01
-2.870791350317862811e-01
-2.963370641439164732e-01
-3.038242599131687482e-01
-3.095289902320357833e-01
-3.133589367513640589e-01
-3.152593016901436562e-01
-3.152050500903187391e-01
-3.131896310170527720e-01
-3.092120054608848978e-01
-3.032093542830927024e-01
-2.949672929575756219e-01
-2.846504801694006437e-01
-2.722497104030358051e-01
-2.577485022693417616e-01
-2.411208495580132172e-01
-2.223302223661668131e-01
-2.013301613409294588e-01
-1.780639737782002685e-01
-1.522557804799500314e-01
-1.240440228515917037e-01
-9.343816660210269021e-02
-6.048428867703260076e-02
-2.526891390212759186e-02
1.207919900463585994e-02
5.138896726836800904e-02
9.244800448710933927e-02
1.350594639377460660e-01
1.789001701660312693e-01
2.236174274479935387e-01
2.688277219633539161e-01
3.141081137640279741e-01
3.589991387935579925e-01
4.030088728020395639e-01
4.456185125968075145e-01
4.862360189469240868e-01
5.243197464378995809e-01
5.593664912631807207e-01
5.908639123972074803e-01
6.183293116164678693e-01
6.413197325289582418e-01
6.594413270561567675e-01
6.723579953394109854e-01
6.797339723794063593e-01
6.813234983133032996e-01
6.771120404538464310e-01
6.671065533107376488e-01
6.514105617300889328e-01
6.302204966434412636e-01
6.038188865390078375e-01
5.725651110549416778e-01
5.368500374459949098e-01
4.970463325334310567e-01
4.538010216535585117e-01
4.077065582690089784e-01
3.593846849416185707e-01
3.094704755027657961e-01
2.585956645913654595e-01
2.073721044569712957e-01
1.563720433174341506e-01
1.059655518344236602e-01
5.675920848694437221e-02
9.188365376415208452e-03
-3.637482324646071352e-02
-7.962837263457378523e-02
-1.203459590942180246e-01
-1.583803962963043765e-01
-1.936645016495144866e-01
-2.263221617711816402e-01
-2.563816453410830976e-01
-2.839376144249471379e-01
-3.091427438159229379e-01
-3.321815137897751735e-01
-3.532624802690144672e-01
-3.726105530228230323e-01
-3.904589892716219257e-01
-4.070666813146258667e-01
-4.226902149277333431e-01
-4.375084753506989776e-01
-4.516610327233717692e-01
-4.652403384240861861e-01
-4.782901320513648913e-01
-4.908059019513700827e-01
-5.027368995679503128e-01
-5.139408751908604023e-01
-5.243079721644473556e-01
-5.337455229246366173e-01
-5.420447078343093583e-01
-5.489642487502089940e-01
-5.542405957798227645e-01
-5.575987696107416181e-01
-5.587632344047770427e-01
-5.574164131021693835e-01
-5.532186905182793213e-01
-5.461409733965778557e-01
-5.360174083463306038e-01
-5.227222503866226777e-01
-5.061766661879256723e-01
-4.863538722277648274e-01
-4.632823388926042840e-01
-4.370386723854834399e-01
-4.075888970447609227e-01
-3.753246670067074686e-01
-3.405167011523583809e-01
-3.034845866941065506e-01
-2.645903409989584509e-01
-2.242305288606122049e-01
-1.828272040873192839e-01
-1.408180966653864996e-01
-9.859852524964764220e-02
-5.661665226983702420e-02
-1.532347261069978706e-02
2.484855895508013626e-02
6.349130622824859793e-02
1.002320330065878951e-01
1.347434537929557141e-01
1.667520480480138845e-01
1.959659175983590462e-01
2.223450278077691855e-01
2.458491712667852103e-01
2.664244505138533281e-01
2.840647604785567215e-01
2.988156674976001903e-01
3.107769258298617165e-01
3.201025845309775075e-01
3.268969144790912496e-01
3.314804869367436457e-01
3.342889788378843874e-01
3.356014874217543298e-01
3.356909420503131902e-01
3.348227543767647307e-01
3.332541584910392318e-01
3.312329973797910609e-01
3.289463209385921627e-01
3.265831205358692424e-01
3.245159879095148581e-01
3.228887951600833417e-01
3.217907241067973212e-01
3.212581342145337526e-01
3.212784665367903747e-01
3.217952937538028357e-01
3.227096504162593749e-01
3.238454184819931636e-01
3.251249369676919576e-01
3.263651779800001984e-01
3.273584208053340605e-01
3.278783589793343167e-01
3.276867507223446552e-01
3.265405237162901098e-01
3.241992284793269175e-01
3.204588530121907364e-01
3.150464559974839873e-01
3.077783679047343957e-01
2.985188925190929710e-01
2.871750741800347395e-01
2.736969792645178590e-01
2.580769239366462187e-01
2.403482498201065243e-01
2.206605645234995250e-01
1.990252286336369192e-01
1.755493122277824447e-01
1.504432702461117599e-01
1.239628834333118546e-01
9.640005633702199150e-02
6.807277832821427566e-02
3.931518318136797280e-02
1.056273487551861838e-02
-1.789508292188185176e-02
-4.585598148957538422e-02
-7.298470050288209665e-02
-9.895146517304712064e-02
-1.234433080413735867e-01
-1.461749188967242374e-01
-1.668979754163555929e-01
-1.853444986630589375e-01
-2.013094914448265715e-01
-2.148965938825873057e-01
-2.260388604655744482e-01
-2.347035122981124267e-01
-2.408966969219308585e-01
-2.446676844463668843e-01
-2.461114261920035462e-01
-2.453573675587271408e-01
-2.425016947214839735e-01
-2.379460376460099114e-01
-2.319262932554920498e-01
-2.246847736020169128e-01
-2.164677749281775643e-01
-2.075239067837493789e-01
-1.981023975582632823e-01
-1.884506562040436095e-01
-1.788339089533708126e-01
-1.694969861111420284e-01
-1.606369076349327130e-01
-1.524189716969867880e-01
-1.449731995437802679e-01
-1.383930017749184505e-01
-1.327352027201794682e-01
-1.280211431311984172e-01
-1.243204517430178124e-01
-1.215291957942931794e-01
-1.195240016462750660e-01
-1.181978491015071298e-01
-1.174211780895925428e-01
-1.170440336441003343e-01
-1.168989866606182787e-01
-1.168051194833553963e-01
-1.166311835560092519e-01
-1.161478268639715705e-01
-1.150925003942474406e-01
-1.133017024322409971e-01
-1.106380632188729146e-01
-1.069913573734397605e-01
-1.022785790186089561e-01
-9.644375410721536812e-02
-8.948242114256337032e-02
-8.138679894135858461e-02
-7.210522263967542034e-02
-6.171637465262939243e-02
-5.034168106074166094e-02
-3.813937058002320191e-02
-2.529706183868127983e-02
-1.202373703779764831e-02
1.450145963899771538e-03
1.485709921103110787e-02
2.807704349462621443e-02
4.086805747188986676e-02
5.298482533145226769e-02
6.418821172269094377e-02
7.425514670283003826e-02
8.298794013566034022e-02
9.022225190744387335e-02
9.575384095042713262e-02
9.962780205240746867e-02
1.018114149996864753e-01
1.022923237693467852e-01
1.010948733164058477e-01
9.828295562861506796e-02
9.396165063127677464e-02
8.827712241371810098e-02
8.136633653679944955e-02
7.351296608888235884e-02
6.498838517029001394e-02
5.604829507756588919e-02
4.695536534048459776e-02
3.797449779810788129e-02
2.936809726938656093e-02
2.139110712789080854e-02
1.429743515743393811e-02
8.319079417064341453e-03
3.640480326846878313e-03
4.208553048287645877e-04
-1.218711195782240606e-03
-1.198433418745948990e-03
5.183334905018248655e-04
3.924569391860928402e-03
9.004545533006858352e-03
1.569924129254576459e-02
2.378487525280487819e-02
3.309045642508148810e-02
4.341587886295212445e-02
5.453512936501633129e-02
6.620020495328730881e-02
7.814593944641266832e-02
9.010824600354988556e-02
1.018822678372682811e-01
1.130596993502901021e-01
1.233713274480363609e-01
1.325702500690029706e-01
1.404353346715185857e-01
1.467737288432188481e-01
1.514228270442171398e-01
1.542520275504432048e-01
1.552037306682315654e-01
1.541467087210444120e-01
1.510578581197863368e-01
1.459651999318931637e-01
1.389392021598184757e-01
1.300885443040161182e-01
1.195550064654220396e-01
1.075080047855120624e-01
9.413868277493617209e-02
7.962981646127542668e-02
6.420860752913604141e-02
4.812320578730627796e-02
3.163139220572024068e-02
1.499347638105266202e-02
-1.534817036748024281e-03
-1.770899467199424371e-02
-3.330497159773711247e-02
-4.814036677371542894e-02
-6.202971886960741837e-02
-7.480164182046691868e-02
-8.630763122906284779e-02
-9.642585445730161853e-02
-1.050645172017212886e-01
-1.121644052603157221e-01
-1.177089119115428267e-01
-1.217375171841996034e-01
-1.242740577510360878e-01
-1.253708702931920493e-01
-1.251008217822416335e-01
-1.235567982804195858e-01
-1.208513081565378289e-01
-1.171158275092501616e-01
-1.125099314078154139e-01
-1.072796760458634840e-01
-1.015223051132816551e-01
-9.540033860331939564e-02
-8.907365654936372223e-02
-8.269729814777471155e-02
-7.641994959122334896e-02
-7.038291003045289707e-02
-6.471920074434232839e-02
-5.967375346378916284e-02
-5.524849203017891119e-02
-5.151337751404002491e-02
-4.852941127072730315e-02
-4.633730726705802272e-02
-4.495686704338891504e-02
-4.438705852852648653e-02
-4.460673885693476615e-02
-4.562671893842316917e-02
-4.735144476796019491e-02
-4.968050389532642497e-02
-5.251912328777517958e-02
-5.575957241365813583e-02
-5.928249465356773967e-02
-6.295849405237420593e-02
-6.665015104835718407e-02
-7.019213813111184475e-02
-7.343125816703759134e-02
-7.624875479832790570e-02
-7.851896270493924357e-02
-8.012768507587966771e-02
-8.097374365265253005e-02
-8.096992807276379156e-02
-8.004360267373610005e-02
-7.810477212777985900e-02
-7.506124436172718906e-02
-7.096129248951318913e-02
-6.582480934198552125e-02
-5.969719558590452085e-02
-5.264693657492700019e-02
-4.476214130804893193e-02
-3.614645024314759592e-02
-2.690626822000042120e-02
-1.709259350985443959e-02
-6.882337547707435485e-03
3.569967878652410657e-03
1.410180858088465675e-02
2.454906066130399869e-02
3.475291061343186577e-02
4.456668016301939400e-02
5.386189293364692515e-02
6.258237053649880199e-02
7.064475409312077903e-02
7.797122328715896944e-02
8.450217397324857882e-02
9.019849963150637639e-02
9.504568013561844053e-02
9.905727712557009512e-02
1.022771368077441817e-01
1.048481779138875913e-01
1.068658719580994204e-01
1.084145728119632196e-01
1.096034564386239168e-01
1.105473962389323800e-01
1.113659391795739778e-01
1.121825605288508526e-01
1.131236263406957959e-01
1.144063560442302036e-01
1.161641462126339619e-01
1.184197449357317772e-01
1.212399513098346843e-01
1.246668120280304548e-01
1.287167634096456903e-01
1.333811046556328817e-01
1.386274612574576459e-01
1.444592911446321293e-01
1.508608845335026594e-01
1.576149875398377975e-01
1.645850331660866361e-01
1.716145064941297094e-01
1.785299072744013782e-01
1.851445238954829986e-01
1.912629847876468059e-01
1.966962520871993747e-01
2.012868568472613862e-01
2.047787678217073415e-01
2.069922782521740889e-01
2.077663498928198904e-01
2.069611963464347004e-01
2.044601057180115977e-01
2.001708164688051350e-01
1.940267701245008691e-01
1.859059669225164857e-01
1.758481648098357275e-01
1.638995825550144947e-01
1.501426716710854425e-01
1.346959799339552122e-01
1.177089298208384982e-01
9.935557634112661407e-02
7.982816016948454663e-02
5.917400894523102556e-02
3.766811272335866823e-02
1.561469521050685288e-02
-6.707534295712093940e-03
-2.901114610965945667e-02
-5.101053583463209529e-02
-7.243318595785021297e-02
-9.303039434737067626e-02
-1.127466260253181807e-01
-1.314330251256933257e-01
-1.487902137123894852e-01
-1.646414401628244484e-01
-1.788345914226751043e-01
-1.912509277018508702e-01
-2.018143055291055088e-01
-2.104994537308817193e-01
-2.174446507460252864e-01
-2.228864270767904332e-01
-2.267600083107604303e-01
-2.291764152272045829e-01
-2.302681094458900457e-01
-2.301898901971786704e-01
-2.291205432953898058e-01
-2.272642319462477023e-01
-2.248840450959177228e-01
-2.224097556446542889e-01
-2.199334640016567255e-01
-2.176780650143229079e-01
-2.158497756734943651e-01
-2.146333301456651299e-01
-2.141882606903529884e-01
-2.146461293126887826e-01
-2.161084327491812063e-01
-2.186997718645707078e-01
-2.223998494866903652e-01
-2.272001143849297355e-01
-2.330559288726705980e-01
-2.398829294744082297e-01
-2.475560310538189590e-01
-2.559095141971378662e-01
-2.647386534870778685e-01
-2.737249867269077042e-01
-2.826150010444793415e-01
-2.911614090284674328e-01
-2.990974068017021592e-01
-3.061578721464531805e-01
-3.120820402728867737e-01
-3.166156008259135013e-01
-3.195129641485821015e-01
-3.204344527218518923e-01
-3.191364713114765439e-01
-3.155286513942061055e-01
-3.095080264998976705e-01
-3.010199548875709397e-01
-2.900545418084210514e-01
-2.766409198172196104e-01
-2.608404883609468095e-01
-2.426586519257313002e-01
-2.220863424447941936e-01
-1.993979421287921938e-01
-1.748045741723408819e-01
-1.485474161123336301e-01
-1.208850226361148361e-01
-9.207913305672718596e-02
-6.238054871076718216e-02
-3.197541785484771248e-02
-8.386995707283512310e-04
3.068498177883988501e-02
6.239475378039958248e-02
9.410247159877611900e-02
1.256415901526638512e-01
1.568765195929780198e-01
1.877109031812926321e-01
2.180931149762623811e-01
2.483069448650533917e-01
2.781929902303362789e-01
3.077383237188719423e-01
3.369299077923336716e-01
3.657482444237383223e-01
3.941676652516927226e-01
4.221574075670755377e-01
4.496822985006025397e-01
4.768761208116059080e-01
5.036153625166754910e-01
5.297472198033864599e-01
5.551193968305310200e-01
5.795402241976462809e-01
6.027811211825470084e-01
6.245813433727946951e-01
6.446545694691593331e-01
6.627204855709091236e-01
6.784449145598441255e-01
6.914928387415216759e-01
7.015592402278344464e-01
7.083546016885632346e-01
7.116094815654261385e-01
7.110786572327397748e-01
7.065455367367069472e-01
6.977486662336637169e-01
6.844282088650965878e-01
6.666262429556174540e-01
6.443832209215701878e-01
6.178214854036736536e-01
5.871368531881537844e-01
5.525864022427526834e-01
5.144744960815671453e-01
4.730696187254460061e-01
4.284131682787651330e-01
3.811738265716456686e-01
3.318565173588964856e-01
2.810076208339603587e-01
2.291953188841781563e-01
1.769870094480050227e-01
1.249261057030982836e-01
7.351087280102210075e-02
2.279533959329965373e-02
-2.658200694839089190e-02
-7.423205781959410499e-02
-1.198096419319681222e-01
-1.630215512878770145e-01
-2.036367599733543698e-01
-2.414956134023881207e-01
-2.765165516465173390e-01
-3.087804939267551618e-01
-3.383785608453945826e-01
-3.654088794791279238e-01
-3.900205919611740568e-01
-4.123973935700360194e-01
-4.327517925705339774e-01
-4.513189469925751873e-01
-4.683499108155321222e-01
-4.839846754019007657e-01
-4.985548057015100065e-01
-5.124121224615514336e-01
-5.258007712387873234e-01
-5.389358503393700817e-01
-5.519972040707266103e-01
-5.651236852209423622e-01
-5.784081147763896480e-01
-5.917622141667127078e-01
-6.051066617790700208e-01
-6.186065166571312890e-01
-6.321989560070312431e-01
-6.457784614536312695e-01
-6.591971446171420723e-01
-6.722650124465290311e-01
-6.847505623512692985e-01
-6.963288811957137892e-01
-7.065043170957402419e-01
-7.151549787178163031e-01
-7.219763995128194445e-01
-7.266615496897613768e-01
-7.289028973559735780e-01
-7.283935133426032715e-01
-7.248279751234011359e-01
-7.179031176563439587e-01
-7.071737253623915365e-01
-6.924344752159243832e-01
-6.734703265412035345e-01
-6.501127737545038254e-01
-6.222397629256869456e-01
-5.897740571497573914e-01
-5.526810722532017328e-01
-5.109672371197031548e-01
-4.647008865599443483e-01
-4.138620355346844248e-01
-3.586026163571570113e-01
-2.991637407056965126e-01
-2.358556693220995315e-01
-1.690511060943003518e-01
-9.917758670694143408e-02
-2.671002913984142982e-02
4.769105242354695212e-02
1.236206755602853452e-01
2.006032590012801486e-01
2.779997197492661276e-01
3.551295466148569058e-01
4.312835020968811550e-01
5.057368887196039831e-01
5.777623675061831499e-01
6.464628994139596241e-01
7.111293486074174997e-01
7.713898569413475403e-01
8.266280506782294202e-01
8.762611948231804337e-01
9.197514534276908238e-01
9.566161292264054872e-01
9.864363645350234799e-01
1.008753447886693966e+00
1.023016160393166896e+00
1.029472804675269471e+00
1.028083097577443983e+00
1.018898763965234711e+00
1.002061372231311198e+00
9.777974105889293277e-01
9.464111715180346662e-01
9.082675079751596492e-01
8.633830396863417800e-01
8.126281580398757587e-01
7.566247608393480428e-01
6.960581877352919333e-01
6.316615245063398332e-01
5.641973904239171445e-01
4.944385995872686013e-01
4.231493859436263882e-01
3.509389521514028609e-01
2.785252038198109958e-01
2.066343894403596670e-01
1.359486418617602277e-01
6.711060701885533664e-02
7.108144608814053475e-04
-6.272389265908590028e-02
-1.227399184995729142e-01
-1.787995696718023275e-01
-2.307338584697451733e-01
-2.784569136537176082e-01
-3.218455874496334301e-01
-3.608427466018007124e-01
-3.954521427194425121e-01
-4.257312286534775669e-01
-4.517824610583808242e-01
-4.734614051974556648e-01
-4.908475077976163226e-01
-5.045639193576558768e-01
-5.148962392933377208e-01
-5.221425511159297761e-01
-5.266020327007943092e-01
-5.285621579982053841e-01
-5.282855590837313153e-01
-5.257990871790414467e-01
-5.208177736504505662e-01
-5.141934999836225151e-01
-5.061315009918004870e-01
-4.968053531405633994e-01
-4.863552095723751578e-01
-4.748849768430882801e-01
-4.624587152461782091e-01
-4.490689556436057162e-01
-4.339913781122936576e-01
-4.179410819684513667e-01
-4.009081147563128833e-01
-3.828600487726571133e-01
-3.637480864704105699e-01
-3.435123041581299441e-01
-3.220853865542676608e-01
-2.993948226669189139e-01
-2.750545634225642355e-01
-2.492872899576613344e-01
-2.221061198734410047e-01
-1.934602116701796548e-01
-1.633018918788392559e-01
-1.315933749221361582e-01
-9.831331217564821812e-02
-6.346227420013809961e-02
-2.718736464192862690e-02
1.048139373953722517e-02
4.955537672654941606e-02
8.997366046327050226e-02
1.316557676306367441e-01
1.744949220404242440e-01
2.183498662228136600e-01
2.630364891978818065e-01
3.080057370771348002e-01
3.528957745264886814e-01
3.978274688444227714e-01
4.425043120595432145e-01
4.865902586792897888e-01
5.297098569918077260e-01
5.714472944792574616e-01
6.113449017057561719e-01
6.486697968673310610e-01
6.824375287332932194e-01
7.128629456596593528e-01
7.394482098083349220e-01
7.616847696776519738e-01
7.790661270667915694e-01
7.910999214444721650e-01
7.973185050027484788e-01
7.972495376483955676e-01
7.898701325963439768e-01
7.756120525969549817e-01
7.542624834544285894e-01
7.256743014616033882e-01
6.897780769977063242e-01
6.465927425039283971e-01
5.962335977930589559e-01
5.389168542538586015e-01
4.747612327213456274e-01
4.044024837745526235e-01
3.284022983068518586e-01
2.473652296051604971e-01
1.619705898558706503e-01
7.296681173373333051e-02
-1.883534078605723916e-02
-1.125712482586016111e-01
-2.071959549766285158e-01
-3.018329411229387915e-01
-3.956247148824270643e-01
-4.876518170849705180e-01
-5.770143009887047647e-01
-6.628442085152137508e-01
-7.443162161721529335e-01
-8.206564959200297604e-01
-8.909579337678578126e-01
-9.545592176644247528e-01
-1.011151599943393098e+00
-1.060279742781007561e+00
-1.101570520605608117e+00
-1.134735734514118466e+00
-1.159572494369326190e+00
-1.175961194720181568e+00
-1.183747312780411898e+00
-1.182782614168844448e+00
-1.173532042343476967e+00
-1.156199483262141836e+00
-1.131042682198751148e+00
-1.098367996647928058e+00
-1.058524648570931426e+00
-1.011898343888230301e+00
-9.588794651208009112e-01
-8.995958008864786137e-01
-8.348886159601489609e-01
-7.652612276718316897e-01
-6.912235311549888017e-01
-6.132897497297261635e-01
-5.319766163675224702e-01
-4.478016651661092529e-01
-3.612815930302524237e-01
-2.726985783062887969e-01
-1.827849060148520888e-01
-9.211340193780499785e-02
-1.219738094551362992e-03
8.936181711463285493e-02
1.790980507155836288e-01
2.674570604800191043e-01
3.539092265068368715e-01
4.379944868841739725e-01
5.191645362739842895e-01
5.968634489645893160e-01
6.705723246201971133e-01
7.397838852209437377e-01
8.040073750168069688e-01
8.627740253834618178e-01
9.156429243012683683e-01
9.621388178391708790e-01
1.001919334400313222e+00
1.034754959126305440e+00
1.060375986096807832e+00
1.078564673936083906e+00
1.089163019363520668e+00
1.092079602823220474e+00
1.087294973348692739e+00
1.074751920480432998e+00
1.054450322563446729e+00
1.026944483410693110e+00
9.925433365434302990e-01
9.516211603527102714e-01
9.046176950435363961e-01
8.520363839246249960e-01
7.944401356003110148e-01
7.323963110501661156e-01
6.661039162181736639e-01
5.968648175712141235e-01
5.254405164247890614e-01
4.525954763193876795e-01
3.790878089462809131e-01
3.056592560439888029e-01
2.330241836978992898e-01
1.618579017495588857e-01
9.231128214351458361e-02
2.539326332021974927e-02
-3.827632135155883963e-02
-9.821112914983398667e-02
-1.540035937519357856e-01
-2.053309455636904424e-01
-2.519602170036210897e-01
-2.937516756297882670e-01
-3.307874540385423168e-01
-3.631046260576537010e-01
-3.907460753537566056e-01
-4.138558023418184573e-01
-4.326318374568989822e-01
-4.473228607401767976e-01
-4.582240338508416500e-01
-4.656713773025873415e-01
-4.698490929479224865e-01
-4.712463535095084421e-01
-4.705015931726045375e-01
-4.680025095714270278e-01
-4.641040498486682653e-01
-4.591257811171586267e-01
-4.533498377897006715e-01
-4.470186433375379353e-01
-4.400882722058695462e-01
-4.324443191830094069e-01
-4.248765068160280656e-01
-4.175007090376808283e-01
-4.103717496907946516e-01
-4.034894547490369132e-01
-3.968047489280549511e-01
-3.902250363162545477e-01
-3.835317393273932063e-01
-3.758416992470585138e-01
-3.678613193024650729e-01
-3.594796922149111063e-01
-3.505767113388243983e-01
-3.410292146596199392e-01
-3.307151687090618686e-01
-3.195157118201363278e-01
-3.073156675205167554e-01
-2.934616560069837621e-01
-2.783129693280835815e-01
-2.619208101969087710e-01
-2.443075636142485740e-01
-2.255201618099291205e-01
-2.056239263956605445e-01
-1.846949258057430932e-01
-1.628119048459117368e-01
-1.400214645136100000e-01
-1.163183953210310262e-01
-9.178608735844596966e-02
-6.652433832681885206e-02
-4.063691410227662087e-02
-1.422377509596422715e-02
1.262577209856829974e-02
3.983809847830629275e-02
6.707252429082094514e-02
9.438743478677470711e-02
1.221019251874938122e-01
1.502274752091902754e-01
1.787677885662379562e-01
2.077175560259008902e-01
2.370594356557612636e-01
2.667590593708859537e-01
2.964687754573052114e-01
3.257792743678563641e-01
3.553148758244567551e-01
3.850089057131681480e-01
4.147498347878258995e-01
4.443780112187784015e-01
4.736817278034117784e-01
5.023929040057462103e-01
5.300867436779562736e-01
5.556794102219122511e-01
5.795627252910049432e-01
6.013604337425902946e-01
6.206695186308297529e-01
6.370665019406396290e-01
6.501132523771013805e-01
6.593624222272936874e-01
6.643632552238762923e-01
6.642888617331118573e-01
6.590205624963759723e-01
6.482563454707142014e-01
6.317195150934774572e-01
6.092003556063452230e-01
5.805633923056173762e-01
5.457530000464496656e-01
5.047973722318217504e-01
4.579431975893107909e-01
4.052779423030615780e-01
3.470221039147529107e-01
2.835442810692537785e-01
2.153010361804021944e-01
1.428320997976108564e-01
6.675476704367538927e-02
-1.224274319734542510e-02
-9.314880345391604588e-02
-1.751893756000060254e-01
-2.578163956023501457e-01
-3.402277541691898777e-01
-4.216154896954221187e-01
-5.011778905947704699e-01
-5.781299187564127307e-01
-6.517119358953851194e-01
-7.210567668962633014e-01
-7.853323248073991181e-01
-8.442367433275878019e-01
-8.972373147838008656e-01
-9.438659430792800675e-01
-9.837244921664389796e-01
-1.016488227925541166e+00
-1.041907001178074221e+00
-1.059774103586568206e+00
-1.069828690772131941e+00
-1.072271576233287282e+00
-1.067135049969324845e+00
-1.054500896382763120e+00
-1.034498042484479186e+00
-1.007300453961233799e+00
-9.731247823523671014e-01
-9.322273938354588285e-01
-8.847840100576944700e-01
-8.312748611244211716e-01
-7.720605274613182578e-01
-7.075043132918865663e-01
-6.379820229400126053e-01
-5.638822854656833083e-01
-4.856076428268421008e-01
-4.035760907814280318e-01
-3.181263532310883435e-01
-2.297856284557390771e-01
-1.390789076252669509e-01
-4.651762577546035560e-02
4.736275958710091383e-02
1.420017256460673616e-01
2.368132785588005773e-01
3.311861587258732031e-01
4.245281000933855964e-01
5.161977132494457443e-01
6.054660768455339959e-01
6.916044605634690257e-01
7.738617878176928810e-01
8.514732410997066792e-01
9.236706595734817116e-01
9.896942108084051393e-01
1.048783672512326515e+00
1.100254059679424135e+00
1.143500244751223249e+00
1.177899627407462013e+00
1.202889828045027532e+00
1.217986303588136199e+00
1.222799853575007978e+00
1.217052907166762843e+00
1.200563472502000462e+00
1.173213143117359136e+00
1.135358186313902840e+00
1.087266537382564957e+00
1.029342272101022360e+00
9.621314176675566099e-01
8.863250875867968448e-01
8.027586485986225595e-01
7.124059886375379014e-01
6.161474627739156329e-01
5.155153482593813896e-01
4.118201331508352658e-01
3.064018227645278758e-01
2.006284424663414001e-01
9.587756998024216104e-02
-6.483513976360974485e-03
-1.051195635796465799e-01
-1.988998972495082673e-01
-2.864561788716219470e-01
-3.666361090311481830e-01
-4.384940859264951363e-01
-5.012485726451187951e-01
-5.542953402294767962e-01
-5.972167857517275413e-01
-6.297874443223763219e-01
-6.520194114262438667e-01
-6.640882435290919039e-01
-6.662947346645029523e-01
-6.591352700877260995e-01
-6.432648709872923476e-01
-6.194850894354070325e-01
-5.887288002194600578e-01
-5.520413484646813362e-01
-5.105302001569992365e-01
-4.654832690757506053e-01
-4.182077792175784015e-01
-3.698663261536412894e-01
-3.215633393868416734e-01
-2.743316975564917826e-01
-2.291229115401755556e-01
-1.867989030130728090e-01
-1.480909445067545849e-01
-1.136476426494371361e-01
-8.426152672967451851e-02
-6.026096181346485281e-02
-4.179038026749906654e-02
-2.882506860281607713e-02
-2.119210688971346138e-02
-1.859439126086246882e-02
-2.063484111886696240e-02
-2.667202128069279948e-02
-3.651202568811310473e-02
-4.954356424679781656e-02
-6.507542237421441722e-02
-8.237527774770875277e-02
-1.006986322207387846e-01
-1.193170010343647114e-01
-1.375433927886783869e-01
-1.546129031184247660e-01
-1.701278756172511786e-01
-1.836888563378845374e-01
-1.949319661456786756e-01
-2.035836881162212120e-01
-2.094623851359274092e-01
-2.124768306273080443e-01
-2.126222169639107040e-01
-2.099401318981315434e-01
-2.045036209503688640e-01
-1.965648395799293457e-01
-1.864578711927742938e-01
-1.745788196611754994e-01
-1.613618746056953712e-01
-1.472543029501628131e-01
-1.326928329073030211e-01
-1.181396375586107605e-01
-1.038344873869086887e-01
-8.994848905004913797e-02
-7.682153908958967714e-02
-6.477220727442412063e-02
-5.407597818182588445e-02
-4.494380206320309351e-02
-3.750413237604956207e-02
-3.183600148724457374e-02
-2.789572495390876469e-02
-2.522056226583873142e-02
-2.365381716248659769e-02
-2.301970370689594009e-02
-2.311778026376318934e-02
-2.371597922449826881e-02
-2.454490541846532370e-02
-2.529579226685588905e-02
-2.569069500607061574e-02
-2.514505632377089794e-02
-2.331746129498070766e-02
-1.990714485066392286e-02
-1.465450241272043229e-02
-7.343182302232913357e-03
2.199423270766691450e-03
1.410231287813495070e-02
2.847423454354115757e-02
4.531632020983578091e-02
6.461705788190352795e-02
8.632984012821116881e-02
1.103572949122358648e-01
1.365451246641663230e-01
1.646772047416409646e-01
1.944732918814054412e-01
2.255749480383817951e-01
2.574544090301641441e-01
2.896871894549639670e-01
3.218793734473590074e-01
3.536383512270837581e-01
3.845664644068013671e-01
4.142533115278969058e-01
4.422694197702402574e-01
4.681015565018513125e-01
4.911196194388373071e-01
5.109470769394559575e-01
5.272195017582271825e-01
5.396270256270269128e-01
5.479126795935329586e-01
5.518680934083028955e-01
5.513282261762172398e-01
5.461459733862985555e-01
5.361174696194669353e-01
5.212776408322934429e-01
5.016649931071944790e-01
4.773824602850021970e-01
4.485979093169604193e-01
4.155433891523043766e-01
3.785128775421492398e-01
3.378583399139615806e-01
2.941431401247001087e-01
2.476787039448573868e-01
1.989176685951548895e-01
1.483343708321026577e-01
9.641833119031364974e-02
4.367075807214366306e-02
-9.398459877403305893e-03
-6.227426369802793044e-02
-1.141743197294458750e-01
-1.647638218839146962e-01
-2.136724218992480662e-01
-2.605061083717212789e-01
-3.049183656133133691e-01
-3.466139594947446612e-01
-3.853504078602152938e-01
-4.209374126656326154e-01
-4.531150925239655902e-01
-4.818379057974440660e-01
-5.071617492113462689e-01
-5.291034068069997431e-01
-5.477189738376651018e-01
-5.631000997377226813e-01
-5.753692663835746623e-01
-5.846737370361121400e-01
-5.911925492560000661e-01
-5.951346152552622337e-01
-5.966476761163895803e-01
-5.958644474620087284e-01
-5.928876556962636712e-01
-5.877858818726154899e-01
-5.805915996101813636e-01
-5.713010104566215164e-01
-5.598973850024312471e-01
-5.463985160526853013e-01
-5.306101364108674057e-01
-5.123693154400774663e-01
-4.914806531136239331e-01
-4.677258420957978169e-01
-4.408755125895862381e-01
-4.107028455926154398e-01
-3.769983591208642681e-01
-3.396297800720127213e-01
-2.984344583928422723e-01
-2.533314658149492526e-01
-2.043093202572414668e-01
-1.514385186877618694e-01
-9.488239539998118144e-02
-3.490578623101861511e-02
2.811895796327837024e-02
9.371154212157876973e-02
1.612810341230039857e-01
2.301260013855517261e-01
2.994451598007853432e-01
3.683487630719110562e-01
4.358736394773943257e-01
5.010014001491781555e-01
5.626793549112996118e-01
6.198019782220848262e-01
6.713639160403430672e-01
7.163853079304920435e-01
7.539096855481896009e-01
7.830660953566355165e-01
8.030968951714857473e-01
8.133836137156628121e-01
8.134696315885753259e-01
8.030104816676509882e-01
7.819519903515435022e-01
7.505339894301878978e-01
7.090644746571209689e-01
6.580426940307737560e-01
5.981590933811560262e-01
5.302904425035401825e-01
4.554891842045986627e-01
3.749324774112863246e-01
2.899421065330305969e-01
2.021328247874030204e-01
1.130019996643126523e-01
2.406552927543269618e-02
-6.316958103785472178e-02
-1.472318134386262356e-01
-2.267114276398438100e-01
-3.002870099654500469e-01
-3.667136838253010622e-01
-4.248826250843851238e-01
-4.739310741938329019e-01
-5.132024804567834053e-01
-5.422552417566074423e-01
-5.608647831737234579e-01
-5.690198162041327778e-01
-5.669138916332617795e-01
-5.547611318266912894e-01
-5.332435055492260600e-01
-5.031579848956765355e-01
-4.654191413822226786e-01
-4.210690853380575360e-01
-3.712496363657595833e-01
-3.171720171171684699e-01
-2.600851216739627492e-01
-2.010725215460109350e-01
-1.414746376932414229e-01
-8.259906135616207346e-02
-2.555750457864259736e-02
2.864203647819072926e-02
7.910951631298217268e-02
1.250836183667210499e-01
1.659397400110615706e-01
2.012667172739087684e-01
2.306702987074264743e-01
2.538411617374803364e-01
2.707677503193146595e-01
2.815945389246602981e-01
2.866018421536460359e-01
2.861819714861660313e-01
2.808141269634069626e-01
2.710361603480576087e-01
2.573241990394991574e-01
2.402688243745379759e-01
2.205592942695138170e-01
1.989097965436634752e-01
1.760323585704467175e-01
1.526091534135210481e-01
1.292666714249507409e-01
1.065499160194542105e-01
8.471158918381385683e-02
6.420267956571054646e-02
4.535621169752216547e-02
2.843894585418889343e-02
1.364564450971562058e-02
1.093534288841123935e-03
-9.181931204670609400e-03
-1.722875350512191248e-02
-2.335130078829668679e-02
-2.763802601522298910e-02
-3.028797204817199745e-02
-3.157036784399303714e-02
-3.178173938451853142e-02
-3.123427955775266371e-02
-3.024516326342033268e-02
-2.912723948741936797e-02
-2.831207240603570222e-02
-2.794032891208424879e-02
-2.818309111873763817e-02
-2.929625589411458120e-02
-3.151685917249772567e-02
-3.505041404143287298e-02
-4.005917477564104046e-02
-4.665304646997070481e-02
-5.497269569141327583e-02
-6.491762072789707128e-02
-7.628758840182155165e-02
-8.902910764268159860e-02
-1.030751988810677394e-01
-1.183392917810835443e-01
-1.347083380871207381e-01
-1.520369361630088678e-01
-1.701567830637169265e-01
-1.888201545588915065e-01
-2.077165475290294050e-01
-2.266085392933439857e-01
-2.452588988397950975e-01
-2.634308378207257384e-01
-2.808870274201968886e-01
-2.973880244731189060e-01
-3.126802405032194088e-01
-3.263179012793623879e-01
-3.382952396813089235e-01
-3.483795001046465223e-01
-3.563371831202520323e-01
-3.619386925459585069e-01
-3.649629404767605889e-01
-3.652013219715369852e-01
-3.624608241261039754e-01
-3.562640807490504713e-01
-3.467716482979206760e-01
-3.339329067079631064e-01
-3.176551001227493343e-01
-2.978669998086637682e-01
-2.745252764380787802e-01
-2.476204704271295909e-01
-2.171820681722373692e-01
-1.831369657705955445e-01
-1.456841178554666993e-01
-1.050931201176893426e-01
-6.160714489582969078e-02
-1.552136165696656536e-02
3.281724975595913529e-02
8.301117085324848099e-02
1.346147144829927533e-01
1.871183083400252689e-01
2.400155887969071811e-01
2.927691057001930441e-01
3.447702148766713659e-01
3.953823005749291797e-01
4.439524099811065216e-01
4.898238798345950218e-01
5.323493732200814677e-01
5.708615695216505692e-01
6.047116931913307791e-01
6.334996346005007384e-01
6.567478293308334214e-01
6.740440149630202438e-01
6.850532737435737207e-01
6.895288232315492927e-01
6.873209634759546161e-01
6.783781733311916584e-01
6.626838137541882778e-01
6.405051385488829130e-01
6.121320653199032735e-01
5.779597300764499623e-01
5.384826301271429250e-01
4.942862848260463626e-01
4.460365301616480704e-01
3.944666535015741160e-01
3.403518732368669419e-01
2.845176761753307471e-01
2.278108744967420607e-01
1.710799257841163767e-01
1.151569996629547149e-01
6.083901973042205730e-02
8.869484124389365523e-03
-4.007829470887791512e-02
-8.543501480794052361e-02
-1.267106686380663483e-01
-1.635063615378982704e-01
-1.955399005969601922e-01
-2.226440052225800437e-01
-2.447687654426331794e-01
-2.619812003070496331e-01
-2.744616678835781753e-01
-2.825179957264601360e-01
-2.865529467289768539e-01
-2.870042833118718328e-01
-2.843864174925303523e-01
-2.792582535821979683e-01
-2.722068769483753092e-01
-2.638309732564378951e-01
-2.547242319647587405e-01
-2.454466062173990826e-01
-2.365339632908495526e-01
-2.285119020405744494e-01
-2.217875340185986865e-01
-2.166843805694823322e-01
-2.134357293395487687e-01
-2.121808198706842397e-01
-2.129636991689146941e-01
-2.157230883173530678e-01
-2.202140187783859504e-01
-2.263811920154657209e-01
-2.339255763228618445e-01
-2.424762326268404822e-01
-2.516067432503549806e-01
-2.608533507587162403e-01
-2.697336383090824241e-01
-2.777647375630682425e-01
-2.844121318260551812e-01
-2.893672149454832865e-01
-2.922402259450589401e-01
-2.926704299604406811e-01
-2.903565421150178238e-01
-2.850724292638269208e-01
-2.766804969939640202e-01
-2.651413605100199633e-01
-2.505922078084709126e-01
-2.332199389455056060e-01
-2.132301035096750563e-01
-1.909165011253642352e-01
-1.666344203911717670e-01
-1.407943655370084424e-01
-1.138549784921066010e-01
-8.631449138190547266e-02
-5.881350587831100929e-02
-3.190911232485744292e-02
-5.997798118233347957e-03
1.843504340646214684e-02
4.094557581551025449e-02
6.114671764450554936e-02
7.872096479276585734e-02
9.343011548263312205e-02
1.050642025511588640e-01
1.135395597866714901e-01
1.190566259402462135e-01
1.217031594726774857e-01
1.216312347861750881e-01
1.190598102085508314e-01
1.142760684013255645e-01
1.076338409433649501e-01
9.954103324485570614e-02
9.049432720216148140e-02
8.111569208502941719e-02
7.185324545566990073e-02
6.311495076360984502e-02
5.526308981461558467e-02
4.861210302155767604e-02
4.342811415023130339e-02
3.992840328033995384e-02
3.837641930457183492e-02
3.889971011540244855e-02
4.148931598684217625e-02
4.604673711514447459e-02
5.238518188848340085e-02
6.023994269840755172e-02
6.928209326475291696e-02
7.913428373831800366e-02
8.947520807847404722e-02
9.983941028898372927e-02
1.097466363048494320e-01
1.187604821432870356e-01
1.264677059680565652e-01
1.324921966613386015e-01
1.365082751910424719e-01
1.382531532453332435e-01
1.375880456979387823e-01
1.343710126059307342e-01
1.285282532335641215e-01
1.201543755340129249e-01
1.094490120759294000e-01
9.671057888205421282e-02
8.232645841735851400e-02
6.676043794659584918e-02
5.055832515606495381e-02
3.428550386899197749e-02
1.848330376616842685e-02
3.780490077912406193e-03
-9.190999565279142983e-03
-1.981854206628371612e-02
-2.753158760636371591e-02
-3.182357806074156970e-02
-3.226497338764319767e-02
-2.850505514107797705e-02
-2.041541538747290718e-02
-7.905484962177068003e-03
8.991264100070747375e-03
3.011119457351847661e-02
5.515793164009048094e-02
8.370390588191928272e-02
1.151963800323222986e-01
1.490286083500474146e-01
1.843280941935949713e-01
2.202485878931008945e-01
2.559041492917942806e-01
2.903798992005111601e-01
3.227521838517783959e-01
3.521095556561833484e-01
3.775745378056530321e-01
3.983583871100698226e-01
4.136523744222533883e-01
4.228043429536659237e-01
4.253157745340016005e-01
4.208330048851656180e-01
4.091553040482684422e-01
3.902388064148320512e-01
3.641967214543759823e-01
3.312788623846965042e-01
2.918819051299608724e-01
2.465810719203345436e-01
1.960774523581004791e-01
1.411907693796606855e-01
8.283952059075963548e-02
2.201836708178252222e-02
-4.022643008343623067e-02
-1.028525440598329482e-01
-1.648193650388176945e-01
-2.250048689777547906e-01
-2.823987516303025913e-01
-3.360602717369921000e-01
-3.851377562479103567e-01
-4.288856410753549286e-01
-4.666787799726321850e-01
-4.980323970045069659e-01
-5.226433460946229292e-01
-5.402299200488384079e-01
-5.507221593962833284e-01
-5.541932639853974774e-01
-5.508528210607555042e-01
-5.410368406756380644e-01
-5.251950575030260859e-01
-5.038759905988843268e-01
-4.777325342666247088e-01
-4.474341500502233004e-01
-4.137175057441551673e-01
-3.773484647110730839e-01
-3.391011213068613195e-01
-2.997395514010178230e-01
-2.600007412013891628e-01
-2.205791198670766506e-01
-1.821335554660378775e-01
-1.452097863766774188e-01
-1.102937239325984808e-01
-7.780101276540751787e-02
-4.806236240827341938e-02
-2.132080765378127976e-02
2.268592792814837483e-03
2.263658115153937764e-02
3.977350360353042874e-02
5.378825711192027070e-02
6.485657539030575958e-02
7.317951679704623458e-02
7.899999255845059631e-02
8.259417870035827558e-02
8.426295661422363026e-02
8.432332349498439239e-02
8.310314815655564513e-02
8.094060479479117665e-02
7.814373644633244853e-02
7.499935444786597072e-02
7.176677255370965403e-02
6.867389297771211987e-02
6.591488419060630155e-02
6.364924981556081829e-02
6.201015292926958383e-02
6.113762430864609632e-02
6.103521943369169533e-02
6.172152365381292083e-02
6.318534317836156655e-02
6.538931431759459345e-02
6.827406037250492721e-02
7.176270077029739403e-02
7.576546152256810607e-02
8.018089342011851250e-02
8.493488866327988940e-02
8.991556657292297527e-02
9.500596160037363958e-02
1.000899772968506379e-01
1.050569436790301237e-01
1.098054702869731142e-01
1.142462602932917820e-01
1.182006819210192627e-01
1.217322302757793684e-01
1.248343015782048676e-01
1.274553788877712535e-01
1.295465100361470057e-01
1.310650684512140174e-01
1.319782119179736535e-01
1.322653514982785605e-01
1.318408421441907841e-01
1.307673634913330551e-01
1.291418325892886021e-01
1.269809056743137488e-01
1.242998284097000389e-01
1.211145966395931611e-01
1.174444621397856270e-01
1.133142225522034974e-01
1.087727543082441517e-01
1.038678419694575028e-01
9.860900260460077338e-02
9.304855405420589531e-02
8.724487597670867178e-02
8.125978560065756640e-02
7.515606248135293932e-02
6.899546995875725786e-02
6.287386111626719343e-02
5.697804564517113673e-02
5.111326015035690812e-02
4.532997948320999920e-02
3.968652871258394887e-02
3.424300331208410264e-02
2.905486149252053951e-02
2.416730142234955331e-02
1.961123546387099140e-02
1.558783882497473058e-02
1.183596748154615817e-02
8.330527101201494131e-03
5.059564811331703112e-03
2.009574667986458764e-03
-8.383610556984272396e-04
-3.512038034931813830e-03
-6.050398651816423987e-03
-8.474923314610806682e-03
-1.090442913265530188e-02
-1.341301745114436249e-02
-1.605356176503042534e-02
-1.887166015794755278e-02
-2.190538593884045621e-02
-2.518548681316789065e-02
-2.873567647367315098e-02
-3.261779452214313979e-02
-3.683887608738388442e-02
-4.135425415994085224e-02
-4.613767582375192383e-02
-5.114869946298702952e-02
-5.633308132820517150e-02
-6.162389539906810987e-02
-6.694333375512218076e-02
-7.223205803394636138e-02
-7.741575196692201954e-02
-8.234305780987138945e-02
-8.690944761282731745e-02
-9.101199699087889061e-02
-9.455176817545868362e-02
-9.743619694391562891e-02
-9.958152946685423779e-02
-1.009189401724265855e-01
-1.013981946224859348e-01
-1.009535529451125735e-01
-9.956287237918289013e-02
-9.722581188125055396e-02
-9.396394279668097982e-02
-8.982014755076023205e-02
-8.485745552955080429e-02
-7.915747964675692860e-02
-7.283051295380837953e-02
-6.596325297474463223e-02
-5.868490212571975118e-02
-5.113891992142978460e-02
-4.347851394309714540e-02
-3.586242371869901441e-02
-2.845054459949670697e-02
-2.139959947134434382e-02
-1.490340256415253681e-02
-9.054122194385318123e-03
-3.958459413307794349e-03
2.765804449594615948e-04
3.562130005107743379e-03
5.830556175298853318e-03
7.037932911181725773e-03
7.165757607121007143e-03
6.174541170319577423e-03
4.123188260833945441e-03
1.115930054919190076e-03
-2.758079889393121303e-03
-7.387883336127817023e-03
-1.264200111518727111e-02
-1.837034227729324523e-02
-2.440684298135771188e-02
-3.059172364495240520e-02
-3.673847415563655933e-02
-4.261771077255407242e-02
-4.804003083072663077e-02
-5.282365133252169692e-02
-5.679754067430048403e-02
-5.980427269278423830e-02
-6.170277769412190610e-02
-6.236957392637697967e-02
-6.168750611886229113e-02
-5.958506887522727058e-02
-5.602511687442363747e-02
-5.100447997508097964e-02
-4.455369654025089637e-02
-3.673569645781821907e-02
-2.764368576052371809e-02
-1.739853292260222506e-02
-6.092702743503796911e-03
6.066204933769914209e-03
1.887759482702959166e-02
3.212148482095314450e-02
4.556275565781842812e-02
5.895697512560508363e-02
7.205666652127909466e-02
8.461768912062815617e-02
9.644791787414035145e-02
1.073040036270755115e-01
1.169658455145745901e-01
1.252447733182721346e-01
1.319779074978674471e-01
1.370325042859305287e-01
1.403097802928825744e-01
1.417480127315597638e-01
1.413525281892670238e-01
1.391343974886123935e-01
1.351264287720837232e-01
1.294172848643376506e-01
1.221311712192424265e-01
1.134252055758050992e-01
1.034861146582415070e-01
9.252630773786414686e-02
8.079778399440332159e-02
6.855525853524664648e-02
5.602467230431884548e-02
4.346783762600690826e-02
3.114554014958298769e-02
1.931080333467628460e-02
8.202380347398702254e-03
-1.961233068990896489e-03
-1.098136541681343434e-02
-1.868887105547891239e-02
-2.498464807076532235e-02
-2.976916387040724754e-02
-3.297678024978634159e-02
-3.457845808407459393e-02
-3.458380145997241861e-02
-3.304208476194545052e-02
-3.004195003655240823e-02
-2.574206888915440625e-02
-2.029313994068671426e-02
-1.387105257686116651e-02
-6.669699987451832394e-03
1.102631932678383928e-03
9.226603835621913566e-03
1.747519588325450318e-02
2.561738933238257021e-02
3.336895472281033170e-02
4.052932228143105858e-02
4.690965195475187144e-02
5.233179670997911009e-02
5.664287290141018644e-02
5.971769240608608420e-02
6.146023772159484033e-02
6.180433214723364543e-02
6.069095718805003065e-02
5.811625457697475877e-02
5.412250607611010511e-02
4.876927320438406016e-02
4.214475028733402628e-02
3.436331024543349405e-02
2.556248252681424943e-02
1.589940773802040255e-02
5.557950005457439925e-03
-5.273530667618040076e-03
-1.642362244994412940e-02
-2.770290848648299803e-02
-3.892462207969731025e-02
-4.990880347497365227e-02
-6.048600134616548968e-02
-7.050046512109915675e-02
-7.980202605360409152e-02
-8.824178161340326398e-02
-9.576628169707261662e-02
-1.023023114126573457e-01
-1.077995005127512784e-01
-1.122309655843606452e-01
-1.155933121494719246e-01
-1.179059069252180875e-01
-1.192093448056054661e-01
-1.195607880933491352e-01
-1.190424153250079081e-01
-1.177421901235448237e-01
-1.157568424929147355e-01
-1.131886139492199322e-01
-1.101421004439772228e-01
-1.067212247468205255e-01
-1.030263328091157032e-01
-9.919855458843335194e-02
-9.527697810385912791e-02
-9.131880959880289694e-02
-8.737983532204987580e-02
-8.350055682492597831e-02
-7.970434303593837422e-02
-7.599636582592936285e-02
-7.236346294282962333e-02
-6.881155781765195545e-02
-6.526158906078659283e-02
-6.162602475665280438e-02
-5.783795710707670401e-02
-5.382599402163510544e-02
-4.951575696453460601e-02
-4.483154648038516904e-02
-3.969842471953781426e-02
-3.404418667741763299e-02
-2.778777732017534072e-02
-2.087469276399552681e-02
-1.327643800628351863e-02
-4.986497422992744455e-03
3.978828273718147332e-03
1.358050660187934064e-02
2.375754903269974502e-02
3.444096459528876025e-02
4.556887111331849038e-02
5.697476388177715595e-02
6.851017236616582795e-02
8.000912117958478009e-02
9.129181534178934521e-02
1.021691091350023645e-01
1.124475853414242249e-01
1.219361798802585939e-01
1.304972888510800011e-01
1.379083386518625831e-01
1.440044425660322036e-01
1.486402808437562728e-01
1.516943681768248842e-01
1.530728435679341581e-01
1.527126871181271051e-01
1.505842625792183365e-01
1.466851973658019059e-01
1.410675247735598270e-01
1.338105154592176826e-01
1.250254929485103139e-01
1.148561344002197171e-01
1.034758421886993740e-01
9.108422448624101109e-02
7.790277736515216489e-02
6.413713715777590030e-02
5.005472031096994817e-02
3.593600605508713575e-02
2.204187748683891432e-02
8.627184906648634188e-03
-4.065041929217060208e-03
-1.580921662618886558e-02
-2.640249563043228775e-02
-3.568660681682844782e-02
-4.352766372638803422e-02
-4.979071215999061190e-02
-5.439500524789034341e-02
-5.729649009515404290e-02
-5.848910400488281647e-02
-5.800524444967231769e-02
-5.591529074290495227e-02
-5.232538223108785386e-02
-4.738742895280104173e-02
-4.127865158600930312e-02
-3.418625630268467414e-02
-2.631394000320826793e-02
-1.787820719124501648e-02
-9.104621395751019003e-03
-2.238369074414157814e-04
8.533790219773434993e-03
1.695208092902755065e-02
2.477539322870166844e-02
3.180695873530121204e-02
3.787408462690352445e-02
4.283030600498760609e-02
4.655661433534695470e-02
4.896202861576267468e-02
4.998377059468640804e-02
4.960036309433289714e-02
4.777480831809165218e-02
4.452962250364413815e-02
3.992357551415611633e-02
3.404473820202365969e-02
2.700694937906987156e-02
1.894577178790924146e-02
1.001422285172318127e-02
3.952245985036297493e-04
-9.753711781105707870e-03
-2.026252453914163115e-02
-3.094530373543056753e-02
-4.161545055507871738e-02
-5.208949309830598895e-02
-6.219065235451568668e-02
-7.175207085304645405e-02
-8.059782460999811993e-02
-8.858309456960776485e-02
-9.561806666540434430e-02
-1.016073332605157004e-01
-1.064760072865139628e-01
-1.101696231962214639e-01
-1.126534309933206190e-01
-1.139112604181180821e-01
-1.139337472830089931e-01
-1.127053635234084999e-01
-1.102892591014617979e-01
-1.067450887514787700e-01
-1.021491410191707194e-01
-9.659116150902333220e-02
-9.017081253521945505e-02
-8.299409201406204861e-02
-7.517090094793586752e-02
-6.680887328675726156e-02
-5.798998745025572832e-02
-4.882980595209224922e-02
-3.944617955568200524e-02
-2.995627659123313927e-02
-2.047354031947781067e-02
-1.110489435374932034e-02
-1.948462948613775836e-03
6.861270002541604990e-03
1.531073409841967464e-02
2.334293172899350177e-02
3.089769914673511086e-02
3.792239383788258839e-02
4.437310503351898916e-02
5.021566723543273436e-02
5.542631422704985544e-02
5.996463484187240789e-02
6.384921793771902720e-02
6.710495333774797733e-02
6.974900751144885724e-02
7.180570607342905143e-02
7.330614040924002262e-02
7.428771386410876199e-02
7.479356550835199180e-02
7.488078191585034737e-02
7.459998272832482624e-02
7.399380863775795181e-02
7.311846289289493372e-02
7.203102381081666339e-02
7.078787619338740289e-02
6.944320549662050257e-02
6.804761809394413441e-02
6.665634510865442452e-02
6.532219752790520417e-02
6.404777238447101340e-02
6.285597844581647387e-02
6.176152320869891799e-02
6.076975148476629340e-02
5.987567778575945965e-02
5.906335489167549579e-02
5.830384901316045670e-02
5.753338383919433946e-02
5.672948262573137418e-02
5.584104102733643965e-02
5.481099124446951049e-02
5.357736260164518843e-02
5.207432423914299530e-02
5.023331202255480743e-02
4.798440173420828736e-02
4.517520405667981714e-02
4.180573450968796956e-02
3.784126725230129579e-02
3.324735691555302797e-02
2.800282036067124405e-02
2.210070098529602969e-02
1.554866538094726129e-02
8.369002694863436273e-03
5.481952792896444904e-04
-7.847356027313389173e-03
-1.671720026790516136e-02
-2.596279783303301336e-02
-3.546824007674875129e-02
-4.510277831549208000e-02
-5.472398481987700292e-02
-6.418135333971543288e-02
-7.331195454780130294e-02
-8.197177552974835302e-02
-9.001980263432074469e-02
-9.730488477935737845e-02
-1.036831110413407031e-01
-1.090221329949876000e-01
-1.132052391409479331e-01
-1.161349983823639354e-01
-1.177131007752749842e-01
-1.178597590224500502e-01
-1.166205659654436927e-01
-1.140063275138270271e-01
-1.100554343225464138e-01
-1.048341515669180407e-01
-9.843604608363644426e-02
-9.098048241056741481e-02
-8.260431125075454184e-02
-7.341269138008302275e-02
-6.365644670338045652e-02
-5.353545214091036397e-02
-4.325774437428572122e-02
-3.303472769575099832e-02
-2.307613962785046852e-02
-1.358487374576837492e-02
-4.751802305075670738e-03
3.272342360022298998e-03
1.031894835659458685e-02
1.625383672416136002e-02
2.097320425024145132e-02
2.440447855265368698e-02
2.650910289979342346e-02
2.728447744259075020e-02
2.676489342093051407e-02
2.502691055490653682e-02
2.218672843385736601e-02
1.837779462678307968e-02
1.375896959177547174e-02
8.511888473784891967e-03
2.837833998406267925e-03
-3.045878329772503702e-03
-8.910163657775771809e-03
-1.451014404321847827e-02
-1.959158452295095901e-02
-2.393445922673897996e-02
-2.733429035999077744e-02
-2.960965688120777151e-02
-3.060594439695629027e-02
-3.019827098400302071e-02
-2.829378488202730080e-02
-2.482849882100279792e-02
-1.975772493315434281e-02
-1.310533265936336504e-02
-4.935469520861270401e-03
4.645142322910985819e-03
1.548988531042450392e-02
2.741613132274057021e-02
4.021007785328789552e-02
5.363094707409846174e-02
6.741575035419393458e-02
8.130828142694646044e-02
9.502425387862108164e-02
1.082754948335620387e-01
1.207770110165485439e-01
1.322540229015602420e-01
1.424487478530547246e-01
1.511267479032501748e-01
1.580424633838912463e-01
1.630640250696729077e-01
1.660681641685572141e-01
1.669689596292643907e-01
1.657242751524535540e-01
1.623365310416967355e-01
1.568522512513165490e-01
1.493604773753639259e-01
1.399573182735860677e-01
1.288210110377164819e-01
1.161703712070209643e-01
1.022427173449067250e-01
8.729959918398728924e-02
7.161966225185174839e-02
5.549103339554003339e-02
3.920357976710236309e-02
2.303313623910898181e-02
7.235255757878950901e-03
-7.927645127446970169e-03
-2.221402629159089509e-02
-3.540744254357831855e-02
-4.732259089739552366e-02
-5.781060225405317693e-02
-6.676317639909513935e-02
-7.411397792950807917e-02
-7.986062513908212535e-02
-8.403285569827582957e-02
-8.667997158167649319e-02
-8.788314980547504152e-02
-8.775391248745378903e-02
-8.643212935511393469e-02
-8.408327452765096410e-02
-8.089611038021372880e-02
-7.709970362857099246e-02
-7.290492218040092731e-02
-6.851846523001306477e-02
-6.413909653952955259e-02
-5.995333024771341834e-02
-5.613191514287829004e-02
-5.282697097471952818e-02
-5.016958174296414635e-02
-4.830524017384174584e-02
-4.728980611195850864e-02
-4.716733144960802426e-02
-4.795368721162202724e-02
-4.963381609013602785e-02
-5.216289211270979526e-02
-5.546838121388104198e-02
-5.945289398883555482e-02
-6.400541382768425158e-02
-6.898137674985845014e-02
-7.422760662251409736e-02
-7.958615020571609133e-02
-8.489453237323664470e-02
-8.998935617742744031e-02
-9.470973355282744088e-02
-9.890062030367398338e-02
-1.023878829796403406e-01
-1.050340778384193513e-01
-1.067534264432200286e-01
-1.074591186061781417e-01
-1.070875548862741805e-01
-1.055987921617076303e-01
-1.029760880860035865e-01
-9.922475516656995009e-02
-9.434417129298912352e-02
-8.834216612367322419e-02
-8.134180242544485073e-02
-7.343768969140190839e-02
-6.474177293552725587e-02
-5.537982083898058960e-02
-4.548741023649312959e-02
-3.520565049535211849e-02
-2.467340411142767906e-02
-1.399742634511068166e-02
-3.332428352558386257e-03
7.182990006087857857e-03
1.741619234301024222e-02
2.724418148640311843e-02
3.655711032761543161e-02
4.526134729571153897e-02
5.328184696558588285e-02
6.053049321354905810e-02
6.703169771277221745e-02
7.276925849560181292e-02
7.773694821200534399e-02
8.194280933992598159e-02
8.540982027043526881e-02
8.817610172960410608e-02
9.029441113374520045e-02
9.179607889932234199e-02
9.280338975566168602e-02
9.341553936725685570e-02
9.371547963896355304e-02
9.378450234107464645e-02
9.370126266342468369e-02
9.354096483189647260e-02
9.337447468492840463e-02
9.327278564915465753e-02
9.330124203801158644e-02
9.350331905618329553e-02
9.391150006575228748e-02
9.454422962921468776e-02
9.540563425224315997e-02
9.648578064165200252e-02
9.776138462178034227e-02
9.921516199061887475e-02
1.008133982670274126e-01
1.024578163031268085e-01
1.040788296077006098e-01
1.055998984535389956e-01
1.069385253702846983e-01
1.080074463122521478e-01
1.087161386378912298e-01
1.089764834556002648e-01
1.087074534892566446e-01
1.077921864181545786e-01
1.061522832627487256e-01
1.037203005722237142e-01
1.004404859844243020e-01
9.626907386524075072e-02
9.117438695293361706e-02
8.513699562819973532e-02
7.811333763275879472e-02
7.012760378076984824e-02
6.121473423349563237e-02
5.142844692273634138e-02
4.084132474581930045e-02
2.954261184249989611e-02
1.763551827815426284e-02
5.234386379114796574e-03
-7.574899502019898263e-03
-2.065938234174366159e-02
-3.386192472568161360e-02
-4.702400960588671436e-02
-5.998080228757404764e-02
-7.256553582082468645e-02
-8.461417777882171420e-02
-9.596999252714302764e-02
-1.064931121586565194e-01
-1.160733536960549539e-01
-1.245905229549414822e-01
-1.319338944295154192e-01
-1.380079202646808945e-01
-1.427357487418423332e-01
-1.460625237663469300e-01
-1.479581237323888132e-01
-1.484128183263356271e-01
-1.474599824717970908e-01
-1.451661280051301517e-01
-1.416003527516390970e-01
-1.368519999524799302e-01
-1.310299669225131192e-01
-1.242616698120092289e-01
-1.166914970472654606e-01
-1.084786946761493592e-01
-9.979900564240062888e-02
-9.083329132115867954e-02
-8.176184981147123498e-02
-7.276337778869536310e-02
-6.401115893028337667e-02
-5.566942629847725088e-02
-4.788996056811040125e-02
-4.080896249180015339e-02
-3.456693788353481372e-02
-2.923068054969316099e-02
-2.487256202759131202e-02
-2.154247715594694024e-02
-1.926482759139902870e-02
-1.803711153226699587e-02
-1.782922404688053880e-02
-1.858362647870014095e-02
-2.022259905489925610e-02
-2.261604248621472066e-02
-2.563557543524074347e-02
-2.914382813361194799e-02
-3.299199824492485972e-02
-3.702172365510970203e-02
-4.106709100743691915e-02
-4.495704916971986209e-02
-4.850414280599333466e-02
-5.151781986389866036e-02
-5.384791058060256486e-02
-5.535851701746832831e-02
-5.593398354112768395e-02
-5.547987189554979409e-02
-5.392317866687756922e-02
-5.121215923434414841e-02
-4.730766769187610271e-02
-4.217268314433041121e-02
-3.583296121457867772e-02
-2.834110680240389465e-02
-1.977829965437718357e-02
-1.025124562603953703e-02
1.116707143337549281e-04
1.116466378101034669e-02
2.274543869575416585e-02
3.468747206586430404e-02
4.684183287368975934e-02
5.902476280851707419e-02
7.104861872160836422e-02
8.272663350339262700e-02
9.387771024250095298e-02
1.043309781557030941e-01
1.139298882787105199e-01
1.224987822045651986e-01
1.299686312713732583e-01
1.362456138942155781e-01
1.412568433957804293e-01
1.449531710888837255e-01
1.473103580899459419e-01
1.483296133848014120e-01
1.480374291020200017e-01
1.464829635225571580e-01
1.437411631787509358e-01
1.399073220688331898e-01
1.350944724010728348e-01
1.294308887645269357e-01
1.230568660808926268e-01
1.161213235051940934e-01
1.087782870199544283e-01
1.012207126601631785e-01
9.358191937935221583e-02
8.597581559398216611e-02
7.853737327475628083e-02
7.138988633521384242e-02
6.464130901764446324e-02
5.838117105473601687e-02
5.267824914047766066e-02
4.760960102133825894e-02
4.320301198807871557e-02
3.940028009083622329e-02
3.617869101398134279e-02
3.349680952875568052e-02
3.129446070285308440e-02
2.949320281263702673e-02
2.799756717664952585e-02
2.670037903280639627e-02
2.547473812522185049e-02
2.416998625397519251e-02
2.266303030607673755e-02
2.083728428677188854e-02
1.858489089039951775e-02
1.580837822621609934e-02
1.242205028299052209e-02
8.353436478430217860e-03
3.476511575488211610e-03
-2.200721629624063924e-03
-8.680237428308347492e-03
-1.593648169127503608e-02
-2.391660766843447389e-02
-3.254253785783303710e-02
-4.171396605324798057e-02
-5.131190924340617993e-02
-6.125704983997558306e-02
-7.137861494280513253e-02
-8.149551542293685669e-02
-9.142742705966445949e-02
-1.009877780517597634e-01
-1.099891090678116884e-01
-1.182486895089389228e-01
-1.255940906709731852e-01
-1.318721256111430040e-01
-1.369552204068499313e-01
-1.407262082133688419e-01
-1.430909181602493807e-01
-1.439816728680861913e-01
-1.433598084057972621e-01
-1.412174604137856337e-01
-1.375785126509009859e-01
-1.324852952359308056e-01
-1.260213180427848245e-01
-1.183265347023000486e-01
-1.095458678816127462e-01
-9.984740986771763194e-02
-8.941889734202207451e-02
-7.846362863288731948e-02
-6.719590346572069939e-02
-5.583487788888986947e-02
-4.459397767728041917e-02
-3.369428667407111527e-02
-2.334778053482668148e-02
-1.375380125945671606e-02
-5.093869665257395180e-03
2.473117507625976347e-03
8.815092991619593796e-03
1.383009871199831521e-02
1.741970061554762306e-02
1.960005281772930416e-02
2.036791335344523279e-02
1.975108848592747532e-02
1.780930870880973252e-02
1.463454224963989594e-02
1.035044182844730050e-02
5.110688081055254905e-03
-9.250079100807986334e-04
-7.509297295096154824e-03
-1.441891509186092948e-02
-2.143280915889876279e-02
-2.832750198854767226e-02
-3.488015127853780206e-02
-4.087155990778764542e-02
-4.608944738426941357e-02
-5.032562124763341471e-02
-5.337310343608825391e-02
-5.507310285846867687e-02
-5.530063096575802556e-02
-5.396480509274514253e-02
-5.100979519118255257e-02
-4.641478553046407551e-02
-4.019324870001048794e-02
-3.238179474241933975e-02
-2.304181420405429850e-02
-1.229817577336625618e-02
-3.019531167282274399e-04
1.276465137154944064e-02
2.669244733706894329e-02
4.125016321608673819e-02
5.618990679582804015e-02
7.125270735044368642e-02
8.617844131782717576e-02
1.007065420422188495e-01
1.145773150884239477e-01
1.275411965100726186e-01
1.393641771797279605e-01
1.498328657451777624e-01
1.587590742162893476e-01
1.659835632550233642e-01
1.713646496094483052e-01
1.748263289129250164e-01
1.763174675997581375e-01
1.758258562405018155e-01
1.733782305024247627e-01
1.690393419394409791e-01
1.629101169856306541e-01
1.551249756326698870e-01
1.458656080059976268e-01
1.353007433510268476e-01
1.236380927704773536e-01
1.111080201702258768e-01
9.795319942763508481e-02
8.442253286305369253e-02
7.076508263479339145e-02
5.722419980898529185e-02
4.407869822222175438e-02
3.151177836695734369e-02
1.968292677933509288e-02
8.759626384580002784e-03
-1.117464581393176528e-03
-9.838195534066156850e-03
-1.732563635685331616e-02
-2.353761806324578681e-02
-2.843823126132126802e-02
-3.205902437225330304e-02
-3.450578439492141963e-02
-3.586672292295965681e-02
-3.625349366491364272e-02
-3.579879964705024592e-02
-3.465357789440354219e-02
-3.298358254345849089e-02
-3.096809188914419544e-02
-2.880783970899395210e-02
-2.667872627974572294e-02
-2.474791372987054233e-02
-2.316818897785460560e-02
-2.207488809481350164e-02
-2.158372320219034690e-02
-2.178930704595337733e-02
-2.276676435642863150e-02
-2.465025529082812139e-02
-2.738759578782610712e-02
-3.096177986057562989e-02
-3.532603595076926062e-02
-4.040590407710191456e-02
-4.610243352753605472e-02
-5.229625859656323456e-02
-5.885219783424151807e-02
-6.568353528850225109e-02
-7.259988007280414324e-02
-7.942153458488802886e-02
-8.597573227173677113e-02
-9.209140699793288976e-02
-9.760424877435536217e-02
-1.023616541138835379e-01
-1.062273382028779412e-01
-1.090842483744678681e-01
-1.108501242370471540e-01
-1.114582636642152819e-01
-1.108637476668768995e-01
-1.090478441108593266e-01
-1.060189172544002134e-01
-1.018126202222398441e-01
-9.649132798683657253e-02
-9.012835839139203553e-02
-8.283264341016614851e-02
-7.475792825724743296e-02
-6.605750987397891738e-02
-5.689891133643940058e-02
-4.745997535578282134e-02
-3.792468102471761165e-02
-2.847880365954685855e-02
-1.930811294960953911e-02
-1.058456999180234712e-02
-2.462125852910524663e-03
4.902100183718225909e-03
1.136591509705058185e-02
1.680640583242100014e-02
2.112392751231634280e-02
2.424543175879275217e-02
2.612411874105836918e-02
2.670988856266604330e-02
2.608995068583080251e-02
2.430602806934405169e-02
2.142313513095587055e-02
1.753024208843614179e-02
1.274066173245725145e-02
7.191751783199955977e-03
1.043600541510843758e-03
-5.544460970578344444e-03
-1.232907133582030260e-02
-1.910332738588318285e-02
-2.566687630944584908e-02
-3.182268728647714984e-02
-3.737950207805004060e-02
-4.215413614474593923e-02
-4.597393980794548668e-02
-4.866103094781465410e-02
-5.006661584346115690e-02
-5.008430284673238281e-02
-4.863122937987626737e-02
-4.565611148030374045e-02
-4.114023552534457756e-02
-3.509755188798185932e-02
-2.757402150302377258e-02
-1.862506040054961315e-02
-8.350172622848756401e-03
3.087032561920635427e-03
1.551936867588936571e-02
2.875543024111600066e-02
4.258304079357889266e-02
5.677329344213957046e-02
7.108514081544611840e-02
8.527502967643324494e-02
9.909887444874834750e-02
1.122950747347772060e-01
1.246262989983794589e-01
1.358701717366558037e-01
1.458237759358109731e-01
1.543076679456466260e-01
1.611693871157472147e-01
1.662864499703422261e-01
1.695652330291965437e-01
1.709481270948639275e-01
1.704180558834032244e-01
1.679955959315745095e-01
1.637381948184258029e-01
1.577384767208786787e-01
1.501217156986779655e-01
1.410425776031772604e-01
1.307050326976574306e-01
1.192813913070869120e-01
1.069845982858076278e-01
9.404479711617158566e-02
8.069929004387374483e-02
6.718667561812877165e-02
5.374113170704961084e-02
4.058701486794376312e-02
2.797798200979180125e-02
1.607060977971576030e-02
5.003975628452082824e-03
-5.083918214924557956e-03
-1.408296033374037068e-02
-2.191353722053660316e-02
-2.852819684365406200e-02
-3.391222950576977535e-02
-3.806086159394189705e-02
-4.102964257991445485e-02
-4.292509859648661191e-02
-4.384830628422500126e-02
-4.391995701348916370e-02
-4.327733271278655369e-02
-4.207098626996132185e-02
-4.046103487844732172e-02
-3.861974431331774427e-02
-3.673227431989484204e-02
-3.494293703739741186e-02
-3.339637415965514972e-02
-3.222129010886539552e-02
-3.152773389687623523e-02
-3.140524539553952998e-02
-3.192173167690447178e-02
-3.312859118605052111e-02
-3.511883053229414298e-02
-3.782251686457900608e-02
-4.120266981944434997e-02
-4.519681642885513967e-02
-4.971944638784382697e-02
-5.466537773919148691e-02
-5.991382463562077570e-02
-6.533286733371544697e-02
-7.083467735445236890e-02
-7.624363275081766367e-02
-8.140272830184490382e-02
-8.616239228069601241e-02
-9.037902213439404087e-02
-9.391947222880318857e-02
-9.666530365610873088e-02
-9.851658301012088115e-02
-9.939453426597519292e-02
-9.925482441416487445e-02
-9.806728364854373770e-02
-9.582278888344701595e-02
-9.253619904721456513e-02
-8.824655810491081886e-02
-8.301666362545563616e-02
-7.693194478396483960e-02
-7.009210673922647294e-02
-6.262366898022442285e-02
-5.467489990088442164e-02
-4.639788701973785595e-02
-3.795243951094656731e-02
-2.950235324957512298e-02
-2.121162466837583915e-02
-1.324069635976498141e-02
-5.752376441260189863e-03
1.105600834123894507e-03
7.233204613351857173e-03
1.251644140850832233e-02
1.685848709791495231e-02
2.018291267324045027e-02
2.243642805842700066e-02
2.359089951822889927e-02
2.363830284903136250e-02
2.256379363358877385e-02
2.049256447314920168e-02
1.749560972568145467e-02
1.366134539740654873e-02
9.095557338982774784e-03
3.921201197325893499e-03
-1.722319359705095070e-03
-7.680696928858359897e-03
-1.380409256798603018e-02
-1.987449759384373252e-02
-2.571610651147785906e-02
-3.116301873792690427e-02
-3.605776654318023494e-02
-4.025284953452499398e-02
-4.361198496861735246e-02
-4.601139947168100819e-02
-4.731471831685410412e-02
-4.743010246753476267e-02
-4.630150264042478397e-02
-4.389037600814262030e-02
-4.018503528299953442e-02
-3.520064232046630354e-02
-2.897844575709904863e-02
-2.158442038945384070e-02
-1.308201424223819596e-02
-3.580098963630744084e-03
6.761426216343119702e-03
1.778840306595278267e-02
2.933089314798961039e-02
4.120607613271617953e-02
5.322153172424431977e-02
6.517889852062611067e-02
7.688439844556320402e-02
8.814487261700536258e-02
9.875093007833492253e-02
1.085213593199957083e-01
1.172903531869784188e-01
1.249107345597745278e-01
1.312567481374400935e-01
1.362264261284077405e-01
1.397448799074509640e-01
1.417697219573348932e-01
1.422664027311491275e-01
1.412444077526990860e-01
1.387434085487780355e-01
1.348322674980803326e-01
1.296073613208132969e-01
1.231902727431167660e-01
1.157248989455501309e-01
1.074150176510576676e-01
9.839373644179781608e-02
8.884171708740000450e-02
7.895097676623255567e-02
6.891565869923307885e-02
5.892717701305191097e-02
4.916959034332941958e-02
3.981531117660663810e-02
3.107215765939151664e-02
2.303827963588952685e-02
1.580158398327955946e-02
9.447632344527960926e-03
4.035744991180756358e-03
-4.027437103246916473e-04
-3.865333787388388308e-03
-6.378202618052157546e-03
-7.976190379212984988e-03
-8.747909803851689967e-03
-8.816527620690470593e-03
-8.302346469272726959e-03
-7.339559988860645985e-03
-6.072975470344797386e-03
-4.654540990877808170e-03
-3.239602258698269684e-03
-1.994042297597416018e-03
-1.087398745997869218e-03
-6.338082292666947408e-04
-7.493340314435574393e-04
-1.529447488482287790e-03
-3.046785555280491064e-03
-5.349842046646432862e-03
-8.462468747664561239e-03
-1.239258797285119895e-02
-1.717636475056598042e-02
-2.270096068530149183e-02
-2.888159009571216601e-02
-3.560935839590514962e-02
-4.275462459012891597e-02
-5.017121055669723773e-02
-5.770123308238180038e-02
-6.518025554568522562e-02
-7.248761319802583813e-02
-7.942879969731987677e-02
-8.583519378603873817e-02
-9.154951837037442197e-02
-9.642748943363126102e-02
-1.003424126363146596e-01
-1.031893594876246156e-01
-1.048886982836396281e-01
-1.053903710991593023e-01
-1.046816128257696266e-01
-1.027678533001363803e-01
-9.968048576730678678e-02
-9.547787327828353987e-02
-9.024459035279239205e-02
-8.408998686139892986e-02
-7.714601512956817397e-02
-6.956427362324679731e-02
-6.151596410657938357e-02
-5.318053499618239505e-02
-4.474232314310869901e-02
-3.638723522657835024e-02
-2.829831136290020602e-02
-2.065143857293546409e-02
-1.361128581154115967e-02
-7.340633385012749167e-03
-1.977191819916920921e-03
2.400684411716667854e-03
5.708185002976915758e-03
7.885551978783022706e-03
8.900329397615215285e-03
8.748897642190105184e-03
7.457112166858103838e-03
5.072115240795349242e-03
1.647923335823633147e-03
-2.646326660725921518e-03
-7.682542908431602181e-03
-1.331730967235589952e-02
-1.939369136850345801e-02
-2.574314474080038537e-02
-3.218781559064401443e-02
-3.854343871236906582e-02
-4.462948544963275116e-02
-5.022993427961902624e-02
-5.517249498266364044e-02
-5.930258509042123094e-02
-6.248421097516285855e-02
-6.460127234494907056e-02
-6.555830170200893647e-02
-6.528094756782454322e-02
-6.368879779439601263e-02
-6.075585843852172180e-02
-5.649219654418345671e-02
-5.092944114158481916e-02
-4.412675913553861656e-02
-3.616891575401914860e-02
-2.716362788646180595e-02
-1.723842160789916880e-02
-6.520063329496976132e-03
4.835250721890278595e-03
1.664281533798211629e-02
2.872218481380597530e-02
4.088791994667301949e-02
5.295307832524120267e-02
6.473271989932279091e-02
7.604739159541072657e-02
8.672496680270321001e-02
9.660443469384266679e-02
1.055458523116123704e-01
1.134255895081596466e-01
1.201407070823334033e-01
1.256105768834410441e-01
1.297779519902316769e-01
1.326095153360043744e-01
1.340955231985703766e-01
1.342458835377835225e-01
1.330997002388427108e-01
1.307187573786278145e-01
1.271865150984460291e-01
1.226061150243261955e-01
1.170980008844261233e-01
1.107971976833880823e-01
1.038502879342192292e-01
9.645673894306977525e-02
8.872602456860685660e-02
8.081275002841846467e-02
7.287204798345570111e-02
6.505356302842094096e-02
5.749799331939980940e-02
5.033401721703329584e-02
4.367564395604046218e-02
3.768358308410716534e-02
3.238401953204835676e-02
2.780554516678179766e-02
2.397665435819052934e-02
2.090372355451430852e-02
1.857063025639265133e-02
1.693912126183952718e-02
1.594997376018807145e-02
1.555580666599930446e-02
1.564954261535719815e-02
1.609249665506749111e-02
1.676142594355502918e-02
1.752655592124955850e-02
1.825484472327405794e-02
1.881337196461375580e-02
1.907285594923020799e-02
1.890867714226383486e-02
1.820479141125780007e-02
1.686933959184824111e-02
1.482641759820949034e-02
1.202149043592603758e-02
8.423121830131337362e-03
4.023962262036678665e-03
-1.158965752463017324e-03
-7.090348009828168450e-03
-1.373378041697133518e-02
-2.097295803005259918e-02
-2.869359694184182158e-02
-3.676157307925805723e-02
-4.502653900791400710e-02
-5.332617694100905831e-02
-6.149088820762187158e-02
-6.934867936001296029e-02
-7.675139956952986564e-02
-8.352796994789594975e-02
-8.951863560236360262e-02
-9.457586345320459498e-02
-9.856877026227701954e-02
-1.013877973422925710e-01
-1.029488780358761568e-01
-1.031968133456627051e-01
-1.021131282477205221e-01
-9.971741255476447574e-02
-9.604443546913178642e-02
-9.115569333883004333e-02
-8.513968957929386738e-02
-7.811123737562765401e-02
-7.021015161859057996e-02
-6.159915218500274653e-02
-5.248081997269193888e-02
-4.305675716375562123e-02
-3.351722741441461040e-02
-2.406679675735302198e-02
-1.490785378510058740e-02
-6.236335721723470019e-03
1.762189716307572228e-03
8.916123684639282523e-03
1.504024017223123608e-02
1.998239117907816068e-02
2.369196104251574536e-02
2.609531355487303833e-02
2.714813040146113465e-02
2.683681097622063472e-02
2.517891794169252809e-02
2.222261093847645308e-02
1.802937180743260925e-02
1.265537539396015786e-02
6.311147634849867578e-03
-8.498300517192075706e-04
-8.658818497051938221e-03
-1.693470175974013531e-02
-2.548707665807583428e-02
-3.411970429078983735e-02
-4.263440054849875621e-02
-5.085613864172981724e-02
-5.855566103123024946e-02
-6.555960527685412986e-02
-7.171487077012358990e-02
-7.689003108700044609e-02
-8.097637384644659764e-02
-8.388828695219636977e-02
-8.556328601149257307e-02
-8.592845914025114273e-02
-8.497623167024494217e-02
-8.273186714775314365e-02
-7.924195485005110229e-02
-7.457869422036007834e-02
-6.883651056239400989e-02
-6.212800550935048544e-02
-5.457959554897127974e-02
-4.629783932120804663e-02
-3.742204845524704782e-02
-2.812321294030062369e-02
-1.855954585814159966e-02
-8.889321014690079389e-03
7.330552823684350922e-04
1.016089292159121082e-02
1.925879048874675273e-02
2.791255852587112146e-02
3.602794966769427149e-02
4.350760012105041319e-02
5.027842685978788778e-02
5.628522961538705294e-02
6.149135581199094425e-02
6.587898109722789552e-02
6.944896585854476445e-02
7.222276480978007118e-02
7.424512470418057064e-02
7.555644943304457017e-02
7.621970639852079787e-02
7.630909901250733374e-02
7.590802196902132759e-02
7.510696772508963781e-02
7.400140950783118399e-02
7.268966112305040583e-02
7.131890729643318438e-02
6.992985333930998304e-02
6.861213073480137981e-02
6.745029980171095285e-02
6.652138960633140197e-02
6.589281219390900890e-02
6.562063312652258174e-02
6.574823689285891337e-02
6.635960004946027391e-02
6.741793202552333331e-02
6.890437075638690401e-02
7.080084588470597629e-02
7.307508698686668303e-02
7.568024940113080024e-02
7.855495671524008461e-02
8.162387659682417140e-02
8.481771198508634979e-02
8.802411148462696566e-02
9.111947216949328743e-02
9.398866684981121988e-02
9.651350972635039382e-02
9.857492478687111814e-02
1.000551992219779196e-01
1.008403773824511768e-01
1.008147130573041478e-01
9.987495955688131810e-02
9.794834718414448249e-02
9.496666739738504615e-02
9.087983368705332410e-02
8.565805293336281601e-02
7.929351066415206428e-02
7.180150995008049986e-02
6.321613209523976873e-02
5.358581815768850148e-02
4.301699068000690296e-02
3.162142888343646985e-02
1.953214780553579402e-02
6.901182718758665062e-03
-6.103185364043728009e-03
-1.929971521449087152e-02
-3.249778058756760263e-02
-4.549419903201291221e-02
-5.810876356590726627e-02
-7.014643309321892672e-02
-8.141859682615718019e-02
-9.174826912086966879e-02
-1.009751423971688017e-01
-1.089602173118529860e-01
-1.155897674291580801e-01
-1.207676875795870020e-01
-1.244640149032979898e-01
-1.266556307770102530e-01
-1.273435807817961674e-01
-1.265585002036668238e-01
-1.243613934481156147e-01
-1.208436599803993650e-01
-1.161260951497029154e-01
-1.103756067677801878e-01
-1.037720019429301949e-01
-9.648894600618866668e-02
-8.871575563341653481e-02
-8.064596743351934438e-02
-7.247362146877683875e-02
-6.438980840721300614e-02
-5.657931381547111338e-02
-4.924834457031733448e-02
-4.257770846331136033e-02
-3.666181524113363427e-02
-3.160790962588116287e-02
-2.749551014186702239e-02
-2.437497699851353880e-02
-2.226715206459153884e-02
-2.116400228054318711e-02
-2.104465641829338790e-02
-2.188251945011401856e-02
-2.353721627033698513e-02
-2.589793924728059360e-02
-2.883657997236626497e-02
-3.221094725060498487e-02
-3.586831595165410058e-02
-3.964934359927706209e-02
-4.339281546750017177e-02
-4.694802200895040883e-02
-5.013838326550138641e-02
-5.282690593184518474e-02
-5.489505466541838574e-02
-5.624490709527872612e-02
-5.680042409530555725e-02
-5.650803176363772967e-02
-5.533674342236249294e-02
-5.326082040918497795e-02
-5.029031969356885512e-02
-4.647184990471998900e-02
-4.187638530340502541e-02
-3.659779897131617415e-02
-3.074886470805309260e-02
-2.445666256551028844e-02
-1.785773737918512974e-02
-1.109328053098027934e-02
-4.288253330879861387e-03
2.417170958299819442e-03
8.880800430089272682e-03
1.496707704922093513e-02
2.055172999316514162e-02
2.552611859224572510e-02
2.980099053268874670e-02
3.329477319944462027e-02
3.597386475886478474e-02
3.784436451589026640e-02
3.890998274217227076e-02
3.919636309575655342e-02
3.875121336085231988e-02
3.764384390036198264e-02
3.596397059761788362e-02
3.381463362360723202e-02
3.131598071814937351e-02
2.862424195760706822e-02
2.588051787639012585e-02
2.322769952158631676e-02
2.080717225368263965e-02
1.875566641394435172e-02
1.720219916578799579e-02
1.626678216753424389e-02
1.609344033967144080e-02
1.672743835766814235e-02
1.823095982672878757e-02
2.064339016051870007e-02
2.397979343014073131e-02
2.823018550268533919e-02
3.335962436674099613e-02
3.930904455787894575e-02
4.607046694154761507e-02
5.346937707817141228e-02
6.136252721007525585e-02
6.960555187838714242e-02
7.804119279567148237e-02
8.650201547125928314e-02
9.481358867310590854e-02
1.027981375243632867e-01
1.103217187936963994e-01
1.171799632182197737e-01
1.231801495215435055e-01
1.281704425480188758e-01
1.320171360800104221e-01
1.346067879174530635e-01
1.358479050640526709e-01
1.356723147569791621e-01
1.340424222086553374e-01
1.309335541597864694e-01
1.263443435349534683e-01
1.203126333297339090e-01
1.129043120389206512e-01
1.042116392122340862e-01
9.435090927177780529e-02
8.345960525695038379e-02
7.169339982707841064e-02
5.921921217728211978e-02
4.621670997441364864e-02
3.287752792496326237e-02
1.939877833644786803e-02
5.979207518932289772e-03
-7.184637543756963729e-03
-1.990215648676603444e-02
-3.199047863431684485e-02
-4.325461531226164336e-02
-5.357670852132867534e-02
-6.282609687693635481e-02
-7.089295567903465545e-02
-7.769037194857997264e-02
-8.315585587972261494e-02
-8.725223442696020126e-02
-8.996793389549453956e-02
-9.128714480379405971e-02
-9.127969854085370149e-02
-9.001501025609412454e-02
-8.757851595516935594e-02
-8.407556651885859933e-02
-7.962982827796509511e-02
-7.438130097192331702e-02
-6.848386910563918073e-02
-6.211958880461412175e-02
-5.545982918640985498e-02
-4.866767009341507050e-02
-4.191023592832407441e-02
-3.534911367771643304e-02
-2.913809613584504923e-02
-2.342130895259481038e-02
-1.833152405917838970e-02
-1.402936381980918711e-02
-1.063399222968618163e-02
-8.176758560422010130e-03
-6.707164428114398801e-03
-6.249993406490070465e-03
-6.805503702769380957e-03
-8.350468166008108081e-03
-1.083986939237252881e-02
-1.423001319432909417e-02
-1.848163259512667841e-02
-2.343383134087017802e-02
-2.895960973339530009e-02
-3.491709808219314176e-02
-4.115282088726912590e-02
-4.750540567180340512e-02
-5.380962826661340320e-02
-5.990212290918633942e-02
-6.564140594370032611e-02
-7.085493134159862039e-02
-7.539995463649611096e-02
-7.914860989555777548e-02
-8.199078068914560091e-02
-8.383651979328037018e-02
-8.461802482328970032e-02
-8.429119480766829320e-02
-8.283088594817310246e-02
-8.023884746071345553e-02
-7.655221803773375189e-02
-7.183632075160019392e-02
-6.618288494510121689e-02
-5.970734736704401413e-02
-5.254552373374942603e-02
-4.484986104279780478e-02
-3.680183358063776611e-02
-2.854897949359531256e-02
-2.026176071887203153e-02
-1.212699111784603344e-02
-4.331011411033529324e-03
2.946209162856157793e-03
9.536855847138566225e-03
1.529059697688058689e-02
2.005536504212289753e-02
2.374425551443394219e-02
2.631491191018585710e-02
2.771913378306812767e-02
2.793701628885900123e-02
2.697929959361049582e-02
2.488899150215585082e-02
2.174196807716348781e-02
1.764221639814789189e-02
1.273231504472023892e-02
7.192194976076615211e-03
1.204480401659486447e-03
-5.033197402925337731e-03
-1.131220575375367285e-02
-1.741709461703146167e-02
-2.313003030077009220e-02
-2.823139131422369719e-02
-3.247048842695596238e-02
-3.569944915716861955e-02
-3.774960921451629703e-02
-3.847748053576047211e-02
-3.776909391647295666e-02
-3.554348313385458091e-02
-3.175519683505161755e-02
-2.639581902916023765e-02
-1.943451636086067011e-02
-1.099986316733408964e-02
-1.208754115328399426e-03
9.795853420049663654e-03
2.183928171880092708e-02
3.471813106948998251e-02
4.820416059408413889e-02
6.204905537220479356e-02
7.601287814303440971e-02
8.980331585934440974e-02
1.031347467769119647e-01
1.157397700065070645e-01
1.273636848349346262e-01
1.377700468695923774e-01
1.467457631275206065e-01
1.541056977560372188e-01
1.596973625752012571e-01
1.634002552162795163e-01
1.651344658844119961e-01
1.648631931906662795e-01
1.625919664686908406e-01
1.583684609139272559e-01
1.522812384539849184e-01
1.444574416370177916e-01
1.350641635480780145e-01
1.243013797006476129e-01
1.123763550951215745e-01
9.952735182082649013e-02
8.600721892826547477e-02
7.207738796558683936e-02
5.800183439716528194e-02
4.404111125051224374e-02
3.045206980200304211e-02
1.751439355013647767e-02
5.389539424594232651e-03
-5.737371722460716042e-03
-1.571067945176151531e-02
-2.440756579865491910e-02
-3.174039956054516137e-02
-3.765795261325186050e-02
-4.214549607414682514e-02
-4.516970703224753442e-02
-4.684297992526390703e-02
-4.726227638526123154e-02
-4.654563067743289900e-02
-4.483487069621562571e-02
-4.229172049741405925e-02
-3.909337447381192043e-02
-3.542758062784183426e-02
-3.147732585261904525e-02
-2.744781197844863713e-02
-2.353068400035231503e-02
-1.989976913040900075e-02
-1.671212985019511835e-02
-1.410462208931685148e-02
-1.219118648707716648e-02
-1.106081329469938215e-02
-1.079662989360218039e-02
-1.143641808604649313e-02
-1.296358306011094648e-02
-1.535017991467126433e-02
-1.854041699943095173e-02
-2.245305354728552305e-02
-2.698463098850235539e-02
-3.201335666103663491e-02
-3.741947811548301112e-02
-4.308195449353360851e-02
-4.881086143544191569e-02
-5.444405447977453821e-02
-5.982051521413202927e-02
-6.478527906226005939e-02
-6.919427590107286863e-02
-7.291886077032179447e-02
-7.585268420644719622e-02
-7.793676226989397493e-02
-7.908904103397132457e-02
-7.926436990957552720e-02
-7.844112588524071450e-02
-7.662238778731510214e-02
-7.383662589602001114e-02
-7.013773861035794976e-02
-6.560427901396641281e-02
-6.036035464064783140e-02
-5.451680478255060969e-02
-4.820357629481480249e-02
-4.156205646621248528e-02
-3.474038726380088843e-02
-2.789035106130341446e-02
-2.116431940250454793e-02
-1.471221063323570333e-02
-8.718124508058745087e-03
-3.288496137218051285e-03
1.474256175362608293e-03
5.466957384260348086e-03
8.604250355875680406e-03
1.082101277954744707e-02
1.207408525916570455e-02
1.234321319742854792e-02
1.158992772970442696e-02
9.860852667987753464e-03
7.248401017473243141e-03
3.818687324580865086e-03
-3.469120702603551527e-04
-5.152167969972779211e-03
-1.048672674574489122e-02
-1.622742356508199632e-02
-2.225426207186730065e-02
-2.842262764659980387e-02
-3.455004989989179237e-02
-4.049630198074841148e-02
-4.612848268812857339e-02
-5.132226284990413362e-02
-5.596263990311283604e-02
-5.994450169269360806e-02
-6.316956581322351327e-02
-6.552421696771690285e-02
-6.696132691681382088e-02
-6.743599213994663777e-02
-6.692283083803923782e-02
-6.541564569411702224e-02
-6.292640276303580749e-02
-5.948367963009458526e-02
-5.513080575231549263e-02
-4.986819405629314833e-02
-4.381526000325843689e-02
-3.706125378269361365e-02
-2.970111081559155888e-02
-2.183760138900663408e-02
-1.357944306422935801e-02
-5.039245014499212950e-03
3.668691313757069337e-03
1.244671859758801971e-02
2.116980827531415171e-02
2.972419599233949022e-02
3.800958866444725109e-02
4.593426055642838707e-02
5.341598845115873989e-02
6.038270677059148078e-02
6.677297313677624246e-02
7.253081252317804262e-02
7.761397914345162519e-02
8.200098763912828936e-02
8.568036628440661717e-02
8.865361291851273084e-02
9.093450874776494441e-02
9.254814569340051589e-02
9.352972710301191150e-02
9.392899348765863798e-02
9.379883576240737042e-02
9.318299943118366069e-02
9.214356325395221814e-02
9.074658835285144554e-02
8.906043954080704317e-02
8.715416610289787591e-02
8.509596558841663050e-02
8.296109657464957599e-02
8.085575672883286991e-02
7.877466312452345576e-02
7.676157208670886245e-02
7.485246711996668134e-02
7.307443029147128732e-02
7.144487395030314769e-02
6.997118248658980300e-02
6.865073067459903644e-02
6.753036434006874644e-02
6.652741926240933468e-02
6.560107385279068115e-02
6.470545835987205618e-02
6.378722997296870645e-02
6.278674691709586198e-02
6.163955552596132870e-02
6.027818573574525440e-02
5.864298028344855362e-02
5.665990104548668943e-02
5.426108793820526299e-02
5.138739611331600426e-02
4.798750120549500481e-02
4.401977775399475157e-02
3.945395729702493720e-02
3.427256148613624931e-02
2.846169374969515983e-02
2.203409571896740998e-02
1.502768024022313638e-02
7.489420173711119379e-03
-5.168334417720022974e-04
-8.910884929146260791e-03
-1.759723326571264665e-02
-2.646660654965203932e-02
-3.539517708773068372e-02
-4.425274744933313520e-02
-5.290830629453421169e-02
-6.122014969360406456e-02
-6.904526110268632833e-02
-7.624275027410931660e-02
-8.267731000745938419e-02
-8.822259942894250528e-02
-9.275788287206901406e-02
-9.615976782140829571e-02
-9.838771476496356583e-02
-9.938410258131312458e-02
-9.911338625476831532e-02
-9.756427546767709735e-02
-9.475133610484247348e-02
-9.071585347257100918e-02
-8.552586116962154761e-02
-7.926219785223742598e-02
-7.206603511232760606e-02
-6.407637773487666333e-02
-5.544866938312623811e-02
-4.635319265125068672e-02
-3.697253160937561539e-02
-2.749869322896440413e-02
-1.812975620182362413e-02
-9.106382694425110835e-03
-6.057546496374099617e-04
7.202336201221053863e-03
1.415255366262077076e-02
2.009853154277135498e-02
2.491574215963273525e-02
2.850363387363911982e-02
3.078716101885137224e-02
3.166854486468300561e-02
3.113809214763173239e-02
2.925040593350927004e-02
2.605456555276747937e-02
2.162958287469444324e-02
1.608300268402675093e-02
9.548598091514620689e-03
2.183189984519196079e-03
-5.858779809322124665e-03
-1.439416525358641619e-02
-2.317925649864776769e-02
-3.200598278389345935e-02
-4.066730405913517032e-02
-4.896112690958911301e-02
-5.669404629866060114e-02
-6.368502670772727137e-02
-6.977199035654348125e-02
-7.480977306590713694e-02
-7.865708694501727383e-02
-8.122516319896967707e-02
-8.245831594104234552e-02
-8.233442358266170047e-02
-8.086439012429527673e-02
-7.809078513810481514e-02
-7.408587821601361756e-02
-6.896223682170535274e-02
-6.281824920062434314e-02
-5.580271162758793785e-02
-4.808631178687390595e-02
-3.985663301905838229e-02
-3.131318989767935962e-02
-2.266218849281612449e-02
-1.411115881638307784e-02
-5.906310523749890365e-03
1.792711769144931556e-03
8.824280509546995194e-03
1.503368993078758702e-02
2.028922027998238120e-02
2.448528760135501581e-02
2.754476959358645102e-02
2.942054323867544091e-02
3.006050961959737949e-02
2.948586506073722427e-02
2.777536080139383565e-02
2.501661891759643028e-02
2.132756932657677365e-02
1.685326504213966597e-02
1.176183028513320787e-02
6.239707545494733304e-03
4.855879669365687347e-04
-5.300237953404945447e-03
-1.090775752345190912e-02
-1.612621454501974444e-02
-2.075159036846308674e-02
-2.459230187538734638e-02
-2.747456940116647928e-02
-2.924729372833044169e-02
-2.977327096555609093e-02
-2.892010869095674661e-02
-2.669166654525503835e-02
-2.306871961235092139e-02
-1.806783755931359522e-02
-1.174182771683460365e-02
-4.179077666614728487e-03
4.498238581351276036e-03
1.413701040885062023e-02
2.463789440252338314e-02
3.571035470920806004e-02
4.712317932256250563e-02
5.863287603819678645e-02
6.998872849999010493e-02
8.093892272143392297e-02
9.123688020792829201e-02
1.006476034420995258e-01
1.089968337755748556e-01
1.160637593540973511e-01
1.216632554533110117e-01
1.256503921005334978e-01
1.279148300488809342e-01
1.283846873851183790e-01
1.270295360592893497e-01
1.238622676833158742e-01
1.189776899884288919e-01
1.124794785024088584e-01
1.044731124246103676e-01
9.511496829528315322e-02
8.458982449236127077e-02
7.310863302943651498e-02
6.090600240755461581e-02
4.823703278450759691e-02
3.542296966231944788e-02
2.279048824592220732e-02
1.054081882776664557e-02
-1.073912529633889914e-03
-1.181896134914043814e-02
-2.148066146757383540e-02
-2.986898283969136730e-02
-3.681927541030827894e-02
-4.216635861996672480e-02
-4.571124472394544336e-02
-4.749030533289325812e-02
-4.748122066405847247e-02
-4.570098002422912087e-02
-4.220574858849174271e-02
-3.708959179971167003e-02
-3.048203639892389794e-02
-2.254447310435902033e-02
-1.345647859682169885e-02
-3.454996175336732221e-03
7.234688134606324754e-03
1.837736333825170515e-02
2.973088377662484391e-02
4.104863865030503739e-02
5.208193389041393395e-02
6.258279485343057336e-02
7.217477598748425760e-02
8.069630307248458478e-02
8.798846990046199634e-02
9.389735789848323300e-02
9.830199439361260449e-02
1.011135754216753446e-01
1.022733232684100851e-01
1.017497416305236518e-01
9.940547845651656611e-02
9.527609232593563238e-02
8.951187069325457213e-02
8.222731334988174490e-02
7.356991036171484089e-02
6.371497247188263879e-02
5.285921540871455632e-02
4.121363392004864096e-02
2.894988886457664987e-02
1.624981374326606859e-02
3.402513890995843750e-03
-9.359475733336989137e-03
-2.181057112194156530e-02
-3.373814018713700708e-02
-4.494841695757254008e-02
-5.527209241262844019e-02
-6.456854554349931996e-02
-7.273407162588477193e-02
-7.970388496374078424e-02
-8.544438721755077959e-02
-8.996006656293374648e-02
-9.329365173588072269e-02
-9.552513761178382801e-02
-9.676968829673611439e-02
-9.717410779127630405e-02
-9.689088360777139974e-02
-9.613484408981902429e-02
-9.512778603994086202e-02
-9.410484822326814491e-02
-9.330692303144018374e-02
-9.297255287748552866e-02
-9.332962512834429292e-02
-9.458719059543667373e-02
-9.694338689435684497e-02
-1.005158079939288684e-01
-1.054127342843346471e-01
-1.117070593911089760e-01
-1.194251929652612176e-01
-1.285421450853932168e-01
-1.389780059079233077e-01
-1.505962003434556384e-01
-1.632159361242583595e-01
-1.765640200209760424e-01
-1.903370515900963400e-01
-2.042065544864975768e-01
-2.178122625641229770e-01
-2.307683680449455488e-01
-2.426706701506742836e-01
-2.531047972843822325e-01
-2.616347785510199087e-01
-2.678330691912386152e-01
-2.713469154549170703e-01
-2.718422917802959526e-01
-2.690336209619574315e-01
-2.626917514073547899e-01
-2.526503865487294553e-01
-2.388110353135992625e-01
-2.211224952019223977e-01
-1.995667198188237901e-01
-1.743522753108740497e-01
-1.456975291600426659e-01
-1.138990833241662060e-01
-7.932670613612542720e-02
-4.241601354772409765e-02
-3.659184095385717775e-03
3.640845514571312141e-02
7.729135609969831067e-02
1.183234269136184957e-01
1.588869904983786219e-01
1.983640645912087552e-01
2.361500483510944048e-01
2.716672886319406177e-01
3.043781069747723556e-01
3.337968526654483403e-01
3.594999484273863621e-01
3.811502127719726962e-01
3.984711285879610210e-01
4.112646208760988298e-01
4.194165143663108331e-01
4.228986200161552467e-01
4.217687069969274227e-01
4.161682752976835209e-01
4.062912501460349546e-01
3.924568223320781812e-01
3.750417045128078830e-01
3.544568812852386119e-01
3.311557248130808095e-01
3.056238675050045872e-01
2.783686109439572065e-01
2.499079907336583528e-01
2.207553133865198802e-01
1.914204180127994648e-01
1.623941844806761070e-01
1.341267996548396735e-01
1.070264179523652409e-01
8.145209778995479710e-02
5.770828357989778862e-02
3.604087757624432203e-02
1.664125567549172569e-02
-3.609500350335543640e-04
-1.492745694798441880e-02
-2.705411779647300119e-02
-3.679156916117274495e-02
-4.424213413127058708e-02
-4.955577977658207067e-02
-5.292504333936490918e-02
-5.457904080296813176e-02
-5.479370622531824081e-02
-5.385491116810774137e-02
-5.204294199765782669e-02
-4.963709371418597444e-02
-4.691045436215880715e-02
-4.412569753877335771e-02
-4.153153529995261273e-02
-3.935942410033394651e-02
-3.788076280738353341e-02
-3.726362695277724707e-02
-3.763669867119519979e-02
-3.909445761867087060e-02
-4.169082078355871440e-02
-4.544172861132807911e-02
-5.032888036680151916e-02
-5.630398164795150096e-02
-6.331729780683176267e-02
-7.129851835614746391e-02
-8.010881908392916695e-02
-8.958400857594862876e-02
-9.953675329518621440e-02
-1.097636178746017044e-01
-1.200524640974944962e-01
-1.301896181666742092e-01
-1.399315868141755015e-01
-1.491100932160659420e-01
-1.575910676419385870e-01
-1.651926209666361722e-01
-1.717443505983246854e-01
-1.770930514208120810e-01
-1.811080084665372125e-01
-1.836853888419517356e-01
-1.847188981216544013e-01
-1.841264688300169317e-01
-1.820070205124088292e-01
-1.783852368118709619e-01
-1.733118424845120353e-01
-1.668635402170974835e-01
-1.591424090417987713e-01
-1.502745674846290569e-01
-1.404067182563804306e-01
-1.296800390894365107e-01
-1.182925844889035766e-01
-1.064469043565038353e-01
-9.435548581505723287e-02
-8.223451551710930785e-02
-7.029741781258884437e-02
-5.874860631181164083e-02
-4.777782057728215820e-02
-3.764532641170493382e-02
-2.836432419868594249e-02
-2.004481605460644092e-02
-1.279763998125392314e-02
-6.710299608798557004e-03
-1.840488812569337270e-03
1.789424133533031383e-03
4.196151316394655661e-03
5.348081008979870855e-03
5.450473875559853736e-03
4.686510011657499253e-03
3.200232007886703346e-03
1.151855831771654397e-03
-1.281985477840111038e-03
-3.908419964431595131e-03
-6.519695793358828984e-03
-8.914980284522222923e-03
-1.083221073785018730e-02
-1.201917917989691817e-02
-1.227807913180823524e-02
-1.143562784805605970e-02
-9.346260237208862259e-03
-5.894342310823838353e-03
-9.957719935123733948e-04
5.415686331183134153e-03
1.339344324803740799e-02
2.287727372523807104e-02
3.379482160316546469e-02
4.603127448265103422e-02
5.943128105577463044e-02
7.380222999364723091e-02
8.891875844659333228e-02
1.045330410530755788e-01
1.204229535151131042e-01
1.362399880856633716e-01
1.516801907962156137e-01
1.664377751180334541e-01
1.802121069426566857e-01
1.927146598177797154e-01
2.036758385403366622e-01
2.128515371252364397e-01
2.200449393704962953e-01
2.250611372856202719e-01
2.277638074482701003e-01
2.280654694416855144e-01
2.259270925123751661e-01
2.213588180944080774e-01
2.144194302311122902e-01
2.052146662854412718e-01
1.939025428797402084e-01
1.806589044731194971e-01
1.657069110215139973e-01
1.493088457800139657e-01
1.317535562754657830e-01
1.133488127640230325e-01
9.441328744355267921e-02
7.526849238808532017e-02
5.625212184671082860e-02
3.765049460449736846e-02
1.972194338906953920e-02
2.733709888108312985e-03
-1.307336165674161284e-02
-2.749144490289439149e-02
-4.035144514329750548e-02
-5.152736992289184276e-02
-6.092595182848515450e-02
-6.851998454016923479e-02
-7.436384406180708562e-02
-7.850117457200092574e-02
-8.100911949725109196e-02
-8.199755350734744264e-02
-8.160789325680857520e-02
-8.001104289763344424e-02
-7.740517679723624145e-02
-7.404175885421744596e-02
-7.015574948542348255e-02
-6.596909323686250826e-02
-6.169566366523682177e-02
-5.753787038212190841e-02
-5.368432402817140126e-02
-5.030814416786275056e-02
-4.756542661316364579e-02
-4.566904481349616518e-02
-4.469143953744659364e-02
-4.469661090177617230e-02
-4.572103453248031052e-02
-4.776736906111619246e-02
-5.080644974292741756e-02
-5.478033961508625704e-02
-5.960605048723757737e-02
-6.522207884452223270e-02
-7.149166705239975994e-02
-7.825222148300138569e-02
-8.534236916231266457e-02
-9.259023235476307456e-02
-9.981777839855912604e-02
-1.068453039553443895e-01
-1.134959541755096446e-01
-1.195921705476806346e-01
-1.249749904339228362e-01
-1.295112341831960168e-01
-1.330796246395037630e-01
-1.355804553846026161e-01
-1.369371826181985941e-01
-1.370972651987362734e-01
-1.360323822399590599e-01
-1.337218970724368960e-01
-1.301552369206326332e-01
-1.254145601950226174e-01
-1.195775214283990306e-01
-1.127455979960686194e-01
-1.050407211203028962e-01
-9.660120285958381792e-02
-8.757723340482750918e-02
-7.812601065600613404e-02
-6.838963504009316907e-02
-5.852128569795678192e-02
-4.868847711360989317e-02
-3.905667776984891176e-02
-2.978373995792025358e-02
-2.101430747299775845e-02
-1.287464681174170338e-02
-5.468298281952923591e-03
1.077412978912615279e-03
6.796381723184442662e-03
1.166735984781627766e-02
1.568303703354486864e-02
1.885888114596553228e-02
2.123505331021532938e-02
2.287751396885208399e-02
2.387791292603334142e-02
2.430950596443074915e-02
2.436699923106951451e-02
2.422218926122505014e-02
2.402853000413057369e-02
2.394048720272504149e-02
2.411104855216327641e-02
2.468925486267982763e-02
2.581745682503897368e-02
2.763445392086157429e-02
3.027311614713932772e-02
3.382676766368088173e-02
3.836244343439625809e-02
4.391778157343499689e-02
5.049983372093163475e-02
5.808491308315411744e-02
6.661931736399744064e-02
7.604455884001089239e-02
8.627969340530915188e-02
9.713333761317528847e-02
1.084379964609446939e-01
1.200051724337988790e-01
1.316291973993008457e-01
1.430917457491480971e-01
1.541669432492359104e-01
1.646348588229905041e-01
1.743175122767864904e-01
1.829365399459920993e-01
1.902852148219494610e-01
1.961762941615483591e-01
2.004460632847819557e-01
2.029578182762624416e-01
2.036048038951637218e-01
2.023126032465130120e-01
1.990587126654617400e-01
1.938141451142176841e-01
1.866081814350534496e-01
1.775085531405510009e-01
1.666180046610276633e-01
1.540716676032143628e-01
1.400337259032271298e-01
1.246935552704332428e-01
1.082680055461421459e-01
9.096843145340059722e-02
7.303264188180989824e-02
5.471317371289787651e-02
3.626729735378841912e-02
1.795113371518151230e-02
1.390371645987786755e-05
-1.730741315155752760e-02
-3.378061450456479320e-02
-4.922712152633761801e-02
-6.348437940811021973e-02
-7.639403597975680249e-02
-8.782216794033480267e-02
-9.766289237899089537e-02
-1.058414806772148553e-01
-1.123166003713335914e-01
-1.170795953800282535e-01
-1.201792481988933486e-01
-1.216838107529572971e-01
-1.216674552461517178e-01
-1.202250925497041489e-01
-1.174721922541603486e-01
-1.135446492679413610e-01
-1.085982388452500919e-01
-1.028136735493043880e-01
-9.643485458965986301e-02
-8.962867970190994960e-02
-8.258328558333957736e-02
-7.548132620006517413e-02
-6.849791094409553305e-02
-6.179924506230631553e-02
-5.554164260075372672e-02
-4.987050896554981461e-02
-4.499515545913088804e-02
-4.097626044135965762e-02
-3.789402401621976696e-02
-3.580748516335911097e-02
-3.474952954136461408e-02
-3.472685195177188655e-02
-3.572067272139224647e-02
-3.768807818411597232e-02
-4.058395667494691522e-02
-4.430890611416441610e-02
-4.874888161780279588e-02
-5.378011035476028268e-02
-5.926463956523014831e-02
-6.505280436783589249e-02
-7.098593955059344374e-02
-7.689944108387299082e-02
-8.260443657838048570e-02
-8.792752010738764945e-02
-9.273194488405704650e-02
-9.688166697873809574e-02
-1.002577601427747933e-01
-1.027601402988630036e-01
-1.043085552634262225e-01
-1.048430695459281609e-01
-1.043118359996868666e-01
-1.026668795605316237e-01
-9.993445071356017728e-02
-9.615683969232997896e-02
-9.140317496051678092e-02
-8.576600370201581391e-02
-7.935699925212043315e-02
-7.230218150358819207e-02
-6.474262693875718067e-02
-5.682363175430346636e-02
-4.864320789785827465e-02
-4.035050142001869039e-02
-3.209497700285129929e-02
-2.402040327147534488e-02
-1.625888911202007237e-02
-8.925476819578382487e-03
-2.113706866593295305e-03
4.045253047201735098e-03
9.603558345704163099e-03
1.454571178642435382e-02
1.887262629089361821e-02
2.260668631272493706e-02
2.579266955909958331e-02
2.849781649682981213e-02
3.081074482402653206e-02
3.282025549160713651e-02
3.468338194985823991e-02
3.653796289470742642e-02
3.851291295725111502e-02
4.073349746694479578e-02
4.331806967202344455e-02
4.637508811542925824e-02
5.000025276257950846e-02
5.430556097021320416e-02
5.934961325434402746e-02
6.514058269182686212e-02
7.168253462061111025e-02
7.895111755480410665e-02
8.689306117661808881e-02
9.542676085622621429e-02
1.044438946515939270e-01
1.138439144340180759e-01
1.234901348768284168e-01
1.331459169304306522e-01
1.426192244789787622e-01
1.517090890960382243e-01
1.602094272413301657e-01
1.679131486858307931e-01
1.746166275002500601e-01
1.801319456980045863e-01
1.842966172990918583e-01
1.869020473801631388e-01
1.878097451033495791e-01
1.869115131174997613e-01
1.841315706272360908e-01
1.794277431928251454e-01
1.727919272496979408e-01
1.642500456696834865e-01
1.538392906480673117e-01
1.416592646145517498e-01
1.278441650374370353e-01
1.125622970058589578e-01
9.601268654854880347e-02
7.842028525984748311e-02
6.003046751290396638e-02
4.110316193313363203e-02
2.187819045796786030e-02
2.633341246211145202e-03
-1.634536540396065371e-02
-3.478054517306440607e-02
-5.240365568192562051e-02
-6.896144262384737433e-02
-8.422217250243593800e-02
-9.798131171815546714e-02
-1.100734931423317658e-01
-1.203778867050372958e-01
-1.287878156194856016e-01
-1.352302360098939504e-01
-1.396681130613561805e-01
-1.421023265471951791e-01
-1.425728694550151276e-01
-1.411590456642944913e-01
-1.379763447106065744e-01
-1.331951251624668708e-01
-1.270072140955709472e-01
-1.196132278765841828e-01
-1.112308226550140777e-01
-1.020911710245631654e-01
-9.243535364865015924e-02
-8.251046163927924781e-02
-7.256603768963934553e-02
-6.286191178395204859e-02
-5.363535976625419949e-02
-4.509945488797700852e-02
-3.744345452987623418e-02
-3.082939578822005769e-02
-2.538954273891863914e-02
-2.122459728907939019e-02
-1.840255438352259021e-02
-1.697422900175445462e-02
-1.692788190219302394e-02
-1.822759788094054090e-02
-2.080408922972670077e-02
-2.455626155484124523e-02
-2.935372957246230874e-02
-3.504005989586001651e-02
-4.143670178890525302e-02
-4.834045973244471828e-02
-5.553985665436526886e-02
-6.282400265760652858e-02
-6.998161660470804402e-02
-7.680614905125754399e-02
-8.309964530670198302e-02
-8.867622883041095805e-02
-9.336532824341861603e-02
-9.699572347818322116e-02
-9.942708377605126435e-02
-1.005711889680764581e-01
-1.003635722564775040e-01
-9.877207537707537177e-02
-9.579571434848083156e-02
-9.146258148172627112e-02
-8.582711980754333114e-02
-7.896554365381612539e-02
-7.095442507044341651e-02
-6.191008613685455159e-02
-5.197850831427083818e-02
-4.132334738733581952e-02
-3.012030356426401850e-02
-1.855118908193862867e-02
-6.798132731591797692e-03
4.949568852645678564e-03
1.650657561557525299e-02
2.778019553981380882e-02
3.862387288442468286e-02
4.890245971953484372e-02
5.849602101984834046e-02
6.730322959110288106e-02
7.524399955667103457e-02
8.226111875648159377e-02
8.824841152568149716e-02
9.329332345928124937e-02
9.740716175975949742e-02
1.006165169879436327e-01
1.029624929835856184e-01
1.044997116159307876e-01
1.052949746364536809e-01
1.054254766359739581e-01
1.049646807397942999e-01
1.040177666079729613e-01
1.026816817669911341e-01
1.010485788822739622e-01
9.920694065702803655e-02
9.723960793185432161e-02
9.522217350864183028e-02
9.322170000209334395e-02
9.134022392436043358e-02
8.960044053209173520e-02
8.800169871245977493e-02
8.656319878858206862e-02
8.529298877626942388e-02
8.418755362273337706e-02
8.323187843220186677e-02
8.240004278026759332e-02
8.169579483754897675e-02
8.108249935871357506e-02
8.044113671345001770e-02
7.970911628817664574e-02
7.882156064743588153e-02
7.771214730942316296e-02
7.631404387913148790e-02
7.456108515394255232e-02
7.239781236246177476e-02
6.978136811057090994e-02
6.661980860650289216e-02
6.286598313527805293e-02
5.848380233003867140e-02
5.344903383020140064e-02
4.774977099209682524e-02
4.138669428036693965e-02
3.437311534944648139e-02
2.672224249806445795e-02
1.848074487235994157e-02
9.706052942658666138e-03
4.708119416347363462e-04
-9.138014738128854772e-03
-1.902049110383768546e-02
-2.906544063581359763e-02
-3.915247420318664073e-02
-4.914842410989722632e-02
-5.893394424245936014e-02
-6.837465785648989824e-02
-7.733209469371303546e-02
-8.566895006168738502e-02
-9.325229437125591436e-02
-9.995674388515067565e-02
-1.056674830953745342e-01
-1.102560359383750466e-01
-1.136595347343228729e-01
-1.158309066454797365e-01
-1.167214986814076455e-01
-1.163027608565802284e-01
-1.145687045897387235e-01
-1.115378444150501580e-01
-1.072543723892632889e-01
-1.017895222806739358e-01
-9.525474266129642376e-02
-8.776835071754358897e-02
-7.945918545473316941e-02
-7.047095213217281773e-02
-6.096161843935182789e-02
-5.110275465623418528e-02
-4.107840884058547304e-02
-3.110983354399112985e-02
-2.148190207193304002e-02
-1.230304099284013422e-02
-3.746659188048283816e-03
4.028555048221232199e-03
1.088050721054027031e-02
1.668452789462098601e-02
2.133354495697721565e-02
2.473318556132923091e-02
2.663629680269650329e-02
2.716382379187181478e-02
2.631740975383898423e-02
2.412952077456616273e-02
2.066294033781074582e-02
1.600906779356719642e-02
1.028510846102979014e-02
3.630423157219019731e-03
-3.873071234719418013e-03
-1.198539397869690000e-02
-2.049988133138485810e-02
-2.921858423865653781e-02
-3.793959939721117114e-02
-4.645972771783083571e-02
-5.457723970420631093e-02
-6.209503652987474059e-02
-6.878711891252156652e-02
-7.446531632773385756e-02
-7.900326645168144479e-02
-8.229257556602599666e-02
-8.425749995532580416e-02
-8.485399099452764493e-02
-8.406752101618801543e-02
-8.191036644558433166e-02
-7.836511095839016061e-02
-7.344020576409485135e-02
-6.729609747351941729e-02
-6.007666721284113387e-02
-5.195691707635781420e-02
-4.313646965750504020e-02
-3.383176822230946762e-02
-2.426768707383574614e-02
-1.464760774082747748e-02
-5.116324497402778906e-03
4.052216227559585736e-03
1.263889586470696991e-02
2.043664309191898718e-02
2.725777724555641587e-02
3.294143508249876978e-02
3.736055502075149443e-02
4.043021042069538246e-02
4.216990440405705975e-02
4.253540591862899761e-02
4.156106207986341727e-02
3.932236165726821914e-02
3.593595320631899626e-02
3.155883823754914580e-02
2.638655397030228653e-02
2.065014128503578697e-02
1.466682757099027103e-02
8.679967282783109667e-03
2.975640598183940198e-03
-2.142809891961130683e-03
-6.372669222967335644e-03
-9.420399019835675944e-03
-1.101007853213993234e-02
-1.089153545664932506e-02
-8.813601933675309710e-03
-4.629384785480925371e-03
1.767204834071878054e-03
1.045321088942822822e-02
2.144977110977812351e-02
3.471719345202638196e-02
5.015150505060544939e-02
6.758291459019520608e-02
8.676661324984540069e-02
1.073802745060926656e-01
1.290834054068902836e-01
1.514921092425945970e-01
1.741873561092367462e-01
1.967212189220135798e-01
2.186236632628136001e-01
2.394102572541398355e-01
2.585620592711954657e-01
2.755147218964272282e-01
2.898890240406243324e-01
3.012793290622489129e-01
3.093305888743676513e-01
3.137459550193004154e-01
3.142924476381177556e-01
3.108049233556356428e-01
3.031811499729561432e-01
2.912674675753750830e-01
2.752394359694547710e-01
2.552510824850401927e-01
2.315372453805941422e-01
2.044085494889433530e-01
1.742440849315143037e-01
1.414821009554367015e-01
1.066091835826414869e-01
7.009699919045310479e-02
3.252737377126383583e-02
-5.520703516482143580e-03
-4.347142363102059898e-02
-8.075769967660792470e-02
-1.168336432945489833e-01
-1.511863981815324276e-01
-1.833470212255671472e-01
-2.128735131892939281e-01
-2.394322647671815185e-01
-2.627550783856362204e-01
-2.826309593834677170e-01
-2.989235848345953572e-01
-3.115722883530854803e-01
-3.205909446811461838e-01
-3.260648128315080108e-01
-3.281132935548610186e-01
-3.269473093651272255e-01
-3.228742703615296028e-01
-3.162073782918689568e-01
-3.072930316668434081e-01
-2.965006495500613348e-01
-2.842121302894496382e-01
-2.708112027159508828e-01
-2.566639162104832339e-01
-2.421091095020627415e-01
-2.275027407193228046e-01
-2.131443083121736803e-01
-1.992920820882453925e-01
-1.861573293174235699e-01
-1.739000169011471197e-01
-1.626261452125647433e-01
-1.523861444149169631e-01
-1.431616954325640179e-01
-1.349036227406328892e-01
-1.275173193988172193e-01
-1.208691779141329581e-01
-1.147917875537722288e-01
-1.090897801831870739e-01
-1.035463405415226606e-01
-9.793039249723163586e-02
-9.196505994017348251e-02
-8.543738837515618689e-02
-7.813747121451744548e-02
-6.987342224015102854e-02
-6.048208965191024383e-02
-4.983396357745154687e-02
-3.783686015904432626e-02
-2.443851645541422410e-02
-9.582213383350664596e-03
6.684544344184447165e-03
2.425558697596521401e-02
4.299776611280591021e-02
6.273470250938756321e-02
8.325116322747808106e-02
1.042986786565034685e-01
1.256021010589622455e-01
1.468716914464969769e-01
1.678173657259137974e-01
1.881212496416388436e-01
2.074610607396965845e-01
2.255196617124337610e-01
2.419937891676799124e-01
2.566024289659690760e-01
2.690944181228501764e-01
2.792250646760104926e-01
2.868030425022119467e-01
2.917916679940444347e-01
2.941043199589778445e-01
2.936962334669933061e-01
2.905677112621830038e-01
2.847662713408617430e-01
2.763872546593572066e-01
2.655590448280097382e-01
2.523623566593062306e-01
2.371885370297359130e-01
2.202955974992049093e-01
2.019603062675180971e-01
1.824740212613965018e-01
1.621384918654883989e-01
1.412613093281021026e-01
1.201508182730136043e-01
9.905260390939149562e-02
7.832206487967885433e-02
5.824696464843919647e-02
3.908298086271123906e-02
2.105645701967137975e-02
4.360378838359785930e-03
-1.084869044499871607e-02
-2.445263151009515953e-02
-3.633812155455166948e-02
-4.651707849296073116e-02
-5.500398434325966257e-02
-6.182064960292883715e-02
-6.701769277222506538e-02
-7.067497763967574287e-02
-7.290141914594740202e-02
-7.383366009912538386e-02
-7.358651205286265151e-02
-7.238920071781823617e-02
-7.049679261061263247e-02
-6.809640071857950283e-02
-6.536799160239505080e-02
-6.248379356230104181e-02
-5.960828834319175512e-02
-5.689807259231381698e-02
-5.448322344053520977e-02
-5.251326950130850296e-02
-5.116720493267843534e-02
-5.053315039841441841e-02
-5.066883355478774692e-02
-5.160327014788443356e-02
-5.333948191191887483e-02
-5.585767965626783210e-02
-5.911503468576788378e-02
-6.304787269700182217e-02
-6.762635983596268496e-02
-7.275426103350823848e-02
-7.831602628076950179e-02
-8.418067170598678151e-02
-9.020612345005268873e-02
-9.624371902726697181e-02
-1.021425863365883618e-01
-1.077141877554752131e-01
-1.128650235276337094e-01
-1.174651830554368642e-01
-1.213882456918971148e-01
-1.245190622806113673e-01
-1.267564098639776815e-01
-1.280152147453028355e-01
-1.282283111969426126e-01
-1.273120441191552821e-01
-1.252557747502494601e-01
-1.220741135797997756e-01
-1.177912217522830846e-01
-1.124531321252289912e-01
-1.061259258082952045e-01
-9.889337558748023671e-02
-9.085426481822012068e-02
-8.212826417457672057e-02
-7.281204688618994614e-02
-6.302335697697426797e-02
-5.290799955669309163e-02
-4.261905365552127317e-02
-3.231156430328795820e-02
-2.213718565710031880e-02
-1.223924725520786870e-02
-2.780832469586444391e-03
6.116796251530818608e-03
1.444280735748871940e-02
2.210893324382778857e-02
2.903853148280444857e-02
3.517067380717583264e-02
4.046394791634402854e-02
4.489937355597893587e-02
4.846951962653743562e-02
5.114712238863873550e-02
5.309983154025554875e-02
5.439310848302729429e-02
5.510117748973356738e-02
5.530697265430723625e-02
5.510219756571409222e-02
5.458702975781862254e-02
5.386908079451449560e-02
5.305378669994673807e-02
5.228811886743597870e-02
5.167958739167066717e-02
5.132273111387021525e-02
5.129915192935600998e-02
5.167648550031482546e-02
5.250789319667324012e-02
5.383182631195211620e-02
5.571508748119129856e-02
5.814279912921990062e-02
6.108257044050712653e-02
6.449861533362023780e-02
6.833679551426576071e-02
7.252560757928303015e-02
7.697780572641726993e-02
8.159260887608547896e-02
8.628371367247460177e-02
9.092242316999403495e-02
9.535624162485889510e-02
9.945614085140863647e-02
1.030947078040214959e-01
1.061482856173900091e-01
1.084990324117538346e-01
1.100370390394557335e-01
1.106588926222090846e-01
1.102620011196325522e-01
1.087811207809494946e-01
1.061722548376079350e-01
1.024146209836626353e-01
9.751046075631640553e-02
9.148407658489572658e-02
8.438037671223434788e-02
7.625845578435644367e-02
6.715786519951620626e-02
5.720378129014391105e-02
4.652485059076863494e-02
3.526907169784922191e-02
2.359976215955723183e-02
1.169080828485238518e-02
-2.784310013763942153e-04
-1.212815993980398757e-02
-2.369943468155510935e-02
-3.483478356644269247e-02
-4.536519631213618842e-02
-5.512916705633019027e-02
-6.397734402658532271e-02
-7.177740051313594161e-02
-7.841857442970726066e-02
-8.381550284631042458e-02
-8.789425992958763145e-02
-9.066173638247898570e-02
-9.212495555046916473e-02
-9.230521755095907888e-02
-9.124845187355672127e-02
-8.902568604092811477e-02
-8.573292977326917030e-02
-8.149022965759022963e-02
-7.642936780484679837e-02
-7.072709691681378086e-02
-6.457026836805748737e-02
-5.813932779169073140e-02
-5.161754512325422012e-02
-4.518747426848664095e-02
-3.902748735968943061e-02
-3.330830887798533896e-02
-2.819289805107605754e-02
-2.383186948793137444e-02
-2.034461967357404505e-02
-1.783239789504641182e-02
-1.637056526386048913e-02
-1.600637737994101487e-02
-1.675749607442670805e-02
-1.861130315329029283e-02
-2.152613949232751178e-02
-2.542893602448876786e-02
-3.021036639956925160e-02
-3.574979775490734479e-02
-4.190626590779322758e-02
-4.852060975709820978e-02
-5.541785279596332658e-02
-6.241000642253536485e-02
-6.929946207075608766e-02
-7.584316435491976482e-02
-8.185679447223447036e-02
-8.715566360314606908e-02
-9.156854399609258566e-02
-9.494200723154526400e-02
-9.714236821202024141e-02
-9.805700464363392710e-02
-9.759536718173285330e-02
-9.564838092351674037e-02
-9.218067905099559811e-02
-8.720008765748987756e-02
-8.073816798624386393e-02
-7.285886861318549568e-02
-6.365596991093100399e-02
-5.324968114440138678e-02
-4.178272680368273068e-02
-2.941499061824969993e-02
-1.630568170816754092e-02
-2.643563127140481552e-03
1.136558605394632007e-02
2.550793025408762058e-02
3.956671622860834237e-02
5.332743514269663171e-02
6.658277758895665699e-02
7.911549291285469021e-02
9.073867831986850985e-02
1.013383063274183316e-01
1.107772279928520287e-01
1.189407387338742572e-01
1.257391822985883811e-01
1.311098881995523269e-01
1.350183129571099205e-01
1.374496486461383449e-01
1.383931073077855345e-01
1.379491183905041940e-01
1.361952520526721333e-01
1.332311945594280567e-01
1.291765609799770398e-01
1.241683147991434616e-01
1.183577467945687300e-01
1.119070005527657702e-01
1.050009522581848015e-01
9.779572175179501725e-02
9.045875109875294029e-02
8.315182130349288436e-02
7.602646027149079222e-02
6.922034336740490179e-02
6.285419167151191921e-02
5.702918990138202554e-02
5.186946116623148556e-02
4.739139856617925056e-02
4.360780213668957045e-02
4.052157015224817221e-02
3.811070067838676079e-02
3.632821374537807679e-02
3.510287399239188366e-02
3.434083378733701619e-02
3.393801050262772873e-02
3.374856945257327656e-02
3.362117011237973629e-02
3.341118147392833221e-02
3.297315946942686038e-02
3.216392727452949823e-02
3.084550552413607358e-02
2.888809862736433851e-02
2.615333902458207016e-02
2.251002179819288490e-02
1.791070751374583200e-02
1.231112146057083967e-02
5.697528541555760620e-03
-1.912917053789467327e-03
-1.047300440553609012e-02
-1.990721490005053704e-02
-3.012463906432503655e-02
-4.105236365836964496e-02
-5.249459160310598893e-02
-6.426954117700514613e-02
-7.617488072998847282e-02
-8.799303293509805335e-02
-9.949722639085026299e-02
-1.104579901290831112e-01
-1.206497405334450435e-01
-1.298611037373906540e-01
-1.379051393773165213e-01
-1.445966398462634750e-01
-1.497717751934687924e-01
-1.532933330143795014e-01
-1.550552806294281105e-01
-1.549865154931947819e-01
-1.530536167879475162e-01
-1.492223595374833622e-01
-1.435800286547665450e-01
-1.362263541560075897e-01
-1.272838829250590165e-01
-1.169086324955010275e-01
-1.052874438333857299e-01
-9.263445418374521845e-02
-7.918670033328412128e-02
-6.517945751223447326e-02
-5.088699841794763062e-02
-3.659928387184959581e-02
-2.259180832486012286e-02
-9.133081621410523224e-03
3.521630344869248162e-03
1.513625606165350246e-02
2.549940554377444143e-02
3.442225344500981360e-02
4.176323969605808678e-02
4.742545532385603752e-02
5.133243317659236943e-02
5.344646927420984572e-02
5.377075884463630717e-02
5.235062421211165995e-02
4.927357138438154954e-02
4.466228708545900289e-02
3.868250124086831249e-02
3.156849088853238422e-02
2.354039076093612445e-02
1.483613162143587218e-02
5.707816272631591019e-03
-3.581934140663000504e-03
-1.276397217515729855e-02
-2.156723077432117289e-02
-2.970679358892052216e-02
-3.691434810049259996e-02
-4.296157996411475305e-02
-4.764973578909484364e-02
-5.081300920126988890e-02
-5.232076019667013245e-02
-5.207882876531709504e-02
-5.003024359853769365e-02
-4.613243782691406336e-02
-4.040470664137348761e-02
-3.291730884704758414e-02
-2.377947554671903593e-02
-1.314039740263532423e-02
-1.185407357365852489e-03
1.186878362279896945e-02
2.577956624361886148e-02
4.028297555342399278e-02
5.510944215111683586e-02
6.997564293791823375e-02
8.459230097281246474e-02
9.867335634608363770e-02
1.119424385061244670e-01
1.241390673427296004e-01
1.350244424051166292e-01
1.443759249720786286e-01
1.520085677470492946e-01
1.577964754851478579e-01
1.616369858361854650e-01
1.634685752054794716e-01
1.632720056472311831e-01
1.610703862400530428e-01
1.569281499301249383e-01
1.509500980893684619e-01
1.432754301116232476e-01
1.340704654936669959e-01
1.235379164451047701e-01
1.119045961342387679e-01
9.941532830302818313e-02
8.632651020585374591e-02
7.289955021587757322e-02
5.939484125866578701e-02
4.611651073729511330e-02
3.323104076131396661e-02
2.095731796782309558e-02
9.493067708857756345e-03
-9.907747654847084279e-04
-1.035497643757751600e-02
-1.849582965423446357e-02
-2.534761830701238311e-02
-3.084657479530620097e-02
-3.505842877193737078e-02
-3.803956639250916788e-02
-3.986350791674955069e-02
-4.063079040089670468e-02
-4.046733048543667277e-02
-3.952218468812614821e-02
-3.796441191801814413e-02
-3.599874517960036796e-02
-3.383318917708640072e-02
-3.164867829239186720e-02
-2.962376495988107775e-02
-2.792341986561863373e-02
-2.669577084799180239e-02
-2.606973222198661830e-02
-2.615325169142198800e-02
-2.707106855083984270e-02
-2.891010082650061902e-02
-3.164290471310733655e-02
-3.525892541380014344e-02
-3.971607377183661303e-02
-4.494229247256898568e-02
-5.083826015515197777e-02
-5.728106159995589169e-02
-6.414207957662246273e-02
-7.130132799413933797e-02
-7.853933522195673256e-02
-8.567466563572145866e-02
-9.252355489882022055e-02
-9.890455581851013978e-02
-1.046430768150467122e-01
-1.095757773045621108e-01
-1.135541398158799453e-01
-1.164217766783336022e-01
-1.181024656079285862e-01
-1.185207813960325041e-01
-1.176301527569765665e-01
-1.154140592874023097e-01
-1.118862316388416905e-01
-1.070899064946586321e-01
-1.010962804020243827e-01
-9.394247609855148340e-02
-8.579537901719627713e-02
-7.681825637733290246e-02
-6.718141161113279358e-02
-5.707014382405446035e-02
-4.668006340366684381e-02
-3.621199901180195690e-02
-2.586669460557743105e-02
-1.582275843786080591e-02
-6.261537743054451481e-03
2.632418850645605688e-03
1.069664750551233001e-02
1.778849020971022196e-02
2.378948377633456276e-02
2.860918614292892390e-02
3.218819597474358724e-02
3.448285915273942986e-02
3.551492399736260602e-02
3.535409836580302029e-02
3.406627024736843395e-02
3.174359103319521203e-02
2.850411143150519827e-02
2.449082323011330872e-02
1.986980675639285140e-02
1.481684959875964776e-02
9.529101261894389746e-03
4.263696331466571184e-03
-7.690398446187324917e-04
-5.365019735260268853e-03
-9.329959388512326993e-03
-1.248253286260456348e-02
-1.465736553721770988e-02
-1.570781157541211587e-02
-1.549301124776027508e-02
-1.391610283228031722e-02
-1.091662676235212112e-02
-6.470238898627138531e-03
-5.894429994626667344e-04
6.676802393770943714e-03
1.524447523931315301e-02
2.499668811360247767e-02
3.582301952003164730e-02
4.752095825935126472e-02
5.988011434728102850e-02
7.267576800984953955e-02
8.566681686673854879e-02
9.860079273264116262e-02
1.112192966183894599e-01
1.232637452184243559e-01
1.344945632302800564e-01
1.446602115983622872e-01
1.535273680120148865e-01
1.608940628365801984e-01
1.665858343601478719e-01
1.704592430300390649e-01
1.724046351003196975e-01
1.723481865897895093e-01
1.702506582407613267e-01
1.661066392238846612e-01
1.599588751532069753e-01
1.518889018561903059e-01
1.420155876988166144e-01
1.304919921618137579e-01
1.175013892088347250e-01
1.032526564363152044e-01
8.797676314898807137e-02
7.191177785467661732e-02
5.530456656928901121e-02
3.842119566879952097e-02
2.153017057837325332e-02
4.895898162071644390e-03
-1.122776058911458333e-02
-2.660351850843876292e-02
-4.101453538421000189e-02
-5.425958103468966898e-02
-6.621584698497913479e-02
-7.674897065704977539e-02
-8.575341959545876303e-02
-9.315533743015538826e-02
-9.891489195278187208e-02
-1.030277808204737716e-01
-1.055255983766966305e-01
-1.064798339550327849e-01
-1.060082262622796118e-01
-1.042306393248413343e-01
-1.012847058273791123e-01
-9.732445111854162723e-02
-9.251791907869180709e-02
-8.704471707963093441e-02
-8.109321504196109753e-02
-7.489259164769924981e-02
-6.863426684360561525e-02
-6.248313294958093150e-02
-5.660550858463034990e-02
-5.115123541559066928e-02
-4.625139268524128960e-02
-4.201678652063650654e-02
-3.853704641237692963e-02
-3.590937061530630192e-02
-3.418870300304454463e-02
-3.335775405422952006e-02
-3.340549098444778320e-02
-3.429639799313752985e-02
-3.597180675579537967e-02
-3.835186931343440714e-02
-4.133813331702373972e-02
-4.481876082098204539e-02
-4.867016561876527647e-02
-5.275070346230701507e-02
-5.692088969235886697e-02
-6.104016328865337349e-02
-6.496997059560243037e-02
-6.857658347777376151e-02
-7.173370497525920209e-02
-7.432147427073662604e-02
-7.618517030915659960e-02
-7.728543455566147524e-02
-7.756053354356089169e-02
-7.697000494433869910e-02
-7.549491189592538731e-02
-7.313726005716884859e-02
-6.991872108313001988e-02
-6.587888889834885020e-02
-6.102922631213246463e-02
-5.546327557247119483e-02
-4.928058063777270709e-02
-4.259025035953056121e-02
-3.551253399142505901e-02
-2.817458283319873233e-02
-2.070600147712083061e-02
-1.323449567118057356e-02
-5.894226227038788617e-03
1.231557315604499443e-03
8.046707356266870337e-03
1.445208149262254896e-02
2.035988698398765936e-02
2.569730811120042938e-02
3.040967124608957156e-02
3.446281210074549073e-02
3.781587331207667685e-02
4.049835500240043379e-02
4.257959368556086394e-02
4.410295056737686265e-02
4.512448002665494368e-02
4.571275716370518799e-02
4.594842487024776434e-02
4.592316922518401012e-02
4.573280598525934076e-02
4.548956200872800171e-02
4.532243175700158277e-02
4.533461101166789270e-02
4.562116928883092060e-02
4.626701194339711415e-02
4.734532848736729832e-02
4.891637147577192202e-02
