BVP Signal
-4.191888546605030720e-03
5.207575840365163966e-02
7.109954923025962881e-02
8.430194430336929168e-02
8.945185613786749146e-02
-1.292250523847671140e-02
-2.543326564199692719e-01
-4.496829592138409382e-01
-3.648742907972817306e-01
-2.354744853431522955e-02
2.840169058085755260e-01
3.397925516473935814e-01
2.366285721924412944e-01
1.901948409818964569e-01
2.114100339574793153e-01
1.350554352916917278e-01
-6.263985427371920878e-02
-1.923616095991114716e-01
-1.469299730260169579e-01
-6.832347797986648708e-02
-1.179022162606180452e-01
-2.407199715158681308e-01
-2.758613784096052290e-01
-1.709878778842957581e-01
1.828595622974205082e-02
2.168037431446763752e-01
3.275777400725025101e-01
2.749727274760632723e-01
1.287103301044190684e-01
5.008394461149207055e-02
6.118223292205715591e-02
2.471806591086078697e-02
-9.417041109211229943e-02
-1.402932938336057811e-01
-5.351524660744200190e-02
-3.986132047359908226e-02
-2.473580195264160064e-01
-4.288976802244476305e-01
-2.352923021944436921e-01
2.208718626364219451e-01
4.458855580265231877e-01
2.452897552300614958e-01
-2.042149919970387417e-02
1.166211349248247320e-02
2.034373277855087703e-01
1.960448064094291176e-01
-2.073024497488429319e-02
-1.436591083570060434e-01
-8.272581273473267327e-02
-8.661202035887870243e-02
-2.819871437601400022e-01
-4.236014987859164638e-01
-2.542289170064794268e-01
1.243253049252489584e-01
3.848626311617105444e-01
3.440420308276375683e-01
1.187845777866679275e-01
-2.361517955512587585e-02
4.719071640684924240e-02
1.897452339398151833e-01
1.790386174691577237e-01
-1.822833770691925648e-02
-2.369813411957981675e-01
-3.280566732881747827e-01
-2.836334744112946060e-01
-1.800190731010854472e-01
-7.524994914045138317e-02
2.909123612008002180e-02
1.472950396242662663e-01
2.401682552490933542e-01
2.257128977378982659e-01
1.055588639367962545e-01
2.619840215112645421e-02
1.027580937758941770e-01
2.135590007499660326e-01
1.248293036752154972e-01
-1.763081514069632094e-01
-4.360421354232921209e-01
-4.460581526291512722e-01
-2.546865867382988036e-01
-3.663174915379913132e-02
1.148546696504232634e-01
2.101278955828097539e-01
2.660637068095351720e-01
2.627336202474840898e-01
1.874913077120364813e-01
8.616380211410740175e-02
3.739661591278548025e-02
4.830064104808318159e-02
3.850037531293426518e-03
-1.985377815935239765e-01
-4.558930217637013338e-01
-5.062071199814793809e-01
-2.301921215244070451e-01
1.660640213726864711e-01
3.564453943108942813e-01
2.607985380404460596e-01
1.119693229158080783e-01
1.264745305782326024e-01
2.219593319977082313e-01
1.821169816817654885e-01
1.972703983876125666e-03
-1.327578804926700107e-01
-1.579518654960791191e-01
-1.931401917108109823e-01
-2.936407146547099778e-01
-3.386965860679598261e-01
-2.016836388142729808e-01
7.738906916980842210e-02
3.113721717083768881e-01
3.367171198607892268e-01
1.872235496866221094e-01
7.083430489046704803e-02
1.178091147245068360e-01
2.021194546559688388e-01
1.058505016179427383e-01
-1.683914926147218050e-01
-3.722722501858626298e-01
-3.329966511158138909e-01
-1.715413854783742753e-01
-9.138359365282788804e-02
-7.084678241299402490e-02
4.532085628337267913e-02
2.305814775210302536e-01
2.911128171460977132e-01
1.791508699963073881e-01
6.838486791754122551e-02
8.152392514734108087e-02
1.175041265921017708e-01
2.188885666685291831e-02
-1.796105432876083374e-01
-3.101840661192490356e-01
-2.633407646563543092e-01
-1.110799740517585954e-01
5.473752985459934273e-03
3.068387738393629771e-02
2.993991896265513208e-02
9.369226779903361280e-02
2.059840421614840267e-01
2.385896749737331513e-01
1.230710837315269757e-01
-2.303558895327167955e-02
-4.108478229280787541e-02
3.234572072305413881e-02
7.962008185657953874e-04
-2.074464276633459781e-01
-3.948758457540663125e-01
-3.077445114065929244e-01
2.720123657161077624e-02
2.805163111087176087e-01
2.167310528046371143e-01
1.582431529601002751e-02
1.866087115022529996e-02
2.165540431285317424e-01
2.679205595227264758e-01
4.018445633542772066e-02
-1.875665775158609216e-01
-1.784803756835414146e-01
-8.198521325079299871e-02
-1.281421787572860072e-01
-2.322813087694137191e-01
-1.548797788936960296e-01
9.404931434637331389e-02
2.579227481309886993e-01
1.912597589769120532e-01
1.868721525312194709e-02
-6.595692630868921214e-02
-1.432604497177591973e-02
8.765250011557490506e-02
1.398198975372149377e-01
9.759173153428812864e-02
-1.553476267024972435e-02
-1.318349306733107573e-01
-2.013240699353873175e-01
-2.280409582802892521e-01
-2.123242111752883243e-01
-9.775322607516756523e-02
1.291732991269735620e-01
3.209230512752967446e-01
3.005844115275198014e-01
1.101470003787330953e-01
-2.828564145984413525e-02
-9.413334055103361742e-03
4.376567535316733260e-02
-1.388931747361682456e-02
-1.562734122656033176e-01
-2.413454760623349182e-01
-1.906741861239340252e-01
-6.688208088930369666e-02
2.145790175810291522e-02
5.311474438923241559e-02
8.413472719799758304e-02
1.291158756572521327e-01
1.379272512069391610e-01
9.141525057628160922e-02
4.117812211958099544e-02
4.217396700052977732e-02
8.169917186138672682e-02
7.128858170482316181e-02
-7.027457142756365904e-02
-2.821264331480680676e-01
-3.681237731791977552e-01
-2.210471365197544946e-01
2.414811120512555531e-02
1.548521146891331801e-01
1.397369838346122495e-01
1.222551503336774120e-01
1.842701837711757107e-01
2.285722617781162369e-01
1.449328370046218672e-01
2.228314463552727789e-03
-5.496387367505334298e-02
-5.587298385915093202e-02
-1.597502823235555924e-01
-3.539129137748741050e-01
-4.071577166369115819e-01
-1.877519069491726533e-01
1.436763336674506952e-01
3.294878455552769925e-01
2.891330709065459414e-01
1.555697162936291456e-01
1.051195267432187830e-01
1.648118769322153288e-01
1.781482094437625285e-01
2.956516783178431140e-03
-2.715006933405920142e-01
-4.024902269743758643e-01
-2.939553408730182227e-01
-1.010636447741404265e-01
-4.647158395104211692e-03
2.465056989603392479e-03
4.670066227250402324e-02
1.751508461668903616e-01
2.938064459614472823e-01
2.848707082689503345e-01
1.546292443435422770e-01
3.464808176744699209e-02
1.814850049356359074e-03
-5.168817886659970995e-02
-2.539460068670822412e-01
-4.868491784474567874e-01
-4.624565475142590754e-01
-1.098133622673714838e-01
2.781872838783511215e-01
3.783874168178451014e-01
2.121906213748719627e-01
7.497087600423568698e-02
1.337408655118236256e-01
2.330339071600017187e-01
1.544216184559720206e-01
-6.790750891265019684e-02
-2.371666327627749427e-01
-2.931891290824003016e-01
-3.181839513398668773e-01
-3.084986756567584809e-01
-1.642009208431352008e-01
1.017073749710317720e-01
3.232146797202160027e-01
3.675335331190611177e-01
2.559127771216714309e-01
1.106425062549318827e-01
4.850347908773988692e-02
8.029194436972393600e-02
6.972076841781404966e-02
-1.207877832729861156e-01
-3.986007300811492127e-01
-4.863094991969531544e-01
-2.756157691622880823e-01
1.080910088063402608e-02
1.260236816514901104e-01
1.208873812520714908e-01
1.924524746843108702e-01
3.255430670831564455e-01
3.133239346587856078e-01
1.129989208277100976e-01
-5.048279410272948908e-02
-1.201510355096740978e-02
7.776911153387119913e-02
-3.865408475639797725e-02
-3.470255601449837579e-01
-5.396714782679052913e-01
-3.841710858047476806e-01
-1.054707886059823296e-02
2.429079742414224641e-01
2.258122516720973694e-01
1.129821123598234167e-01
1.298928253142599964e-01
2.529668775775757994e-01
2.756562587484073790e-01
1.185709165758254413e-01
-5.406861129797824184e-02
-7.013046583851116622e-02
-8.871801503765208707e-03
-9.432604663495680608e-02
-3.361301392925356568e-01
-4.564936536566968073e-01
-2.696124054702132011e-01
4.077651366280188316e-02
1.797955636336769636e-01
1.333584334994110665e-01
1.155521863097664914e-01
2.131469292168766128e-01
2.760724579620281727e-01
1.744837257391633756e-01
1.915259341469322321e-02
9.215762718605913228e-03
1.119769760196012154e-01
7.118555099633169791e-02
-2.146560132746034855e-01
-4.950604667652407365e-01
-4.708114448242142758e-01
-1.737839055786657982e-01
9.912928595077935556e-02
1.624846906133644020e-01
1.083200624845042648e-01
1.122897255106354297e-01
2.015756713973785863e-01
2.565044626288387475e-01
1.804602821992177808e-01
2.557907861473721067e-02
-5.364433296460252576e-02
1.397888898744414909e-02
9.659063364636361060e-02
2.664443482813139141e-03
-2.500578776433958761e-01
-4.182606667104459830e-01
-3.283616117570411497e-01
-8.959156574958793140e-02
5.604728166837358305e-02
3.901412221930355972e-02
2.786560697893891714e-02
1.670392859211789482e-01
3.373590187408506136e-01
3.078427221477512687e-01
9.543156693320653527e-02
-2.490032518711182696e-02
7.721389621333651920e-02
1.794779046851106563e-01
3.012580606747344847e-02
-2.823558822626414111e-01
-4.536153126222782217e-01
-3.636977342508154187e-01
-1.797182474680539821e-01
-8.149191186392541753e-02
-3.518236231918969725e-02
9.611752151787555931e-02
2.951155313312259221e-01
3.702848628269624909e-01
2.231002213772635967e-01
1.541078965106468246e-02
-3.311716370607220572e-02
6.986798818829725866e-02
1.347208286014369982e-01
6.382198501998667672e-02
-5.727352960411830063e-02
-1.281463711848517262e-01
-1.700396071602853498e-01
-2.537788058356939547e-01
-3.523049548393898389e-01
-3.266830934671104414e-01
-8.681434178185426509e-02
2.426719480028036724e-01
3.905682325598742732e-01
2.463535639772949648e-01
3.032121763483491828e-02
2.111664591074902120e-02
1.734982242721147538e-01
2.045108963548027126e-01
3.183704892883196247e-02
-1.126312592522757949e-01
-5.188952696945070553e-02
6.571852601522165660e-02
-1.145654091881265213e-02
-2.656958534391938853e-01
-4.201192788524674704e-01
-3.048464695754524167e-01
-5.863786353836434456e-02
8.893210095097398016e-02
1.039454615847936192e-01
1.144749313934699808e-01
1.830190951122631082e-01
2.423814731298733482e-01
2.236093691198649536e-01
1.357989371335439066e-01
3.107846348419807114e-02
-2.822121234520247324e-02
8.172329615859473539e-05
6.184925023015308554e-02
1.193202507397839174e-02
-2.060265483236982387e-01
-4.265999424685899544e-01
-4.267925963186805505e-01
-2.083474249195331751e-01
1.699964138781760725e-02
1.297174215946478304e-01
2.124687278687189540e-01
3.070202736121587783e-01
2.861389500740917358e-01
1.028469972378420749e-01
-4.675967458928992349e-02
3.013753844584021735e-04
1.136461267340995174e-01
9.284245868666322898e-02
-9.995310395541474879e-03
-2.772473288249185930e-02
-1.055331568583423203e-02
-1.488650508260350169e-01
-4.117672730662913505e-01
-5.151284768373144418e-01
-2.828252308278338956e-01
1.232776658492975574e-01
3.816435810129805706e-01
3.435574863758751873e-01
1.556426535977092906e-01
6.487385781737076140e-02
1.335843596492117813e-01
2.035590561151114364e-01
1.356580898788501965e-01
-1.348275092937478714e-02
-1.017803738736717811e-01
-1.119307686053297723e-01
-1.600688091387898471e-01
-2.977209706003473011e-01
-3.889505913479248123e-01
-2.615841017338651486e-01
3.780755149009523697e-02
2.512083191596410359e-01
2.243318529904589909e-01
1.038780945852252752e-01
1.144345745242265622e-01
2.360840587333876139e-01
2.570843780951977964e-01
1.007066852564466042e-01
-6.600989170428954445e-02
-8.121597251935874784e-02
-2.411819654491853537e-02
-1.020152053425354977e-01
-3.345797140161712591e-01
-4.741003254764645791e-01
-3.059784140969618038e-01
5.609486286152023243e-02
2.925282528634570167e-01
2.642929040351965631e-01
1.437224688234031433e-01
1.368161316396090399e-01
2.089031134641707865e-01
1.851541180266695619e-01
4.088559837086563897e-02
-6.186796035845973374e-02
-3.644481361274221065e-02
-2.397258434558498241e-02
-1.864072539708818699e-01
-4.253490588236132908e-01
-4.519630132204613959e-01
-1.587090454691134078e-01
2.062541507371344063e-01
3.281948640424430241e-01
2.014682114999106766e-01
8.526476193907939205e-02
1.369887925327558653e-01
2.481742513915184967e-01
2.407995465923232215e-01
7.967287682918716696e-02
-1.377668964154484255e-01
-2.948098057361108193e-01
-3.309383037753925727e-01
-2.711337608921224884e-01
-1.870537736703256071e-01
-9.901621368538893186e-02
3.925713738629477145e-02
2.152782128986318599e-01
2.990560471158761335e-01
2.097954763205323592e-01
7.394066666804288701e-02
7.478472613070480390e-02
1.764487136377956289e-01
1.562392290620273627e-01
-7.571009816868154441e-02
-3.333058940996741493e-01
-3.863166452038173659e-01
-2.352125705805200306e-01
-7.001692593309405410e-02
-3.482077277052797459e-03
4.198534630590922134e-02
1.562275037402613975e-01
2.624454623869024172e-01
2.233473229258330917e-01
7.231597829387464982e-02
-3.284726759157363674e-03
6.967705115003158811e-02
1.262587307666575009e-01
-1.167484262108298143e-02
-2.710371947181235419e-01
-4.031485280706161300e-01
-2.904632035017071234e-01
-5.830932007380895676e-02
1.159873651871886624e-01
1.854142091357143529e-01
1.982226793010379851e-01
1.826303643040041447e-01
1.316291859421735710e-01
6.320078834209919005e-02
2.594036215182268790e-02
2.731246508275819718e-02
4.727643075704057729e-03
-9.836222679246997558e-02
-2.536823235078990990e-01
-3.550027236542580567e-01
-2.883150688192141486e-01
-3.774610793754690219e-02
2.414248843870143157e-01
3.332672598990080726e-01
2.087594293338806417e-01
7.267415816477829082e-02
9.031572933907716649e-02
1.734159562435011459e-01
1.301525722603673607e-01
-6.852654490491766337e-02
-2.749032471066006900e-01
-3.524009492593118131e-01
-2.904363763040189172e-01
-1.623393067313086968e-01
-2.778866311093010355e-02
1.105607026663881221e-01
2.478732605943734235e-01
3.028794225521650452e-01
1.943443524130435973e-01
9.033709765157271754e-03
-3.957129733808983918e-02
1.006460253589782639e-01
1.973130840232591998e-01
2.549436000180560491e-02
-3.016935975196733399e-01
-4.534499784146748258e-01
-3.043606226041002949e-01
-6.585489893508972292e-02
3.672750395128943079e-02
4.762712376671124348e-02
1.354730255201986866e-01
2.898444806264652840e-01
3.280638858714478578e-01
1.818684513749822540e-01
2.116914500842730085e-02
1.710341668688022954e-02
8.058090549713181616e-02
-2.497259608702604924e-02
-3.287335208525093977e-01
-5.571911319058682199e-01
-4.485820070713086305e-01
-6.879611538146052085e-02
2.620539555074891114e-01
3.263955801560634029e-01
2.187358712821469431e-01
1.637323763977084345e-01
1.989233277336807104e-01
1.721086222049691972e-01
3.065314269253249790e-02
-8.194796998400977195e-02
-7.420525758448437426e-02
-6.798026679705959641e-02
-1.968379424896234964e-01
-3.678392895299137377e-01
-3.606863075217950354e-01
-1.167285117017126117e-01
1.777982386769496881e-01
3.019446316812595121e-01
2.365527140382980287e-01
1.539547810120077687e-01
1.761103159199112200e-01
2.160533739589982072e-01
1.301723110971555464e-01
-5.195921655032392783e-02
-1.822779940238142826e-01
-2.242643003951485803e-01
-2.710054988643115781e-01
-3.431712613842494708e-01
-3.149455355774144483e-01
-9.133387551878358046e-02
2.207752834265143127e-01
3.919444070723882012e-01
3.189947372678967330e-01
1.428276034586718757e-01
7.537553315443812352e-02
1.427414797187116502e-01
1.793973571188560712e-01
6.399946343596796261e-02
-1.432101306829361986e-01
-3.056325965135407996e-01
-3.540063672444552223e-01
-3.113358905438168844e-01
-2.350988570640997199e-01
-1.343342955204164801e-01
4.293218417762556527e-02
2.759255517664334079e-01
3.898533968872820998e-01
2.588298996165303567e-01
3.838397461865593330e-02
4.347365620438026212e-03
1.749525093387092611e-01
2.823039676187103497e-01
1.358559802758128043e-01
-1.557203572490966359e-01
-3.650043669794186818e-01
-4.058346605334171020e-01
-3.482645606723572818e-01
-2.636047161147490048e-01
-1.339380108918395706e-01
8.222717143634539205e-02
3.211181834373976751e-01
4.093354140309602429e-01
2.553496409299694792e-01
1.666308307353611684e-02
-4.073610247976600096e-02
1.208328099924614318e-01
2.426891908054660263e-01
1.187164968157249922e-01
-1.244801887871903601e-01
-2.358794161247205756e-01
-2.037377922952838261e-01
-2.134915321759789375e-01
-3.105744668126486641e-01
-3.183648138116925153e-01
-1.079712757342350393e-01
2.014648311930062330e-01
3.679765635803803892e-01
2.916484661850869409e-01
1.153026647091128232e-01
5.666834193979986001e-02
1.492727099703864135e-01
2.092142607667277221e-01
9.709612418382779220e-02
-8.423900471384321298e-02
-1.564145383850947257e-01
-1.413252546018474165e-01
-2.106672082033402837e-01
-3.816858484676455276e-01
-4.310643243426287574e-01
-1.859949670941115629e-01
2.034728724245230269e-01
4.080742645214585629e-01
3.080931860686321189e-01
1.114460732236864371e-01
6.097975252025278348e-02
1.465848988680991116e-01
1.894021214174355094e-01
1.215416987231873608e-01
3.941927379331877646e-02
-7.511111813752524569e-03
-1.180739825412269184e-01
-3.507070201024402589e-01
-5.511660015978395721e-01
-4.979584138307794894e-01
-1.756339707096534197e-01
2.016006767084842222e-01
4.104307496366822461e-01
3.853332616709483904e-01
2.173388780764271555e-01
7.040041551622255867e-02
5.300370277588421081e-02
1.137491213646307786e-01
1.186790257057203091e-01
4.569274976007065003e-02
-9.722098774967768975e-03
-3.898614258285165723e-02
-1.626139896054812350e-01
-3.889126536677388613e-01
-4.974706355807627656e-01
-3.115428113184485204e-01
2.540308824541565036e-02
2.172625640015000692e-01
1.979815799899479201e-01
1.668835865909276128e-01
2.525746558031366495e-01
3.249651627167005064e-01
2.131270397906675496e-01
-1.819169526382515001e-02
-1.355864516545017273e-01
-4.381518758285424253e-02
8.959197154520469331e-02
4.505090909651698894e-02
-1.836983449286195835e-01
-3.864807912201699835e-01
-3.780457086642961539e-01
-1.942328203591148217e-01
-2.010704882044989095e-02
4.914676000568590775e-02
9.709518798381067128e-02
2.116876314195212938e-01
3.219324498798561418e-01
3.022415694315447876e-01
1.732814309429615840e-01
7.481546406088845913e-02
6.040929739446521118e-02
3.441438371617770720e-02
-9.485377779267556431e-02
-2.778013076595768904e-01
-3.713204119193191377e-01
-3.022040094097633300e-01
-1.534288744187367604e-01
-5.701694903129328473e-02
-1.684976363123744103e-02
7.947671529179933803e-02
2.478753238546960169e-01
3.266014783717129943e-01
2.048300934190450673e-01
2.607234992918944227e-02
1.090442748234277115e-02
1.410504914560600787e-01
1.912918613745362983e-01
5.012217862457502005e-02
-1.603532049293426853e-01
-2.884054966206749393e-01
-3.202706971675461922e-01
-3.076312452583144230e-01
-2.476816148572595910e-01
-1.018890037439655616e-01
1.088035603048213007e-01
2.772549548630236504e-01
3.008650071092493494e-01
1.991367856716115270e-01
1.046133076489861730e-01
1.093266629369730736e-01
1.551549264368839165e-01
1.201649920713322994e-01
-1.409079807032559417e-02
-1.447178725246333897e-01
-1.947701997710681310e-01
-2.069972495340415830e-01
-2.551708574085789771e-01
-3.112202146613412546e-01
-2.560686446214029410e-01
-2.820275047415055081e-02
2.582625236289562976e-01
3.868541051784770701e-01
2.751725725138040590e-01
9.638301921314973431e-02
7.058128553259179760e-02
1.692299904721219495e-01
1.724307828009133403e-01
1.000551831499416067e-02
-1.481637015561151349e-01
-1.832672621664468149e-01
-1.996468085921991875e-01
-3.027078150341713236e-01
-3.806840516087617310e-01
-2.548601640333968965e-01
4.859340368276110489e-02
3.059645913820533414e-01
3.459713407505114469e-01
2.175871003835217476e-01
1.074074026474955978e-01
1.208506576707498170e-01
1.743839825555284218e-01
1.255742674833025263e-01
-2.906087130017817599e-02
-1.586550058478720659e-01
-1.866636738711712207e-01
-1.827294581247375094e-01
-2.361503313860788822e-01
-3.034040239735819044e-01
-2.431868048328889031e-01
-4.377725736163573522e-03
2.641158398257218987e-01
3.472284648161059195e-01
2.138762774224149676e-01
6.182853101680529928e-02
6.684857733480054076e-02
1.634245422829434247e-01
1.661136684831118759e-01
4.266325960645447890e-02
-7.871754953707840730e-02
-1.463217159524378419e-01
-2.445743656006635347e-01
-3.833892138950023565e-01
-4.052082929476605866e-01
-1.909669032820326684e-01
1.490371528154487701e-01
3.706973679458442916e-01
3.415211406156151153e-01
1.585385257538166615e-01
3.522712626561519400e-02
7.068373440004477315e-02
1.473756752582376650e-01
1.020223157089793498e-01
-4.294161757337347507e-02
-1.312989750308203862e-01
-1.314920449328910168e-01
-1.737385599584934659e-01
-2.981475168632466977e-01
-3.382011626763618550e-01
-1.472330884809009699e-01
1.675373487168537179e-01
3.445901128031143013e-01
2.712617905147290953e-01
1.021345373712962412e-01
5.131834624900599717e-02
1.292524014977118330e-01
1.605317118474348659e-01
4.441905634354587074e-02
-1.111467871709201777e-01
-1.654432108376922561e-01
-1.544993782088926182e-01
-2.085626609074612281e-01
-3.088610723925058199e-01
-2.742900498653197405e-01
-1.896649257829807755e-02
2.869262579690828874e-01
3.862155608051365263e-01
2.296817739965987260e-01
3.548219897402177248e-02
2.749367968430305176e-02
1.611779499711806229e-01
1.917394135954594292e-01
5.607139720865954302e-03
-2.362333747530276917e-01
-3.305040325433652448e-01
-2.816012144986778098e-01
-2.205808107594562362e-01
-1.731087520239081856e-01
-5.019608628269869866e-02
1.593371341858220158e-01
3.180191056702071917e-01
3.013009346714554115e-01
1.631540041571896138e-01
7.592330526996748929e-02
1.150009260904444330e-01
1.679186613173611065e-01
8.159835581719267206e-02
-1.518582537554057366e-01
-3.837438368337351413e-01
-4.471617539777570371e-01
-3.067520607452807191e-01
-9.834225741006352717e-02
1.921855384657086829e-02
6.633410048627946809e-02
1.895628489082166745e-01
3.756197890360479796e-01
4.049007600304445620e-01
1.959778243993619551e-01
-1.268431455356600068e-02
-3.868550419219851655e-03
7.949530133612003890e-02
-4.126753971700469759e-02
-3.442616296314254254e-01
-5.244377837347675708e-01
-3.989033828784849245e-01
-1.041845597597309547e-01
1.216677151240546095e-01
2.053299209543835435e-01
2.292268385081620563e-01
2.561293017845196474e-01
2.499152808662821190e-01
1.554525756795910874e-01
1.458681106222084467e-02
-4.123748745595035015e-02
3.701110437491295091e-02
8.990275295508087794e-02
-8.125120493167392599e-02
-4.036526807212217349e-01
-5.402187496061529037e-01
-2.964259703132936519e-01
9.884274221109431990e-02
2.639662178968995576e-01
1.486831969144211119e-01
5.607723572529244027e-02
1.799162526931252781e-01
3.450244363005844361e-01
3.028132660217841554e-01
8.737712594482119344e-02
-8.212472044831287121e-02
-1.292245652307169035e-01
-1.748145219855119503e-01
-2.991427849257939364e-01
-3.949645155587149237e-01
-3.074116869752798187e-01
-5.196510459249925606e-02
1.843710707344393684e-01
2.576082673104728160e-01
2.108443937144509894e-01
1.733958568069650097e-01
1.875458163726272387e-01
1.931086375839286551e-01
1.317753139808751639e-01
1.037469151212557644e-02
-1.167129641189633971e-01
-2.057116573113813296e-01
-2.645786239633928227e-01
-3.087607244905582471e-01
-2.837958006976188940e-01
-1.169066275730750171e-01
1.307788182754626716e-01
2.724063512896625072e-01
2.228672109655471800e-01
1.178737304797356777e-01
1.161918726200855678e-01
1.841045588866757621e-01
1.842764689231949360e-01
7.753572247587436905e-02
-7.418877409249918786e-02
-2.130524672619677484e-01
-3.048626499142533253e-01
-3.263258174038140558e-01
-2.721492149834361940e-01
-1.304734325313325893e-01
1.007674442932910974e-01
3.176211109608502170e-01
3.462902875922149182e-01
1.692270115341259484e-01
-2.531888074693955382e-03
1.804586940390351391e-02
1.604945581160659440e-01
1.948129843057735955e-01
6.416697621437261745e-03
-2.782764338133777438e-01
-4.257942128070648646e-01
-3.386461168967580537e-01
-1.431589233933081573e-01
-9.314833010644674172e-03
6.258400049754819783e-02
1.778523405293660486e-01
3.125946036842150999e-01
3.099109593251077044e-01
1.397655254331987562e-01
-6.768395220717815519e-03
2.263556417830370204e-02
1.105517309223724431e-01
2.430756339168860247e-02
-2.560010725685245569e-01
-4.835493211044431527e-01
-4.270490630212173122e-01
-1.324892234580146155e-01
1.394894451206615260e-01
2.111020411953322684e-01
1.604748002727128808e-01
1.670584476413532471e-01
2.468383140905809625e-01
2.480757806464310433e-01
1.075141898113150390e-01
-2.961578062822900481e-02
-2.817840441364949378e-02
8.437303192474210345e-03
-1.238901778412765387e-01
-3.998844216472654534e-01
-5.336951539600095495e-01
-3.249114773871822903e-01
7.320938384090627804e-02
3.205116094411653571e-01
2.859368149378274659e-01
1.676123386026975304e-01
1.837645718619140833e-01
2.726555349869323464e-01
2.302245381010088465e-01
4.838253719044141588e-02
-8.411358561552317870e-02
-1.010788817770238990e-01
-1.655945220531195861e-01
-3.753329058432093301e-01
-5.348636979744139097e-01
-3.888573194517158660e-01
6.827164047468636809e-03
3.299033087236538098e-01
3.801349943512012386e-01
2.635091164971221644e-01
1.884147515229714354e-01
2.143003112125280163e-01
2.380837891387234395e-01
1.496031261728997808e-01
-4.829139577406055261e-02
-2.565203969980549559e-01
-3.806837732908522343e-01
-3.961863601640354116e-01
-3.296435555219359159e-01
-2.061852904015266663e-01
-2.767027330072369118e-02
1.888407843633965744e-01
3.585686026330341392e-01
3.735238317105045169e-01
2.405760790875887956e-01
1.099372382756583499e-01
9.319130109645173965e-02
1.139876988230524857e-01
2.818590602150550239e-02
-1.647105305821399135e-01
-3.277775119491058708e-01
-3.638726989876214790e-01
-2.972476445363612108e-01
-1.945585680915574711e-01
-7.393075772110163646e-02
8.738997147585680914e-02
2.717070269582828601e-01
3.779129723838822175e-01
3.109058918009302008e-01
1.253361259723041743e-01
4.658956848074935486e-03
4.312710098618477428e-02
1.131410249161654558e-01
2.358973661971086599e-02
-2.256879559823773418e-01
-4.274703663881407323e-01
-4.121829971847031926e-01
-2.330703856065465263e-01
-5.263674085238512212e-02
8.242120865147334330e-02
2.363922929089824487e-01
3.860443698551709879e-01
3.836079895358381897e-01
1.770124390191739061e-01
-5.097918585144201042e-02
-8.386694389041648989e-02
3.443555156897119829e-02
4.399986045410375635e-02
-1.730701116033560583e-01
-4.112684700562390661e-01
-4.010350538489549366e-01
-1.510374198303463256e-01
9.417104588951719091e-02
1.821725448904910061e-01
1.875611294539581975e-01
2.234696309242815149e-01
2.619121984773170597e-01
2.005932011152761485e-01
3.797531910398610488e-02
-9.725767990545695907e-02
-1.116485340110375812e-01
-8.599119954550946132e-02
-1.623866776028001224e-01
-3.094917745483081184e-01
-3.250521093612435686e-01
-1.080201202273154415e-01
1.854349618596424221e-01
3.256548965629786352e-01
2.698176891392417009e-01
1.603206224891424725e-01
1.115607381032662770e-01
9.216996477416686262e-02
2.176670534065960894e-02
-1.007208509297658761e-01
-2.092665150122302586e-01
-2.554793262638176965e-01
-2.337524366848118262e-01
-1.604520571527879857e-01
-5.985011682644464370e-02
5.778053832351476293e-02
1.960586572947963790e-01
3.097491591686831747e-01
2.957201664221998927e-01
1.314035292651514197e-01
-3.517056792149375610e-02
-5.079559711614656248e-02
1.924146927612851998e-02
-3.459861350161452798e-02
-2.558585791967475931e-01
-4.216822972296782601e-01
-3.223465349522190992e-01
-3.305226761989145390e-02
1.923222533941436052e-01
2.288290990802056557e-01
1.836854181045532997e-01
2.090967527740947851e-01
2.808468961768003647e-01
2.300527385541448755e-01
1.262948282230133557e-02
-1.807083942309265501e-01
-2.026877106509680782e-01
-1.871335505523377130e-01
-3.037042023096394594e-01
-4.143567504946427116e-01
-2.474103068626262170e-01
1.553239239533488747e-01
4.377308860849448702e-01
3.842978373815872928e-01
1.621558819899971693e-01
5.165912577366416070e-02
9.410307818395491353e-02
1.195786114339412037e-01
2.861880121397192278e-02
-1.130017921363428157e-01
-2.307477432478990953e-01
-3.212679217628727213e-01
-3.553715654867322660e-01
-2.532672096572983755e-01
-1.263905648539648263e-02
2.351110737714463550e-01
3.464577431725794909e-01
2.937390571435053443e-01
1.594605086991357779e-01
5.603250151805421603e-02
4.956700833295119013e-02
9.853039231584767577e-02
6.633439276948077667e-02
-1.343227055451883811e-01
-3.923103104171284938e-01
-4.679048270266275011e-01
-2.657803367079107359e-01
2.839533783531866806e-02
1.736857223792991345e-01
1.700556740068274730e-01
1.925255669415617543e-01
2.792583605304083116e-01
2.734825179853915822e-01
1.020395363825502277e-01
-6.772758819748134207e-02
-6.318348647317489908e-02
1.488107321804767874e-02
-7.892743403865609686e-02
-3.533757279634288651e-01
-5.145760831495529430e-01
-3.343804135944283829e-01
6.079391242229678638e-02
3.493270868896302117e-01
3.660394113391824966e-01
2.221887787993064856e-01
1.284221138114846061e-01
1.570505083120219691e-01
1.862742804158518117e-01
7.565688174487393558e-02
-1.395490742640342063e-01
-2.941106331577150179e-01
-3.132617698892357083e-01
-2.790858520271339849e-01
-2.553309369572546728e-01
-1.677406074452538753e-01
5.391794352284395853e-02
2.967494471483723695e-01
3.660097035997524895e-01
2.512054490400998930e-01
1.448030602233030262e-01
1.667340930286151934e-01
2.047306756191705768e-01
8.384028202836477095e-02
-1.954943315182854913e-01
-4.439305508971934100e-01
-4.819043464686387779e-01
-3.217014840518495622e-01
-1.235713047236275397e-01
1.856531234651742635e-02
1.585888122244125120e-01
3.308790667873506841e-01
4.204960647781293970e-01
3.026870265730186027e-01
5.106952775318907012e-02
-9.856045991749717849e-02
-2.092440873634116016e-02
1.092725686084381476e-01
4.617772073869375049e-03
-3.300985410669423636e-01
-5.394438350312954489e-01
-3.708402777181022403e-01
-1.025809782965569905e-02
1.998650972378234192e-01
2.086455494003809363e-01
2.114164382805463482e-01
2.795332473656433336e-01
2.760257486300251584e-01
1.237771238487648251e-01
-4.393122467595651781e-02
-8.085213571496840945e-02
-5.298241484871202278e-02
-1.367963587957000682e-01
-3.387581049439160052e-01
-4.487788359491991508e-01
-2.890729383087493609e-01
6.814036740769313649e-02
3.571855070246407471e-01
3.817258644099952303e-01
2.170461633378449329e-01
1.053167514239318203e-01
1.355098033338018038e-01
1.462184722671103221e-01
8.678837141528006338e-03
-1.641599837622172986e-01
-2.226838970666121797e-01
-2.255873999385789586e-01
-2.910655345201564881e-01
-3.321950286696634391e-01
-1.672255125719991353e-01
1.613575745362265113e-01
3.892994618920110339e-01
3.575805968146720804e-01
1.824797763354810698e-01
7.623958331729352444e-02
1.027114999057661127e-01
1.422642077758470847e-01
4.734484103230035545e-02
-1.898233533170449183e-01
-4.101746691010679235e-01
-4.311990614536286848e-01
-2.354379206720183526e-01
2.438631251460710025e-03
1.140419399788016042e-01
1.275063486639885779e-01
1.842241799902115673e-01
2.960141721588398500e-01
3.088813621721082647e-01
1.464256772402295903e-01
-3.738383222084176727e-02
-7.440886222294018637e-02
-5.687490922284479944e-02
-1.913671855239525987e-01
-4.190204349544438545e-01
-4.349422017461190837e-01
-1.249992836387931461e-01
2.470632783065388471e-01
3.762312725244805756e-01
2.633656449882407213e-01
1.241757644019761964e-01
8.851435997863743577e-02
1.078448104298293519e-01
7.603190209575744207e-02
-5.765995147110608565e-02
-2.442258636528621130e-01
-3.516498792189455269e-01
-2.852151333202447292e-01
-1.066240225536382313e-01
4.522895377471566891e-02
1.371358105868857313e-01
2.290591169945944694e-01
2.983949099971775487e-01
2.396030967550752400e-01
6.489798396835236294e-02
-6.049484752182043845e-02
-5.459312856734133135e-02
-5.284055711362872776e-02
-2.003044076056312850e-01
-3.964219467522673845e-01
-3.818904781273381177e-01
-7.788713487979015415e-02
2.802907465921999353e-01
4.086782436226896187e-01
2.894506793871435835e-01
1.339387296639070746e-01
8.981334140859034698e-02
9.088945177540813658e-02
-6.457434940862816219e-03
-2.136182155574813391e-01
-3.752853760942450601e-01
-3.427957766131444206e-01
-1.553949671961847301e-01
9.279184888376090790e-03
7.452044770865215439e-02
1.456656256386082426e-01
2.875460313794207523e-01
3.656401103667114572e-01
2.458746578510769276e-01
2.363415598507306870e-02
-1.114893041616771829e-01
-1.439253052293883450e-01
-2.065920622725320177e-01
-3.332239271904528510e-01
-3.697835714998856105e-01
-1.703998694536150160e-01
1.725824468514419452e-01
3.800291031632996863e-01
3.031189478082513822e-01
1.069933636175891684e-01
4.710860038580277909e-02
1.316684355537276752e-01
1.418278931103371387e-01
-4.439663965439971660e-02
-2.912163042530815371e-01
-3.815356730316135647e-01
-2.606581869655058004e-01
-7.166782387415221445e-02
2.966218857971514300e-02
6.166993715067008164e-02
1.535320674046275480e-01
2.993268305755062419e-01
3.232099128659166043e-01
1.568102966719355784e-01
-2.521756688623857240e-02
-7.074836909232082305e-02
-7.888234764896728812e-02
-2.036206374607589797e-01
-3.702197093354948620e-01
-3.607209203116508722e-01
-1.104213732947613158e-01
2.063116429246798500e-01
3.590977246834744507e-01
2.772488311674377037e-01
1.075232082856381888e-01
5.572013293308092363e-02
1.343260612342514759e-01
1.241582960279374870e-01
-1.238470476279503463e-01
-4.263550921735435040e-01
-4.659576843340426100e-01
-2.063403750154451100e-01
8.260582543901162644e-02
2.062331441534526189e-01
2.391859579777205758e-01
2.914947326704208086e-01
2.934102782567133971e-01
1.429635751641034624e-01
-7.722122744708204145e-02
-1.952698425542648830e-01
-1.941085271837942883e-01
-2.030961908220342282e-01
-2.647202264041104702e-01
-2.551622042954933556e-01
-6.919056049604649372e-02
2.090227986675112781e-01
3.702699659122109521e-01
3.000831944616405567e-01
1.141403444679321699e-01
3.520183017662958935e-02
1.107807618055588472e-01
1.275606240105285616e-01
-1.036554166493895979e-01
-4.403922159387452795e-01
-5.326286886702708001e-01
-2.571057622927430675e-01
1.169575485010270754e-01
2.571547256473862841e-01
1.559861769038801138e-01
8.592454098626955972e-02
2.103798532695050350e-01
3.686900665498795693e-01
2.983779487110758133e-01
-1.857654714502177118e-02
-3.351940744422437501e-01
-4.409783717534874192e-01
-3.659658695818894247e-01
-2.411161676083414251e-01
-7.828828081992178500e-02
1.718709037351950908e-01
4.052069010197909549e-01
4.071688463937630509e-01
1.605514259523248555e-01
-6.301802879124301926e-02
-4.353023431019686917e-02
7.868606540625144863e-02
2.360982864673122350e-03
-2.899659569523382885e-01
-4.780004230047986136e-01
-3.195953936338846724e-01
4.161954856925242918e-02
2.785212150835583156e-01
2.758028109271418726e-01
1.861600697170526786e-01
1.599829722639113938e-01
1.803177568923736707e-01
1.535562088561948091e-01
2.777141221763573808e-02
-1.811897593888766034e-01
-3.823880012091394054e-01
-4.474117254027233370e-01
-3.308186607610763552e-01
-1.116553935516058083e-01
1.261021206152384277e-01
3.549587071162962904e-01
4.982552787765296420e-01
4.212032452297506113e-01
1.384305079696157570e-01
-1.137566328693540019e-01
-1.557201474675663500e-01
-1.056443696944308064e-01
-1.858733901254232546e-01
-3.633366322052806741e-01
-3.748452202789890331e-01
-1.128981351165700975e-01
2.024569293495359634e-01
3.103350282466853516e-01
2.198145478898845817e-01
1.241864607550386967e-01
1.145139010712149241e-01
1.201204285297231694e-01
7.034788063733010688e-02
-3.268622463678910739e-02
-1.705927667174065299e-01
-3.019226172220956794e-01
-3.247519857159661960e-01
-1.792830836464263111e-01
3.652284403219635545e-02
1.801800582751369451e-01
2.401736182898355221e-01
2.643221307861538527e-01
2.184045022995087793e-01
8.267157167279448604e-02
-3.954981731051257499e-02
-7.904776041780145479e-02
-1.260071200600935137e-01
-2.489761536018406662e-01
-3.345717789761880612e-01
-2.413300462184982398e-01
3.707747588503507163e-03
2.449176072814928107e-01
3.356983911014609911e-01
2.270254371148437700e-01
3.657653723596876461e-02
-1.631375578934490811e-02
1.083377680443437241e-01
1.505855609083355251e-01
-8.770088439840051375e-02
-3.802223278042581311e-01
-3.549491425624583529e-01
-5.297621843050148716e-02
1.225351713346844590e-01
1.273478431521568588e-02
-8.527585783739155545e-02
8.254425120578001707e-02
3.241355893111813602e-01
3.145101678154786362e-01
9.016790651258888012e-02
-5.913709436055236690e-02
-6.645862745936331750e-02
-1.339039797605706683e-01
-3.234873515300258351e-01
-3.982080935201006699e-01
-1.650156034413706729e-01
2.088558804026220406e-01
3.704400147144091826e-01
2.211942716804488618e-01
3.461813799650237389e-02
7.007041839350935941e-02
2.050990542000586669e-01
1.325969255528804958e-01
-1.631065483997251597e-01
-3.830902336068049974e-01
-3.472877810129858522e-01
-1.844481919541265946e-01
-5.696516717496075133e-02
5.851775084361762747e-02
2.248635368867052953e-01
3.573882920248142581e-01
3.202714694628555070e-01
1.358126636952441957e-01
-2.874625460976049096e-02
-7.794001656179883053e-02
-9.417615502606524469e-02
-1.968247606411235306e-01
-3.595065540852548924e-01
-4.141354965502193064e-01
-2.264364692624521447e-01
1.392184618351985925e-01
4.397553610359653531e-01
4.739786317489562695e-01
2.816038105211963183e-01
8.483041933702822890e-02
3.382349852615340602e-02
4.101598340321332969e-02
-9.502486186534775392e-02
-3.814121241789474315e-01
-5.408675646898680744e-01
-3.547278283615003525e-01
5.968112901246158675e-03
2.022064446621423262e-01
1.924366099979882283e-01
2.063987967651812472e-01
3.128569650592666340e-01
3.277446550334042197e-01
1.573515862924379505e-01
-5.821648819268063213e-02
-1.831597678781296534e-01
-2.387052339917524746e-01
-2.848675436662786997e-01
-3.109566755126289550e-01
-2.551673402754426334e-01
-5.760129359435517404e-02
2.468973650643808693e-01
4.631664517147424109e-01
4.012709365853450727e-01
1.390140954238154314e-01
-4.092810445924405238e-02
-2.180171450642365283e-02
-6.374099904965013774e-03
-2.047680665781799192e-01
-4.800772527024492753e-01
-4.798111403151946730e-01
-1.148940251687379510e-01
2.867054935883013855e-01
3.851652861568142239e-01
2.239722477455292349e-01
1.020633060447637686e-01
1.678029987090328135e-01
2.719951379860642837e-01
1.834099616943898892e-01
-1.373316029015528295e-01
-4.775805973015249117e-01
-5.680024168007168361e-01
-3.594230957082517053e-01
-7.169881569381797437e-02
9.961054083394847714e-02
2.259135570980668195e-01
4.221435219034380681e-01
5.187790105884187986e-01
2.861820730421613668e-01
-9.275455231968998682e-02
-1.967551982890564100e-01
-2.109043977750749838e-02
-4.473971498261786195e-03
-3.179480353344189547e-01
-5.795209593337273812e-01
-4.316948075339046009e-01
-1.451080058568907094e-02
3.086041686406177376e-01
3.969652382862717821e-01
3.468723051299330562e-01
2.660728290622561554e-01
1.858886668023201905e-01
1.034961291722139576e-01
-4.361242677971499671e-03
-1.684059879694880246e-01
-3.415710415599571004e-01
-3.891633846622162829e-01
-2.716558529700153768e-01
-1.396238236653412068e-01
-9.074194653994882565e-02
2.822806069680106056e-02
3.306058783918669475e-01
5.513512087291390085e-01
3.671370906476341123e-01
-3.010045098249397588e-02
-1.291118983056420699e-01
1.133100151988250814e-01
1.643011877427054124e-01
-2.578062915066513527e-01
-6.954183960994019253e-01
-5.733655848415430967e-01
1.991824566827588017e-03
4.082847183757470355e-01
3.280334152840956308e-01
6.798495993067299459e-02
4.447903649867168685e-02
2.329639871099933313e-01
2.930535017621103133e-01
8.637738789979784726e-02
-1.671384602022450983e-01
-2.422567953102275906e-01
-1.995815045701008206e-01
-2.232282314444609117e-01
-2.992977255813193405e-01
-2.125328024899747481e-01
1.226199497417047590e-01
4.517962774921009950e-01
4.451883431654530821e-01
1.404614018871382097e-01
-7.933867689260065692e-02
-3.417912332189798619e-03
1.282219657519467482e-01
1.784444262671491810e-03
-3.029219001643146392e-01
-4.328429539890303324e-01
-2.537845121932381098e-01
-4.601151860936902871e-03
6.064819703943624685e-02
1.242227620436897606e-02
9.044900874985684069e-02
3.038203511362592701e-01
4.073907393293558221e-01
2.687654609468320133e-01
3.227753596072463482e-02
-1.128347398158923709e-01
-1.437950762554150996e-01
-1.614642524052474215e-01
-2.562220539473193393e-01
-3.936180608331849018e-01
-3.804351316666515492e-01
-7.392519639874872706e-02
3.274490517496286279e-01
4.419874651627312967e-01
2.352103002152529099e-01
7.349965261639679337e-02
1.435039877872194003e-01
2.068349258995941797e-01
6.995976012101978725e-02
-1.183920386341790060e-01
-2.035807078791519176e-01
-2.672008550547329553e-01
-3.625104127339792148e-01
-3.412905646535748794e-01
-1.141439211050205293e-01
1.624464512928976423e-01
3.024276930152120513e-01
3.085143891715838582e-01
2.575638871268911556e-01
1.521367549386132834e-01
2.371864390944600220e-02
-7.862553198461519344e-03
5.543561824271131533e-02
1.625592698463340646e-02
-2.090699682462325848e-01
-4.153938830236243440e-01
-4.010114407268425829e-01
-2.151783642793225759e-01
8.468097447907996234e-03
2.227570417529152191e-01
3.686084990705190689e-01
3.464217364461605886e-01
1.802100103254879460e-01
2.585276450799384174e-02
-2.101406435455005495e-02
1.082263842564168410e-02
4.692456970798193627e-02
-8.945744708902858555e-03
-2.176710628571102424e-01
-4.610873300555101695e-01
-4.852511007474454852e-01
-1.878861072043140901e-01
2.231004429661108679e-01
4.295551839215714374e-01
3.378330275295179375e-01
1.596369793319759589e-01
1.286130221340924529e-01
2.089067134054524155e-01
1.800320599006768330e-01
-5.215920431193520057e-02
-3.462153055840638816e-01
-4.941186648493485767e-01
-4.178134638177657956e-01
-2.101802509179365730e-01
-8.011222493811476220e-03
1.641667508061838143e-01
3.548132720520149053e-01
4.855048265347345904e-01
3.720055136454576972e-01
4.579205977937622629e-02
-1.701753174244139410e-01
-1.053865294606341346e-01
-2.991101282974989450e-02
-2.191570656306567333e-01
-4.642306787584548067e-01
-3.758236203376486007e-01
1.319835348823444887e-02
3.145222187411931269e-01
3.200277535863348399e-01
1.775916559485863910e-01
1.165591035834789846e-01
1.799231981641221390e-01
2.035022474908019241e-01
3.016567569741762656e-02
-2.547077076828874742e-01
-4.061087374397986949e-01
-3.428418737403144401e-01
-2.076722859688395761e-01
-1.006663418209822192e-01
3.250952972579870814e-02
2.226394319295614821e-01
3.715054285611030238e-01
3.737339799711988375e-01
2.471455464808964830e-01
1.004324526499125181e-01
2.497524469944334413e-03
-8.463472522711940060e-02
-2.342912516029987957e-01
-4.254741745476074977e-01
-5.021892086814571110e-01
-3.124799021115328146e-01
6.754449840445231334e-02
3.355946749929280548e-01
3.104395335430931713e-01
1.753732498734182910e-01
1.978709251136994141e-01
3.176002829796600868e-01
2.498719874495344273e-01
-5.909899774866825273e-02
-3.334762610572529207e-01
-3.544971073042264553e-01
-2.261573818158901794e-01
-1.588975850682141644e-01
-1.653628894625990831e-01
-9.973488618338488543e-02
1.092123340510193774e-01
3.490167263035686140e-01
4.117075936902517830e-01
2.268869656297232140e-01
1.619309762827425558e-03
-3.407464951953509402e-02
1.466561580652697705e-02
-1.224335478524605225e-01
-3.948422481931617156e-01
-4.624408335574911044e-01
-2.054797306471563001e-01
1.318024711698181917e-01
3.094487366844709264e-01
3.142756275701565905e-01
2.318031869688483848e-01
1.374111467352432392e-01
8.212418989770120525e-02
3.137903844604750248e-02
-9.480538532739907209e-02
-2.474053341304781606e-01
-2.809700264927457725e-01
-1.940712305530226667e-01
-1.260856763728522845e-01
-1.032567752632325420e-01
-5.839220752706042461e-03
1.994948285594223547e-01
3.674055931016497190e-01
3.406948645095472239e-01
1.379254563631145958e-01
-4.273562023952370836e-02
-4.644527363496699091e-02
1.017471234828104532e-02
-1.144357443861165891e-01
-3.774217975462773600e-01
-4.358517068737770561e-01
-1.427337889888912470e-01
2.049262986757670879e-01
2.721982376947200688e-01
1.221865222998503864e-01
5.032761417038800200e-02
1.319846761217035036e-01
1.750540833688736253e-01
7.080799403385595880e-02
-5.835642784574091024e-02
-9.290624944496572724e-02
-8.837874237406873057e-02
-1.422547069607568160e-01
-2.275881249416661367e-01
-2.260802801858789179e-01
-6.654279068058743807e-02
1.809600418971559765e-01
3.317391134101303485e-01
2.629021440929780185e-01
7.545169509276478115e-02
-1.485783428200093681e-02
3.886002267442881242e-02
6.024845117128596605e-02
-8.798361014920530465e-02
-3.002898534995757096e-01
-3.571032435035256802e-01
-2.039717124179109276e-01
-9.252031854856901383e-03
8.095488356343394365e-02
1.312151776416164983e-01
2.523516955216909552e-01
3.644311398526937085e-01
2.976332315145310825e-01
6.617739812167985902e-02
-1.317760745878982509e-01
-1.853391447062838204e-01
-1.891885359836507075e-01
-2.392790434117495479e-01
-2.674644870713687173e-01
-1.835168140764905087e-01
-2.118515467536197239e-02
1.546859989563347804e-01
2.973926110554230284e-01
2.955575026241467618e-01
9.952416120889856499e-02
-7.623563762723184478e-02
5.083327982380647647e-03
1.942296677625077739e-01
1.407556825259265176e-01
-1.646616846955786806e-01
-3.935776594424784114e-01
-3.709718442244823167e-01
-2.148914773603380901e-01
-3.767545294591195804e-02
1.669996975084133695e-01
3.542118763321778774e-01
3.942708439599705850e-01
2.391967812407020944e-01
8.515564275833352459e-03
-1.194008379263339359e-01
-9.575600915131865509e-02
-6.531731070077367862e-02
-1.776594260282763349e-01
-3.475645414553285573e-01
-3.312426045284672105e-01
-6.214393841465881002e-02
2.298653682482283411e-01
2.961685462793108847e-01
1.723299137219816424e-01
1.136670633676012399e-01
2.372034527939728132e-01
3.378367543995215438e-01
1.575870803615215809e-01
-2.465012627129667677e-01
-5.449297209596751790e-01
-5.098825755429223783e-01
-2.408454971625716423e-01
-1.279621327534274933e-02
5.932669290777375926e-02
1.325815728376471547e-01
3.372014135871471696e-01
4.933126858884241406e-01
3.563251109644678394e-01
3.663984977602101345e-02
-1.454753043071075891e-01
-1.489795872646589026e-01
-2.105363049218867966e-01
-3.925236336730162368e-01
-4.596390157660731335e-01
-2.368098893020029738e-01
1.430616008083126500e-01
4.071921336942910807e-01
4.208784277905768256e-01
2.548633428096003795e-01
7.612673183170204361e-02
1.511740631951631608e-02
5.793458424134512175e-02
3.348869658474723510e-02
-1.870555717629647230e-01
-4.498772326129298338e-01
-4.506758756248303022e-01
-1.574173326705171072e-01
1.282517473289304932e-01
2.027976698779154763e-01
1.857581213151846544e-01
2.226367142440227598e-01
2.524675026316838267e-01
1.983303695619687002e-01
1.242705340217470644e-01
5.792350358490166995e-02
-1.193392518218761578e-01
-4.408366442575047950e-01
-6.619525235751226866e-01
-4.819964437801929069e-01
6.169741033961939625e-02
5.548632901918804095e-01
6.244197872110051062e-01
3.257103846013600368e-01
2.488602096949599218e-02
-5.373449321172096838e-02
-2.818915296624818767e-02
-1.081566658539137027e-01
-2.952309537261033068e-01
-4.038755886392404459e-01
-2.955465539914593487e-01
-2.923367254395367598e-02
1.960787998157862977e-01
2.467473420908748438e-01
2.010682394646398086e-01
2.216147280068289094e-01
2.904876718418920589e-01
2.218300428923449252e-01
-3.398211494301031643e-02
-2.824541078498161162e-01
-3.532260666973690566e-01
-3.039444876768367942e-01
-2.558893737076861630e-01
-1.800871601384209653e-01
1.210347286413837598e-02
2.620708214995614016e-01
3.907336906985579006e-01
3.086015223822716758e-01
1.215517968586861675e-01
2.046462222149042498e-02
6.027532363159282536e-02
5.829537221444558437e-02
-1.795814810128422145e-01
-5.004100749566933182e-01
-4.877898745230726529e-01
-4.125231041251677111e-02
3.809673420490040097e-01
3.367330774435201568e-01
3.399843849062333945e-04
-1.074935480415519784e-01
1.415348684482047315e-01
3.366021061839571393e-01
1.310795314620976093e-01
-2.847659904580032153e-01
-4.567724644001338596e-01
-2.518481345976679719e-01
3.055341818836587731e-02
1.108923631392728648e-01
8.107129254346068237e-02
1.627812571363361216e-01
2.910366770430395933e-01
2.294482905841053189e-01
8.648037176427508799e-03
-1.126776420674907853e-01
-9.816376906057622254e-02
-1.622752723787321827e-01
-3.305716603033984624e-01
-3.465606874806698157e-01
-8.761223729897393842e-02
2.318958836322586592e-01
3.519108138076612047e-01
2.463135884601329595e-01
7.474677335403684397e-02
4.736446008478459313e-03
7.140262592495796867e-02
1.220272561413433543e-01
-2.835760124013653183e-02
-3.144346141913038073e-01
-4.224528702275183178e-01
-1.852348327200286082e-01
1.614700638523980381e-01
2.744397381954397641e-01
1.354527179035253104e-01
-3.132772041020803755e-03
-6.047678206569928605e-03
3.926145186433571688e-02
4.509680691302242472e-02
1.626673298155378866e-02
-4.822761537938373422e-02
-1.359477692218014067e-01
-1.483987040789513934e-01
-3.097241144872664442e-02
9.895539650800788678e-02
1.164393893558459681e-01
8.260650955580084442e-02
1.096967143341989193e-01
1.293805156558932856e-01
-8.404200016025820119e-03
-2.443164231489090565e-01
-3.242016707872464321e-01
-1.450853919785360935e-01
8.734683533627296548e-02
1.388376741045778129e-01
5.432604896840567688e-02
5.387171146242142328e-02
1.879070120085981621e-01
2.586882526883847455e-01
1.152945895027536749e-01
-1.170955379640643557e-01
-2.184845405964734866e-01
-1.881776424789172730e-01
-1.938141342379735566e-01
-2.439463497020950555e-01
-1.484596572283351512e-01
1.463339615110419434e-01
3.993859054606932468e-01
3.613359993168216988e-01
9.866714395127601511e-02
-7.777334887085052273e-02
1.560031974642939190e-03
1.292405656075059084e-01
-2.028066093684521842e-02
-4.036312207123168294e-01
-5.831239149624387608e-01
-2.909214632674379519e-01
1.982086063903248652e-01
4.350941852786394115e-01
3.423996507838850678e-01
1.774573985062433135e-01
1.104936258094921797e-01
8.238473212996277883e-02
-2.719833346919386940e-03
-1.445467460390950087e-01
-2.798259172967851871e-01
-3.361611718480735367e-01
-2.698647735400743208e-01
-9.663958986251675043e-02
1.189598179612006423e-01
2.947604175265176596e-01
3.555727915333470879e-01
2.780564552577228232e-01
1.222843824815621483e-01
-2.494026008327099309e-02
-1.364053736637422798e-01
-2.318166603813286986e-01
-2.949074748307045635e-01
-2.666224099089244959e-01
-1.280855608169275128e-01
6.363594018323337487e-02
2.283432315499123177e-01
3.040742076198164057e-01
2.603880691584741225e-01
1.310182911500433756e-01
-5.697289647071196450e-03
-1.151491688274887126e-01
-2.070450870295925394e-01
-2.485099535803664272e-01
-1.809999897311091455e-01
-2.359787291878778781e-02
1.225185021829708898e-01
1.649855382652098967e-01
9.320737743251480967e-02
3.486242017965962559e-03
2.246339391077256664e-02
1.266770718448942956e-01
1.160896371839987840e-01
-1.072737589320340579e-01
-3.332900039268192893e-01
-2.817248102551060951e-01
2.445190633706240124e-02
2.798797227895111206e-01
2.650223014887628792e-01
8.047730148658813198e-02
-1.452828820661766773e-02
5.556392773993035217e-02
9.272146032830863582e-02
-7.999788286776499113e-02
-3.369242290633475134e-01
-3.902504443534238199e-01
-1.593220448133038092e-01
1.379590700292313565e-01
2.549227785522163447e-01
1.803464380632108233e-01
1.104320707179349270e-01
1.768628833254295429e-01
2.471645923899927766e-01
9.253231726783894828e-02
-2.506993242631987417e-01
-4.582318903979147318e-01
-3.251657601127840302e-01
-2.260897896178222857e-02
1.662984122197685988e-01
1.881545922694403128e-01
1.515869755897041316e-01
1.101373571426240705e-01
6.812987649284252267e-02
2.478580143743414066e-02
-6.724080544770977275e-02
-2.055998277319203982e-01
-2.390479919323256208e-01
-7.499446622487848657e-02
1.311965034879019054e-01
1.984655404785111155e-01
1.605634144089190807e-01
1.141205542642733661e-01
3.796762171211620629e-02
-8.601004928797406635e-02
-1.752112422887419640e-01
-1.845480835389434748e-01
-1.691322425213060976e-01
-1.432860747471704777e-01
-3.317070290356349815e-02
1.781331655397822011e-01
3.699581680957727547e-01
3.962086198594374498e-01
2.313692224381701801e-01
-1.443279953945963978e-02
-2.021439829991358295e-01
-2.792185107744109551e-01
-3.049502387390710112e-01
-3.516128420502016017e-01
-3.655587166529101761e-01
-1.865398356038680261e-01
