BVP Signal
-4.194354208913623344e-03
2.095078594109706094e-04
5.882794690380582781e-03
1.261913687389337735e-02
2.013150553240383722e-02
2.807706462426939886e-02
3.608686237701497213e-02
4.379730012863258803e-02
5.088028590997339951e-02
5.693246401141083268e-02
6.184475835992619963e-02
6.558704742792942355e-02
6.820536422710854474e-02
6.983923708222439242e-02
7.070078160251980215e-02
7.104735825138430716e-02
7.115125604032662698e-02
7.119986749074624921e-02
7.141617480307449473e-02
7.201870724388971523e-02
7.312401331651746661e-02
7.477938270224515627e-02
7.696307058588314209e-02
7.959005469851693215e-02
8.252190448543961221e-02
8.554203209612931680e-02
8.841175553845903590e-02
9.096916213251365901e-02
9.300824718676520275e-02
9.432913792245339879e-02
9.473922023126546410e-02
9.405124033286227370e-02
9.207977268649655822e-02
8.861697594995224248e-02
8.340053174676888281e-02
7.631792059931397088e-02
6.720211802753078834e-02
5.590160303186342272e-02
4.228793424135179890e-02
2.626468619570909713e-02
7.777029941238189359e-03
-1.317972927049015919e-02
-3.661756639066116037e-02
-6.235597621254096445e-02
-9.018777780900189001e-02
-1.198297013926823418e-01
-1.509260123010307542e-01
-1.830556899265192161e-01
-2.157425764424467651e-01
-2.484677051778847456e-01
-2.806572406937253295e-01
-3.117628942388087632e-01
-3.412310694061898575e-01
-3.685162815610668052e-01
-3.930965372955963488e-01
-4.144821207893752968e-01
-4.322230711642230938e-01
-4.459158545711792709e-01
-4.551512376955643702e-01
-4.596453958352235136e-01
-4.592217151344950010e-01
-4.537524307771219068e-01
-4.431931646955448167e-01
-4.275851563223697083e-01
-4.070556575020392032e-01
-3.818164858026786845e-01
-3.521311016054800014e-01
-3.183472408028134026e-01
-2.809518911294657251e-01
-2.404659046906174602e-01
-1.974675682675690602e-01
-1.525801541126496907e-01
-1.064580905634660013e-01
-5.977230033518465824e-02
-1.318809917709073964e-02
3.265736421436193915e-02
7.710572508778024137e-02
1.195562465985051670e-01
1.594575734894141394e-01
1.963188520050928032e-01
2.297194935205306709e-01
2.593173321367939765e-01
2.848565423544648922e-01
3.062277516410974454e-01
3.233006937467094444e-01
3.360761293609662026e-01
3.446401941659214541e-01
3.491618260399252938e-01
3.498886287714867427e-01
3.471409701250275925e-01
3.413040976426016671e-01
3.329023135451171234e-01
3.223783589443821040e-01
3.102059888607450744e-01
2.968775588175185387e-01
2.828791315916397431e-01
2.686802590841504412e-01
2.547247061023020231e-01
2.414218092617435585e-01
2.292062318114209130e-01
2.183963149293342565e-01
2.091930042026613479e-01
2.017495530085871014e-01
1.961399221314884533e-01
1.923601960374073661e-01
1.903326497821338226e-01
1.899119195992397813e-01
1.909132119697762586e-01
1.931088330648756124e-01
1.961696172250650960e-01
1.997399778474871213e-01
2.034345073290708961e-01
2.068515848281817504e-01
2.095875990065790839e-01
2.112511748978583570e-01
2.114654854747802792e-01
2.098868494505295446e-01
2.062795240596300150e-01
2.004241043557888347e-01
1.921642304815573965e-01
1.814119625462520258e-01
1.681508959719613117e-01
1.524370008843475288e-01
1.343932589393446175e-01
1.141151202052588243e-01
9.194599550009008304e-02
6.822341095774642206e-02
4.333933198776707130e-02
1.772704127618807135e-02
-8.153875011982503196e-03
-3.383349338221086633e-02
-5.884742061925507528e-02
-8.280930531401353711e-02
-1.053266171255398120e-01
-1.259935838113833695e-01
-1.444431178401131000e-01
-1.603571406182260350e-01
-1.734805747216544569e-01
-1.836336497421371117e-01
-1.907212301853777880e-01
-1.947099510044570381e-01
-1.957827819805550706e-01
-1.941202845549986344e-01
-1.899241329793921462e-01
-1.834488761619154085e-01
-1.749995487864459687e-01
-1.649281204755102537e-01
-1.536279608200549207e-01
-1.414853995023331867e-01
-1.289955505544008174e-01
-1.166774194636788220e-01
-1.049590067467353061e-01
-9.423604434413801467e-02
-8.486415155725168802e-02
-7.715257600411906669e-02
-7.135916686386745145e-02
-6.768965888824318711e-02
-6.630016067820770909e-02
-6.726356075650058441e-02
-7.059286389136454343e-02
-7.623591370512333709e-02
-8.407769812767690309e-02
-9.394454443944988409e-02
-1.056101151874297983e-01
-1.188119903090596591e-01
-1.333579517971194006e-01
-1.487445863400162493e-01
-1.646175063433827634e-01
-1.806214231762475475e-01
-1.964067425682347046e-01
-2.116354732844849540e-01
-2.259868058741712760e-01
-2.391625591310029830e-01
-2.510144748302915452e-01
-2.611508068062421417e-01
-2.693478729178062081e-01
-2.754547464677861712e-01
-2.793679486386380639e-01
-2.810272597337471479e-01
-2.804104363013461554e-01
-2.775276251636571434e-01
-2.724475437875092387e-01
-2.651736428920935529e-01
-2.557691960841378398e-01
-2.443479560924998184e-01
-2.310431790671725327e-01
-2.160001592679832716e-01
-1.993689069899506339e-01
-1.812977341051381641e-01
-1.619335155856728714e-01
-1.413750914098304001e-01
-1.197368452467588162e-01
-9.715448945907573242e-02
-7.376527859929715714e-02
-4.970688255594607474e-02
-2.511652751869380973e-02
-1.307049918184977066e-04
2.509664741526929088e-02
5.042418682818189390e-02
7.577174433762609573e-02
1.009822741523838385e-01
1.258833713990972769e-01
1.502885722507874000e-01
1.739995465795343699e-01
1.968088857392834290e-01
2.185001946428360153e-01
2.388363568809711013e-01
2.576528668672906086e-01
2.747339473030457890e-01
2.898685755969224176e-01
3.028578482821381312e-01
3.135229990913241394e-01
3.217134309881735654e-01
3.273140967677513058e-01
3.303819360362434399e-01
3.307872152382232978e-01
3.285099833367483013e-01
3.235919834441424170e-01
3.161223787444262801e-01
3.062400267652151120e-01
2.941349150306535321e-01
2.800481253916780600e-01
2.644651201428947496e-01
2.476233399009126757e-01
2.297645708349259075e-01
2.112360386206482143e-01
1.923943219749641720e-01
1.735968558675210216e-01
1.551939425389802785e-01
1.375212622398227502e-01
1.209764103010173009e-01
1.058503701213073800e-01
9.228272083969946138e-02
8.045191240922205944e-02
7.048216270762269753e-02
6.243815665651886171e-02
5.632150659854218144e-02
5.206944282816380887e-02
4.953488971129470231e-02
4.847721241035313211e-02
4.871276384825845573e-02
4.998630745231372186e-02
5.201516731922325998e-02
5.449531793234979604e-02
5.710732593783379718e-02
5.952267012580136907e-02
6.139783285196687146e-02
6.224509059356031493e-02
6.188672341203360627e-02
6.009792640725830637e-02
5.671176925966048277e-02
5.162285343536587856e-02
4.478812537710641362e-02
3.622542512457271879e-02
2.601051948418942050e-02
1.424365344656397525e-02
1.073240758159510477e-03
-1.324731982308391398e-02
-2.840765978373011036e-02
-4.405184602008482830e-02
-5.979161147882899874e-02
-7.522079725047761678e-02
-8.993023013914892838e-02
-1.034399797549781924e-01
-1.154620791403122432e-01
-1.257070907001204552e-01
-1.338848891767513982e-01
-1.397600358300571943e-01
-1.431635453699526828e-01
-1.440025800162262337e-01
-1.422674309392192304e-01
-1.380033544108481003e-01
-1.313972283789103246e-01
-1.227384143122145499e-01
-1.123506055549783333e-01
-1.006252130799244471e-01
-8.801382578454253203e-02
-7.501869997100463205e-02
-6.218106193019762307e-02
-5.009805441919584768e-02
-3.939913464674793531e-02
-3.057086625626201370e-02
-2.412688372973070816e-02
-2.052823850234184594e-02
-2.016770769418851916e-02
-2.335618981605616651e-02
-3.031142100977574083e-02
-4.116801360218769190e-02
-5.607371019806139945e-02
-7.473799688637489114e-02
-9.692029143650493506e-02
-1.222650669226879039e-01
-1.503048545203289343e-01
-1.804667454410022742e-01
-2.120827158292557524e-01
-2.444038154418812780e-01
-2.767200423534564857e-01
-3.080305698020420202e-01
-3.374528868708123186e-01
-3.641325262036563259e-01
-3.872496025390546048e-01
-4.060374951573538782e-01
-4.198007018666389256e-01
-4.279320615266880568e-01
-4.299553874015268340e-01
-4.254226478541747181e-01
-4.140817960374052475e-01
-3.958610314513265616e-01
-3.708526297579628483e-01
-3.393115102501134128e-01
-3.016492617860630499e-01
-2.584242310148254784e-01
-2.103347402620863171e-01
-1.581672271177597677e-01
-1.028235466688763866e-01
-4.530586434876848756e-02
1.332133045431493912e-02
7.195755974056350368e-02
1.294939075902216130e-01
1.848408997621322492e-01
2.369619683298120894e-01
2.849063285214380459e-01
3.277879603338932912e-01
3.648404362215593166e-01
3.954303317827557729e-01
4.190741749479650613e-01
4.354517733033700932e-01
4.444152268350330393e-01
4.460049813315308254e-01
4.405276115796713521e-01
4.282694958275792274e-01
4.097281284861541417e-01
3.855331915711044388e-01
3.564324461407697431e-01
3.232756527087240483e-01
2.869962808064326909e-01
2.485906930311047314e-01
2.092840399239261351e-01
1.699890468721435566e-01
1.316816056423317782e-01
9.529487787625366690e-02
6.168367105087484148e-02
3.160623817758412279e-02
5.709513589565923253e-03
-1.548246433096928110e-02
-3.145938279851506758e-02
-4.203347650521604972e-02
-4.715973560754299632e-02
-4.690040616983304211e-02
-4.146427155921761365e-02
-3.119983342332055543e-02
-1.658457519190315033e-02
1.789580634719900587e-03
2.323269799653759904e-02
4.695329456541563751e-02
7.213744789887410747e-02
9.795941739863067710e-02
1.235948108399445577e-01
1.482399681520978896e-01
1.711298711974816866e-01
1.915548462055283729e-01
2.088241291633384511e-01
2.222963810541619956e-01
2.316349896065894587e-01
2.365478134066318905e-01
2.368768633105241272e-01
2.325984321428788970e-01
2.238184318536260986e-01
2.107636637667808510e-01
1.937515343476379215e-01
1.730826686909318068e-01
1.493890020980028766e-01
1.232859147450053872e-01
9.544816504056841122e-02
6.658782315101163807e-02
3.743085697980841342e-02
8.693345971438781739e-03
-1.894162992878645202e-02
-4.481551150632268055e-02
-6.845069817935911516e-02
-8.936994396228153947e-02
-1.071824167949168016e-01
-1.216008353284913079e-01
-1.324516387709761267e-01
-1.396812482215237516e-01
-1.433578905969489226e-01
-1.435366540134617452e-01
-1.406630976296718571e-01
-1.351932082591642270e-01
-1.276008622592283426e-01
-1.184206733968747871e-01
-1.082344387109469563e-01
-9.765595542471228185e-02
-8.731404118008029291e-02
-7.779457882054652273e-02
-6.973952023678553491e-02
-6.374712953670957916e-02
-6.030035159014968116e-02
-5.979554490107916176e-02
-6.253172692940694999e-02
-6.870323178739129455e-02
-7.839552797657371730e-02
-9.164668054858550461e-02
-1.083695634552815368e-01
-1.281849776190266965e-01
-1.507350632229246257e-01
-1.755699903610541956e-01
-2.021580674504303010e-01
-2.298986351909547698e-01
-2.581376161508216471e-01
-2.862258760839250238e-01
-3.136237345583918756e-01
-3.393551454020918845e-01
-3.627258234282028093e-01
-3.830884232848456028e-01
-3.998552968501263294e-01
-4.125092874921694186e-01
-4.206130247117483290e-01
-4.238170162579956157e-01
-4.219445393861906424e-01
-4.147252805579305091e-01
-4.021082063697433151e-01
-3.841608740311242554e-01
-3.610597170040443782e-01
-3.330823624614247525e-01
-3.005975526789152474e-01
-2.640535246658486379e-01
-2.238708016233396103e-01
-1.806675068356596858e-01
-1.351072311577576901e-01
-8.786385446915245812e-02
-3.963463183694460046e-02
8.874910253808820926e-03
5.696622299472053896e-02
1.039624596124406608e-01
1.493079444764638941e-01
1.924178737560430230e-01
2.326655780545171526e-01
2.695336514852429977e-01
3.025652316592972180e-01
3.313727492368218619e-01
3.556457564674979643e-01
3.751572275377422216e-01
3.897851572155951461e-01
3.995374383995274892e-01
4.044223801617314873e-01
4.045233729347141316e-01
3.999903741721065886e-01
3.910399300854764948e-01
3.779548138551332426e-01
3.610825218178213003e-01
3.408314866055860426e-01
3.176956479547617951e-01
2.922028512625665098e-01
2.648791457110976078e-01
2.362659239647191267e-01
2.069124490631016333e-01
1.773687032012585818e-01
1.481782373056936275e-01
1.198707052640360371e-01
9.299828116675820655e-02
6.799768575628040157e-02
4.529725309063444699e-02
2.527641650051613842e-02
8.256131497234947547e-03
-5.508105453356337833e-03
-1.583180607371725834e-02
-2.260533725778474112e-02
-2.576430745958840918e-02
-2.539882451531427776e-02
-2.163781916680074247e-02
-1.466438976724526722e-02
-4.726061827753258449e-03
7.868494977602225049e-03
2.275401024749312828e-02
3.951473368149349685e-02
5.767048656509188298e-02
7.671281908070193278e-02
9.615107157483498979e-02
1.154834622518124687e-01
1.342160405421491398e-01
1.518714184058405359e-01
1.679966193177271083e-01
1.821702603124883135e-01
1.939803865902123836e-01
2.030410995268229768e-01
2.091182278029878328e-01
2.120130245268549984e-01
2.115969240428144382e-01
2.078102993202387561e-01
2.006591531024310981e-01
1.902103825514700475e-01
1.765895906557740647e-01
1.599379810207713914e-01
1.404384103445452947e-01
1.183776798734765268e-01
9.409103967524107270e-02
6.795019784374789484e-02
4.035038940674601227e-02
1.169761325030055366e-02
-1.760297330450219522e-02
-4.705618568685591974e-02
-7.646345669157120217e-02
-1.054588196103598552e-01
-1.336845989374998989e-01
-1.608033621126304102e-01
-1.865066205904831187e-01
-2.105223833126032007e-01
-2.326208309834308374e-01
-2.525510650293172898e-01
-2.702638839977906104e-01
-2.856864712081306212e-01
-2.987563685447728878e-01
-3.094442520565437449e-01
-3.177533870027939855e-01
-3.237187581028078687e-01
-3.274056096043416186e-01
-3.289657681478891371e-01
-3.284919108016437495e-01
-3.260709590850264239e-01
-3.218494964963496408e-01
-3.159866890328131839e-01
-3.086498683099197504e-01
-3.000107348409440378e-01
-2.902422899971230930e-01
-2.796181921880349641e-01
-2.683378720420334096e-01
-2.563746730976751431e-01
-2.438683748007498542e-01
-2.309535797446530259e-01
-2.177558088277031789e-01
-2.043881862153738016e-01
-1.909491621877515977e-01
-1.775608756312547776e-01
-1.643935858711490505e-01
-1.513042674218012529e-01
-1.383220241683128515e-01
-1.254681682286164501e-01
-1.127541006969234871e-01
-1.001790979115521618e-01
-8.772866828244918480e-02
-7.537402427039595343e-02
-6.302687959084438130e-02
-5.064621593657875342e-02
-3.819139324820813863e-02
-2.562644639398498070e-02
-1.292014238048461161e-02
-4.489770150084559930e-05
1.302469383195148378e-02
2.631297375580621267e-02
4.002448062121255479e-02
5.407575649896301240e-02
6.839780738404244165e-02
8.293941789062564407e-02
9.762761858346002963e-02
1.123704922940250706e-01
1.270612298879334467e-01
1.415826876825584391e-01
1.559310162583055215e-01
1.699818937048874767e-01
1.835009134046913237e-01
1.963017503961907995e-01
2.081864941439253158e-01
2.189531980663459998e-01
2.284044315729915620e-01
2.363560287294075024e-01
2.426621310962365496e-01
2.472378967637490210e-01
2.499562343210338100e-01
2.507160044154487788e-01
2.494428530808336930e-01
2.460960286376324135e-01
2.406748181499641648e-01
2.332238947677823804e-01
2.238245247124899251e-01
2.126055457786449887e-01
1.998213941745069500e-01
1.857050292108922696e-01
1.705250082534578437e-01
1.545815230496575543e-01
1.382013432007225262e-01
1.217316100030254589e-01
1.055321719916922918e-01
8.991651786774362831e-02
7.528567579468728455e-02
6.199931618267030820e-02
5.039746707479074439e-02
4.078884749177973112e-02
3.343925025821090080e-02
2.856071572283286342e-02
2.630223634354905693e-02
2.673095846236339668e-02
2.980682351900010296e-02
3.547594247907437381e-02
4.362560579715535347e-02
5.407768292292902679e-02
6.658632119787977199e-02
8.083740764142943735e-02
9.645066300347449051e-02
1.129856223528162840e-01
1.298833404942544290e-01
1.466179134896123948e-01
1.626753798061949530e-01
1.775454914660595795e-01
1.907295945409344107e-01
2.017480471723835933e-01
2.101478725398136516e-01
2.155081434046996480e-01
2.174007716295726922e-01
2.155084521564065159e-01
2.096180593536681458e-01
1.996055899735430794e-01
1.854367599521464238e-01
1.671648437846008362e-01
1.449265074227623629e-01
1.189343545187235840e-01
8.943828370835726904e-02
5.678846089447509016e-02
2.142158696670637408e-02
-1.616339804771138589e-02
-5.541807895237438331e-02
-9.575877964595236325e-02
-1.365814798711274536e-01
-1.772767932969063764e-01
-2.172605631946739058e-01
-2.559557762596036401e-01
-2.928056572705437510e-01
-3.272912406455360523e-01
-3.589415870968795108e-01
-3.873427463139885729e-01
-4.121451782525675789e-01
-4.330693878064698077e-01
-4.499342847430533587e-01
-4.625883691929259522e-01
-4.709673646673892544e-01
-4.750845338256515227e-01
-4.750217039081857662e-01
-4.709241060866586892e-01
-4.629941230695004406e-01
-4.514841734704617138e-01
-4.367407837952177463e-01
-4.190549367679248793e-01
-3.987424645306221205e-01
-3.761726141611594354e-01
-3.517249379287708533e-01
-3.257798836214382820e-01
-2.987101282603931152e-01
-2.708730204222947746e-01
-2.426481705102425113e-01
-2.143303317995863266e-01
-1.861287008414408695e-01
-1.582953357838347841e-01
-1.310534410746938550e-01
-1.045932323541532982e-01
-7.906860495180140225e-02
-5.459517042271738729e-02
-3.125122206991010065e-02
-9.042482156449649366e-03
1.203958668619498074e-02
3.198915512976696629e-02
5.081252293614327287e-02
6.852883293293281219e-02
8.517165817052803345e-02
1.007905567837621974e-01
1.154576049017906891e-01
1.294396178039074474e-01
1.426898630726630701e-01
1.552583584087331992e-01
1.671801681197765399e-01
1.784772544134588523e-01
1.891622798422268881e-01
1.992434487575630575e-01
2.087292237469725587e-01
2.178376165882489612e-01
2.264627463422704823e-01
2.345409046869004754e-01
2.420261474374563182e-01
2.488601682620161792e-01
2.549768323900124534e-01
2.603075658846814022e-01
2.647868778429858239e-01
2.684037912857605290e-01
2.711239148010788913e-01
2.728754597044572572e-01
2.736059147539751102e-01
2.732674546896073919e-01
2.718196297042049792e-01
2.692319134086805787e-01
2.654859696648081968e-01
2.605025839894206663e-01
2.542880927618889064e-01
2.469815466714372909e-01
2.386428877716518238e-01
2.293479070625697447e-01
2.191876133583517960e-01
2.082666447408384469e-01
1.967008861525716412e-01
1.845598980658224031e-01
1.718504544542580614e-01
1.588871793430891577e-01
1.458443250525444101e-01
1.329027386360877028e-01
1.202449320413505052e-01
1.080492999017338973e-01
9.648390288545311000e-02
8.569831979134096001e-02
7.575479943172358510e-02
6.677844527036946864e-02
5.887526364564518722e-02
5.213343916877653805e-02
4.661676494396260750e-02
4.235802870687679911e-02
3.935317862260118149e-02
3.755699997738237705e-02
3.697438515734285946e-02
3.731780441082571675e-02
3.840603895252092670e-02
4.005898714070815769e-02
4.207405609277464764e-02
4.422444981459244806e-02
4.625855169533699129e-02
4.790128475582769441e-02
4.893344956191177098e-02
4.893842760852601392e-02
4.756192913054882454e-02
4.452796062000188848e-02
3.958887992542758916e-02
3.252776941410812084e-02
2.316021725393008213e-02
1.133638502563549810e-02
-3.056637817557383840e-03
-2.013756583734793715e-02
-3.992986478626481262e-02
-6.236882697771461981e-02
-8.731927996356481092e-02
-1.145779552055408157e-01
-1.438780261310779185e-01
-1.748951488741853355e-01
-2.072726054550401154e-01
-2.406415776172500243e-01
-2.744935831848153707e-01
-3.083205659965844170e-01
-3.415847486967795166e-01
-3.737285761272935436e-01
-4.041856806119596968e-01
-4.323926184267093964e-01
-4.578045041226393441e-01
-4.799353709430230763e-01
-4.982450902726620612e-01
-5.123029215285768156e-01
-5.217409510508093096e-01
-5.262609066501627852e-01
-5.256393574905097177e-01
-5.197315888471615297e-01
-5.084744446907820681e-01
-4.918992809296133251e-01
-4.700582243083536449e-01
-4.431517767307936451e-01
-4.114800117402086510e-01
-3.754306704297000197e-01
-3.354697149285059687e-01
-2.921301739397994535e-01
-2.460000709222875948e-01
-1.977284433499164606e-01
-1.479170676474885759e-01
-9.724224109557594309e-02
-4.642108265835775960e-02
3.823871307190807034e-03
5.278192825076313821e-02
9.977148451708733878e-02
1.441562389126517796e-01
1.853522781179623435e-01
2.229011062795887010e-01
2.563885053514173284e-01
2.854460699289697589e-01
3.097862280032100957e-01
3.292112881253492773e-01
3.436210614230860161e-01
3.530180988055343638e-01
3.575256665515702537e-01
3.574208327939293328e-01
3.529748465295445836e-01
3.445453378023263236e-01
3.325539436239810520e-01
3.174796191108048005e-01
2.998514904213422927e-01
2.802406586978935521e-01
2.592597728208244079e-01
2.376592957606900314e-01
2.159696125544124656e-01
1.947713158523974031e-01
1.746059660897097687e-01
1.559653143165277145e-01
1.392825465297909959e-01
1.249253473687802207e-01
1.131904218091125958e-01
1.043768632040997235e-01
9.858099414476539923e-02
9.583380940645253032e-02
9.608341228362415887e-02
9.918947042660336555e-02
1.049284227016097359e-01
1.130010014392106577e-01
1.230418119407569733e-01
1.345912391527606666e-01
1.472090891604482810e-01
1.604288969118369823e-01
1.737528108282712647e-01
1.866821800407823528e-01
1.987301314424984311e-01
2.094333393589055958e-01
2.183629878206164721e-01
2.250605885894108593e-01
2.291696502432380989e-01
2.305167821058204947e-01
2.289439245265674772e-01
2.243761096299866087e-01
2.168199312242282684e-01
2.063589776851322832e-01
1.931469333608161199e-01
1.773776748253809155e-01
1.592428151587362284e-01
1.391022494424013489e-01
1.173460803215314319e-01
9.440383165267673959e-02
7.072759265531353146e-02
4.677420376004523539e-02
2.298776689245687899e-02
-2.051421637727091074e-04
-2.239082168131355938e-02
-4.339037426321648572e-02
-6.291491557155487468e-02
-8.072110965190576470e-02
-9.662124951457429223e-02
-1.104919110989338316e-01
-1.222800287011702736e-01
-1.320055147662784201e-01
-1.396207125488512779e-01
-1.454948508562349252e-01
-1.498528262393243327e-01
-1.529290977886785252e-01
-1.549825725082674688e-01
-1.562915391163754442e-01
-1.571480397379066418e-01
-1.578511097167057953e-01
-1.586760042764792655e-01
-1.599654489145053149e-01
-1.619912843678395220e-01
-1.649654182788042323e-01
-1.690518392361359812e-01
-1.743637706786998198e-01
-1.809628908393299263e-01
-1.888601109956068447e-01
-1.981009799454705456e-01
-2.085938297432474720e-01
-2.201098539156029488e-01
-2.324579841834972793e-01
-2.454078786513937405e-01
-2.586946543941969212e-01
-2.720249065298483426e-01
-2.850839861896604654e-01
-2.976062239855336022e-01
-3.093063180177061389e-01
-3.196921710918719794e-01
-3.284439018516155939e-01
-3.352672920445394777e-01
-3.398964201901737425e-01
-3.420953153196825136e-01
-3.416593880805712802e-01
-3.384214468933665620e-01
-3.322402639902830579e-01
-3.229646170070242239e-01
-3.105624524987052881e-01
-2.950587761282967847e-01
-2.765318301516734301e-01
-2.551074178075601329e-01
-2.309523433192448572e-01
-2.042680122356757000e-01
-1.751508220113571768e-01
-1.439315492058559909e-01
-1.109392378032614812e-01
-7.653005321010258877e-02
-4.108975858323754560e-02
-5.024878552328415626e-03
3.124699195354618819e-02
6.730687730614762221e-02
1.028261577317881176e-01
1.374026449376498371e-01
1.706037790023890166e-01
2.020296228833985408e-01
2.312979746072562626e-01
2.580536390538176739e-01
2.819777621850039773e-01
3.027965161915133763e-01
3.202845323636746011e-01
3.343203660471207872e-01
3.448053727207712749e-01
3.516728567058954313e-01
3.549099379404124788e-01
3.545616797293783540e-01
3.507342768728339832e-01
3.435966528659593067e-01
3.333689397251108355e-01
3.203563047068234138e-01
3.049348328072604142e-01
2.874810414075389398e-01
2.684023830030645152e-01
2.481310508768961864e-01
2.271173642218743960e-01
2.058224863034503749e-01
1.847142366846393491e-01
1.642787532932946937e-01
1.449292924245538794e-01
1.270720048156487869e-01
1.110733709311112483e-01
9.725098528104536566e-02
8.586546899381741760e-02
7.711382089113238969e-02
7.112441679230274705e-02
6.797854050892415678e-02
6.761105742979944822e-02
6.993473764095925471e-02
7.479868935631672766e-02
8.198604910268636470e-02
9.121559520858624204e-02
1.021449215810956712e-01
1.143756430036385607e-01
1.274222502470464535e-01
1.407824706894742484e-01
1.539739871770631208e-01
1.665072623652916195e-01
1.779013289888924931e-01
1.876918293480447364e-01
1.954383809115619597e-01
2.007318070455733905e-01
2.031682655176720032e-01
2.023810407392662158e-01
1.981407517509171656e-01
1.902869378979611392e-01
1.787433756197629731e-01
1.635178287540796360e-01
1.446994517491196897e-01
1.224545195404518338e-01
9.703447306558607433e-02
6.871037125427026382e-02
3.780869706109521444e-02
4.775746581534331958e-03
-2.988307394616316476e-02
-6.561742727460849467e-02
-1.018476109650520295e-01
-1.379805329114411061e-01
-1.734088292296404044e-01
-2.075101391997002942e-01
-2.398661752541456638e-01
-2.699597957629268352e-01
-2.973135533461433999e-01
-3.215036926724100796e-01
-3.421732030526832835e-01
-3.590429447082598702e-01
-3.719200307156552698e-01
-3.806710760958922912e-01
-3.853571202256199091e-01
-3.860534700730571256e-01
-3.829105165997662152e-01
-3.761535458760106865e-01
-3.660780086281680834e-01
-3.530431139366430049e-01
-3.374635082975894207e-01
-3.198650467418455712e-01
-3.006943350887872901e-01
-2.804291571077346390e-01
-2.595713827197856371e-01
-2.386100402957309630e-01
-2.180069730629285996e-01
-1.981837793372553946e-01
-1.795105184456275982e-01
-1.623716660205034579e-01
-1.469563080548612621e-01
-1.333580147078929912e-01
-1.216756522384578876e-01
-1.119375787714319559e-01
-1.040986458543489146e-01
-9.803943142865834126e-02
-9.356843851765050957e-02
-9.044776426131395652e-02
-8.832760665921091103e-02
-8.679703795191509585e-02
-8.549394101632926124e-02
-8.405383668962743138e-02
-8.211840922256230524e-02
-7.934309706179737409e-02
-7.540440468858677914e-02
-6.999814799254089337e-02
-6.278542065510284154e-02
-5.359445002335327946e-02
-4.230733702790645534e-02
-2.888380827893610725e-02
-1.336105733594328271e-02
4.149712252500048493e-03
2.346936187050119305e-02
4.435865395120475174e-02
6.663043771835097662e-02
8.988475600047662883e-02
1.137229300850791658e-01
1.377151472121583842e-01
1.614102888212319842e-01
1.843504330410641323e-01
2.060857640446789874e-01
2.261891381114066735e-01
2.442769396247220504e-01
2.600274383701310366e-01
2.731454818911385196e-01
2.833917709248137684e-01
2.905923205329908887e-01
2.946444746794320557e-01
2.955207420186580780e-01
2.932701585644261200e-01
2.879694416988621275e-01
2.798513086279140749e-01
2.692213863480734104e-01
2.563925422173672364e-01
2.417204816980194071e-01
2.255953216008403928e-01
2.084322489467692607e-01
1.906612638344595545e-01
1.726944919307492610e-01
1.549519108742966333e-01
1.378847279753404043e-01
1.218702509845108056e-01
1.072430396611495779e-01
9.428682187093828659e-02
8.322801165803983547e-02
7.423091217417232546e-02
6.740474534750884317e-02
6.280326636651811789e-02
6.033093767974884170e-02
5.989607306928246278e-02
6.135141151836420725e-02
6.449626526253737779e-02
6.907987116199276745e-02
7.480634329074675737e-02
8.134146347917048381e-02
8.840896679987708673e-02
9.547041738974276770e-02
1.021443934975080903e-01
1.080697122442129676e-01
1.129070983064514588e-01
1.163428767838612932e-01
1.180920907304602030e-01
1.179018223188058601e-01
1.155753667094643888e-01
1.108561405663013866e-01
1.036217169042532305e-01
9.383337942812552956e-02
8.151905246676807715e-02
6.676827929428369446e-02
4.972540886529663862e-02
3.058201239214436429e-02
9.542130718843133685e-03
-1.316384660616060076e-02
-3.721499567360014860e-02
-6.226066993823731188e-02
-8.792226401988850748e-02
-1.138035495302925915e-01
-1.395016946359082799e-01
-1.646182746527834473e-01
-1.887772729464541888e-01
-2.116433319991657402e-01
-2.328753433106328652e-01
-2.521637606999377890e-01
-2.692340078007888771e-01
-2.838519037978251003e-01
-2.958281479431427163e-01
-3.050216827217811510e-01
-3.113341737172119483e-01
-3.147051533847973204e-01
-3.151851590562387284e-01
-3.128356759447283864e-01
-3.077629995977446131e-01
-3.001149611185941479e-01
-2.900768168152935145e-01
-2.778664041965410725e-01
-2.637287323683683016e-01
-2.479259324495249051e-01
-2.307333907018293828e-01
-2.124476235706597993e-01
-1.933718145188215165e-01
-1.738093720120967578e-01
-1.540577595898874053e-01
-1.344028098430871121e-01
-1.151136868737538954e-01
-9.652165216723954111e-02
-7.875679818164771362e-02
-6.198772796966905974e-02
-4.638492508315017471e-02
-3.209139701639496245e-02
-1.921901321233177029e-02
-7.845689402431132997e-03
1.986238675540596965e-03
1.020065369689537871e-02
1.688696405912881726e-02
2.216431726057566109e-02
2.611605497499625006e-02
2.884683473821902933e-02
3.048358941967366231e-02
3.117623772746802580e-02
3.109746305744442996e-02
3.045047596269601087e-02
2.948840261549623420e-02
2.842255666221898958e-02
2.745450192035986392e-02
2.677656356263410919e-02
2.657100475078166824e-02
2.701001783416570601e-02
2.825575538119720620e-02
3.049001766271008940e-02
3.397822870510175397e-02
3.871861842851109792e-02
4.476437013676370924e-02
5.212821428188552098e-02
6.078341886041438435e-02
7.066655752623085540e-02
8.168144377289943137e-02
9.370363581130236597e-02
1.067112914922638822e-01
1.204432124994163633e-01
1.346750169870380986e-01
1.491523545492600133e-01
1.635971267599548584e-01
1.777149207920472040e-01
1.912032605196549717e-01
2.037602227393664478e-01
2.150456074918433158e-01
2.248354055245485039e-01
2.328931588746785408e-01
2.389969955669280222e-01
2.429584757008408369e-01
2.446274770471811577e-01
2.438959700502819627e-01
2.407008006333229977e-01
2.349368815289070711e-01
2.266485536155993241e-01
2.159933350976459554e-01
2.031367774786900227e-01
1.882984357507654916e-01
1.717454726173734958e-01
1.537844529391024784e-01
1.347519771165441860e-01
1.149931722101705800e-01
9.483275600481813616e-02
7.465656715696128432e-02
5.485878069731993378e-02
3.583002960417989990e-02
1.794516557260783518e-02
1.551124302735573668e-03
-1.304434743142579567e-02
-2.555539208873702783e-02
-3.573940878680004207e-02
-4.357841603988077406e-02
-4.899104664665521192e-02
-5.195446676536763508e-02
-5.250813483259109127e-02
-5.075600738798902167e-02
-4.686664736699419631e-02
-4.106910339964353618e-02
-3.356870718850113455e-02
-2.483565985944446997e-02
-1.524560107264061326e-02
-5.198001980350919204e-03
4.890755113253875130e-03
1.459427279256492183e-02
2.348344686880843302e-02
3.113458752697609300e-02
3.708435604031568023e-02
4.095649463528246853e-02
4.243236855225387960e-02
4.124216259471269463e-02
3.717828187558513964e-02
3.009874523947814184e-02
1.992869490425663859e-02
6.660598261241768014e-03
-9.729406836599951980e-03
-2.910351495512619735e-02
-5.120209478501080991e-02
-7.573518514701604865e-02
-1.023436351403093081e-01
-1.306056288609803717e-01
-1.600450377508410016e-01
-1.901413023661687740e-01
-2.203540334665222700e-01
-2.501116469397233200e-01
-2.788066618791418261e-01
-3.058507879556301434e-01
-3.306682907608953226e-01
-3.527068361871862900e-01
-3.714478994358923480e-01
-3.864168353731180505e-01
-3.971757786711146432e-01
-4.033102772052490348e-01
-4.045941888359685934e-01
-4.008463591681680205e-01
-3.919804150426270950e-01
-3.780074658701297885e-01
-3.590363324579983195e-01
-3.352715726700316035e-01
-3.070084873939699643e-01
-2.745746760967239242e-01
-2.384618009768418589e-01
-1.992273096184795367e-01
-1.575013404002927886e-01
-1.139733945348399696e-01
-6.937710151845867534e-02
-2.447366878617635022e-02
1.996536563676876153e-02
6.314427765091165656e-02
1.043861965986628837e-01
1.429912926057548828e-01
1.782967402274391877e-01
2.097043995849428022e-01
2.366978958974520486e-01
2.588579085990169171e-01
2.758747935876365576e-01
2.875374296557983156e-01
2.938316296428398755e-01
2.948273614061749925e-01
2.906856269490762923e-01
2.816795015883269970e-01
2.681918097827610814e-01
2.507102531090626973e-01
2.298193595900824560e-01
2.062152951747601715e-01
1.806773697016000046e-01
1.539575719261664088e-01
1.268435707359338582e-01
1.001204392996898895e-01
7.455221001296047367e-02
5.086437024710899202e-02
2.972734216907790827e-02
1.176083152440599022e-02
-2.469598131674688446e-03
-1.261515627204456980e-02
-1.838874763749365204e-02
-1.962801940701808245e-02
-1.630090759156843649e-02
-8.507570536356534596e-03
3.521531987895509808e-03
1.943037889063081725e-02
3.871763003374850687e-02
6.083090325875550874e-02
8.512396419044304663e-02
1.108871321705137691e-01
1.373652919685785512e-01
1.637766197940812019e-01
1.893318678958751944e-01
2.132541258671976914e-01
2.346781080853290735e-01
2.529962597226531607e-01
2.676345978967867856e-01
2.780977860923189438e-01
2.840015796100287537e-01
2.850822036915955926e-01
2.812018231907397747e-01
2.723502477722455906e-01
2.585815770428967486e-01
2.401464077051266299e-01
2.174418666494954411e-01
1.909472278915491095e-01
1.612376388046486420e-01
1.289667707390647067e-01
9.484724442462494354e-02
5.962952814146560421e-02
2.411492932931075250e-02
-1.095580956896263780e-02
-4.490035157214922190e-02
-7.702493961255829635e-02
-1.066958410660927004e-01
-1.333582456411842865e-01
-1.565524145262634503e-01
-1.759263042765568663e-01
-1.911926246913989436e-01
-2.021753972069054994e-01
-2.090573167739481764e-01
-2.119616773389577102e-01
-2.111138237182585975e-01
-2.068353696990511414e-01
-1.995357137162175887e-01
-1.897005148810198549e-01
-1.778684266086422161e-01
-1.645306654907205957e-01
-1.504644842858611220e-01
-1.362881833970642775e-01
-1.225954493872469797e-01
-1.099393332652807143e-01
-9.881815472291377578e-02
-8.966326272553404308e-02
-8.282856781847802718e-02
-7.862892407140020801e-02
-7.720193055327362330e-02
-7.860882419244907826e-02
-8.281581539571924999e-02
-8.968851967382629464e-02
-9.899662135616776881e-02
-1.104217608888233282e-01
-1.235683358607884696e-01
-1.380966969348850770e-01
-1.534096759830977930e-01
-1.688881599172747106e-01
-1.839648615387340091e-01
-1.980754607468961925e-01
-2.106731979379878605e-01
-2.212430985248948212e-01
-2.293157289229459661e-01
-2.345441289191945722e-01
-2.365770291847704987e-01
-2.350672370162500413e-01
-2.298367326558407309e-01
-2.208038323574502693e-01
-2.079841902936822584e-01
-1.914890775661803324e-01
-1.715212513709667153e-01
-1.483685783165309136e-01
-1.223932226506844745e-01
-9.402764929708956609e-02
-6.376321077081048561e-02
-3.213624495110484203e-02
2.856580991312251960e-04
3.291812222061474280e-02
6.517473210868507394e-02
9.648543249957897139e-02
1.263568163408930189e-01
1.542341886187330591e-01
1.796440706551503119e-01
2.021682734841130369e-01
2.214538081646528767e-01
2.372212840484813068e-01
2.492713247101512319e-01
2.574885586032764628e-01
2.618602360300634757e-01
2.624752280273712213e-01
2.594454598043636206e-01
2.529417328932739295e-01
2.431923418223060906e-01
2.304800815541414583e-01
2.151383060488545329e-01
1.975454404664398478e-01
1.781222062438496678e-01
1.573665351907098664e-01
1.357271560364869956e-01
1.136320034374795895e-01
9.149150254043703079e-02
6.969440522867487164e-02
4.860497367264482449e-02
2.856078863954614189e-02
9.912027343521701006e-03
-7.040057261088136092e-03
-2.210673147200162281e-02
-3.511229807694465910e-02
-4.592950636128778630e-02
-5.447868179517656451e-02
-6.072537250241483164e-02
-6.467679688485294953e-02
-6.634141047846431327e-02
-6.575558262766811879e-02
-6.312928415353691314e-02
-5.859993814152653080e-02
-5.232365556953322283e-02
-4.447343816002136130e-02
-3.523758231509832584e-02
-2.481783239815249509e-02
-1.342514065817623781e-02
-1.288126359038743729e-03
1.133548663216465968e-02
2.423781713616435241e-02
3.722343733811528388e-02
5.010846011444725079e-02
6.271839204817797331e-02
7.488550707276164786e-02
8.644657085769946736e-02
9.712412580657181493e-02
1.068270983323816870e-01
1.154495414784985630e-01
1.228949889870148970e-01
1.290855393197102019e-01
1.339587113351983216e-01
1.374637887514305878e-01
1.395583940176552684e-01
1.401375826577896944e-01
1.391661037271006707e-01
1.366677883997075571e-01
1.326679352327120309e-01
1.272116653983879075e-01
1.203608341498530465e-01
1.121905398327713715e-01
1.027857582459301145e-01
9.225951892835496104e-02
8.067150929451477603e-02
6.809818672882728130e-02
5.466599189212312249e-02
4.051443298377616076e-02
2.579203904475890763e-02
1.065206134084478728e-02
-4.751629435326809592e-03
-2.024424785676642857e-02
-3.566390493457288757e-02
-5.093955979811420898e-02
-6.594404670908632360e-02
-8.055795863462769657e-02
-9.467223341862528174e-02
-1.081905668413862404e-01
-1.210314465306683018e-01
-1.331335332822378703e-01
-1.444690577685459609e-01
-1.549664288772031329e-01
-1.646143621399270840e-01
-1.734203690156308486e-01
-1.814078777888460392e-01
-1.886128657708203704e-01
-1.950803242950034377e-01
-2.008607782439260081e-01
-2.061151511801686542e-01
-2.107594858955206263e-01
-2.148265043877355396e-01
-2.183609688031840079e-01
-2.214014697334076853e-01
-2.239748151993237180e-01
-2.260910408046876707e-01
-2.277395679996975231e-01
-2.289352916593786480e-01
-2.295632927775104193e-01
-2.295203844246831992e-01
-2.287129451448497441e-01
-2.270329421686706484e-01
-2.243585371037725706e-01
-2.205553987226806234e-01
-2.154790997138487096e-01
-2.089439918099499360e-01
-2.007853949344532429e-01
-1.908975186640163857e-01
-1.791665913070280558e-01
-1.655033280964396392e-01
-1.498476933249289766e-01
-1.321727553143340339e-01
-1.124877510545722048e-01
-9.079578678791278001e-02
-6.712268545346877779e-02
-4.170783168424896381e-02
-1.475361984742551424e-02
1.348848059720719750e-02
4.272131458148042960e-02
7.260737248195930915e-02
1.027757938718195374e-01
1.328417463237955842e-01
1.624760463066220462e-01
1.911752725461853819e-01
2.185014069493823596e-01
2.440225281128717283e-01
2.673240226980614365e-01
2.880199362342750202e-01
3.057639848628184165e-01
3.202597183170143857e-01
3.312703716928504516e-01
3.386424762081159390e-01
3.422678802167977707e-01
3.421068126913762164e-01
3.381915458073811998e-01
3.306274990658908397e-01
3.195923389584340857e-01
3.053329443610415250e-01
2.881128171401907689e-01
2.683479671825368396e-01
2.464765551458016901e-01
2.229501338218348172e-01
1.982442108115798352e-01
1.728478159777531165e-01
1.472526691596592885e-01
1.219421068098695271e-01
9.734543071289104843e-02
7.390835646732735187e-02
5.206210917111792069e-02
3.215464769285364399e-02
1.447589177772240498e-02
-7.479228895689304935e-04
-1.335821498115907779e-02
-2.326629677040137345e-02
-3.046478310113531762e-02
-3.502358928517057546e-02
-3.703557348215436029e-02
-3.666844331275331825e-02
-3.414269644568102002e-02
-2.972590459389523598e-02
-2.372618552747463028e-02
-1.648481048218808365e-02
-8.368091191261695094e-03
2.200532341866123787e-04
8.883398584705659573e-03
1.725494164927054985e-02
2.498904724120065701e-02
3.176721391584258480e-02
3.730251145903784593e-02
4.134308067862346725e-02
4.367510235556543163e-02
4.413023117745734636e-02
4.253072491497755792e-02
3.880748764390179462e-02
3.295146745714722103e-02
2.500855057516723767e-02
1.507465437765923011e-02
3.289784618792590543e-03
-1.016829403072191940e-02
-2.505812314401273388e-02
-4.120616107537067307e-02
-5.836434098727860675e-02
-7.624064146551834398e-02
-9.452485741738853031e-02
-1.128975029594123658e-01
-1.310387125315301549e-01
-1.486365623705170336e-01
-1.653584107051796481e-01
-1.809652636352320210e-01
-1.952438050394934566e-01
-2.079626858547555246e-01
-2.189167977668963205e-01
-2.279325635220100787e-01
-2.348726187023707501e-01
-2.396394558494452376e-01
-2.421703295891554086e-01
-2.424602939774025412e-01
-2.405574364105525498e-01
-2.365244157695949312e-01
-2.304575124419802057e-01
-2.224848025250968642e-01
-2.127639378481574195e-01
-2.014793886089962516e-01
-1.888529629384879394e-01
-1.751713234959798859e-01
-1.605849680241338007e-01
-1.453365467342647710e-01
-1.296724421605243149e-01
-1.138361291099602157e-01
-9.806187198917581949e-02
-8.256912788365111666e-02
-6.755785966400540410e-02
-5.335311299037392985e-02
-3.991675157592000645e-02
-2.735814393437907555e-02
-1.577269258482272285e-02
-5.229194088510080718e-03
4.233754681915780083e-03
1.261014468127275023e-02
1.992720308258033590e-02
2.618226869786521860e-02
3.155515138973608025e-02
3.617676570683736603e-02
4.015749594898143648e-02
4.361274613943477707e-02
4.666234970295424223e-02
4.943014987536387128e-02
5.204305314017271256e-02
5.468061335293811220e-02
5.749439044679338640e-02
6.054935405932235226e-02
6.391309424884650259e-02
6.762696286356353892e-02
7.170761432750294428e-02
7.615013490129396434e-02
8.093203883422483980e-02
8.608440493583369157e-02
9.163766655544186568e-02
9.740370913580603807e-02
1.032777231721299094e-01
1.091396346065625078e-01
1.148594367830347851e-01
1.203034417873417028e-01
1.253409431553970110e-01
1.298679050674090840e-01
1.338638137562954689e-01
1.371496579427254892e-01
1.396343537718767180e-01
1.412429705297166826e-01
1.419192134270491068e-01
1.416274342700065692e-01
1.403540833135243915e-01
1.381085151157913082e-01
1.348954912758592306e-01
1.308017381986989747e-01
1.259057624421572319e-01
1.203029007341202827e-01
1.141035212847409941e-01
1.074296238607659881e-01
1.004110657876194912e-01
9.318169499176631732e-02
8.582036532357018022e-02
7.848282921143992508e-02
7.132430850342577622e-02
6.448407296679711798e-02
5.809553522212941579e-02
5.228221481910473589e-02
4.715378263763025934e-02
4.280253145412536708e-02
3.929773110464998553e-02
3.665855681930013654e-02
3.491747391244340304e-02
3.410143610657462299e-02
3.422191699471188731e-02
3.527162084057228197e-02
3.722126182323076682e-02
4.001694533667282672e-02
4.359480931787473867e-02
4.782223459699036505e-02
5.253120215686896133e-02
5.758685368307647767e-02
6.284287719660897054e-02
6.813973662457434299e-02
7.330293139758009557e-02
7.814202713678700118e-02
8.245074106213656773e-02
8.597724718206281591e-02
8.848290870573403966e-02
8.976048056601851344e-02
8.961640250370513094e-02
8.787285596489877171e-02
8.436926873376204838e-02
7.896381211553832324e-02
7.153545512656006578e-02
6.189664255677645999e-02
5.003820739610398416e-02
3.595067627832138069e-02
1.967068827019258226e-02
1.283623490134888634e-03
-1.907674413933480029e-02
-4.123000106828667022e-02
-6.495193315912406451e-02
-9.004142828223693495e-02
-1.161599905036329039e-01
-1.429446253148443646e-01
-1.700162964200424565e-01
-1.969706587689455946e-01
-2.233854991965128767e-01
-2.488290877877638585e-01
-2.728692606445614066e-01
-2.950961694097802290e-01
-3.150947903231620106e-01
-3.324780607879836980e-01
-3.469088561588083985e-01
-3.580966898342342053e-01
-3.658040908581434714e-01
-3.698517658384082862e-01
-3.701225639775704845e-01
-3.665677995061182304e-01
-3.591899423963458293e-01
-3.480625111066338873e-01
-3.333419494591453036e-01
-3.152522181584904715e-01
-2.940791810979425103e-01
-2.701634219042184926e-01
-2.438918651797279402e-01
-2.156943843579911535e-01
-1.860244637625754205e-01
-1.553180395332895980e-01
-1.240603051079296471e-01
-9.273891220034946592e-02
-6.183161656427971220e-02
-3.179407990199001333e-02
-3.048482513525629933e-03
2.402646732139057661e-02
4.913448235482092974e-02
7.201118014690810476e-02
9.243052416633469603e-02
1.102222312898815115e-01
1.252767315354794408e-01
1.375494310312254942e-01
1.470635447604693447e-01
1.539107836586308675e-01
1.583627673347604570e-01
1.605961757695798520e-01
1.608261968588960977e-01
1.593201714904216582e-01
1.563700074111881722e-01
1.522877213727447110e-01
1.474012520048048058e-01
1.420498316478190914e-01
1.366880292895023552e-01
1.316592770524319667e-01
1.271974610868387701e-01
1.235595647511435469e-01
1.209603837536190052e-01
1.195692713556144871e-01
1.195087226622272292e-01
1.208543498548390882e-01
1.236647569250015621e-01
1.279575515575551159e-01
1.336250403298891443e-01
1.405408943051969506e-01
1.485310318114845818e-01
1.573784731121729563e-01
1.668293833362065048e-01
1.766001842349426698e-01
1.863644899896038654e-01
1.957422546886656844e-01
2.045005276872772226e-01
2.123381108820756036e-01
2.189702723649996907e-01
2.241360868791126559e-01
2.276046086429002191e-01
2.291799671732605292e-01
2.287038187933402023e-01
2.258711577061420783e-01
2.207963458323692341e-01
2.134969418598611224e-01
2.040500754953730733e-01
1.925897752848390876e-01
1.793018922588370812e-01
1.644170188896880158e-01
1.482020265122905023e-01
1.308548430558148790e-01
1.127279587631817848e-01
9.418951253727567141e-02
7.560250755934150302e-02
5.732957513361860991e-02
3.971963187891844327e-02
2.309464121711642115e-02
7.737327432876667244e-03
-6.096803318433395569e-03
-1.829215524082118682e-02
-2.875007234221618746e-02
-3.739749175949438897e-02
-4.421917950537351816e-02
-4.926238634800750305e-02
-5.263952356806828048e-02
-5.452812526595390841e-02
-5.512446102768675527e-02
-5.475828620621164822e-02
-5.384462101497700104e-02
-5.273594253622865269e-02
-5.179368730560696132e-02
-5.138050603474564326e-02
-5.185253917520915579e-02
-5.355119360262725059e-02
-5.678985274565639951e-02
-6.187577102936468731e-02
-6.907567846452658533e-02
-7.855049069002521811e-02
-9.038594756333587221e-02
-1.045899704303752120e-01
-1.210928795252941281e-01
-1.397499755623791695e-01
-1.603481386310395274e-01
-1.827028540903039566e-01
-2.063852485832970984e-01
-2.309847415256265357e-01
-2.560415819709818130e-01
-2.810573436257314262e-01
-3.055068841407562186e-01
-3.288515022798723098e-01
-3.505528760707327107e-01
-3.701375559395154169e-01
-3.870463982080759591e-01
-4.008130876175483026e-01
-4.110408042159225950e-01
-4.173971188925486020e-01
-4.196191160288059163e-01
-4.175166701882051523e-01
-4.109743820915672252e-01
-3.999037063156593574e-01
-3.843206777740038604e-01
-3.643804877033560152e-01
-3.403088320065789096e-01
-3.124115670672192868e-01
-2.810637169588310336e-01
-2.466964116179685140e-01
-2.097829362801542086e-01
-1.707635913581707632e-01
-1.300919317958092458e-01
-8.838388327384449905e-02
-4.621286135676794249e-02
-4.155127495294341777e-03
3.722418620055600869e-02
7.738517119077170658e-02
1.158263836882433839e-01
1.521098185614662701e-01
1.859127525670154490e-01
2.168695364740058917e-01
2.446803719709486347e-01
2.690992641855307621e-01
2.899386554687180539e-01
3.070733906785523271e-01
3.204434837684863036e-01
3.300529812266535523e-01
3.359474435480255261e-01
3.383353546328765615e-01
3.373940496303251546e-01
3.333422702406937388e-01
3.264369944113092448e-01
3.169701446399043610e-01
3.052648125498617082e-01
2.916707154077855524e-01
2.765141078211676984e-01
2.602400570352172982e-01
2.432508028766122155e-01
2.259339700871975665e-01
2.086669100633815610e-01
1.918112327401559347e-01
1.757075798643597253e-01
1.606705358175807841e-01
1.469822756209351877e-01
1.348910830613266332e-01
1.246048159903925256e-01
1.162855546607816093e-01
1.100464949640062029e-01
1.059488388046714302e-01
1.039996197497647934e-01
1.041506305609420924e-01
1.062987419365053476e-01
1.102767216128528460e-01
1.158757301220636471e-01
1.228474474106364678e-01
1.309033059275126476e-01
1.397186094124647227e-01
1.489374127390411529e-01
1.581783809845759281e-01
1.670273305862872704e-01
1.750272256490106315e-01
1.818105298611535359e-01
1.869973319307785264e-01
1.902334035318842542e-01
1.911969118777508969e-01
1.896041179851034597e-01
1.852143660529733671e-01
1.778313881237889582e-01
1.672264339349256446e-01
1.533595742715262444e-01
1.362430896825288507e-01
1.159675670416043802e-01
9.269815068824105442e-02
6.666822837290575787e-02
3.817140958687625929e-02
7.552735044630498606e-03
-2.480789462793508982e-02
-5.855982329078368576e-02
-9.322748185949214506e-02
-1.282900198714574946e-01
-1.632018605157442015e-01
-1.974095344474587344e-01
-2.303688136304171963e-01
-2.615608318040294478e-01
-2.904498403115834404e-01
-3.167036915522788432e-01
-3.399810794300103245e-01
-3.599433418097658377e-01
-3.763075082209537681e-01
-3.888556653610268921e-01
-3.974428539147894512e-01
-4.020026496720741638e-01
-4.025216498733018566e-01
-3.991164200436088660e-01
-3.919991393402482149e-01
-3.814033349094453351e-01
-3.676190895390271662e-01
-3.509859353448290809e-01
-3.318848827162536042e-01
-3.107296620074274651e-01
-2.879738586222037600e-01
-2.640821270632012219e-01
-2.394524057044385978e-01
-2.145333394601196542e-01
-1.897596932938915293e-01
-1.655408930799326939e-01
-1.422504742228308805e-01
-1.202170805367451800e-01
-9.972591708632372320e-02
-8.107094993535790550e-02
-6.427084946093786222e-02
-4.943686127065682889e-02
-3.663203583537688601e-02
-2.586838249739809026e-02
-1.710466996559534270e-02
-1.024569349421222686e-02
-5.143695598829101101e-03
-1.586058523063371695e-03
7.176849640712634759e-04
2.014174487344755349e-03
2.554670221613319914e-03
2.594843589115838900e-03
2.393410978857254262e-03
2.211357518024953395e-03
2.310679401278104006e-03
3.072368506508604824e-03
4.748483785422308312e-03
7.490226889256490495e-03
1.144990828609371292e-02
1.673771002100399308e-02
2.342433239484997820e-02
3.154547100909155244e-02
4.110696746880759811e-02
5.217508780140867053e-02
6.476515029847618177e-02
7.870230183653004197e-02
9.384146708192342423e-02
1.099999008559637836e-01
1.269633550545560263e-01
1.444934407940412502e-01
1.623355245195816643e-01
1.802211212500518522e-01
1.979025623057880656e-01
2.151404015399357439e-01
2.316651382588661434e-01
2.472106504847910169e-01
2.615196063523866910e-01
2.743485398745544868e-01
2.854725073857268258e-01
2.946722407094835017e-01
3.015984359790502278e-01
3.063092312805449358e-01
3.087222796910620293e-01
3.087952780590152435e-01
3.065263901517030209e-01
3.019531248059657003e-01
2.951499127264243794e-01
2.862248797676401058e-01
2.751456664063802737e-01
2.621978068783501481e-01
2.476295039273668785e-01
2.317037392649653749e-01
2.147098934144278659e-01
1.969548293695441155e-01
1.787530887494353793e-01
1.604169262208135494e-01
1.422483367043080316e-01
1.244714882287049906e-01
1.073490617018910132e-01
9.113904571535616506e-02
7.607295852919460089e-02
6.234556981839761702e-02
5.010543453909629963e-02
3.944713474976110912e-02
3.046939754795741084e-02
2.309124158188541331e-02
1.714462703310010161e-02
1.250182995285267773e-02
8.991406696174569779e-03
6.397774559861652000e-03
4.462079091474474568e-03
2.885139565226527147e-03
1.351442018717320670e-03
-5.151856812356768456e-04
-3.149861206552091730e-03
-6.909473903356180835e-03
-1.212924424266756396e-02
-1.911497646886628488e-02
-2.813629481361756834e-02
-3.942038324891872225e-02
-5.315180426009313841e-02
-6.952821719645185805e-02
-8.856342435810660163e-02
-1.102229186439875885e-01
-1.343883382494591716e-01
-1.608578463447823959e-01
-1.893493620551244261e-01
-2.195062917468812436e-01
-2.509052391984076258e-01
-2.831341050967954853e-01
-3.156153379237757184e-01
-3.477602468364985322e-01
-3.789553879255935787e-01
-4.085694401224363448e-01
-4.359674979734109446e-01
-4.605259416933917826e-01
-4.816475247272172799e-01
-4.987532627113008821e-01
-5.113503236500220872e-01
-5.190217273307171642e-01
-5.214248064640588654e-01
-5.183080460234062992e-01
-5.095171969941145740e-01
-4.949989390946179513e-01
-4.748023114628134311e-01
-4.490297714206112345e-01
-4.179088121211912421e-01
-3.818437635437351152e-01
-3.413026611009873923e-01
-2.968436640515336733e-01
-2.491017200462938841e-01
-1.987730433954377762e-01
-1.465982822579988132e-01
-9.332562948230799238e-02
-3.966844415036263616e-02
1.355894684422209728e-02
6.556509016976758142e-02
1.155800176513543664e-01
1.628745405988785144e-01
2.067791844941183621e-01
2.467015689267187950e-01
2.821428938637158823e-01
3.127661165007937782e-01
3.382920106987685749e-01
3.585061233488319732e-01
3.732898941430051742e-01
3.826261264899513681e-01
3.866032279066839439e-01
3.854171677633272397e-01
3.793701512413840682e-01
3.689107532842731962e-01
3.545624334146670886e-01
3.368622088400228809e-01
3.163910574096674422e-01
2.937627563387870677e-01
2.696137145849118455e-01
2.445927201093832104e-01
2.193500581661989302e-01
1.945406100524167403e-01
1.708069766096036446e-01
1.487119890331243255e-01
1.287549972690690270e-01
1.113622026600110670e-01
9.687840023287552782e-02
8.556085138138236346e-02
7.757530245214427911e-02
7.296108663367173452e-02
7.169659532231253962e-02
7.370724710371145960e-02
7.880567269387328544e-02
8.672435554140961456e-02
9.712152747588065349e-02
1.095884357290194400e-01
1.236582236075285945e-01
1.387670061013167588e-01
1.542882301398467437e-01
1.697662749878390276e-01
1.846659786811097048e-01
1.984721297393614581e-01
2.107003344751652851e-01
2.209061509470502949e-01
2.286927729089182071e-01
2.336991696276703445e-01
2.355048627121567595e-01
2.340188559642193411e-01
2.291388216553261747e-01
2.208499389613904906e-01
2.092215583675705037e-01
1.944008623198268948e-01
1.766042103029469290e-01
1.561070148160883519e-01
1.332002884796688047e-01
1.082141391937847530e-01
8.156623242496086057e-02
5.370713125590681480e-02
2.510397449576357021e-02
-3.776443258140638193e-03
-3.248409115914357992e-02
-6.060049518560250981e-02
-8.765192843662519828e-02
-1.134602439510435518e-01
-1.377991833855084503e-01
-1.604375400167105115e-01
-1.811949811617981076e-01
-1.999488356181463034e-01
-2.166387259667982290e-01
-2.312681370263784952e-01
-2.438141521407757861e-01
-2.544738056720802222e-01
-2.635078864418693434e-01
-2.711023147141676803e-01
-2.774552211463191531e-01
-2.827710221586782202e-01
-2.872547331060172349e-01
-2.911060293377676356e-01
-2.945098579045811737e-01
-2.976505688310572273e-01
-3.006800551933890286e-01
-3.036948337405319664e-01
-3.067464046393700849e-01
-3.098390547880478518e-01
-3.129299126746373227e-01
-3.159311293983277924e-01
-3.187357530912754422e-01
-3.212684601818011632e-01
-3.231817115530518647e-01
-3.242567710388049029e-01
-3.242658983754069801e-01
-3.229772778843836845e-01
-3.201600828189319348e-01
-3.155901533921267044e-01
-3.090565641719072998e-01
-3.004442860887311939e-01
-2.894487599033812586e-01
-2.759546053392403220e-01
-2.599109196813386147e-01
-2.413235898992064365e-01
-2.202512917599637465e-01
-1.967998850008229605e-01
-1.711164095932237172e-01
-1.432969562686793596e-01
-1.135504835747440100e-01
-8.217794148959023381e-02
-4.950801344580674224e-02
-1.590504937417847042e-02
1.824355979579306286e-02
5.254124545144245317e-02
8.659595724614310708e-02
1.201457729052350931e-01
1.528683054388898510e-01
1.843282936217192081e-01
2.141806209772940672e-01
2.421035915397454774e-01
2.678067863321493824e-01
2.910387771287914482e-01
3.115939609158496770e-01
3.293439235182550329e-01
3.442452848889288042e-01
3.562014190844195460e-01
3.651804460206855008e-01
3.711866507795683057e-01
3.742601585772615813e-01
3.744763299219290298e-01
3.719446329577941190e-01
3.667900637924750851e-01
3.591319592274493377e-01
3.492758907789625389e-01
3.374388512483460500e-01
3.238493819519107086e-01
3.087456919297852376e-01
2.923738777554010793e-01
2.749859621692395395e-01
2.568376186419955576e-01
2.380687938686917859e-01
2.190626623281141938e-01
2.000865907122973408e-01
1.813947762888281912e-01
1.632307557998678993e-01
1.458247611157346413e-01
1.293909034692840576e-01
1.141241969399364176e-01
1.001716114740926478e-01
8.767893398966203344e-02
7.678268702484108976e-02
6.758964042883736090e-02
6.017659616890908003e-02
5.458510154983509111e-02
5.081653437702143838e-02
4.882815762216230482e-02
4.853188095965665916e-02
4.974431661916789427e-02
5.228443614857986033e-02
5.595663383000604174e-02
6.053468486872706777e-02
6.576003300231550441e-02
7.134070358724577121e-02
7.695182679807122117e-02
8.222711800178492125e-02
8.672154715180566131e-02
9.005604380665355180e-02
9.187866083219053959e-02
9.186142777704431328e-02
8.970449656860030041e-02
8.513934626640906611e-02
7.793191426107071162e-02
6.788549855096992491e-02
5.479165879887315516e-02
3.853288828451750803e-02
1.910650832100380114e-02
-3.407002666602210184e-03
-2.884574161334685360e-02
-5.697076626505559460e-02
-8.747236192582968917e-02
-1.199774074123189371e-01
-1.540021226926406306e-01
-1.891842770363602044e-01
-2.249945919251331583e-01
-2.608573692882127371e-01
-2.961667670620515835e-01
-3.303021977935737818e-01
-3.626442968332395100e-01
-3.925907386190091164e-01
-4.195023088885456164e-01
-4.429249636668316503e-01
-4.624194499607005571e-01
-4.775907422055644114e-01
-4.881204450907434822e-01
-4.937756698469754069e-01
-4.944158207288719131e-01
-4.899970145965687474e-01
-4.805943361495720323e-01
-4.663403245479799675e-01
-4.474648779536496979e-01
-4.243091860754482081e-01
-3.972984220453895654e-01
-3.669305138352620954e-01
-3.337632737547394091e-01
-2.984003694740661183e-01
-2.615425665976710001e-01
-2.238493471614637631e-01
-1.858444452920445245e-01
-1.481619436120585331e-01
-1.114117066060645311e-01
-7.616195865267821885e-02
-4.292322445694962685e-02
-1.213457579947052611e-02
1.582075725522502641e-02
4.062509472956221668e-02
6.224754403031529382e-02
8.059949903293600615e-02
9.567561245352756982e-02
1.075558093218554334e-01
1.164055641478407011e-01
1.224735400306225519e-01
1.260858429265911129e-01
1.277186515254535304e-01
1.278092527282545798e-01
1.268048928256909624e-01
1.251566419454176460e-01
1.233089623852249850e-01
1.216915076440793775e-01
1.207119582958968151e-01
1.207489489088199863e-01
1.223244582267730696e-01
1.256607423902751375e-01
1.309053272705735793e-01
1.381567294432635151e-01
1.474259519744564040e-01
1.586399120460063594e-01
1.716482062309230283e-01
1.862321554667557000e-01
2.022150808625660101e-01
2.192770317481963493e-01
2.369637013386969859e-01
2.548318512998310470e-01
2.724073096209774780e-01
2.891999400962675382e-01
3.047194804085596731e-01
3.184915817072539457e-01
3.300619796535849138e-01
3.390378221484076082e-01
3.451011735639379352e-01
3.479781017318118175e-01
3.474683034881285715e-01
3.434511710401187967e-01
3.358892793351793693e-01
3.248293723581864856e-01
3.103724555528218909e-01
2.926320693058621636e-01
2.720151122572945779e-01
2.489007929161134447e-01
2.237335478822616019e-01
1.970108237185514699e-01
1.692688389570684571e-01
1.410669588490479076e-01
1.129712978615364238e-01
8.546808621558077412e-02
5.912414690539304074e-02
3.446069087071138015e-02
1.195949197938250830e-02
-7.952049378385950273e-03
-2.491481857609584294e-02
-3.865004178900272036e-02
-4.896874241638793368e-02
-5.570012999947338006e-02
-5.897973378879461936e-02
-5.892513032176405208e-02
-5.570678249794680514e-02
-4.957438665579261272e-02
-4.085577621333458254e-02
-2.995360250110978839e-02
-1.733908372847525747e-02
-3.462441440961361305e-03
1.099463073896517207e-02
2.536633836187895952e-02
3.906246660910608903e-02
5.150959698977375378e-02
6.215967198841997055e-02
7.049769588144075283e-02
7.604945740030238932e-02
7.838753710558382659e-02
7.709268219411030687e-02
7.186696032688816294e-02
6.252948432592259076e-02
4.900050964716495816e-02
3.130116781661973491e-02
9.550138589327294980e-03
-1.604192505571000460e-02
-4.520786544921007177e-02
-7.766848014098715058e-02
-1.128709459916095170e-01
-1.502775608772375371e-01
-1.892883016415346509e-01
-2.292529426577176732e-01
-2.694847781115978780e-01
-3.092755864159841828e-01
-3.479133288541010893e-01
-3.847967869974332489e-01
-4.191290951401683840e-01
-4.502589993926932599e-01
-4.775871361780705815e-01
-5.005770716629527328e-01
-5.187648783685188114e-01
-5.317673450005698799e-01
-5.392888978201263450e-01
-5.411429604908015722e-01
-5.371895273443344498e-01
-5.274244870398345775e-01
-5.119561036883626404e-01
-4.909959067476609151e-01
-4.648528061502930631e-01
-4.339251060054222231e-01
-3.986909010369094064e-01
-3.597238331450806625e-01
-3.175861065321783361e-01
-2.729109740857494915e-01
-2.263969937140812017e-01
-1.787691121684549800e-01
-1.307621939799492594e-01
-8.310449366587498166e-02
-3.650175804845805227e-02
8.321521515987945206e-03
5.076761603187274208e-02
9.037137623739371906e-02
1.266385887840584812e-01
1.591463567526265610e-01
1.875537027814588309e-01
2.116103246109252156e-01
2.311627216454331113e-01
2.461361709654622532e-01
2.565656062765408474e-01
2.626829891635322767e-01
2.647026477319533444e-01
2.629095833226313128e-01
2.576553229555261781e-01
2.493530544224621393e-01
2.384713308253879616e-01
2.255290533166745826e-01
2.112036847598313394e-01
1.959845167197462046e-01
1.804163940838695579e-01
1.650233686849599812e-01
1.502993780121519296e-01
1.367010284888589000e-01
1.246419841473444534e-01
1.144882135603252360e-01
1.067615095905630751e-01
1.015784774192630135e-01
9.904964103760249827e-02
9.924041261558419480e-02
1.021352884182926690e-01
1.076413143629948443e-01
1.155940576379411167e-01
1.257654538105781317e-01
1.379604784020636576e-01
1.518323436558766115e-01
1.669477394758830391e-01
1.828794812675379466e-01
1.991746717998480465e-01
2.153665046425080054e-01
2.309863944510045508e-01
2.455760904555190360e-01
2.586765471793970872e-01
2.698849007687998403e-01
2.788757030537752923e-01
2.853435759217082257e-01
2.890409210203489510e-01
2.897835734308043532e-01
2.874546005229358103e-01
2.820062753185333948e-01
2.734439543237868198e-01
2.618065553152031377e-01
2.473021332113727322e-01
2.301711844086420655e-01
2.107179202648271910e-01
1.893011941793743547e-01
1.663238370743542749e-01
1.422210009082294224e-01
1.174526256581866351e-01
9.252959529582954756e-02
6.779251701179059286e-02
4.370779901710700188e-02
2.073199152398716438e-02
-7.038793826370237650e-04
-2.020988131631953899e-02
-3.745139321569765367e-02
-5.216091420834367831e-02
-6.402145431170144785e-02
-7.311984851170869049e-02
-7.944303283294221196e-02
-8.301098506526863319e-02
-8.391161773354580133e-02
-8.230556590373658277e-02
-7.842895217011343345e-02
-7.259294740538625723e-02
-6.514822415925924926e-02
-5.662378876653970106e-02
-4.752481161657864939e-02
-3.833920853540850882e-02
-2.955964684506950935e-02
-2.167471571887863435e-02
-1.516045362683005049e-02
-1.047156640509405712e-02
-8.090275595639573325e-03
-8.432199327123690580e-03
-1.174318115423433895e-02
-1.825084654051967181e-02
-2.809793073305444366e-02
-4.133639504555364219e-02
-5.792445917891420049e-02
-7.772654203917206406e-02
-1.005640194555286193e-01
-1.262005698754405936e-01
-1.540856139515263123e-01
-1.837392368693243627e-01
-2.146210443440142446e-01
-2.461402456875128597e-01
-2.776673118070092650e-01
-3.085473538922509640e-01
-3.381219559173138656e-01
-3.658091095633281276e-01
-3.908515502775707362e-01
-4.126546304211423100e-01
-4.306863991563508742e-01
-4.444900015002704041e-01
-4.536938992124213699e-01
-4.580199636981657774e-01
-4.572895127757831690e-01
-4.514684407603219984e-01
-4.405350693589142885e-01
-4.246173808444217435e-01
-4.039571130768628837e-01
-3.788963693092950447e-01
-3.498692076366485271e-01
-3.173909436680880658e-01
-2.820454174081584164e-01
-2.445417615286295254e-01
-2.055106114384557536e-01
-1.656024590223918180e-01
-1.255081731862336958e-01
-8.590564383870011311e-02
-4.744327631403116863e-02
-1.072488953286410140e-02
2.370360584428621298e-02
5.530033504571449376e-02
8.368494103547066687e-02
1.086337736430357526e-01
1.299282921249089728e-01
1.474406618322722240e-01
1.611374068161859074e-01
1.710805656727328039e-01
1.774257794295531765e-01
1.804122036026465092e-01
1.804002887336790262e-01
1.778072695033708350e-01
1.730483864683007300e-01
1.665657395294766752e-01
1.588201285749443747e-01
1.502837501130103726e-01
1.414328935607030990e-01
1.327530212615199989e-01
1.248916117328050523e-01
1.181332972944734161e-01
1.128169164548576964e-01
1.092131192396030848e-01
1.075213703033333079e-01
1.078703954789388408e-01
1.103212586435221576e-01
1.148719501419501743e-01
1.216898626466682565e-01
1.304924901405025706e-01
1.410397196009600673e-01
1.530587842097000939e-01
1.662249791539853749e-01
1.801720960693226070e-01
1.945044470006275228e-01
2.088098726615986722e-01
2.227505432366409521e-01
2.358827184910379238e-01
2.477709341625471406e-01
2.580409670327862282e-01
2.663556495272645930e-01
2.724233375121756784e-01
2.760051850523649319e-01
2.769212343208127258e-01
2.750338672316730015e-01
2.702843275122995825e-01
2.627210364413903321e-01
2.524481084717142831e-01
2.396416295629407722e-01
2.245449521815006122e-01
2.074618503568195216e-01
1.887479143256375336e-01
1.687902725451767560e-01
1.479804674907060358e-01
1.267912984655786834e-01
1.057019060397517141e-01
8.519592429865796568e-02
6.574664571127730728e-02
4.780201602303724151e-02
3.177022035345851425e-02
1.801567637492824600e-02
6.873487587111815067e-03
-1.555875031323594726e-03
-7.116944412708325896e-03
-9.725643252188664878e-03
-9.377180958973552194e-03
-6.152268871257637883e-03
-2.206421685582160563e-04
8.158892327646882769e-03
1.874545485942846756e-02
3.094400967820787329e-02
4.426497743972335197e-02
5.819982116697208774e-02
7.221244768811940773e-02
8.574736949692629562e-02
9.823872364741509378e-02
1.091208251205956214e-01
1.178450337119330560e-01
1.238280293892869977e-01
1.265935762850740609e-01
1.257516612700469438e-01
1.209954054080573382e-01
1.121073365339235461e-01
9.896301815532465573e-02
8.153258783032986401e-02
5.981043748822485739e-02
3.394020788819460122e-02
4.257423529814285956e-03
-2.886821865975047752e-02
-6.497743560677621266e-02
-1.035309660575063906e-01
-1.439217363278778028e-01
-1.854891656402440914e-01
-2.275839114920279183e-01
-2.695439651545742388e-01
-3.105166984038568723e-01
-3.497722975461190487e-01
-3.866075181035709130e-01
-4.203600168869737752e-01
-4.504217600925976561e-01
-4.762514197212452394e-01
-4.973930721296727087e-01
-5.135161180702630945e-01
-5.242666055397567915e-01
-5.294649087431051449e-01
-5.290390614215015885e-01
-5.230240696527490574e-01
-5.115585252935322957e-01
-4.948788942075384445e-01
-4.733119012686292093e-01
-4.472801268444270839e-01
-4.172261520911451638e-01
-3.836924234378898957e-01
-3.472769376617014236e-01
-3.086159478199374528e-01
-2.683685410421142725e-01
-2.272010813455683786e-01
-1.857720886527616244e-01
-1.447825344836528860e-01
-1.047657126559861235e-01
-6.624548010442599111e-02
-2.972679345363021808e-02
4.344807204295253467e-03
3.559172514981734370e-02
6.371081499009823013e-02
8.847758162615371180e-02
1.096658109996990205e-01
1.272439167761064693e-01
1.413194647600624076e-01
1.519835508323912343e-01
1.593908107302848820e-01
1.637547404371758608e-01
1.653417821153921885e-01
1.644640410114781570e-01
1.614467403022588621e-01
1.566579732977839701e-01
1.505537594598047035e-01
1.435313575766027638e-01
1.359807641410870349e-01
1.282779629836082180e-01
1.207792242710964414e-01
1.138161055233195967e-01
1.077036169669971372e-01
1.028091531688931637e-01
9.926986906097912122e-02
9.724468378265876956e-02
9.683884525772734619e-02
9.810550840875564838e-02
1.010493408150812122e-01
1.056315236225828791e-01
1.117753155650262897e-01
1.195645745433816520e-01
1.287180695281541221e-01
1.390157554502120529e-01
1.502160615973853197e-01
1.620503197913926163e-01
1.742322734028219910e-01
1.864682220187117712e-01
1.984669119555488859e-01
2.100350579891107627e-01
2.208988401049506445e-01
2.307627778247514638e-01
2.393666451187508870e-01
2.464682587341311681e-01
2.518505901386764445e-01
2.553286539524318166e-01
2.567556060933046669e-01
2.560351687804786058e-01
2.531247572266509538e-01
2.480048038384458087e-01
2.406981483673893418e-01
2.312685978305578649e-01
2.198200709683939547e-01
2.064951030481012029e-01
1.914727418207569087e-01
1.749872743771493933e-01
1.572757744791276058e-01
1.385545340743243314e-01
1.191278227745225793e-01
9.932417863703979499e-02
7.948712704300742171e-02
5.996532144971013223e-02
4.110288275593119989e-02
2.325759096373500312e-02
6.835722474705319129e-03
-8.091066920085709935e-03
-2.126054508984981384e-02
-3.243261993846802138e-02
-4.140000627579204506e-02
-4.799877999921509097e-02
-5.211761233205625121e-02
-5.370473873500491990e-02
-5.262035205229259605e-02
-4.916320145958502641e-02
-4.347870881989074343e-02
-3.574526882805706407e-02
-2.618786372032821941e-02
-1.507893255726805437e-02
-2.737878039178021083e-03
1.047156149304659389e-02
2.413514837717921357e-02
3.778742410715640876e-02
5.098782374660273953e-02
6.330013358781938493e-02
7.429833357517584558e-02
8.357400845016366153e-02
9.074312135381368272e-02
9.545255995975060470e-02
9.727573634106889688e-02
9.594673572631406966e-02
9.136393699911271593e-02
8.340927656833518888e-02
7.203750956029753016e-02
5.727793265356007080e-02
3.923366534486005808e-02
1.807876463017421553e-02
-6.020697462816970713e-03
-3.283370434635018986e-02
-6.184451442283023237e-02
-9.261543693580392977e-02
-1.246631242147371865e-01
-1.574681466298004928e-01
-1.904858064786409677e-01
-2.231579771786545430e-01
-2.549393006870116496e-01
-2.853426044431342512e-01
-3.137578052882620816e-01
-3.396877444184339123e-01
-3.626809536356751518e-01
-3.823402879884429395e-01
-3.983301660199549676e-01
-4.103824627794885327e-01
-4.183011190295727322e-01
-4.219932100338735226e-01
-4.213687148576024111e-01
-4.164648391515924919e-01
-4.074024529729326494e-01
-3.943803479657851385e-01
-3.776695543633728502e-01
-3.576061902487235877e-01
-3.345831464772683339e-01
-3.091292274424541353e-01
-2.816387475297427723e-01
-2.525793106412709266e-01
-2.224702772642988824e-01
-1.918399013011094500e-01
-1.612135104231442462e-01
-1.311022187927085025e-01
-1.019924211477061804e-01
-7.444305909333026605e-02
-4.882075058772084031e-02
-2.537864285254898267e-02
-4.400832286360567558e-03
1.389146399393204057e-02
2.934544984229181530e-02
4.188044492322073875e-02
5.148944537292715617e-02
5.820582826779208130e-02
6.215931917836955978e-02
6.362134829185395191e-02
6.285418757396570022e-02
6.017015426690680568e-02
5.592616456788765400e-02
5.051753406959597070e-02
4.437062739555786006e-02
3.795362659689210938e-02
3.182863378012623645e-02
2.635554452854060870e-02
2.194877970133213285e-02
1.898798350023600534e-02
1.781000329295856499e-02
1.870275612719540792e-02
2.190059555839540817e-02
2.758057210239628354e-02
3.610244285349972770e-02
4.730824562311908288e-02
6.112720001493898714e-02
7.741280869539624021e-02
9.593944598766823706e-02
1.164092373901359778e-01
1.384615073990071443e-01
1.616840061305304665e-01
1.857608744862608852e-01
2.101482884991530686e-01
2.342809106528912499e-01
2.576109873232159120e-01
2.795895012888458542e-01
2.996826368165847465e-01
3.173884228547771413e-01
3.322527101144516770e-01
3.439115233638933011e-01
3.520673058929756349e-01
3.564585072029724522e-01
3.569169688956159714e-01
3.533629037111629678e-01
3.458101578708667745e-01
3.343691664186145829e-01
3.192471765030957531e-01
3.007595727159423360e-01
2.793113240739645287e-01
2.553442448987520708e-01
2.293835553804386418e-01
2.020052115006519822e-01
1.738213550434954957e-01
1.454648588829528799e-01
1.175733586616213716e-01
9.079558366375808931e-02
6.578882566794350129e-02
4.298739520036964912e-02
2.288982618074714148e-02
5.928927963298247228e-03
-7.543115962177271427e-03
-1.726764035956906973e-02
-2.308942863193630401e-02
-2.496297897178656466e-02
-2.285104834254914064e-02
-1.711028911976220090e-02
-8.010067341185922452e-03
4.101072221756207892e-03
1.879680469986327873e-02
3.557809232932429566e-02
5.388034445820552576e-02
7.308345424348353103e-02
9.250876662912613235e-02
1.114072148748938423e-01
1.291098429076638354e-01
1.449866453029755031e-01
1.584537580189280814e-01
1.689832795224492368e-01
1.761110507719503282e-01
1.794432037849200134e-01
1.785769962444158643e-01
1.732619259821661095e-01
1.634315889699701208e-01
1.490838097024170805e-01
1.303254051244282508e-01
1.073673859040954470e-01
8.051690184932991379e-02
5.016661874171068902e-02
1.673164586735353954e-02
-1.930079500461884257e-02
-5.726748057636177336e-02
-9.653651545157004854e-02
-1.364507102855389009e-01
-1.763424381554894449e-01
-2.155486095977822703e-01
-2.534254704181427287e-01
-2.893675371297854682e-01
-3.228235486743436522e-01
-3.532667710439089115e-01
-3.802609848213149846e-01
-4.034479179516041736e-01
-4.225528639652881280e-01
-4.373879541772039969e-01
-4.478531737568384741e-01
-4.539352984330543017e-01
-4.556982494088276381e-01
-4.532914942320181995e-01
-4.469423128319570671e-01
-4.369459950190558439e-01
-4.236567549447473047e-01
-4.074775545008453292e-01
-3.888491118619178399e-01
-3.682383561760139146e-01
-3.462060534859230376e-01
-3.231562776051684072e-01
-2.995359925021583436e-01
-2.757964580200042981e-01
-2.523605222420775007e-01
-2.296125203417669902e-01
-2.078897663495567483e-01
-1.874758801583637502e-01
-1.687174183882693135e-01
-1.517013789593883999e-01
-1.364288037967320566e-01
-1.229303158056515022e-01
-1.111791016781740749e-01
-1.010910769703477763e-01
-9.252675626011480636e-02
-8.529518795313059676e-02
-7.922454868353234758e-02
-7.403970153007989607e-02
-6.932577055412281197e-02
-6.476343532309264406e-02
-6.003242762584976022e-02
-5.481895740892106517e-02
-4.882279235970421460e-02
-4.176429358523869872e-02
-3.339468163090641983e-02
-2.349222877602874515e-02
-1.186503918359205212e-02
1.603486354709859896e-03
1.697052128454912268e-02
3.423131033665882672e-02
5.331859501435465276e-02
7.410383236994289025e-02
9.640080527524796938e-02
1.200413331970333619e-01
1.446657452713659975e-01
1.699264814534258705e-01
1.954366614592769891e-01
2.207794508594573824e-01
2.455186154162521117e-01
2.692099101729445998e-01
2.914128557303724554e-01
3.117478477174759899e-01
3.298066269631197422e-01
3.452031303189047606e-01
3.575968950127739188e-01
3.666974912241232065e-01
3.722754472024084604e-01
3.741718220570550146e-01
3.723056570597997883e-01
3.667111576927953864e-01
3.575064674041061874e-01
3.448288778100656593e-01
3.288875435333514785e-01
3.099541862151770077e-01
2.883613864890725020e-01
2.644997822029390155e-01
2.388134380325633854e-01
2.118582682207432732e-01
1.842163616954842764e-01
1.563346590427794891e-01
1.287293158137165217e-01
1.019007107443042626e-01
7.632368212465392987e-02
5.243933052073049966e-02
3.064813538751361144e-02
1.136512654843585546e-02
-4.961920235686090308e-03
-1.832745950684139258e-02
-2.858360078460459031e-02
-3.565223242261156278e-02
-3.952784652668916987e-02
-4.027807331737498497e-02
-3.804155863751113031e-02
-3.301671191406130301e-02
-2.527068392287412646e-02
-1.539233534854722585e-02
-3.740422866473358532e-03
9.306195518724136306e-03
2.335383954593961420e-02
3.799872601559567409e-02
5.283201378308938212e-02
6.744591712817982199e-02
8.145548771492683304e-02
9.439230674974879998e-02
1.059184732766664527e-01
1.157627641723596168e-01
1.237110527160562162e-01
1.296041588574277370e-01
1.333336814953772764e-01
1.348370521451268400e-01
1.340169374455806861e-01
1.308660894381552808e-01
1.255024064379923754e-01
1.180688696279116878e-01
1.087549389836457436e-01
9.778682197721677571e-02
8.541637502561932882e-02
7.190961042332039144e-02
5.749919410487960847e-02
4.240873735946254497e-02
2.694245621789057021e-02
1.136381810913780765e-02
-4.077602827994165902e-03
-1.915278537285561647e-02
-3.365933946321739145e-02
-4.742671798535369465e-02
-6.032004023431400408e-02
-7.224856007418434256e-02
-8.315887288027118407e-02
-9.303041135247364091e-02
-1.018789328603921795e-01
-1.097545719858288304e-01
-1.167389542080179976e-01
-1.229414734272139542e-01
-1.284970439970154477e-01
-1.335981126004691100e-01
-1.383506863889659155e-01
-1.429258797977430717e-01
-1.474994428172094474e-01
-1.522457278720686369e-01
-1.573319207224260774e-01
-1.629127268087038338e-01
-1.691255777110382552e-01
-1.762551210452967809e-01
-1.842213026765155415e-01
-1.930368542827735623e-01
-2.027191912941563867e-01
-2.132539716693982179e-01
-2.245924954729324186e-01
-2.366504637136160882e-01
-2.493082172451431267e-01
-2.625727533938914116e-01
-2.761509499259513500e-01
-2.897180454405470229e-01
-3.030221141045544853e-01
-3.157937820525164030e-01
-3.277483544971619978e-01
-3.385887417299235924e-01
-3.480095724111413880e-01
-3.557510459075433618e-01
-3.614948069353363103e-01
-3.648761250461959316e-01
-3.656224820324249780e-01
-3.634922994364158111e-01
-3.582794139850049020e-01
-3.498168569196073441e-01
-3.379802712692635547e-01
-3.226796472496714641e-01
-3.038535761870194696e-01
-2.815619011793050741e-01
-2.558987547123420248e-01
-2.270212452702968231e-01
-1.951496312012015455e-01
-1.605658992173811805e-01
-1.236107533032463901e-01
-8.467699325077698846e-02
-4.417351982602601979e-02
-2.624240070495387211e-03
3.944623662542223741e-02
8.148678538715375952e-02
1.229288787831801510e-01
1.631963501601783606e-01
2.017157670470828557e-01
2.379273615271343123e-01
2.712451301246231461e-01
3.012198707289678312e-01
3.274167824178852437e-01
3.494520211150031197e-01
3.670116357198371926e-01
3.798605385580904326e-01
3.878496711198188285e-01
3.909210919460546219e-01
3.890792265436069375e-01
3.824901567567232097e-01
3.713968032651861484e-01
3.561074106609828926e-01
3.370120166016775110e-01
3.145775571363630951e-01
2.893410702971361825e-01
2.619006153739319442e-01
2.329507634186322729e-01
2.032098434353162841e-01
1.733157071538404537e-01
1.439373084651877910e-01
1.157192445735074765e-01
8.926915863182172117e-02
6.514667855467085045e-02
4.385354165249272240e-02
2.588356177640149802e-02
1.172288767724344316e-02
1.470306788806496900e-03
-4.740492059252421342e-03
-6.884722382514141259e-03
-5.045516408045735979e-03
5.907567233580657273e-04
9.742420255942851881e-03
2.205672022214844041e-02
3.727098451251065203e-02
5.469446972500757731e-02
7.374936235299983656e-02
9.381920455760212052e-02
1.142649543097730147e-01
1.344418750712003674e-01
1.537168938729415180e-01
1.714859262135319806e-01
1.872727233651726442e-01
2.004870137742178482e-01
2.106879325879557896e-01
2.175364057241121751e-01
2.207888996712783491e-01
2.203012458097337034e-01
2.160297840834433103e-01
2.080301797528875396e-01
1.964923458157836200e-01
1.815962434674033288e-01
1.636512328034316899e-01
1.430802283325555146e-01
1.203787758836876165e-01
9.609810196657178616e-02
7.082673765116945241e-02
4.517178252528666893e-02
1.978620121304722201e-02
-4.786855878687407140e-03
-2.804824654006667431e-02
-4.946155798971448025e-02
-6.853671098138122697e-02
-8.484644033081431558e-02
-9.804117764901063015e-02
-1.078612651592105731e-01
-1.141214204391966525e-01
-1.167696474488715275e-01
-1.159323191758435678e-01
-1.117367678129043140e-01
-1.043940739643571813e-01
-9.419667571425593966e-02
-8.151441419723365334e-02
-6.678844308894688053e-02
-5.052637501042916979e-02
-3.334025458179784573e-02
-1.578847936107924399e-02
1.537315906388059261e-03
1.804943456753074771e-02
3.317789574921997664e-02
4.638307400814697251e-02
5.716717295063813292e-02
6.508466446580872533e-02
6.956149351683355020e-02
7.047141582831267792e-02
6.762771640367781778e-02
6.090518789059190530e-02
5.026935507581864471e-02
3.577893827116473968e-02
1.758543189589123479e-02
-4.070254702724929174e-03
-2.904670078062066008e-02
-5.680501393213666095e-02
-8.677317593053424094e-02
-1.184162480370942738e-01
-1.511605418030013137e-01
-1.844044745143895714e-01
-2.175303845580672801e-01
-2.499173594254596731e-01
-2.810371619025117118e-01
-3.102852364369022009e-01
-3.370113610210492272e-01
-3.607081866481339771e-01
-3.809332189476996033e-01
-3.973172287325035801e-01
-4.095708237246332706e-01
-4.174892186769153524e-01
-4.209633652340123433e-01
-4.199749682316218369e-01
-4.145614327956182454e-01
-4.048645006561541471e-01
-3.911065101380704068e-01
-3.735839242109055824e-01
-3.526591508257908014e-01
-3.287508671668420979e-01
-3.023227654422707689e-01
-2.738658091621196111e-01
-2.439004654492306634e-01
-2.129578351955790927e-01
-1.815667771693431909e-01
-1.502413168557729106e-01
-1.194687404591903701e-01
-8.969876749659877468e-02
-6.133414100255973889e-02
-3.478189925171229491e-02
-1.024868413792767718e-02
1.204887130914433779e-02
3.194785858165569148e-02
4.934910159955790965e-02
6.421793740504311288e-02
7.658313794952004150e-02
8.653384081669335259e-02
9.413616954764725264e-02
9.965367415110076843e-02
1.033618134642074193e-01
1.055270972918871952e-01
1.064351449259031690e-01
1.063827809768511934e-01
1.056701014943528388e-01
1.045925572130929349e-01
1.034236276907798263e-01
1.024300517791207898e-01
1.018599799406335327e-01
1.019189257873317211e-01
1.027755867963405234e-01
1.045591715443582315e-01
1.073581730193823858e-01
1.112204590146209648e-01
1.161995954105582429e-01
1.223242880407110489e-01
1.294185319094172115e-01
1.373660874610282967e-01
1.460216205155449032e-01
1.552173689134154211e-01
1.647707888623245465e-01
1.744926281040711791e-01
1.842196681389536850e-01
1.939637081740661628e-01
2.033589955451353681e-01
2.122080408713520883e-01
2.203215871101231738e-01
2.275253131969581233e-01
2.336668425913841218e-01
2.386223183247039303e-01
2.423016435137298474e-01
2.448277683521583037e-01
2.460677899723891227e-01
2.459820807124599717e-01
2.445591561585878093e-01
2.418031855281355669e-01
2.377352382499522410e-01
2.323947496683345659e-01
2.258406261734660636e-01
2.182291549335468872e-01
2.096245529504731642e-01
2.000930092822733597e-01
1.897324719022178141e-01
1.786441972803045064e-01
1.669311330553116535e-01
1.546969280137328040e-01
1.420455975603920618e-01
1.291341506366660563e-01
1.160283982661891450e-01
1.027785953142513337e-01
8.950480303021074446e-02
7.633634521647408855e-02
6.340775162636630435e-02
5.085437560010075408e-02
3.880840934512452822e-02
2.743395687645733272e-02
1.683358648453714412e-02
7.016216401616204301e-03
-1.893249118441686640e-03
-9.764921925815239767e-03
-1.647180694380301347e-02
-2.189859565518426088e-02
-2.595019927151065442e-02
-2.855425870654904053e-02
-2.969142435312632777e-02
-2.941719689015453998e-02
-2.774027828659042516e-02
-2.469112205657103543e-02
-2.032759639488657122e-02
-1.474093762583328360e-02
-8.061008428919630431e-03
-4.598613879285089710e-04
7.722064242751916496e-03
1.631091620432362221e-02
2.505359996040107395e-02
3.367115015156069147e-02
4.186981804726064293e-02
4.934465539422716596e-02
5.578327374857716681e-02
6.087022207881076508e-02
6.416227275138575159e-02
6.542950891849541595e-02
6.445720469521509788e-02
6.102094161916660209e-02
5.493740942772984415e-02
4.607077331871012316e-02
3.433777865318987654e-02
1.971150509451013999e-02
2.174222801212155609e-03
-1.816965440534257237e-02
-4.111517177225587627e-02
-6.644012355875883458e-02
-9.386400197870486961e-02
-1.230508246482627799e-01
-1.536133894113602405e-01
-1.851191141727627498e-01
-2.171064750987909686e-01
-2.490682841712647810e-01
-2.804643933053695970e-01
-3.107785049745035444e-01
-3.395035649630495644e-01
-3.661516991054391545e-01
-3.902637478725227149e-01
-4.114183973730061727e-01
-4.292524304917360589e-01
-4.434858406868831260e-01
-4.537779258995589537e-01
-4.599426363004073259e-01
-4.618730625842357163e-01
-4.595428907989531631e-01
-4.530059642421201405e-01
-4.423941348444055954e-01
-4.279135116421945439e-01
-4.099795002767886443e-01
-3.887651652266793656e-01
-3.646432374541548338e-01
-3.380426724274336325e-01
-3.094278655635445130e-01
-2.792855713872304246e-01
-2.481116966754269293e-01
-2.163984604824074065e-01
-1.847222014749769214e-01
-1.534396532773262822e-01
-1.229180951969778279e-01
-9.351829992873095243e-02
-6.554908271184076152e-02
-3.925929214822126978e-02
-1.483181524023519104e-02
7.619938174753503046e-03
2.802505160143400897e-02
4.643239776285906784e-02
6.295752108786395462e-02
7.774035334761536520e-02
9.096534812316176000e-02
1.028533097233341187e-01
1.136522465457644460e-01
1.236273411821253720e-01
1.330502069962214984e-01
1.421931818685171489e-01
1.513074962932700052e-01
1.606120757298125090e-01
1.702864902388265822e-01
1.804626436829799285e-01
1.912182570830668338e-01
2.025724133819198913e-01
2.144860845382519643e-01
2.268666291073038743e-01
2.395367170803354706e-01
2.522817142009363689e-01
2.648411135122679672e-01
2.769171907477874228e-01
2.881852465851583167e-01
2.983050913024865025e-01
3.069333619666567703e-01
3.138092221445752394e-01
3.185623962486896499e-01
3.208976463823779435e-01
3.205641972296094933e-01
3.173660880540550844e-01
3.111741140267976768e-01
3.019359575191983835e-01
2.896836011699288060e-01
2.746759740555640983e-01
2.570671734487922633e-01
2.370738421649563055e-01
2.150090461147906584e-01
1.912434057321706904e-01
1.662005945060723855e-01
1.403516877843823951e-01
1.142075812810521285e-01
8.844837371768465850e-02
6.363962473474527037e-02
4.020084390134762153e-02
1.860492063510688077e-02
-7.244820566268544981e-04
-1.742303205813084191e-02
-3.119323347966837523e-02
-4.180964363701680786e-02
-4.904059359826482001e-02
-5.275882960905639574e-02
-5.313244057366584006e-02
-5.027788605514760256e-02
-4.439354486119950760e-02
-3.575641107676563735e-02
-2.471617769464168335e-02
-1.168642284747478666e-02
2.889455536339124997e-03
1.854239533771506743e-02
3.460958525945434516e-02
5.058200307615112745e-02
6.597738877401382318e-02
8.034854730115265076e-02
9.328954089034308117e-02
1.044408125026043965e-01
1.134942331461326059e-01
1.201626296520091897e-01
1.241926409134039289e-01
1.255112280132387181e-01
1.241452629460779722e-01
1.202139043063408796e-01
1.139171389910996479e-01
1.055214413685289093e-01
9.534416181652333178e-02
8.366705791686435134e-02
7.085671511879436391e-02
5.734282016735468834e-02
4.355976165507621789e-02
2.994157881191338716e-02
1.690481225130219256e-02
4.831554314407057737e-03
-5.946296508225819288e-03
-1.520879948927561509e-02
-2.275853620830326635e-02
-2.843825230985581529e-02
-3.220115665204999200e-02
-3.408206869831982566e-02
-3.419635842518486957e-02
-3.273639121134639535e-02
-2.996564842208873647e-02
-2.624347602568384563e-02
-2.195911035181793980e-02
-1.747178016014566682e-02
-1.322634865540650573e-02
-9.683540706848819957e-03
-7.304505670677502449e-03
-6.535336877867392591e-03
-7.792107667404839233e-03
-1.147582025025990424e-02
-1.798668824926560883e-02
-2.742996274028569603e-02
-3.996505508885411784e-02
-5.566968335476871199e-02
-7.453455362769112469e-02
-9.646078703829036316e-02
-1.212602531725398003e-01
-1.486587049879925515e-01
-1.785169230725212053e-01
-2.101569928671567222e-01
-2.430674770344843916e-01
-2.766891057893280381e-01
-3.104235072715486599e-01
-3.436451577516890232e-01
-3.757145333556377587e-01
-4.059922469787842214e-01
-4.339952757496211566e-01
-4.589906355420442230e-01
-4.803746213509449969e-01
-4.976433223227569869e-01
-5.103623679775410871e-01
-5.181741106953556830e-01
-5.208031620122399730e-01
-5.180605458195425284e-01
-5.098673622667573291e-01
-4.961933523471881990e-01
-4.771047546400677963e-01
-4.527794166807428966e-01
-4.234850425884336134e-01
-3.895728458186591969e-01
-3.514694306660352541e-01
-3.096673134963345286e-01
-2.646873442818193922e-01
-2.171062676021320303e-01
-1.675978387562884198e-01
-1.168222555451711719e-01
-6.545293317137590439e-02
-1.416489546246135767e-02
3.637682549817444766e-02
8.552857776689726244e-02
1.326894805355907092e-01
1.773293637279393931e-01
2.188879583768329473e-01
2.568945555898006772e-01
2.909415643224976256e-01
3.206915271464239048e-01
3.458830340212226684e-01
3.663352253024091398e-01
3.819507110661095051e-01
3.927563254825806038e-01
3.988131097185703133e-01
4.002526748312458249e-01
3.972744424390791118e-01
3.901436389632146340e-01
3.791887722773372160e-01
3.647980382156083556e-01
3.474140978976228422e-01
3.276187095145931538e-01
3.059070161494552575e-01
2.827861847373264736e-01
2.587814012211818726e-01
2.344114427516329757e-01
2.101820497219037409e-01
1.865801559696307066e-01
1.640683482771066182e-01
1.431978736658413021e-01
1.243498753502375598e-01
1.077733448450045595e-01
9.371651588755047779e-02
8.235871336849021063e-02
7.380972760341197869e-02
6.811142858763774566e-02
6.524112071032484028e-02
6.517250446484179616e-02
6.780757402921433474e-02
7.286536519332398321e-02
8.008009041792385485e-02
8.913866725833774485e-02
9.968901151976472530e-02
1.113493178476275824e-01
1.237180691498055429e-01
1.363816273136709833e-01
1.489191980277209115e-01
1.609422823842800443e-01
1.720772874741291758e-01
1.819804470607987168e-01
1.903439427050331867e-01
1.969005976135032587e-01
2.014273787892792156e-01
2.037470945698577895e-01
2.036593177374603769e-01
2.011174408280577142e-01
1.961255548215206090e-01
1.887517287884953321e-01
1.791219543017518179e-01
1.674120025798444544e-01
1.538380967872531313e-01
1.386473467546225358e-01
1.221457796040382737e-01
1.045059273718066395e-01
8.602693112675674492e-02
6.704600210289368700e-02
4.790924349696479290e-02
2.895783673193907948e-02
1.051462508832762266e-02
-7.127720846153207113e-03
-2.361919888527358458e-02
-3.887074296517381566e-02
-5.279116980335588072e-02
-6.524449652223471285e-02
-7.613159375283751196e-02
-8.539684428789928727e-02
-9.303374089589855345e-02
-9.908842167750231411e-02
-1.036335065776741726e-01
-1.068533488235181572e-01
-1.089897564922828188e-01
-1.102568540275395415e-01
-1.108889406868934779e-01
-1.111364925117355740e-01
-1.112622517229110986e-01
-1.115369190636809338e-01
-1.122717566532556166e-01
-1.138284902534298232e-01
-1.163277083598915906e-01
-1.199834842972096471e-01
-1.249782635061028047e-01
-1.314562987959636275e-01
-1.395185604140200819e-01
-1.492192832430008498e-01
-1.605740532378684415e-01
-1.737899854390960175e-01
-1.884661678265972529e-01
-2.044375015683129737e-01
-2.214946764359890796e-01
-2.393847142831896924e-01
-2.578127479431147617e-01
-2.764455744802346571e-01
-2.949172223888620881e-01
-3.129888559283089400e-01
-3.300841339095763605e-01
-3.457482997927758817e-01
-3.595707997432562864e-01
-3.711599221886412447e-01
-3.801494968028367727e-01
-3.862053578568931944e-01
-3.890319165481569419e-01
-3.883979243033073292e-01
-3.840706340777445549e-01
-3.759015056970721469e-01
-3.638318265819825981e-01
-3.478788945115717235e-01
-3.281365165002146367e-01
-3.047735196471244024e-01
-2.780305535148756002e-01
-2.482101299598536981e-01
-2.156662230739577746e-01
-1.808304699348790567e-01
-1.441864018036500550e-01
-1.062602914360315509e-01
-6.760987472762147732e-02
-2.881206814913334080e-02
9.549936710236017756e-03
4.688843416238019923e-02
8.263906629336278953e-02
1.163211653131381584e-01
1.474494601931920779e-01
1.755895698655988157e-01
2.003696906167908021e-01
2.214908815473457804e-01
2.387353558512197993e-01
2.519701134687505895e-01
2.611384404827064576e-01
2.663505384465771897e-01
2.677309582173632574e-01
2.654797130871663358e-01
2.598702349669954614e-01
2.512461329657637021e-01
2.400161325412434321e-01
2.266466283683811200e-01
2.117512609201046558e-01
1.958435917216502231e-01
1.794443834719938735e-01
1.630755847021414517e-01
1.472378036488639630e-01
1.324021063590091474e-01
1.190032663999472801e-01
1.074337247011764584e-01
9.819407302610956567e-02
9.153457187770652759e-02
8.756571095281268091e-02
8.638399356601383916e-02
8.800026415449058170e-02
9.234247893852332023e-02
9.926148578835447545e-02
1.085391054239330799e-01
1.199842128089598781e-01
1.332963516970158135e-01
1.479864035023087387e-01
1.636209324072558369e-01
1.797389965308178184e-01
1.958636307207405891e-01
2.115138554031461005e-01
2.262170286149570719e-01
2.395269366998009075e-01
2.510190877699385315e-01
2.602959323537974434e-01
2.670446876196849728e-01
2.710184471861497024e-01
2.720395249238398705e-01
2.700004154407328882e-01
2.648629296897067054e-01
2.566521889542640045e-01
2.453750464361342809e-01
2.312299459542600522e-01
2.144648533681026148e-01
1.953950628674653855e-01
1.743919600527443214e-01
1.518696299219744472e-01
1.282703249109048427e-01
1.040498884370003596e-01
7.964630613406598059e-02
5.545051532699885044e-02
3.191070980212140640e-02
9.464745405257823929e-03
-1.147665112103260499e-02
-3.054401675121731774e-02
-4.742224602436799497e-02
-6.186162551374648627e-02
-7.363038434134501486e-02
-8.272549509347024155e-02
-8.915618373787434492e-02
-9.295251259627396179e-02
-9.420847069803112150e-02
-9.308395804230296111e-02
-8.980522207818197877e-02
-8.466297219215623837e-02
-7.798780532399207654e-02
-7.022280962353610878e-02
-6.183938525263632524e-02
-5.328661493593023213e-02
-4.501940990360653316e-02
-3.748992451216082156e-02
-3.113936025463626134e-02
-2.638974883983780106e-02
-2.366676826178742976e-02
-2.339001907349541609e-02
-2.577984357720530806e-02
-3.106619699568005655e-02
-3.940830995383667879e-02
-5.088909180091061302e-02
-6.551180355674514344e-02
-8.319903257895662485e-02
-1.038092046586009953e-01
-1.272634263224381446e-01
-1.530547381616260139e-01
-1.807928020511668787e-01
-2.100281768561395035e-01
-2.402590987903193143e-01
-2.709396583898451838e-01
-3.014896133385047694e-01
-3.313058625208774588e-01
-3.598684478683243926e-01
-3.864548666893816709e-01
-4.104575851125151775e-01
-4.313212565803986598e-01
-4.485396237923446883e-01
-4.616652547995484523e-01
-4.703180620905556553e-01
-4.741927685457647534e-01
-4.730725292411430138e-01
-4.667966657377748407e-01
-4.553181159710585901e-01
-4.386964706651351742e-01
-4.170899127263942296e-01
-3.907517858880594774e-01
-3.600248832170843682e-01
-3.253337538255487438e-01
-2.871896954635712040e-01
-2.461350676182175734e-01
-2.027604738072040225e-01
-1.577201520641735299e-01
-1.116966114202371102e-01
-6.538521417876033692e-02
-1.947860156184151592e-02
2.534849258739694383e-02
6.842760774158680726e-02
1.091512375970608018e-01
1.470574707548841509e-01
1.816662165511870319e-01
2.125670152215146935e-01
2.394296086275577995e-01
2.620127616569173368e-01
2.801705530292639690e-01
2.938528546157672117e-01
3.031225615154633513e-01
3.081721301630608867e-01
3.092108053206756857e-01
3.065149422726202166e-01
3.004238869058898365e-01
2.913354862877848839e-01
2.797004523812336441e-01
2.660147867064547311e-01
2.509688355361701095e-01
2.350247042899427097e-01
2.186841035584169701e-01
2.024387318868342001e-01
1.867466783252693940e-01
1.720258769836151835e-01
1.586495036909048029e-01
1.469425194422235847e-01
1.373532199414660426e-01
1.300267367467604074e-01
1.250117272152752035e-01
1.223473635884851918e-01
1.219972123035149014e-01
1.238528288093311280e-01
1.277398410223636871e-01
1.334260712301286178e-01
1.406862683766771926e-01
1.492033751508159423e-01
1.585641307781946452e-01
1.683859144193400326e-01
1.782748002106651075e-01
1.878352238277142261e-01
1.966794249531067518e-01
2.044367342222760398e-01
2.107362879340298201e-01
2.152173038997265975e-01
2.176790760296814509e-01
2.179329147471952277e-01
2.158541286758735300e-01
2.113831424124714142e-01
2.045241113337240291e-01
1.953415653242361882e-01
1.839444267136623179e-01
1.703898671408066445e-01
1.549800940077713518e-01
1.380092968286023569e-01
1.198184090103264210e-01
1.007831993271396387e-01
8.130078980690452761e-02
6.177549333638360229e-02
4.260492259383391600e-02
2.418860300391259543e-02
6.784852049007972230e-03
-9.279891218807886921e-03
-2.370389550951863822e-02
-3.622795877118019370e-02
-4.664707193970088484e-02
-5.482041766283764217e-02
-6.067877119460937663e-02
-6.412610764785986461e-02
-6.538267429023741917e-02
-6.464966472023769839e-02
-6.212586275542880676e-02
-5.806007533500529005e-02
-5.275000610624686059e-02
-4.653970361176873460e-02
-3.981477980528347338e-02
-3.296457711367273280e-02
-2.648426541956194757e-02
-2.086201998470138541e-02
-1.652378045476010637e-02
-1.386763025802217886e-02
-1.325576398120417720e-02
-1.500767072866637797e-02
-1.939403219375902820e-02
-2.667585703054795379e-02
-3.707150104132093948e-02
-5.056304770680117300e-02
-6.713843523401591407e-02
-8.670321620609272584e-02
-1.090802503265711487e-01
-1.340120415381642061e-01
-1.611656069508446976e-01
-1.901688492030248478e-01
-2.207301912767688501e-01
-2.521044083075538733e-01
-2.837177905143226653e-01
-3.149687530157972426e-01
-3.452386246972464212e-01
-3.739032418419233617e-01
-4.003454777755348082e-01
-4.239685986090645509e-01
-4.443392540370733057e-01
-4.607867395966697699e-01
-4.728399361187858307e-01
-4.801172355094076583e-01
-4.823226469787081361e-01
-4.792511757730896216e-01
-4.707923298464622430e-01
-4.569320833152721306e-01
-4.377445623771751837e-01
-4.133830143034361582e-01
-3.841330082691117309e-01
-3.503822003133204022e-01
-3.126088191351521495e-01
-2.713695132773530361e-01
-2.272850562665429397e-01
-1.810247945224505717e-01
-1.332443152631848093e-01
-8.462757415382499149e-02
-3.594802352371711390e-02
1.204357970650039335e-02
5.861130008947584846e-02
1.030530153340691868e-01
1.447191344268770052e-01
1.830298707886316989e-01
2.175126479358481524e-01
2.478382756726157654e-01
2.736670069099033098e-01
2.947646960254193815e-01
3.109900661022805268e-01
3.222997738555112290e-01
3.287518576571455964e-01
3.305067317398232007e-01
3.278308930709495361e-01
3.211462550696406182e-01
3.108675553040625150e-01
2.974717929728933896e-01
2.814788773420122681e-01
2.634407401221098288e-01
2.439306301736759719e-01
2.235323456493014116e-01
2.028291192409694410e-01
1.824671462358170015e-01
1.629436702950779470e-01
1.447444889216427388e-01
1.283033464134851476e-01
1.139900654332463015e-01
1.021047070950654723e-01
9.287391224417013147e-02
8.644925509215650727e-02
8.296194734078388144e-02
8.237808786465061761e-02
8.460238293465038861e-02
8.948982299468333235e-02
9.683283738223125159e-02
1.063679802526269480e-01
1.177837653792286332e-01
1.307294906449666394e-01
1.448224973877805244e-01
1.596553759301824194e-01
1.748213590325869982e-01
1.899169861016603011e-01
2.045496099448314009e-01
2.183443020776468790e-01
2.309496282146626944e-01
2.420424745508953368e-01
2.513001239929592567e-01
2.584213935879036139e-01
2.632563203657259931e-01
2.656573583725562182e-01
2.655263836452358972e-01
2.628117562684207931e-01
2.575038823753295070e-01
2.496299473675288594e-01
2.392400574792498125e-01
2.263422802398091793e-01
2.110805576720810595e-01
1.936204581734785601e-01
1.741594866932845709e-01
1.529189206016413061e-01
1.301349934892908067e-01
1.060503770373404930e-01
8.090687283860548140e-02
5.498898668008017632e-02
2.838917195475387789e-02
1.345097549836582473e-03
-2.589216526863105661e-02
-5.306922012445966508e-02
-7.993764006971162961e-02
-1.062608500692786562e-01
-1.318197145342607235e-01
-1.563110699826402439e-01
-1.797047244931280763e-01
-2.018827032951594491e-01
-2.226883693386084717e-01
-2.419739464111652638e-01
-2.596057539566449801e-01
-2.754694424744247305e-01
-2.894744312810231257e-01
-3.015413481523424588e-01
-3.116648483756521704e-01
-3.198511568094683510e-01
-3.261055439876547890e-01
-3.304526700244919679e-01
-3.329374730032937935e-01
-3.336260931530670715e-01
-3.326064657017294701e-01
-3.300502009348904586e-01
-3.261236282139857723e-01
-3.208484271264722687e-01
-3.143707885480433450e-01
-3.068475470602176625e-01
-2.984411579919735713e-01
-2.893148750292071636e-01
-2.796284509568338628e-01
-2.695703475593329568e-01
-2.594055644963797480e-01
-2.490572247390032690e-01
-2.386256763468372899e-01
-2.281966022166848074e-01
-2.178361653699157352e-01
-2.075866381766628410e-01
-1.974631934518067400e-01
-1.874523435458205767e-01
-1.775472118559504875e-01
-1.676061488239792840e-01
-1.575466627354103477e-01
-1.472777536080697169e-01
-1.366994628864809935e-01
-1.257038585018179777e-01
-1.141763020038930598e-01
-1.019976053367255275e-01
-8.894437206448901900e-02
-7.493429599701328936e-02
-5.991901265484200767e-02
-4.385789095800785020e-02
-2.674351489743054255e-02
-8.601589602002746027e-03
1.051060037501772015e-02
3.050646927723754676e-02
5.134905559238378547e-02
7.292775342309310016e-02
9.500363159739788621e-02
1.173360242624403305e-01
1.396488558884051989e-01
1.616396414802744319e-01
1.829900444841631169e-01
2.033770590216009699e-01
2.224867601073637902e-01
2.400664668024281023e-01
2.558396590291460160e-01
2.695259970410058825e-01
2.808689835653058187e-01
2.896469086271296067e-01
2.956834067925344645e-01
2.988567393001431149e-01
2.990938792344569608e-01
2.963836171686146104e-01
2.908773195026936320e-01
2.827052744088562886e-01
2.720534638367967939e-01
2.591623113883602114e-01
2.443240565065724623e-01
2.278784247330541968e-01
2.102063908926091185e-01
1.916947464040053839e-01
1.728212911063588264e-01
1.540343079266805193e-01
1.357786590797102622e-01
1.184847277043623026e-01
1.025571050156149355e-01
8.836385952785102971e-02
7.622667367712809838e-02
6.643745112806342945e-02
5.915740701378180422e-02
5.451698577648600441e-02
5.258901769607116083e-02
5.337402154454096159e-02
5.679669452812685648e-02
6.270447901479170305e-02
7.086870276044793249e-02
8.101356304510487494e-02
9.271353289260009234e-02
1.055293760770462941e-01
1.190235370317297703e-01
1.327365245103179769e-01
1.461936920850852029e-01
1.589121591687190083e-01
1.704085641837816134e-01
1.802134957608990395e-01
1.878160415800497751e-01
1.927764942351030131e-01
1.947548089943038074e-01
1.934819597279415770e-01
1.887625753247774707e-01
1.804751357275558021e-01
1.685706210738812105e-01
1.530732886942972604e-01
1.340392369540330808e-01
1.115970786599720377e-01
8.599915523568546494e-02
5.757448043465385190e-02
2.671914520928531100e-02
-6.115276511497458323e-03
-4.043450315120078464e-02
-7.571469146747000778e-02
-1.113834456444045828e-01
-1.469646219845260060e-01
-1.819092871233750075e-01
-2.156770586724708338e-01
-2.477484606148070978e-01
-2.776367763507014974e-01
-3.048989375594101103e-01
-3.291450404393383433e-01
-3.500142838919837462e-01
-3.672838190478922016e-01
-3.807722955335376414e-01
-3.903596740899857309e-01
-3.959984101181642790e-01
-3.977138157225778015e-01
-3.956027899930310010e-01
-3.898308151975847791e-01
-3.806573372834876068e-01
-3.683587792904026159e-01
-3.532459433520973024e-01
-3.356879557495731636e-01
-3.160840868078713672e-01
-2.948542181656295669e-01
-2.724293418009071099e-01
-2.492422134109624210e-01
-2.257793848227515054e-01
-2.024617862871879725e-01
-1.795679232930407765e-01
-1.574380385426182860e-01
-1.363730982818989190e-01
-1.166270088955267958e-01
-9.840037941831514257e-02
-8.183628951534405171e-02
-6.704444211196092240e-02
-5.409013910393400959e-02
-4.282130727860100627e-02
-3.315828809245846553e-02
-2.498088304390067016e-02
-1.812980166390576464e-02
-1.240861546501459411e-02
-7.586939570387141174e-03
-3.405061457442348782e-03
4.797836363909235846e-04
4.354989236869152847e-03
8.484103877344655043e-03
1.310700406179196587e-02
1.843531975322754146e-02
2.464982759218442565e-02
3.189911750527435474e-02
4.029868095306271547e-02
5.007185689514048743e-02
6.119597454956193783e-02
7.360929673197857959e-02
8.721810464219414971e-02
1.018743837678777187e-01
1.173819151663174631e-01
1.335043748017874510e-01
1.499746270702077000e-01
1.665740819334904366e-01
1.830084494816542895e-01
1.989133705227089655e-01
2.139479235957584269e-01
2.277724460326148170e-01
2.400597140384543304e-01
2.505061376933951922e-01
2.588423607178214625e-01
2.648234318202170590e-01
2.682934436169582826e-01
2.691680337458182137e-01
2.673792295277555020e-01
2.629156706960338874e-01
2.558254198747708097e-01
2.462170926326280318e-01
2.342590567318459938e-01
2.201492453919052239e-01
2.041059851651219614e-01
1.865595521880826779e-01
1.678813621743784901e-01
1.484704140073526690e-01
1.287435216262013404e-01
1.091247619773436650e-01
9.003443001450184280e-02
7.187647890803205986e-02
5.496538297203210077e-02
3.968536715860437186e-02
2.635683117309634699e-02
1.525533540773862939e-02
6.601526461714191107e-03
5.519332341201166336e-04
-2.808590221631768191e-03
-3.472053310814016136e-03
-1.486502359849983801e-03
2.912702474441641876e-03
9.512367651110520406e-03
1.805914239572337099e-02
2.824985414087644031e-02
3.973353233006937657e-02
5.211469508269106488e-02
6.495868898932111168e-02
7.784041921514034401e-02
9.018822308185697745e-02
1.014855483812476256e-01
1.112803582516117551e-01
1.191544430226100237e-01
1.247298106552811592e-01
1.276739066383316690e-01
1.277043163330850162e-01
1.246085568840110958e-01
1.181848015316372957e-01
1.083050821460780355e-01
9.495863990668118593e-02
7.821740390041265201e-02
5.823332995018992708e-02
3.523354500049724614e-02
9.513785192987400663e-03
-1.856921437713765499e-02
-4.861795670007829084e-02
-8.018430532428089119e-02
-1.127733328853703920e-01
-1.458620795840966933e-01
-1.789111853817481612e-01
-2.113769160447933615e-01
-2.427232228003948777e-01
-2.724339103226190995e-01
-3.000340835451946186e-01
-3.250688208408944457e-01
-3.471389855878858066e-01
-3.659014242411842699e-01
-3.810753253923269690e-01
-3.924470607152166224e-01
-3.998733950111665325e-01
-4.032829878826036385e-01
-4.027013001444682549e-01
-3.981733085946749240e-01
-3.898278409532979216e-01
-3.778600249195681604e-01
-3.625200466295394053e-01
-3.441057097268546694e-01
-3.229542953448257259e-01
-2.994339820164471644e-01
-2.739768343812580276e-01
-2.469457465030985288e-01
-2.187214964129029493e-01
-1.897123755426829150e-01
-1.603176818021338490e-01
-1.309181495921760141e-01
-1.018673368312392191e-01
-7.348450005160017673e-02
-4.607704808045370859e-02
-1.984819132255943863e-02
5.051235395929554173e-03
2.845397829380258425e-02
5.022715605581595799e-02
7.027523555916237452e-02
8.854248338025216825e-02
1.050141535984303598e-01
1.197215286869112161e-01
1.327801835888975379e-01
1.442783317579461322e-01
1.543031853281214838e-01
1.629477886789064689e-01
1.703102609684987723e-01
1.764941558702144420e-01
1.816091500670585779e-01
1.857786613951454835e-01
1.892671874553890354e-01
1.920850123528353159e-01
1.943146979215469305e-01
1.960202814065518662e-01
1.972483913869719774e-01
1.980309371905102922e-01
1.983888186719636737e-01
1.983359172321740305e-01
1.980089558624573698e-01
1.973332404629253300e-01
1.962707844038228400e-01
1.947923977595132916e-01
1.928629001938865217e-01
1.904446422902511538e-01
1.875013588087657279e-01
1.840020429053428330e-01
1.799185258034270984e-01
1.752559531034425522e-01
1.700193561906407358e-01
1.642188223290578786e-01
1.578761501213576668e-01
1.510251317634542234e-01
1.437111489784089757e-01
1.359902161250245434e-01
1.278492275738940531e-01
1.193470796125808975e-01
1.106707923170119345e-01
1.019315824373320245e-01
9.324674625124829141e-02
8.473552077394691517e-02
7.651415035807024312e-02
6.869060110305963418e-02
6.131885618247834291e-02
5.438095924948643800e-02
4.805109375654470494e-02
4.240355376524890252e-02
3.749969500819713697e-02
3.338344273943311125e-02
3.007671276444401354e-02
2.757534378124384261e-02
2.584801915020022711e-02
2.481555474278690498e-02
2.433825593093041917e-02
2.432303009038783159e-02
2.466769618335651337e-02
2.525979603225114722e-02
2.597530808584491702e-02
2.667797309573893827e-02
2.721980705082549523e-02
2.754468492530781631e-02
2.733158553185455197e-02
2.640675380369883474e-02
2.463406213368912745e-02
2.189571633871667533e-02
1.809088533412395172e-02
1.313412198518726370e-02
6.954292742399226235e-03
-4.578962876384262692e-04
-9.217584920968968643e-03
-1.937221723824933406e-02
-3.090545388388009351e-02
-4.377108936662407745e-02
-5.789663012772577888e-02
-7.318753828204732637e-02
-8.953141442300721620e-02
-1.068301493275395364e-01
-1.249678661673988556e-01
-1.437578890495793127e-01
-1.630166400674828431e-01
-1.825437618315532973e-01
-2.021249934485994659e-01
-2.215356025147580121e-01
-2.405441014669477129e-01
-2.589473146352112565e-01
-2.765557078319100803e-01
-2.930474876549220564e-01
-3.081824018500620710e-01
-3.217253924443582713e-01
-3.334478537748636340e-01
-3.431291350355681891e-01
-3.505585839461293762e-01
-3.555427416608105684e-01
-3.579209293194131059e-01
-3.574700278669934450e-01
-3.540634900423069720e-01
-3.476106585440723040e-01
-3.380571554119744526e-01
-3.253844229121408693e-01
-3.096090272475650051e-01
-2.907823256293089464e-01
-2.689336334927213690e-01
-2.441831961556876762e-01
-2.167262762699102008e-01
-1.868100110349962262e-01
-1.547319935750245956e-01
-1.208332750525237254e-01
-8.548996645843376374e-02
-4.910439598526294969e-02
-1.202568274862858555e-02
2.533005224714354742e-02
6.247417794468804186e-02
9.892100837172404515e-02
1.341797908429532837e-01
1.677679943853141453e-01
1.992253550816803220e-01
2.281275825961585624e-01
2.541414002217340373e-01
2.769888918124543409e-01
2.963651153673719785e-01
3.120483562112330023e-01
3.238793878892951006e-01
3.317680587547977011e-01
3.356987996090975424e-01
3.357344073364036396e-01
3.320322250837271505e-01
3.248519457568661006e-01
3.144536999658448240e-01
3.011789831270319517e-01
2.854206249231190928e-01
2.676145153668038068e-01
2.482304151482859766e-01
2.277619308106767770e-01
2.067158677835447267e-01
1.856057714843779294e-01
1.649307858387258907e-01
1.451634655171335497e-01
1.267408838255961734e-01
1.100541610374126122e-01
9.543911329962706525e-02
8.316832288442066456e-02
7.344491088986371263e-02
6.633824396626042397e-02
6.195124229129722604e-02
6.027813313214069879e-02
6.123541373713459190e-02
6.466995795126906366e-02
7.036261126964482582e-02
7.803316351383027261e-02
8.734683280829402818e-02
9.783409759625849578e-02
1.091098627452162795e-01
1.207859451188091349e-01
1.324369433238005156e-01
1.436407910412899058e-01
1.539867181550116371e-01
1.630822521335426045e-01
1.705595859858087537e-01
1.760274269571381889e-01
1.791518719151430628e-01
1.797401937692873763e-01
1.776252832691744832e-01
1.727039120677157646e-01
1.649348306103644857e-01
1.543349026178114092e-01
1.409740149368269857e-01
1.249746116030180931e-01
1.064601517949891329e-01
8.560635018114665096e-02
6.267180927741683449e-02
3.795605237792420983e-02
1.178962106682940325e-02
-1.547639879136991636e-02
-4.348062019388931887e-02
-7.184296900385483964e-02
-1.001244390951401830e-01
-1.281458529733608409e-01
-1.555771089769703019e-01
-1.820998775983302398e-01
-2.074148062942409720e-01
-2.312481561539411201e-01
-2.533572614153309921e-01
-2.735344176510769998e-01
-2.914911193905462272e-01
-3.072463534437797072e-01
-3.207179972627375864e-01
-3.318401697873512024e-01
-3.405761876908531827e-01
-3.469195514551579040e-01
-3.508944186725764802e-01
-3.525551645042048210e-01
-3.520102023613708164e-01
-3.493661958014306346e-01
-3.447371832658479018e-01
-3.382574503006366418e-01
-3.300717694313162198e-01
-3.203332774348757184e-01
-3.092018567783925143e-01
-2.968427416312661715e-01
-2.835269037469080322e-01
-2.693997833679145915e-01
-2.545183809496994742e-01
-2.390302612269689375e-01
-2.230756614333767873e-01
-2.067834195508018169e-01
-1.902676306093933345e-01
-1.736254013050237965e-01
-1.569860882053166762e-01
-1.404285504059221146e-01
-1.238727852717369793e-01
-1.073508370737223105e-01
-9.088733335903592669e-02
-7.449632836254709012e-02
-5.817809437402974432e-02
-4.191681295129431883e-02
-2.567387113878323579e-02
-9.327335984367218780e-03
7.155844843517916720e-03
2.380287172650238925e-02
4.062582314265983374e-02
5.762217997973034800e-02
7.477679432661182846e-02
9.206443650422185820e-02
1.094519071395736454e-01
1.270889582600060463e-01
1.447969525268121838e-01
1.624567297725861836e-01
1.799291641627965288e-01
1.970471229564725868e-01
2.136205316597746817e-01
2.294429445029682602e-01
2.442988370838067858e-01
2.580564248009143968e-01
2.704849506706289430e-01
2.813277639365027172e-01
2.903521309530575079e-01
2.973342433825850728e-01
3.020681183200782383e-01
3.043746703831428091e-01
3.041103676272807199e-01
3.011541086260381972e-01
2.954858015937995019e-01
2.871293989707488503e-01
2.761316330362652560e-01
2.625914956176230719e-01
2.466628355553181495e-01
2.285554200658330426e-01
2.085341158094491665e-01
1.868912009961577747e-01
1.639800701090575463e-01
1.402619178913583342e-01
1.161748382502723886e-01
9.217670422908473549e-02
6.873557638575703010e-02
4.631944778947125196e-02
2.538546299659205641e-02
6.369997176458641608e-03
-1.032884640955300526e-02
-2.436495374137065406e-02
-3.542827684113480924e-02
-4.326950960189535067e-02
-4.770993022906144798e-02
-4.864979215170972537e-02
-4.607465474688865470e-02
-4.005915922545733032e-02
-3.073623661636371018e-02
-1.844462457044770964e-02
-3.506656328288504376e-03
1.369438438982661932e-02
3.271445969913799878e-02
5.305312774551618205e-02
7.415958115592796718e-02
9.544108998116435094e-02
1.162687713570082493e-01
1.359311485053102397e-01
1.538079726545736048e-01
1.693271635767299998e-01
1.819648559144608491e-01
1.912529504632477229e-01
1.967851123774191358e-01
1.982221242385335813e-01
1.952741485630706819e-01
1.876940678290336950e-01
1.754062912828832643e-01
1.584495525111390135e-01
1.369734454669730983e-01
1.112326279605747592e-01
8.157795175363813378e-02
4.844546231729351948e-02
1.233786535496927961e-02
-2.621238415921611775e-02
-6.657916786889417349e-02
-1.080831328127723201e-01
-1.500120792751156729e-01
-1.916377897158361709e-01
-2.322334630684915746e-01
-2.710911048212326091e-01
-3.075378568078871999e-01
-3.409547322097704614e-01
-3.707889326238595906e-01
-3.965573721610465285e-01
-4.178616335474394372e-01
-4.343958126663649000e-01
-4.459520675575239235e-01
-4.524237899874317681e-01
-4.538063775472046535e-01
-4.502435833791922359e-01
-4.418644007299185605e-01
-4.289489024766943714e-01
-4.118644774526402652e-01
-3.910528114688951451e-01
-3.670173738538537456e-01
-3.403098028566673983e-01
-3.115156016115391280e-01
-2.813439742361998341e-01
-2.503005801534230468e-01
-2.189423288858424743e-01
-1.878421701583076198e-01
-1.575388903767311610e-01
-1.285229587325606437e-01
-1.012242149251649237e-01
-7.600198341587083295e-02
-5.320068223463264578e-02
-3.296266150618254454e-02
-1.534698533073708404e-02
-3.983697757236059900e-04
1.191212063582147707e-02
2.168752402875517848e-02
2.910372954082096619e-02
3.440580206245019701e-02
3.792905111026911857e-02
4.010005659435683656e-02
4.127189679883874751e-02
4.182741167551348727e-02
4.214738902154159528e-02
4.260329439033989918e-02
4.355156467412077403e-02
4.532862533250002490e-02
4.828999303367942364e-02
5.291972636700492671e-02
5.924406922623148830e-02
6.739243043542370026e-02
7.742234995737395931e-02
8.932024265865978752e-02
1.030054221984491036e-01
1.183366629807325321e-01
1.351202260294415147e-01
1.533567976192928839e-01
1.725660273831105540e-01
1.923915759350519616e-01
2.124454854761083089e-01
2.323143718130921132e-01
2.515715582347114454e-01
2.697899649700196134e-01
2.865551568131825544e-01
3.014743634590218990e-01
3.142180552399408411e-01
3.244762213774194382e-01
3.319836350132799319e-01
3.365311891324777593e-01
3.379717932987384987e-01
3.362243681899958481e-01
3.312759544207017348e-01
3.230609513883621053e-01
3.117428854999599319e-01
2.976189966486494365e-01
2.809654110719579378e-01
2.621153893195131701e-01
2.414509745361054227e-01
2.193927372932349407e-01
1.963880674811023241e-01
1.728344915698721285e-01
1.491361485764555184e-01
1.258620708849849668e-01
1.034832363480657214e-01
8.244692144428927838e-02
6.316306948566730028e-02
4.599110935997269278e-02
3.122798553705749547e-02
1.910384421178572267e-02
9.736897554326606752e-03
3.143890211713895426e-03
-6.703096888130768982e-04
-1.771253512671530639e-03
-2.983961592952222297e-04
3.532879955967016539e-03
9.431636836092771592e-03
1.703488280923190490e-02
2.599747317000633551e-02
3.566493401961728926e-02
4.553492232357159164e-02
5.509785622900853497e-02
6.384412838705105786e-02
7.127151521126534606e-02
7.689271449745938014e-02
8.024376067455241124e-02
8.090783365457288046e-02
7.842568580519898580e-02
7.247691990051025046e-02
6.283643706987390720e-02
4.936792940591697154e-02
3.202556009701854056e-02
1.085320054008460933e-02
-1.401809929700451041e-02
-4.240832735749879706e-02
-7.403465110768157886e-02
-1.084964979207172497e-01
-1.453319480547859976e-01
-1.840102857148765980e-01
-2.239426820142340346e-01
-2.644944927477413388e-01
-3.049987888253930524e-01
-3.447826908860975870e-01
-3.831618035845759662e-01
-4.194375908525129204e-01
-4.529544662081699813e-01
-4.830943775443468091e-01
-5.092883948857888088e-01
-5.310271020332655301e-01
-5.478697819387648993e-01
-5.594488652621217861e-01
-5.654630255255272964e-01
-5.657323702902343765e-01
-5.601688183535614707e-01
-5.487834002690270552e-01
-5.316850725819253221e-01
-5.090773829302315256e-01
-4.812532635560427541e-01
-4.485884951218680472e-01
-4.115445247539066820e-01
-3.705973595556658062e-01
-3.263288193452023589e-01
-2.793727119905114464e-01
-2.304012039469302831e-01
-1.801103923534962958e-01
-1.292057045983214525e-01
-7.838768491410751105e-02
-2.840118714178641035e-02
2.020006200068563684e-02
6.681768762011769391e-02
1.108741916179969145e-01
1.518461302227982479e-01
1.892770201685382014e-01
2.227887155973587996e-01
2.520903404700107764e-01
2.769626809687382729e-01
2.973716708861061098e-01
3.133206782099684506e-01
3.248583099078929393e-01
3.321075323408078650e-01
3.352661786375493169e-01
3.346063439151096830e-01
3.304716672941086508e-01
3.233132235097616047e-01
3.136637074911443612e-01
3.019694212589436599e-01
2.887211353229354183e-01
2.744092170947697307e-01
2.595149971554532864e-01
2.445034218193017916e-01
2.298164031425946330e-01
2.159008658306921791e-01
2.032490100219521700e-01
1.920629526564714418e-01
1.825775854362607364e-01
1.749555337342830752e-01
1.692853524933367604e-01
1.655823631452253419e-01
1.637918846269099671e-01
1.637954216775309169e-01
1.654671426938649770e-01
1.685372192045059281e-01
1.727216405093500162e-01
1.776979992492231375e-01
1.831158026141761486e-01
1.886073286729389453e-01
1.937988081893270431e-01
1.983217482703180101e-01
2.017250170736507031e-01
2.037609471088018820e-01
2.041805006077907492e-01
2.027647339781298574e-01
1.993509551214210362e-01
1.938364900744840580e-01
1.861801190143463625e-01
1.764014819708583648e-01
1.644920567709294290e-01
1.505936533965982760e-01
1.349621989920726239e-01
1.178680983086218825e-01
9.962892004463663742e-02
8.059719873535287071e-02
6.114684378466556103e-02
4.165906285836851186e-02
2.251876719014833661e-02
4.027769073476961115e-03
-1.350672116265261291e-02
-2.975918352528764133e-02
-4.443596995452259169e-02
-5.728884458996377771e-02
-6.812733961073466626e-02
-7.682870628015840697e-02
-8.330510390553114153e-02
-8.756313921603231520e-02
-8.987188636354570548e-02
-9.037796096941042023e-02
-8.927264816307073358e-02
-8.679205796011807417e-02
-8.321649217554766276e-02
-7.886789150764139666e-02
-7.410004165775690987e-02
-6.923633356719938181e-02
-6.483543701818283989e-02
-6.127721873259758811e-02
-5.891117701643000526e-02
-5.804988374898413517e-02
-5.896437030638963794e-02
-6.188069897675382847e-02
-6.697694362845529881e-02
-7.444927054635175345e-02
-8.434124259944497659e-02
-9.663351315506363282e-02
-1.112451524124919988e-01
-1.280245442192007310e-01
-1.467527159098348521e-01
-1.671489242651890139e-01
-1.888781238094631165e-01
-2.116679887507876279e-01
-2.350278958402098883e-01
-2.584387385845103857e-01
-2.814330348140334781e-01
-3.035389270004300588e-01
-3.242877033833431177e-01
-3.432214186478558249e-01
-3.599009561196615525e-01
-3.739637817393258734e-01
-3.850032378764860486e-01
-3.926150448213568955e-01
-3.965384291024102725e-01
-3.965828829990670212e-01
-3.926285871629460189e-01
-3.846249085302465565e-01
-3.725877749024615881e-01
-3.565988875335708297e-01
-3.367671062541656157e-01
-3.132726802158039003e-01
-2.863946473665209269e-01
-2.564751719716057976e-01
-2.239102797481400953e-01
-1.891390396321880329e-01
-1.526319886960910699e-01
-1.148781410534449599e-01
-7.632282168056603311e-02
-3.747733382560108906e-02
1.141085836326050096e-03
3.902007586106520654e-02
7.566399964021308655e-02
1.106060153208172636e-01
1.434195738257616204e-01
1.737285379565093324e-01
2.012673477742035477e-01
2.257917898272202017e-01
2.470826630211920838e-01
2.649785520966614905e-01
2.793774392290969688e-01
2.902421277107661846e-01
2.976046261052122111e-01
3.015685579648214598e-01
3.023750391045630370e-01
3.002862152527326356e-01
2.955514195389862819e-01
2.884763032787551196e-01
2.793964324760201956e-01
2.686732407060934968e-01
2.566900327989538044e-01
2.438473205508673580e-01
2.306205783459027714e-01
2.174638834939159882e-01
2.046973307799066222e-01
1.926719109542520403e-01
1.817004948009605103e-01
1.720513557588420062e-01
1.639433155173694034e-01
1.575424147220170212e-01
1.529803466038248683e-01
1.503473990862125298e-01
1.495777320662555754e-01
1.506053120781180032e-01
1.533085290959855795e-01
1.575120489991536088e-01
1.629899079782658466e-01
1.694701548070067787e-01
1.766368238973925475e-01
1.840677909806666124e-01
1.914545271192485965e-01
1.984475647731865910e-01
2.047068706716467235e-01
2.099089043796644183e-01
2.137522837101080708e-01
2.159624698521742381e-01
2.162960460555627684e-01
2.143954745716954713e-01
2.101790869047667210e-01
2.035841570750708540e-01
1.945943912861888281e-01
1.832562341853714583e-01
1.696739739392987834e-01
1.540027143991735681e-01
1.364401018255482212e-01
1.171642248392674723e-01
9.640682719756754615e-02
7.448825485982146777e-02
5.174427487898158873e-02
2.852780679008981579e-02
5.195666791210973301e-03
-1.790483650151403205e-02
-4.044845112917960783e-02
-6.210353555046244090e-02
-8.267145789946495071e-02
-1.020015416085798265e-01
-1.199128940441433477e-01
-1.362642197777100272e-01
-1.509602226720136997e-01
-1.639566287096312358e-01
-1.752630094471410716e-01
-1.849098109686020397e-01
-1.930023442094424280e-01
-1.998079950404840488e-01
-2.055077578294128571e-01
-2.102994530178251553e-01
-2.143935045839475140e-01
-2.180088029075939737e-01
-2.213681098946315429e-01
-2.246936351792183928e-01
-2.282291479851992488e-01
-2.321695930222421045e-01
-2.366708421270344864e-01
-2.418495263801818396e-01
-2.477794370377830457e-01
-2.544897945111482263e-01
-2.619651547488615617e-01
-2.701465726885022844e-01
-2.790732150825979141e-01
-2.884696603390458081e-01
-2.981242387899302182e-01
-3.078103445592594856e-01
-3.172715725021318933e-01
-3.262264437443714860e-01
-3.343743481413005147e-01
-3.414026981990802012e-01
-3.470986025949146514e-01
-3.510560874458383829e-01
-3.529181515993490281e-01
