BVP Signal
-5.266811676023774869e-03
-4.022489234291733162e-02
-7.409537005215710570e-02
-1.059866351549447749e-01
-1.350070780024821837e-01
-1.602650889459709682e-01
-1.809271590438868427e-01
-1.964040299889337482e-01
-2.061776792792925639e-01
-2.099131583878837692e-01
-2.074708595800122124e-01
-1.987846175788353376e-01
-1.840707118718533652e-01
-1.636291980986272487e-01
-1.379233650923266663e-01
-1.075983718693168389e-01
-7.334380807035739691e-02
-3.601133386206178955e-02
3.499031278164588254e-03
4.424599293303335679e-02
8.524023814512005082e-02
1.254981421998472846e-01
1.640770490801180537e-01
2.000493190032257562e-01
2.325724174546391354e-01
2.609072199412565407e-01
2.843587379862038134e-01
3.024265509274217112e-01
3.146764301059489233e-01
3.208190843589356911e-01
3.207491323908096548e-01
3.144150978040398114e-01
3.019924950640301420e-01
2.837361413088465012e-01
2.600245514399721625e-01
2.314001508029605580e-01
1.984422965599396127e-01
1.618759843833277312e-01
1.224786089504119047e-01
8.107465107385823655e-02
3.855372365271676760e-02
-4.189838909184808585e-03
-4.626207888672903557e-02
-8.677009915781688787e-02
-1.248672489737026325e-01
-1.597738000260305880e-01
-1.907381406590514805e-01
-2.171526617845489504e-01
-2.384676193748779260e-01
-2.542450566390528910e-01
-2.642158834679100288e-01
-2.681569582978581834e-01
-2.660566029330235227e-01
-2.579910060304175246e-01
-2.441527551856032541e-01
-2.249180343464267651e-01
-2.007032601531450466e-01
-1.720925796859921197e-01
-1.397425286156128155e-01
-1.043721110279704767e-01
-6.680312454557152391e-02
-2.787273248586455421e-02
1.153968543961428339e-02
5.053608503759818293e-02
8.823446250225626397e-02
1.237806849360318928e-01
1.563356222561096132e-01
1.851551872419999745e-01
2.095406042211261366e-01
2.288724436614564262e-01
2.426742390580421960e-01
2.505070786558576956e-01
2.521167480087718182e-01
2.473404900191281952e-01
2.361219049887994248e-01
2.186045538688567991e-01
1.949772599177670984e-01
1.656282863407410599e-01
1.310488679264484868e-01
9.181960266001243376e-02
4.869630080935527516e-02
2.469009009054196069e-03
-4.594730422173207152e-02
-9.557044509618051187e-02
-1.453897627880706700e-01
-1.943369750637009008e-01
-2.413394911380926100e-01
-2.853522966246671566e-01
-3.253461610581322994e-01
-3.603483378252178571e-01
-3.895082552662402220e-01
-4.120104731562962974e-01
-4.272358064708537406e-01
-4.346808389771082970e-01
-4.339642067593095787e-01
-4.249785945464992221e-01
-4.076799467086952289e-01
-3.823004195967982799e-01
-3.492421733955169971e-01
-3.090272624682600666e-01
-2.624573974113708075e-01
-2.103912431204803535e-01
-1.538747079875270041e-01
-9.407399474210392798e-02
-3.219642063011968203e-02
3.045299486997213312e-02
9.255666842589710397e-02
1.528268261114285598e-01
2.099958166758720546e-01
2.628582798061999126e-01
3.103709397716853946e-01
3.515340068219089398e-01
3.855733251555589769e-01
4.118730907973954247e-01
4.299363804568512304e-01
4.395837145080298547e-01
4.407088557308280752e-01
4.334730029086690806e-01
4.182333394063764143e-01
3.954446673758503783e-01
3.658300851211924165e-01
3.301707012310913791e-01
2.893956665977356346e-01
2.445474278908532639e-01
1.966947243984870086e-01
1.469771130582961938e-01
9.654537435386834066e-02
4.651683616021867751e-02
-2.017927583429057758e-03
-4.801357521473301193e-02
-9.056601509688967655e-02
-1.288091165684478179e-01
-1.620461530861159183e-01
-1.897218243046707997e-01
-2.113614745343666834e-01
-2.267449316909301849e-01
-2.357157914729152148e-01
-2.383137153622328364e-01
-2.347492918392821704e-01
-2.253008220810079343e-01
-2.104637736838440021e-01
-1.907869072310289793e-01
-1.669315420668850414e-01
-1.396614646452835062e-01
-1.097614486653553101e-01
-7.807976432227531349e-02
-4.547838882452304166e-02
-1.280036511843779534e-02
1.912926252336188959e-02
4.951293545142998465e-02
7.765666656590630712e-02
1.028965624502435616e-01
1.246833787151764850e-01
1.425816700290298278e-01
1.562066119234060135e-01
1.653593429652585045e-01
1.698935736244842065e-01
1.697935630352847003e-01
1.651788760644539167e-01
1.562128901763162880e-01
1.432194086169271685e-01
1.265681614138317590e-01
1.067110447692972142e-01
8.418887857880974490e-02
5.956167039041937450e-02
3.345566621601042678e-02
6.515871969648118212e-03
-2.060771880953385371e-02
-4.725947702684566570e-02
-7.279455673684116779e-02
-9.662044765369633137e-02
-1.181622905888830566e-01
-1.369154897030444018e-01
-1.524583703579941996e-01
-1.644035578125471186e-01
-1.725102208723525155e-01
-1.765860259399305021e-01
-1.765466445637261517e-01
-1.724408546033895928e-01
-1.643567260192942969e-01
-1.525445615992093717e-01
-1.373096105930800559e-01
-1.190406304428919260e-01
-9.823384996143996739e-02
-7.540678755245566744e-02
-5.115493780546248592e-02
-2.610054871479938754e-02
-8.715744680415915546e-04
2.389638765756155192e-02
4.757786843322642234e-02
6.960900368633252122e-02
8.944955023001949224e-02
1.066317348474980359e-01
1.207895654349546433e-01
1.315897499269848558e-01
1.388513799090135559e-01
1.424525906087016347e-01
1.423640698875628663e-01
1.386922328331898768e-01
1.315749708908154347e-01
1.212823063543574803e-01
1.081372258257709551e-01
9.251476228323181339e-02
7.486961205013233089e-02
5.566882041121130192e-02
3.541712559132884075e-02
1.463472491049196134e-02
-6.165684721142886127e-03
-2.648351502696533188e-02
-4.582712223381181504e-02
-6.376067249640654522e-02
-7.987313230597806180e-02
-9.380112609375440558e-02
-1.052610341052679088e-01
-1.139905705875825098e-01
-1.198302270735001340e-01
-1.226678068303291846e-01
-1.224505543880512332e-01
-1.192295494663180577e-01
-1.130797491126673271e-01
-1.041818205677120246e-01
-9.276713774947903390e-02
-7.911566586928586720e-02
-6.359595070908269365e-02
-4.659359359236192599e-02
-2.855737676299929806e-02
-9.967609205572269815e-03
8.683406696458395579e-03
2.688078600702836773e-02
4.410998547553357518e-02
5.988203789461621351e-02
7.372156370694482597e-02
8.519075660950448103e-02
9.392706510075177206e-02
9.958922128139313656e-02
1.019504801216688517e-01
1.008468996629870995e-01
9.618436512994610332e-02
8.801431373018236970e-02
7.642131521701797658e-02
6.163546328735547419e-02
4.397007933857838974e-02
2.380105369396239012e-02
1.639980990915640424e-03
-2.197516164107754522e-02
-4.641970804642620019e-02
-7.101728440291654731e-02
-9.507841236519171124e-02
-1.178849596722416626e-01
-1.387187815180174755e-01
-1.569062803555025809e-01
-1.718017796157946808e-01
-1.828124475036908558e-01
-1.894722376824045096e-01
-1.913482991661928923e-01
-1.881774337007692255e-01
-1.798071501614685319e-01
-1.661759550564348986e-01
-1.474482767522894422e-01
-1.238393724925469508e-01
-9.575928256455024101e-02
-6.375074887185583350e-02
-2.842665967816893069e-02
9.420349366308367056e-03
4.896167392080236214e-02
8.928312078828620768e-02
1.294096240609874937e-01
1.683652958370485675e-01
2.051755864614099312e-01
2.388724960460186508e-01
2.685777167432010781e-01
2.934796465113069797e-01
3.128366588825800543e-01
3.261073235751528188e-01
3.328008935827251880e-01
3.326424682386364684e-01
3.255247397372270646e-01
3.114389082536247466e-01
2.906653722201608669e-01
2.635531067167359298e-01
2.306650976580103540e-01
1.927378568847532003e-01
1.505748958415885352e-01
1.051797739777463880e-01
5.760048844551139691e-02
8.957302356348187389e-03
-3.956833367318815520e-02
-8.680451964804175580e-02
-1.316182702855466236e-01
-1.728918706901038105e-01
-2.096385153666783796e-01
-2.409871570587364675e-01
-2.661489465793411835e-01
-2.846135104757411272e-01
-2.959450355816719558e-01
-2.999599292041750243e-01
-2.967074867724854847e-01
-2.863345634151611696e-01
-2.693203684725621327e-01
-2.462307460938205628e-01
-2.178238052313313800e-01
-1.850430285646066375e-01
-1.488755290270437071e-01
-1.104503299354074874e-01
-7.093120042323430852e-02
-3.147888916849050922e-02
6.748896010512095422e-03
4.262983573631173861e-02
7.518730237895482338e-02
1.034894177040561747e-01
1.267837798687367901e-01
1.445066593026774759e-01
1.561762967709658945e-01
1.616280408046396333e-01
1.607913465885966176e-01
1.538155779556128477e-01
1.410914931426572871e-01
1.230806407768806898e-01
1.005113948879716168e-01
7.419195355193020092e-02
4.504153076477923623e-02
1.410659046525042370e-02
-1.755243466025058208e-02
-4.884162355294985325e-02
-7.865914277326535586e-02
-1.059722672158226464e-01
-1.298310033895803128e-01
-1.493348808143194484e-01
-1.638087202027186384e-01
-1.726537174688099752e-01
-1.754668565148727044e-01
-1.720898749037359510e-01
-1.624415122642322018e-01
-1.467672216186342582e-01
-1.254249885649886265e-01
-9.895312479089263258e-02
-6.812534561597932692e-02
-3.376527524917544154e-02
3.113398532072625402e-03
4.143026924986292769e-02
8.007001637751264000e-02
1.178697767326695317e-01
1.536779890660810721e-01
1.864295399899055516e-01
2.150933943260214809e-01
2.387651501168523427e-01
2.567208398489030929e-01
2.682974575431048558e-01
2.731234896591913652e-01
2.709421656575631832e-01
2.616844147115288122e-01
2.455604110521450445e-01
2.228474547924558236e-01
1.941118074133912907e-01
1.600374120876905115e-01
1.214309055996527498e-01
7.928945217142396862e-02
3.464178099685039092e-02
-1.137995308626704727e-02
-5.760035413983627395e-02
-1.028545093637950325e-01
-1.459948084644470678e-01
-1.858938865733142098e-01
-2.215592709214633804e-01
-2.520593968198610035e-01
-2.765881966726623231e-01
-2.945527217551475174e-01
-3.054179018654102351e-01
-3.089318191683823045e-01
-3.049747301036159763e-01
-2.935863082105440447e-01
-2.750887116743136462e-01
-2.498655439624560270e-01
-2.185605220490298151e-01
-1.819437417450329719e-01
-1.408829000959000433e-01
-9.642590841302406401e-02
-4.964954986255204483e-02
-1.708900421745818132e-03
4.620159652394692507e-02
9.290703660098675876e-02
1.372711760072507781e-01
1.781785286038024274e-01
2.146600248939893318e-01
2.458247477424509164e-01
2.708968136698456375e-01
2.893335081278065046e-01
3.006490804237910708e-01
3.046291142759297577e-01
3.012099590459185183e-01
2.904631821473555586e-01
2.727457124466691196e-01
2.484743505945436470e-01
2.182989841955391974e-01
1.830046373101631985e-01
1.434540763164454391e-01
1.006802780531946273e-01
5.574510670116433753e-02
9.772180347426974445e-03
-3.607761904625277072e-02
-8.066359679076050282e-02
-1.228935806275421594e-01
-1.616949978997134496e-01
-1.961384391164929797e-01
-2.253852898501403634e-01
-2.486981720808584262e-01
-2.655848464606738180e-01
-2.756116865503842051e-01
-2.786052354975889211e-01
-2.745642043809771726e-01
-2.636049192464205437e-01
-2.461387116787017992e-01
-2.226403900094404698e-01
-1.937972852507922894e-01
-1.604435764298653699e-01
-1.234730195977362666e-01
-8.393239489019821420e-02
-4.289618213552109927e-02
-1.467720318766130294e-03
3.922886470346020893e-02
7.810046481389837369e-02
1.141431705879434877e-01
1.463799038086861515e-01
1.739951275403223141e-01
1.962951386990495761e-01
2.126788234523402932e-01
2.228115437105547270e-01
2.264233445195165673e-01
2.234822706499730582e-01
2.141438017508420222e-01
1.986561209582852761e-01
1.775410307056466963e-01
1.513836355646537568e-01
1.209354670924853992e-01
8.708493035223234535e-02
5.075871971964469181e-02
1.299574665156312189e-02
-2.514230370711444118e-02
-6.259713512828399273e-02
-9.831336575413410217e-02
-1.312709711033394899e-01
-1.605713838309278108e-01
-1.853509313632090150e-01
-2.049129303731567764e-01
-2.187104686451007418e-01
-2.262801331684526907e-01
-2.274414798660984727e-01
-2.220888574062057086e-01
-2.103380350867893600e-01
-1.925121511866280943e-01
-1.690109162589416292e-01
-1.404948640359704737e-01
-1.076923364542141381e-01
-7.146021556129136809e-02
-3.278108574477049675e-02
7.341623780876133099e-03
4.784214834396018079e-02
8.764093944688064464e-02
1.257011468015813982e-01
1.610295204096437449e-01
1.926746314825951989e-01
2.198524552324426229e-01
2.418294320281342002e-01
2.580407393547224926e-01
2.681014704563173257e-01
2.716978822704625429e-01
2.687917509424193607e-01
2.594272731009626964e-01
2.438290482700018469e-01
2.224225340250607086e-01
1.956899344774269967e-01
1.643279827055576237e-01
1.290985089492480975e-01
9.085273269246835204e-02
5.054579842628986741e-02
9.146120288640591234e-03
-3.234165479955519729e-02
-7.290310597914995139e-02
-1.115660511572129643e-01
-1.474096003354553042e-01
-1.795462288639619874e-01
-2.072437121382834646e-01
-2.298233568259186455e-01
-2.467491727722662676e-01
-2.576661222704578202e-01
-2.622788133435373648e-01
-2.605507259474047488e-01
-2.525361589197266943e-01
-2.384484263955788386e-01
-2.187114126119329982e-01
-1.938002432705026035e-01
-1.643986191928929752e-01
-1.312654735770851233e-01
-9.523820343785199816e-02
-5.726268286388480622e-02
-1.829733764772767390e-02
2.067198328250841044e-02
5.865019968636758785e-02
9.468763868092267000e-02
1.279003122059146902e-01
1.574355790015034007e-01
1.826056308007772966e-01
2.027889261772948259e-01
2.174961928940808420e-01
2.264378294017115323e-01
2.293786482522015557e-01
2.263339508308562786e-01
2.174230031237289751e-01
2.029001927928110183e-01
1.832328733639186358e-01
1.589335627392491346e-01
1.306988041853656690e-01
9.930436287055582900e-02
6.558443826463830617e-02
3.046924605412223985e-02
-5.100920323797763882e-03
-4.017775625780541093e-02
-7.380997520430551684e-02
-1.050949361434130314e-01
-1.332140292477589361e-01
-1.573791617736574056e-01
-1.769743857337313098e-01
-1.914655383781335707e-01
-2.004407284063318695e-01
-2.037080857371125209e-01
-2.011288733556181318e-01
-1.928103157151599967e-01
-1.789811171049980887e-01
-1.599867146251459649e-01
-1.363915805788340485e-01
-1.088030048248767589e-01
-7.798821139609823927e-02
-4.479667419214908297e-02
-1.011525703273438714e-02
2.509654913091116657e-02
5.987346154211937305e-02
9.327524397733485961e-02
1.243754616855390488e-01
1.523047071143093512e-01
1.763113709582456168e-01
1.956772437731886805e-01
2.098660097123697943e-01
2.184439760597219893e-01
2.210851724921690242e-01
2.176947185389693229e-01
2.082296980220148530e-01
1.928698140656784354e-01
1.719258014980616367e-01
1.458019150983519141e-01
1.151110163205656400e-01
8.050745440307556511e-02
4.278345632957512162e-02
2.815949634767123729e-03
-3.848722892703837495e-02
-8.014760862977853006e-02
-1.211779666730522648e-01
-1.606087030769169088e-01
-1.974816383879533233e-01
-2.308824223560671518e-01
-2.600055686273112787e-01
-2.840755280362446400e-01
-3.024790500758311462e-01
-3.147118713775058918e-01
-3.203618883975257736e-01
-3.192527969470587701e-01
-3.112630883406417581e-01
-2.964892075225717960e-01
-2.751804146026447517e-01
-2.476749606891510136e-01
-2.145466140417972289e-01
-1.764203505931325466e-01
-1.340763275338633931e-01
-8.840832562235736991e-02
-4.035027573577973370e-02
9.055797911883640625e-03
5.874770415128999224e-02
1.076509029815974627e-01
1.546814298978590185e-01
1.987831271197762484e-01
2.389845830360957935e-01
2.743394717542909644e-01
3.040461391333187935e-01
3.274185096195096345e-01
3.438546664746714443e-01
3.530094727247980457e-01
3.546026084468034689e-01
3.485910636276136065e-01
3.351298014562107408e-01
3.144702904653874365e-01
2.871653830535738083e-01
2.538412306794363138e-01
2.153165178013744241e-01
1.725776555413130742e-01
1.266594883449647935e-01
7.874676584988002381e-02
3.005761281494408188e-02
-1.817828443113359005e-02
-6.472072277175877630e-02
-1.083643081213906401e-01
-1.480330905842519862e-01
-1.826898249039580757e-01
-2.114852660184685929e-01
-2.337487526296700979e-01
-2.489031329747993793e-01
-2.567053976576603169e-01
-2.570044204400474541e-01
-2.499020012547895631e-01
-2.357508132391350486e-01
-2.149885567056255553e-01
-1.883546845718433727e-01
-1.566710171800170248e-01
-1.209004163172542473e-01
-8.215182105124163581e-02
-4.155628775846489931e-02
-3.104434436681235976e-04
4.037354233179851759e-02
7.933546934864496580e-02
1.154713413954213119e-01
1.477240493443714442e-01
1.752343161609415390e-01
1.972049380752297632e-01
2.130297803187997108e-01
2.223184832803431488e-01
2.247594467228395121e-01
2.203580267170464346e-01
2.092192075052452249e-01
1.916456195569591348e-01
1.681729712654757569e-01
1.393972930417006206e-01
1.061472834214355204e-01
6.932609503341920221e-02
2.992202686392204936e-02
-1.097177497678428204e-02
-5.225362894884569287e-02
-9.281102387170345192e-02
-1.315297674864694955e-01
-1.673655721621500891e-01
-1.993640830061068070e-01
-2.266155895625538430e-01
-2.484227755707181240e-01
-2.641648799983415397e-01
-2.733937921406610627e-01
-2.758933355599766379e-01
-2.715149335121948004e-01
-2.604060407900642415e-01
-2.428235090812070895e-01
-2.191842273329139557e-01
-1.901295873461707475e-01
-1.563487133128331208e-01
-1.187184933408195475e-01
-7.818728608903249833e-02
-3.575354546227325903e-02
7.510966767753160522e-03
5.053309976795006264e-02
9.226820229651061522e-02
1.316841564792588515e-01
1.678252078879709785e-01
1.998526433475214248e-01
2.269687141867536284e-01
2.485848108918165544e-01
2.642008385750791444e-01
2.734597659366611033e-01
2.762334146792739809e-01
2.724500154807464325e-01
2.622920893002994580e-01
2.460538109971128207e-01
2.241517392319970214e-01
1.972067730579889488e-01
1.658798395242499502e-01
1.309855563675478285e-01
9.340862596448408495e-02
5.407006985866136956e-02
1.395394996515975095e-02
-2.595310491088409499e-02
-6.469453503050751064e-02
-1.013287008473694184e-01
-1.349780259312363395e-01
-1.648822105491376533e-01
-1.903163399742514583e-01
-2.107459669921576406e-01
-2.257323296385143063e-01
-2.349554140662192259e-01
-2.383216548849395600e-01
-2.357888570479560464e-01
-2.275417221677585311e-01
-2.138836835985666318e-01
-1.952149626194538135e-01
-1.721280504094123143e-01
-1.452516196977651775e-01
-1.153372823558097005e-01
-8.320368998523244852e-02
-4.969027707218645618e-02
-1.567874914136978270e-02
1.794821857337428050e-02
5.035102620077178126e-02
8.071487847137262528e-02
1.082807662334998866e-01
1.324118466111205983e-01
1.525033825468355697e-01
1.681160581070868798e-01
1.789094186906758643e-01
1.846333059751515682e-01
1.852427617325743403e-01
1.807383681850010526e-01
1.713059077701664934e-01
1.572466937868182146e-01
1.389353954576671157e-01
1.169197416332681261e-01
9.178203266832105078e-02
6.420983557488832427e-02
3.495926765694987171e-02
4.805058440923715146e-03
-2.543387172723796108e-02
-5.493444343823380982e-02
-8.290775110641304679e-02
-1.085882143912074993e-01
-1.312556178496464554e-01
-1.503090867987310064e-01
-1.651790613932068719e-01
-1.754518872853569889e-01
-1.808248161228394602e-01
-1.810757365110039485e-01
-1.762006848986549246e-01
-1.662462796334154558e-01
-1.514417342816373468e-01
-1.321518992732353404e-01
-1.088075316089564953e-01
-8.202275638616129960e-02
-5.245135108584867561e-02
-2.084252971695811640e-02
1.198046250330553342e-02
4.518263873430330979e-02
7.789890842051558351e-02
1.092614926687210386e-01
1.384522822291443800e-01
1.646934220679895367e-01
1.872530544867818114e-01
2.055438848286729736e-01
2.190169176043096355e-01
2.272829234804102927e-01
2.300878645762851615e-01
2.272509073950010894e-01
2.188246861234278418e-01
2.049205835252506658e-01
1.858242848318982787e-01
1.619754923337837216e-01
1.338719654588936270e-01
1.021991617380589301e-01
6.768864615808203866e-02
3.115957898538561366e-02
-6.488055884399657192e-03
-4.434451471587150251e-02
-8.147488045828960024e-02
-1.169408813468588715e-01
-1.498586487896477193e-01
-1.793967303118881307e-01
-2.047678907337179832e-01
-2.253502554232221788e-01
-2.405697182424462732e-01
-2.500187220742440819e-01
-2.534572651235001417e-01
-2.507163466351446934e-01
-2.418897342387636429e-01
-2.271459483037069904e-01
-2.068282087549347392e-01
-1.814632560212938173e-01
-1.516308004066901638e-01
-1.181026533286398672e-01
-8.170527897260965178e-02
-4.333493001576939341e-02
-3.964411361106409681e-03
3.543057126904644583e-02
7.387891410511196466e-02
1.104132263387864465e-01
1.441376083101136296e-01
1.742380516697103476e-01
1.999439288604584752e-01
2.206710819822054193e-01
2.358959075404788996e-01
2.452486450519525962e-01
2.485435557268162454e-01
2.456543623827642242e-01
2.366999804619383529e-01
2.218804153266877854e-01
2.015381453138178069e-01
1.761936152168862291e-01
1.464101204770702214e-01
1.129187228016877154e-01
7.650735459440852204e-02
3.802221448084389110e-02
-1.614507152823563534e-03
-4.147439904308360820e-02
-8.062287510232753196e-02
-1.181243418201179951e-01
-1.530923908726211924e-01
-1.847076690998425419e-01
-2.121820358746176749e-01
-2.348822693991544641e-01
-2.522340977376138493e-01
-2.637895984136854888e-01
-2.692806991981804288e-01
-2.684911940660255070e-01
-2.614403027917653333e-01
-2.482395267748799261e-01
-2.291343634419011899e-01
-2.045694857196053984e-01
-1.750340322933512383e-01
-1.412009783710669319e-01
-1.038179000668238705e-01
-6.369749867176097147e-02
-2.175348441136502886e-02
2.108790552884539857e-02
6.387442483997032849e-02
1.056434248295631817e-01
1.454666454282663723e-01
1.824718111050409319e-01
2.158105318148739460e-01
2.447698626046823089e-01
2.686976913048341187e-01
2.870458064351019134e-01
2.994422363153293465e-01
3.055602475723520062e-01
3.052871820373670997e-01
2.986101773108932877e-01
2.856313319333784184e-01
2.666562639879008767e-01
2.420345600539145492e-01
2.123007831439130966e-01
1.780793297594098490e-01
1.400667388250768086e-01
9.909270291756291926e-02
5.600978956649073359e-02
1.174157505175289773e-02
-3.275255436411553256e-02
-7.651477538829817848e-02
-1.185908425672636268e-01
-1.580359141740389217e-01
-1.939858479574355643e-01
-2.256196366470372139e-01
-2.521928148133442127e-01
-2.731161136997990457e-01
-2.878408565006665976e-01
-2.960243723895305545e-01
-2.974384495511079862e-01
-2.919706331074771732e-01
-2.797529095764171858e-01
-2.609713476865232473e-01
-2.360398702291993112e-01
-2.055044796583938294e-01
-1.700026874768891805e-01
-1.303729458970185329e-01
-8.749214881830204293e-02
-4.235649048354694912e-02
3.965692893113506590e-03
5.039000589658459983e-02
9.579679098137199034e-02
1.390667329442477895e-01
1.791413311927411711e-01
2.150006988021241350e-01
2.456925304101180707e-01
2.704288937195016840e-01
2.884645132807725498e-01
2.992689049660640643e-01
3.024536627483033757e-01
2.977459132813365938e-01
2.851635886393941166e-01
2.647911647364766252e-01
2.369735648447740539e-01
2.022355953090410607e-01
1.612052489191303506e-01
1.147793589511021950e-01
6.391184600321431208e-02
9.722217991321696617e-03
-4.655059255496610260e-02
-1.036343999412507877e-01
-1.601703369090115014e-01
-2.147868897114288966e-01
-2.661500333430626419e-01
-3.129540269351346882e-01
-3.539549439373524398e-01
-3.880904906414298638e-01
-4.143476704593371807e-01
-4.319565216494357651e-01
-4.403383608491315826e-01
-4.390404683868074365e-01
-4.279869911613353173e-01
-4.071943013928970290e-01
-3.769920679277413145e-01
-3.379674490813291410e-01
-2.908207801022033023e-01
-2.365981768027817789e-01
-1.764267000858878998e-01
-1.116149449850765141e-01
-4.362730842975282020e-02
2.604417603120284808e-02
9.582976330016798605e-02
1.641467410074144428e-01
2.294835288327216893e-01
2.903923001041804897e-01
3.454957070005565400e-01
3.936630937714632461e-01
4.338323151264508737e-01
4.652026444251367021e-01
4.872180102806913937e-01
4.994347428079324303e-01
5.018005197702809506e-01
4.943679224728095845e-01
4.774536246730296529e-01
4.516323792545955951e-01
4.175597802618350451e-01
3.761712850180549683e-01
3.284770502217899679e-01
2.756028857092471807e-01
2.187926141757255416e-01
1.593036485192586560e-01
9.842811429771919363e-02
3.746500447925710242e-02
-2.234455469377688575e-02
-7.982109368058541710e-02
-1.338280943461274131e-01
-1.834052865166665436e-01
-2.276467312908852791e-01
-2.658080089535489465e-01
-2.973244061373963021e-01
-3.216974586081809973e-01
-3.386923037935364311e-01
-3.481560393021831401e-01
-3.501077556513460531e-01
-3.447663677172511654e-01
-3.324077313115602617e-01
-3.135305631221589895e-01
-2.887045578776154531e-01
-2.586058023051172605e-01
-2.240394595577600012e-01
-1.858351124555181477e-01
-1.449076924924190823e-01
-1.021994192059170747e-01
-5.865318732009638936e-02
-1.521273200976419604e-02
2.719243174734641000e-02
6.770973356014498012e-02
1.055145318227851681e-01
1.398681281833459022e-01
1.701455708389432997e-01
1.957604896748495471e-01
2.163009590623319878e-01
2.314190210702831152e-01
2.408814214584882318e-01
2.446134431893504102e-01
2.425821199529412664e-01
2.349342862856308445e-01
2.218850626462995912e-01
2.037431689981115679e-01
1.809524240738569212e-01
1.539864448094195315e-01
1.234398053338714440e-01
8.995474256627628007e-02
5.421839577807657795e-02
1.698555614545990688e-02
-2.097967312669546391e-02
-5.888872906104458682e-02
-9.594341772602313356e-02
-1.313647375064143086e-01
-1.644040251521354801e-01
-1.943286992678509850e-01
-2.204996577262697266e-01
-2.423187548101143618e-01
-2.592706918853466824e-01
-2.709766382578635557e-01
-2.770959476061661264e-01
-2.774748361493369897e-01
-2.720442295353566742e-01
-2.608458334240201792e-01
-2.441118473106109743e-01
-2.221174768978332881e-01
-1.953249985316196091e-01
-1.642849051015330408e-01
-1.296243569269583951e-01
-9.210799595908913950e-02
-5.252389353004541239e-02
-1.173380215117487968e-02
2.936451668953466571e-02
6.987730064561264998e-02
1.089188033089925067e-01
1.456143904682224155e-01
1.791778178199926741e-01
2.088687114378105780e-01
2.340250196044571518e-01
2.541387441439183492e-01
2.687408751725445799e-01
2.775535659858305859e-01
2.804020633199944545e-01
2.772122912415904139e-01
2.681164338653235779e-01
2.532910474048098437e-01
2.330946339256526056e-01
2.079880732555964284e-01
1.785025086171839748e-01
1.453188568428251393e-01
1.091460620944223192e-01
7.077950380042763445e-02
3.106528696518075228e-02
-9.140033810107910106e-03
-4.895765097179758524e-02
-8.751013470390776872e-02
-1.239683452776278172e-01
-1.575329304000014918e-01
-1.874567467545717181e-01
-2.131157754809927807e-01
-2.339178462843701234e-01
-2.494314642224223499e-01
-2.593283477969703932e-01
-2.633663210716897241e-01
-2.615136182252490449e-01
-2.537858775584976856e-01
-2.403844231023039013e-01
-2.216351128303925000e-01
-1.979349712789551519e-01
-1.698610322306108589e-01
-1.380273562404458754e-01
-1.031519781986938999e-01
-6.602574507089983835e-02
-2.745729339675567759e-02
1.170007724057893495e-02
5.058759078782065072e-02
8.837572237628003868e-02
1.242563787365975614e-01
1.574581342263965678e-01
1.873136304915149208e-01
2.131826898372450041e-01
2.345521347684073055e-01
2.510058675159187458e-01
2.621906073941986937e-01
2.679353245987159404e-01
2.681128243959489121e-01
2.627472666472630003e-01
2.519836315025916207e-01
2.360249646848705529e-01
2.152477188096460214e-01
1.900691636319367661e-01
1.610171347543394860e-01
1.287116377892834895e-01
9.380302395082484868e-02
5.703330188380856952e-02
1.916485437522433277e-02
-1.901595303547233551e-02
-5.670187810255494787e-02
-9.309522920030252613e-02
-1.274341591615222036e-01
-1.589686164968771021e-01
-1.870257827509720361e-01
-2.110030490160323957e-01
-2.303439559810978032e-01
-2.446522659741401373e-01
-2.535755579308212049e-01
-2.569086373986812499e-01
-2.545860632234675514e-01
-2.466027191895435178e-01
-2.331651533758244410e-01
-2.145371265111344905e-01
-1.911209181348613728e-01
-1.634561049222019169e-01
-1.321231466249624120e-01
-9.784460597745013588e-02
-6.138113200913891676e-02
-2.354322068327861783e-02
1.480704191628030852e-02
5.280778315073508811e-02
8.960821271117469511e-02
1.243628536659516781e-01
1.562888795304931966e-01
1.846711709845298977e-01
2.088330188104313700e-01
2.282548209680154705e-01
2.424657183822801487e-01
2.511314517149128012e-01
2.540719146913353321e-01
2.511617406647113082e-01
2.424946630660023139e-01
2.282332493110689753e-01
2.086770242452999913e-01
1.842869076360696412e-01
1.555666877042238272e-01
1.231866268520870888e-01
8.787038610252359550e-02
5.040826077292155649e-02
1.167254153923361071e-02
-2.745507934085576751e-02
-6.607021138741556165e-02
-1.032621687231115859e-01
-1.381610475856774878e-01
-1.699493767744448269e-01
-1.978397863937881307e-01
-2.211909751947189195e-01
-2.394145163555214118e-01
-2.520516367520654888e-01
-2.588176178386527582e-01
-2.594816267443843527e-01
-2.540530719083704536e-01
-2.426303323352796415e-01
-2.254534576306602145e-01
-2.029611073231064045e-01
-1.756377844492640339e-01
-1.441560007254489573e-01
-1.092601063074339213e-01
-7.176163358108524071e-02
-3.257042032079608684e-02
7.392558284205763552e-03
4.718519716133789954e-02
8.585778969134996719e-02
1.225020910984963574e-01
1.562734116919773375e-01
1.863546296831484761e-01
2.120779604405748642e-01
2.328389656622930071e-01
2.481475879915743810e-01
2.576966461424638477e-01
2.612264963044879651e-01
2.586980941514168686e-01
2.501693223252579035e-01
2.358143798525652590e-01
2.160015973961286750e-01
1.911405502161974967e-01
1.618108898398895046e-01
1.286700087625976541e-01
9.243616030369583569e-02
5.393350546774607762e-02
1.400197191955904197e-02
-2.647850044494771959e-02
-6.660918385001876607e-02
-1.055102375157604688e-01
-1.423366265643024597e-01
-1.762598502094371855e-01
-2.065581829476354492e-01
-2.325636613321196977e-01
-2.536933073212323531e-01
-2.695262930016443237e-01
-2.796824465299218021e-01
-2.839781589952645735e-01
-2.823327447769959919e-01
-2.747683457476219893e-01
-2.615116222872495011e-01
-2.428326080450797786e-01
-2.191776912816760792e-01
-1.910895605499152716e-01
-1.591739086314034046e-01
-1.241667338063077719e-01
-8.682632934833255101e-02
-4.796871607691002848e-02
-8.442724135739218885e-03
3.090951417124377515e-02
6.926143360511723135e-02
1.057961374335132931e-01
1.397760304831018874e-01
1.705109468132750550e-01
1.973712196767679616e-01
2.198651418506279431e-01
2.375343053008402427e-01
2.500745652994786350e-01
2.572779855715456310e-01
2.590120059178774858e-01
2.553225829820427450e-01
2.462948121121238398e-01
2.321633954483590667e-01
2.132604641877005602e-01
1.899749148253439546e-01
1.628351463393186427e-01
1.323980493917806811e-01
9.930485806925670733e-02
6.425416185783969225e-02
2.796190511154045960e-02
-8.812803755566686603e-03
-4.530481707472285707e-02
-8.076285444838392225e-02
-1.144455196241261075e-01
-1.456389518745446199e-01
-1.737053888547769320e-01
-1.980278727741655309e-01
-2.180979892696567890e-01
-2.334879139606819698e-01
-2.438299743902030414e-01
-2.489267229716946583e-01
-2.486218346056008333e-01
-2.429130684244304450e-01
-2.319176466002671466e-01
-2.158144194420114625e-01
-1.949617311981721168e-01
-1.697592892799181519e-01
-1.407208638231404463e-01
-1.084525766171003380e-01
-7.358956628330751149e-02
-3.685190052459599852e-02
1.022501952056803498e-03
3.928218702771817117e-02
7.716425826917910902e-02
1.139197256116942503e-01
1.488478720797888621e-01
1.812624052056394652e-01
2.105554676535734138e-01
2.361884605800836090e-01
2.576645079981943476e-01
2.746265936515792649e-01
2.867546970015421581e-01
2.938471804094615059e-01
2.958115603393437487e-01
2.926017363430851170e-01
2.843296243953947200e-01
2.711488721917645894e-01
2.533172528249073574e-01
2.311927905481576950e-01
2.051665731813004379e-01
1.757435205282892599e-01
1.434588189405785752e-01
1.089019244031662337e-01
7.271685175635145271e-02
3.555722024737344167e-02
-1.893605635021722300e-03
-3.894518658221593488e-02
-7.492205177381819348e-02
-1.091644435406189384e-01
-1.410301503025515601e-01
-1.699498169917125212e-01
-1.953768092508346710e-01
-2.168457661721387986e-01
-2.339804147419302094e-01
-2.464421682568860850e-01
-2.540434932948128499e-01
-2.566436014744273297e-01
-2.542126900022467773e-01
-2.468479936183846646e-01
-2.346865221050206118e-01
-2.180224955838946377e-01
-1.971997353122242336e-01
-1.726456586442349783e-01
-1.448876030256111003e-01
-1.144744934730585473e-01
-8.203441833491795232e-02
-4.822073428757921165e-02
-1.370093505868158826e-02
2.083984700212831997e-02
5.472178236620657554e-02
8.729901149591787202e-02
1.179381601888528641e-01
1.460560184021159613e-01
1.711347840932961606e-01
1.926808902471429663e-01
2.103113179112079401e-01
2.236831311817184531e-01
2.325316349182756648e-01
2.366986695515694294e-01
2.360561423706066808e-01
2.306074599624041155e-01
2.204053966916407203e-01
2.055792941800533291e-01
1.863673769938749003e-01
1.630346772789796894e-01
1.359603422878866152e-01
1.055680314343027670e-01
7.233630781771338558e-02
3.682526689581763768e-02
-3.887054926410560274e-04
-3.866641557375220806e-02
-7.734334480872558093e-02
-1.157414308901452693e-01
-1.531616602258702997e-01
-1.889067924578111679e-01
-2.223041189048801103e-01
-2.526918485347391385e-01
-2.794520231296780954e-01
-3.020378582158528835e-01
-3.199270283209688648e-01
-3.327266624775798709e-01
-3.401019275640935202e-01
-3.418123270699929828e-01
-3.377772451191629055e-01
-3.279567815143721310e-01
-3.125027196584530542e-01
-2.916561107819768406e-01
-2.657586653306247548e-01
-2.353301480542694946e-01
-2.009275338556472112e-01
-1.632595256804849626e-01
-1.231083636892346955e-01
-8.130553305670708275e-02
-3.877320003023640438e-02
3.554723679373802958e-03
4.472845447263966434e-02
8.379049793170714744e-02
1.198187007705195373e-01
1.519597818367162956e-01
1.793851435659608584e-01
2.014164248371080324e-01
2.174552843672297175e-01
2.270130054765995831e-01
2.298226482329873144e-01
2.256714349622639948e-01
2.146044696865884727e-01
1.968099594767572791e-01
1.726077949246244136e-01
1.425954480024039794e-01
1.074293835236732053e-01
6.800056831298417759e-02
2.533573920582543604e-02
-1.945807840564758862e-02
-6.509822180931978952e-02
-1.102726745527582430e-01
-1.536102152048266500e-01
-1.937039971039588027e-01
-2.291792064160338427e-01
-2.587371363842237426e-01
-2.811080421070401014e-01
-2.952264105981191045e-01
-3.001560821290932823e-01
-2.951094079485502286e-01
-2.796579641012221229e-01
-2.534605432938533132e-01
-2.165734298122620749e-01
-1.693155903177752108e-01
-1.121934899875408620e-01
-4.618373572764633561e-02
2.763486153302741055e-02
1.078305838482237489e-01
1.927282081612998743e-01
2.805509433011527110e-01
3.692611142107966593e-01
4.567744384973566607e-01
5.409649099444510112e-01
6.196765385028589757e-01
6.908202954374930149e-01
7.524984717911993304e-01
8.028706798861020566e-01
8.404397908864684741e-01
8.639671942335682697e-01
8.724132981300891654e-01
8.653106916272448323e-01
8.423307412604127409e-01
8.036557313340886299e-01
7.498697411356932685e-01
6.817513450413967835e-01
6.006516476140881799e-01
5.080527224829812782e-01
4.057625749384980995e-01
2.958568800548330158e-01
1.804740574611735093e-01
6.193198115306697282e-02
-5.741796117983521963e-02
-1.752801634971892231e-01
-2.894068691194537912e-01
-3.976369144091834729e-01
-4.981015785863145418e-01
-5.890126819867561592e-01
-6.689190177198467424e-01
-7.366711775798733264e-01
-7.912706769311730337e-01
-8.322257900771103944e-01
-8.591768049546202324e-01
-8.721239403516767297e-01
-8.714040265134511687e-01
-8.574706339086997087e-01
-8.311714701497066038e-01
-7.934564335238261101e-01
-7.454664528452702443e-01
-6.885290054710359042e-01
-6.240087532787750302e-01
-5.533877349880896857e-01
-4.781767424058272486e-01
-3.998741898502053971e-01
-3.199658705555958882e-01
-2.399074189442586269e-01
-1.610303767892147242e-01
-8.462852241546825471e-02
-1.186035796487633354e-02
5.625964812285541572e-02
1.187758634123722568e-01
1.749611614356644806e-01
2.241570534941785542e-01
2.658650146761205035e-01
2.997643691470706084e-01
3.255917620567723159e-01
3.433063617581613158e-01
3.529361042430398943e-01
3.546426449429183614e-01
3.487428860089193394e-01
3.355978590072427048e-01
3.157411159413111568e-01
2.897613651569801441e-01
2.583380261906647046e-01
2.222604941726039063e-01
1.823436038544425652e-01
1.394986160159640276e-01
9.466829377928022426e-02
4.882178053585756183e-02
2.961611180471741128e-03
-4.191269635692616846e-02
-8.482943794921005143e-02
-1.248278717141918098e-01
-1.610136760921994092e-01
-1.925803847706915317e-01
-2.187597853209729548e-01
-2.389662288074109187e-01
-2.526815795381476271e-01
-2.595353125754109036e-01
-2.593607995242977471e-01
-2.520511011607969309e-01
-2.377661557422652283e-01
-2.167674100336524357e-01
-1.894664420128571169e-01
-1.564913882654568322e-01
-1.185178867107338496e-01
-7.641375133645900153e-02
-3.112225069324689453e-02
1.635408945345170895e-02
6.492356853583103327e-02
1.134881462377551470e-01
1.609567558280261546e-01
2.062421819935229550e-01
2.483214457303323519e-01
2.862728722113239144e-01
3.192119124410993658e-01
3.464504921729920084e-01
3.673860626351331260e-01
3.815547029394295020e-01
3.887205755457685541e-01
3.887043997329253653e-01
3.815857479655269668e-01
3.675611462013875785e-01
3.469555343223884036e-01
3.203143605339286437e-01
2.882278498583353832e-01
2.514639614796723710e-01
2.108742037494731880e-01
1.673638054286163968e-01
1.219340375544645250e-01
7.559738898253953732e-02
2.937573748806959761e-02
-1.570483623552471064e-02
-5.866051249555609415e-02
-9.858727323097910000e-02
-1.346083398395548636e-01
-1.660057915238993265e-01
-1.921438460375166635e-01
-2.124961375756989901e-01
-2.267510674330797671e-01
-2.346479681220612346e-01
-2.361613792375084342e-01
-2.313925155233008957e-01
-2.205542194462765671e-01
-2.040876188915283773e-01
-1.824800875993365379e-01
-1.563927507414565599e-01
-1.265843350271692591e-01
-9.386309884218607680e-02
-5.914220026658850715e-02
-2.334967086742856246e-02
1.257452666876707204e-02
4.768359213143158470e-02
8.106566622899855079e-02
1.118883186069954960e-01
1.393432822871252807e-01
1.627656489917377325e-01
1.815786452243322580e-01
1.952935252692041268e-01
2.036276827529122091e-01
2.063459691052390577e-01
2.034147728619424833e-01
1.949297938282112674e-01
1.810731951875319545e-01
1.622372245632842935e-01
1.388582445976887791e-01
1.115188386709948659e-01
8.089955253692718284e-02
4.772055317088957221e-02
1.280078003585738422e-02
-2.302382422750151592e-02
-5.890325668410370530e-02
-9.397771536626550737e-02
-1.274123498712768365e-01
-1.584412112470380274e-01
-1.863187644493186634e-01
-2.104203320034506719e-01
-2.302096410513804203e-01
-2.452205324677122489e-01
-2.551825739212129074e-01
-2.598723177307925014e-01
-2.592442155264392811e-01
-2.533885978220905555e-01
-2.424658379982586875e-01
-2.268372706020248264e-01
-2.069097661295267176e-01
-1.832131926304290115e-01
-1.563755251210361408e-01
-1.270530885988217507e-01
-9.598336587597861014e-02
-6.391991367517453615e-02
-3.161700601898903562e-02
1.704898557515904800e-04
3.070952056134243491e-02
5.933966367958917743e-02
8.542103140450985066e-02
1.084124796855697181e-01
1.278587657320657267e-01
1.433533718029835757e-01
1.546500562313236626e-01
1.615441216178960526e-01
1.639583782713727178e-01
1.619314660069014478e-01
1.555490168597629674e-01
1.450537747146928846e-01
1.307290527989059536e-01
1.129527520693001108e-01
9.219249623306224883e-02
6.894186034034321953e-02
4.378090617790292294e-02
1.731172468230868233e-02
-9.837160465229088935e-03
-3.701104452505754594e-02
-6.355836667350463209e-02
-8.884485484297574565e-02
-1.122426848153455503e-01
-1.331745428111807406e-01
-1.511153548432664362e-01
-1.655709872729073107e-01
-1.761689143086574427e-01
-1.825732113273186297e-01
-1.845594930706285774e-01
-1.820238306211467427e-01
-1.749089305774989556e-01
-1.633395930374893501e-01
-1.474957405152770851e-01
-1.276769823234873980e-01
-1.043178980614130613e-01
-7.789052660680548246e-02
-4.900932372040986418e-02
-1.833235446472772021e-02
1.342804905084539480e-02
4.549565276422234961e-02
7.708987293005215014e-02
1.074267472195936102e-01
1.357227986997299740e-01
1.612472904773457616e-01
1.833343526131022139e-01
2.013525066760897264e-01
2.148285706952847152e-01
2.233442845403305066e-01
2.266167739718095708e-01
2.245370518247004621e-01
2.170504609236311722e-01
2.043372824810487098e-01
1.866610286847816824e-01
1.644201676511453103e-01
1.381941789899039097e-01
1.086033075090080957e-01
7.642950870057028945e-02
4.251353121915114885e-02
7.742609690267798772e-03
-2.693095048959606719e-02
-6.055422279730832136e-02
-9.220001461638027695e-02
-1.209522600276155546e-01
-1.459714433746523987e-01
-1.665301658213698133e-01
-1.819436637443008209e-01
-1.917424170379886661e-01
-1.955442257171816633e-01
-1.931230406546681211e-01
-1.844915715476818652e-01
-1.697237728716929905e-01
-1.491696598665116502e-01
-1.232950864846708572e-01
-9.270002262586124475e-02
-5.819850504306650629e-02
-2.064538552585296061e-02
1.895146204429011549e-02
5.951773136253336871e-02
9.995456988614134786e-02
1.391224921558163463e-01
1.758880847092378630e-01
2.091922384587737160e-01
2.380106360529887777e-01
2.614182443958461000e-01
2.786634713979005973e-01
2.890457667599539704e-01
2.921290643411240673e-01
2.876043217180943024e-01
2.753266631588801583e-01
2.554503250729980302e-01
2.281981418234181325e-01
1.940980921111666868e-01
1.538307369415272685e-01
1.082099512748996295e-01
5.830284175967007099e-02
5.223529694896589248e-03
-4.975189950213061707e-02
-1.052630948702960867e-01
-1.599303044065444046e-01
-2.123363250982784334e-01
-2.610706304752279383e-01
-3.048263824703358882e-01
-3.423538204798788342e-01
-3.725213995914690157e-01
-3.944444807281672349e-01
-4.073041939982235404e-01
-4.106228184496741318e-01
-4.041175449908708806e-01
-3.876966719221459634e-01
-3.616835908313727477e-01
-3.264927380722127959e-01
-2.829123706296760576e-01
-2.319535656476646168e-01
-1.747655682179100611e-01
-1.128089731157197462e-01
-4.760097308791552684e-02
1.919819049289800406e-02
8.583939566196889526e-02
1.505875951776960431e-01
2.117449311183598193e-01
2.676368916414726962e-01
3.167985221370193671e-01
3.579014371421285201e-01
3.897762634020756067e-01
4.116499860769292640e-01
4.228453487666235522e-01
4.231099095067299976e-01
4.124800877892665918e-01
3.911810113612660400e-01
3.599237786251960891e-01
3.195244858903430463e-01
2.711355280438649262e-01
2.161480779634250282e-01
1.560409504932041003e-01
9.252271135678485914e-02
2.734309752524702319e-02
-3.772655286587144052e-02
-1.008989395038478870e-01
-1.604479832591855781e-01
-2.148274834362101648e-01
-2.625428762190977761e-01
-3.023862260669567537e-01
-3.333716872773463957e-01
-3.546682653619887549e-01
-3.659018957041176856e-01
-3.668095569973898185e-01
-3.575122112531802787e-01
-3.384415068476235300e-01
-3.101678956474616666e-01
-2.736799319527473129e-01
-2.300629633871417723e-01
-1.806241745962591239e-01
-1.268581887476875891e-01
-7.029602529643214082e-02
-1.257183938663336553e-02
4.466213559987708415e-02
9.982221295098434033e-02
1.513851921294614433e-01
1.979031334621597082e-01
2.381880519734902169e-01
2.711238914123138000e-01
2.958784117025106686e-01
3.118808780786062052e-01
3.186851086892114049e-01
3.162733604581861591e-01
3.047416101877733485e-01
2.844818060575415863e-01
2.561706533830608867e-01
2.205765385506177068e-01
1.787822140993633735e-01
1.319530182780986327e-01
8.138222745398998592e-02
2.849164681938018417e-02
-2.528658224007551691e-02
-7.850093642607988698e-02
-1.296987632631927678e-01
-1.775244449844987082e-01
-2.207241536481055755e-01
-2.581114677692078474e-01
-2.887711517221994151e-01
-3.118704452875206146e-01
-3.268231970328816516e-01
-3.333133838220343481e-01
-3.311237990673706610e-01
-3.204245744660910167e-01
-3.015039855708389616e-01
-2.748860300215099084e-01
-2.413643272587368549e-01
-2.018005377158775260e-01
-1.573113902761182348e-01
-1.090922387712703612e-01
-5.841582380558243970e-02
-6.647311556790880260e-03
4.485006549700601419e-02
9.475011866478921796e-02
1.417415763811668006e-01
1.846301019788350040e-01
2.223672404255865598e-01
2.539687337367098063e-01
2.787416045569511280e-01
2.960944895461569137e-01
3.056553597012313661e-01
3.073379296655016635e-01
3.011369277052783344e-01
2.873913210113804850e-01
2.665632184237483049e-01
2.392895665343233169e-01
2.064451636104373544e-01
1.689523305146954091e-01
1.279119758617325020e-01
8.449045139059041531e-02
3.988328170687219232e-02
-4.672646329198199000e-03
-4.795135809281993178e-02
-8.881364031667218772e-02
-1.261555747765304158e-01
-1.589943249708509476e-01
-1.865269162960097038e-01
-2.080092221241895967e-01
-2.229844318327288966e-01
-2.311135201001431327e-01
-2.322415534985061425e-01
-2.264990964354630654e-01
-2.140841417562595606e-01
-1.954874785194991027e-01
-1.713242464525832898e-01
-1.423315572245195670e-01
-1.094439145717096828e-01
-7.362809716984583530e-02
-3.595328976031915424e-02
2.466571143856441384e-03
4.053058805262856057e-02
7.716032845630191317e-02
1.112979833223357029e-01
1.420260146713474558e-01
1.684927084814920040e-01
1.899687985407877422e-01
2.059418583268777803e-01
2.159553325554716963e-01
2.198221748525550356e-01
2.174863749448806283e-01
2.090322532482043194e-01
1.948032866453873468e-01
1.751966739515990745e-01
1.508259994785965952e-01
1.224144260591944061e-01
9.075538012943878963e-02
5.677726159191177902e-02
2.142788570228238570e-02
-1.431008102510959029e-02
-4.943583512796449753e-02
-8.298257716751045177e-02
-1.140530349827158785e-01
-1.417750457827873234e-01
-1.654343235647108001e-01
-1.844042918609956894e-01
-1.981674023828196574e-01
-2.064364513192754602e-01
-2.089781160256968806e-01
-2.058031784136895304e-01
-1.970637680863019658e-01
-1.830211041651443327e-01
-1.641760395294070973e-01
-1.410773116903822899e-01
-1.144379532429271595e-01
-8.507025921368496779e-02
-5.382350205795299186e-02
-2.163020513559572172e-02
1.056725513141843625e-02
4.184934394658545997e-02
7.131108915319242514e-02
9.809993210953169007e-02
1.214911938959768178e-01
1.407946973993969286e-01
1.555031843791636059e-01
1.652302198053400006e-01
1.696879653849303615e-01
1.688364134444729769e-01
1.626915010376066284e-01
1.514817747967521500e-01
1.355824030508626377e-01
1.154459019770287531e-01
9.172539114797001458e-02
6.511505693821725838e-02
3.641239971609785964e-02
6.489312171241039262e-03
-2.377278793460167045e-02
-5.347018751779321344e-02
-8.169999987263951158e-02
-1.076278243724555911e-01
-1.304708185254148667e-01
-1.495067020851147399e-01
-1.641891458402008619e-01
-1.740169675741778110e-01
-1.786844869054551588e-01
-1.780396669012122846e-01
-1.720192169599811527e-01
-1.608233916890472459e-01
-1.447149910554849928e-01
-1.241446498171007162e-01
-9.971715606386163944e-02
-7.209193905964024485e-02
-4.209225063193827027e-02
-1.057738907414032883e-02
2.154730231045364278e-02
5.333702064496977091e-02
8.386202254872884843e-02
1.122486966897113247e-01
1.376419015310769156e-01
1.593084428093565763e-01
1.766242674324134954e-01
1.890342983163073032e-01
1.962185648158010776e-01
1.979198654577494221e-01
1.940797633952242585e-01
1.848255770329668701e-01
1.703581569068299550e-01
1.511302749446825355e-01
1.276607755553377799e-01
1.006081500502111342e-01
7.076716361122087351e-02
3.896282214797916477e-02
6.118104532598471479e-03
-2.682000993622749019e-02
-5.891437223887477370e-02
-8.923784999807590768e-02
-1.168934886245538984e-01
-1.411088982319599339e-01
-1.611501275885907636e-01
-1.764332263778499166e-01
-1.865338427858210246e-01
-1.910964333844403784e-01
-1.900344065456333054e-01
-1.833418545906416175e-01
-1.711996911380422870e-01
-1.539963919739077425e-01
-1.321803822793046479e-01
-1.064274698976321876e-01
-7.748221926022565154e-02
-4.618105147635832852e-02
-1.346695402167824053e-02
1.970650527855882794e-02
5.236332465763660071e-02
8.352255991051699135e-02
1.122658137469905171e-01
1.377504770247661714e-01
1.591767002096038386e-01
1.759401468791080836e-01
1.875033804587432074e-01
1.934952029216307490e-01
1.937547598849388986e-01
1.881864938414801736e-01
1.769735335785700414e-01
1.603961847352829984e-01
1.388901197890073380e-01
1.130963025418114110e-01
8.370043820006481394e-02
5.156179884288346338e-02
1.760158771330605498e-02
-1.721772758762746269e-02
-5.187678662617670883e-02
-8.536077493610416678e-02
-1.167067569046935094e-01
-1.449728882739457214e-01
-1.693149326941618127e-01
-1.890294512482025846e-01
-2.034632029591163516e-01
-2.122089955158380503e-01
-2.149578119626440742e-01
-2.115679824268802411e-01
-2.021498698258606397e-01
-1.868759551623706550e-01
-1.661911316435781272e-01
-1.406526815327160673e-01
-1.109376955090484729e-01
-7.791159776978837104e-02
-4.247167663279555194e-02
-5.621665481322986324e-03
3.158955826821098489e-02
6.812050562998007985e-02
1.029421349672491048e-01
1.350440134607003018e-01
1.635437332623758400e-01
1.876173722766015517e-01
2.065601305683253119e-01
2.198720088222839153e-01
2.271077583945516620e-01
2.280891021790480422e-01
2.227638629785044788e-01
2.112255946276750951e-01
1.938292254064290787e-01
1.709851899622857330e-01
1.433337497488180734e-01
1.116281603657162669e-01
7.670120874389645127e-02
3.953420337460913925e-02
1.130347165296074433e-03
-3.746023096890440524e-02
-7.516366171777807970e-02
-1.109386113081677616e-01
-1.438083274371648179e-01
-1.728216024216460978e-01
-1.971912894456183674e-01
-2.162188037134196161e-01
-2.293243226695798609e-01
-2.361716267176252604e-01
-2.364824868060844132e-01
-2.302475943944634063e-01
-2.176088583445474067e-01
-1.988340626173822345e-01
-1.744596859370824149e-01
-1.450765812535460553e-01
-1.114728480884132900e-01
-7.455229651957620551e-02
-3.527054286886509293e-02
5.302721960290236042e-03
4.608221708218718238e-02
8.598395040125733635e-02
1.239248891880424530e-01
1.588707426969289682e-01
1.899029143275404174e-01
2.161360115062827547e-01
2.368733467658401537e-01
2.515393039703845424e-01
2.596687933964570427e-01
2.610668775454599855e-01
2.556006655500364655e-01
2.433905103012017901e-01
2.247263768451757127e-01
2.000012834443961607e-01
1.698690509637928447e-01
1.350382181566726625e-01
9.638251648683499040e-02
5.489120519551968225e-02
1.158933677496130910e-02
-3.240654660027929984e-02
-7.596595834756290910e-02
-1.179801096440225294e-01
-1.573561095904776330e-01
-1.930507974494471979e-01
-2.241627980814452914e-01
-2.498293029453488301e-01
-2.693834436433834578e-01
-2.823079202460074266e-01
-2.881879356029732886e-01
-2.869063211205248320e-01
-2.784175265092768692e-01
-2.629246051811424123e-01
-2.408287765787128776e-01
-2.126211120901036478e-01
-1.790596528762798956e-01
-1.409634972215120796e-01
-9.929294767902943630e-02
-5.512584708530354760e-02
-9.562109923593714589e-03
3.623688512847063337e-02
8.109975691471926762e-02
1.239049401009406082e-01
1.635741777149252452e-01
1.990815618887837035e-01
2.295789545846105284e-01
2.542671246816678443e-01
2.725436962565166432e-01
2.839849925330937830e-01
2.882562785836429442e-01
2.853253785815715871e-01
2.752399829713998436e-01
2.582673030141852122e-01
2.348826325154961259e-01
2.056333743925322088e-01
1.713133646821163314e-01
1.327808714937186996e-01
9.100802358974882655e-02
4.707964633537203847e-02
2.096272529663642525e-03
-4.279740196467887725e-02
-8.644772558537396068e-02
-1.277555116965941040e-01
-1.656778634239760850e-01
-1.992185386861800578e-01
-2.275689515161956611e-01
-2.499775139240861810e-01
-2.658793177417462794e-01
-2.749109158047277623e-01
-2.767877835158700783e-01
-2.715338928718729616e-01
-2.592664473630303945e-01
-2.403026859403888382e-01
-2.151852666179753792e-01
-1.845181841544686896e-01
-1.491373945140400947e-01
-1.099497708697576293e-01
-6.794867551203878642e-02
-2.422924319286243189e-02
2.010537720396823186e-02
6.394125153991236932e-02
1.061631002759668291e-01
1.457239606819460409e-01
1.816608362783715125e-01
2.130541696001249929e-01
2.391835575389869017e-01
2.593974742507735298e-01
2.732080612858560076e-01
2.803375201099273517e-01
2.805721204627600329e-01
2.739732338886768370e-01
2.606995844787618477e-01
2.410662953531124142e-01
2.155981114975514257e-01
1.848681880166090641e-01
1.496438008761551419e-01
1.107630248700243736e-01
6.913247932348150215e-02
2.575469146839837187e-02
-1.835756041530452187e-02
-6.217278932253713503e-02
-1.046533793800818457e-01
-1.448071866486604908e-01
-1.817086510019446099e-01
-2.144628496716150245e-01
-2.423365331999920436e-01
-2.646622300708190156e-01
-2.809034127893860200e-01
-2.907236540386464174e-01
-2.938414644700464984e-01
-2.902308866296884338e-01
-2.799733626267228992e-01
-2.632909767847768645e-01
-2.406302061551537919e-01
-2.124857932280397321e-01
-1.795517020219966065e-01
-1.426088023806732774e-01
-1.025056894494492388e-01
-6.020362776638168989e-02
-1.667819859264644058e-02
2.706816713990259707e-02
7.002132784239993579e-02
1.112038372796127217e-01
1.497025170760994117e-01
1.846293545142533021e-01
2.152435616321388134e-01
2.408751659206174733e-01
2.609611398989718500e-01
2.751332996095405825e-01
2.830709276815511766e-01
2.846751986368726284e-01
2.799582767648687853e-01
2.690426763499367824e-01
2.522605825516839873e-01
2.299875591263966790e-01
2.027724639160581876e-01
1.712545331040523089e-01
1.361323760362165292e-01
9.822199336689027560e-02
5.835837188232895212e-02
1.742284877491787759e-02
-2.367814616330523453e-02
-6.405098790328232761e-02
-1.028294280542987882e-01
-1.391602231218729280e-01
-1.722841375217315785e-01
-2.014957061792533866e-01
-2.261615849425126501e-01
-2.458054649427213190e-01
-2.599893117262305764e-01
-2.684564841080183117e-01
-2.710584814016475663e-01
-2.677375522928511220e-01
-2.586414553043783759e-01
-2.439622663061894459e-01
-2.240635560024042405e-01
-1.994156246109923258e-01
-1.705501024224573281e-01
-1.381426285171644397e-01
-1.028961817422514580e-01
-6.558496669916955013e-02
-2.702944638217170265e-02
1.194698447395735330e-02
5.051550407589399522e-02
8.785114458049421426e-02
1.231875037318225508e-01
1.557980151689142001e-01
1.850046187958434563e-01
2.102558156796254796e-01
2.310314987258488828e-01
2.469529728098089350e-01
2.577419160673254384e-01
2.631873644877495977e-01
2.632597200414734662e-01
2.579709801755045162e-01
2.474791091681148303e-01
2.320502682888710422e-01
2.120039329354436730e-01
1.878077015610646883e-01
1.599617486391255450e-01
1.290523283450925318e-01
9.573232941171405663e-02
6.067308672327952762e-02
2.459712094517465739e-02
-1.176367830392724412e-02
-4.768383438674821118e-02
-8.244306157983299910e-02
-1.153416336501547623e-01
-1.457454713146558167e-01
-1.730389009169300274e-01
-1.966966186741244682e-01
-2.162696284639279432e-01
-2.313563272748306310e-01
-2.417071253984511836e-01
-2.471115353708417395e-01
-2.474893774208609121e-01
-2.428753697231686992e-01
-2.333550124924727576e-01
-2.191800646430949184e-01
-2.006443992994470515e-01
-1.781463544798091991e-01
-1.521804526487954556e-01
-1.232699238763647898e-01
-9.203168381251673746e-02
-5.910574859082322330e-02
-2.515926772548992413e-02
9.114522463279865760e-03
4.302671120488414658e-02
7.590947801716754761e-02
1.071024195870096674e-01
1.359972692909737768e-01
1.620381008107404375e-01
1.846986371427609686e-01
2.035652903123427171e-01
2.182573646720065152e-01
2.284914904989207018e-01
2.340863210001680739e-01
2.348999283401316251e-01
2.309401640771984732e-01
2.222591007288383658e-01
2.090094871839298651e-01
1.914542719975366736e-01
1.698905336443433667e-01
1.447451349331719539e-01
1.164841067105750749e-01
8.564084371990716982e-02
5.282573725623136707e-02
1.866551015034398700e-02
-1.615513464791016457e-02
-5.093408672177116014e-02
-8.496627466746645152e-02
-1.175430962297414894e-01
-1.479668782384576387e-01
-1.755959530568294014e-01
-1.998083150196819924e-01
-2.200563285081567622e-01
-2.358850673506469042e-01
-2.468763220564573202e-01
-2.527752912936389040e-01
-2.533840554614104068e-01
-2.486243884960935846e-01
-2.385738860347956236e-01
-2.233544577274752529e-01
-2.032763947398821824e-01
-1.787173678463723492e-01
-1.501524274908069556e-01
-1.181890079450199638e-01
-8.346156734045398484e-02
-4.670729554269881234e-02
-8.701058877536298197e-03
2.976264662319269561e-02
6.786150012355210426e-02
1.047777251780380170e-01
1.397346176657487671e-01
1.719722723825871658e-01
2.007935013073310904e-01
2.255942174636272890e-01
2.458017075351576763e-01
2.609978234374586981e-01
2.708278392014867308e-01
2.750422465249540704e-01
2.735546118944663929e-01
2.663200164857857932e-01
2.534812427709247640e-01
2.352610137616636399e-01
2.119794381523026350e-01
1.841142209211331648e-01
1.521763847969445915e-01
1.168131396224103835e-01
7.873197791499944587e-02
3.868625786122667498e-02
-2.493273591490964558e-03
-4.396615375672677933e-02
-8.487512443027893372e-02
-1.243555400581107945e-01
-1.615716466210816715e-01
-1.957390297582924932e-01
-2.260934737915079595e-01
-2.519904556330934131e-01
-2.728438841511378610e-01
-2.881588087840734058e-01
-2.976087869541728104e-01
-3.009096322648424637e-01
-2.979799105280654947e-01
-2.888411203612392675e-01
-2.736209400794213931e-01
-2.526517953062558108e-01
-2.263093256819331267e-01
-1.951453588815232620e-01
-1.598049678047090694e-01
-1.209951175782486010e-01
-7.954692491176190705e-02
-3.631188429994072764e-02
7.808285490722469482e-03
5.188425449744971801e-02
9.499891311370953217e-02
1.362617835132299282e-01
1.747952551185273096e-01
2.098164688768358044e-01
2.405975328465405072e-01
2.664827348033929066e-01
2.869758388389532788e-01
3.016194467563927395e-01
3.101396230898304518e-01
3.123733884293476426e-01
3.082500562905847730e-01
2.979109911569766678e-01
2.815438398467510206e-01
2.595170878334397968e-01
2.323134064784471431e-01
2.004835553313772389e-01
1.647406416151193931e-01
1.258298447639791262e-01
8.458826135192112905e-02
4.191357480056775303e-02
-1.284061767660160669e-03
-4.406522485541911061e-02
-8.548952038963991695e-02
-1.246631223172255942e-01
-1.607243525171035969e-01
-1.928623944826972636e-01
-2.204016642650533653e-01
-2.427017944019739248e-01
-2.592942533842013120e-01
-2.698342380316954836e-01
-2.740656239291366925e-01
-2.719750980478677915e-01
-2.636060264841354472e-01
-2.492055050674422123e-01
-2.291738121216627677e-01
-2.039849073086219544e-01
-1.743201198160798659e-01
-1.409060261928494207e-01
-1.045771184806573162e-01
-6.625262177712282208e-02
-2.686534881872953973e-02
1.261668647056859993e-02
5.122189479625201963e-02
8.803232448656235498e-02
1.221740206878607071e-01
1.528219487159426238e-01
1.793067189057596100e-01
2.010000717868265507e-01
2.174394972567386120e-01
2.283044423168473225e-01
2.333467785294710550e-01
2.325512793038171377e-01
2.259613064196205334e-01
2.137841735449040881e-01
1.963738235440593005e-01
1.741364864345258390e-01
1.476483617577978302e-01
1.175278570095634745e-01
8.447286098031403512e-02
4.925548887337871662e-02
1.266033988462567095e-02
-2.449144530484675952e-02
-6.137116557530913896e-02
-9.717423156701601727e-02
-1.311195666142015992e-01
-1.624511802085151502e-01
-1.905091278818197842e-01
-2.146617804183116873e-01
-2.343821111758854769e-01
-2.492496036379338586e-01
-2.588916859769092027e-01
-2.631164966226462454e-01
-2.617847026389973353e-01
-2.548919608116614333e-01
-2.425774529077806552e-01
-2.250289110970965512e-01
-2.026171228711085570e-01
-1.757668346727239705e-01
-1.450041487795586947e-01
-1.109676956264216141e-01
-7.432214945393256222e-02
-3.582552208121278503e-02
3.736663659852645925e-03
4.356230576187664072e-02
8.283008345735309863e-02
1.207271429502709409e-01
1.564870307531409099e-01
1.893595216316993346e-01
2.186659687108478689e-01
2.438143889063184577e-01
2.642486135999692065e-01
2.795690088368266157e-01
2.894290372691666891e-01
2.935994539599149911e-01
2.919993166302881638e-01
2.845923759720697666e-01
2.715315337330406753e-01
2.530356934067359287e-01
2.294329082455138225e-01
2.011953541167180726e-01
1.688298838002595947e-01
1.329836373084373746e-01
9.435425242412129321e-02
5.369413143784747267e-02
1.183117706687968063e-02
-3.039689629566658113e-02
-7.212681160634226707e-02
-1.124864192955928321e-01
-1.506308121490237406e-01
-1.857543846826317790e-01
-2.170731873859688132e-01
-2.439198147481427825e-01
-2.656737838340210156e-01
-2.818190951179391779e-01
-2.919970398957247859e-01
-2.958951603362263150e-01
-2.934203404729101017e-01
-2.845704586871921626e-01
-2.694753427334743434e-01
-2.484722374742580620e-01
-2.219459963978978045e-01
-1.904857654451238280e-01
-1.547686143407047965e-01
-1.155532554168350601e-01
-7.373230751794820903e-02
-3.021938745216281794e-02
1.400949633540727463e-02
5.795076863726870975e-02
1.006171144369263637e-01
1.410494333554874191e-01
1.783065794202387533e-01
2.115646970575619512e-01
2.400556812421422159e-01
2.631118955657134606e-01
2.802460826724779697e-01
2.910180189748522994e-01
2.952173412529746077e-01
2.927470438562379540e-01
2.836363451381770373e-01
2.681508538453688528e-01
2.466074045530842473e-01
2.195388935514885898e-01
1.875892627534605228e-01
1.514857983350073045e-01
1.121183705708594658e-01
7.040490628231332870e-02
2.734566255427361980e-02
-1.601511899130458882e-02
-5.863862758736249070e-02
-9.949811965226440513e-02
-1.375795538357522663e-01
-1.719770143993454292e-01
-2.018455771309199953e-01
-2.264342088888150473e-01
-2.451933793637451897e-01
-2.576238825212920913e-01
-2.634720415297748808e-01
-2.626283738636174814e-01
-2.551077965605965114e-01
-2.412027712971952509e-01
-2.212646626272181116e-01
-1.958691190119611902e-01
-1.657292477424898713e-01
-1.316300676320378837e-01
-9.452251511329010092e-02
-5.538621136961149882e-02
-1.525385655383657002e-02
2.480796191701045705e-02
6.375421259879854308e-02
1.005948405257072187e-01
1.343593337213758732e-01
1.642131664561438109e-01
1.894128915439484695e-01
2.093024931969559299e-01
2.234495848656817829e-01
2.314746114639513186e-01
2.332166765994879709e-01
2.286677615019350185e-01
2.179129963060634223e-01
2.012837187044286269e-01
1.791655095704594025e-01
1.521172672579128582e-01
1.208244379632277821e-01
8.602448452796296330e-02
4.859588213287624470e-02
9.445547464968395701e-03
-3.047086717983951698e-02
-7.016055759294534400e-02
-1.086405218839000819e-01
-1.449601010302417892e-01
-1.781810635364030615e-01
-2.074654318912074191e-01
-2.320550977944488558e-01
-2.512589097349681722e-01
-2.645904663291539505e-01
-2.716158650808145891e-01
-2.721055723121177383e-01
-2.660000639609720885e-01
-2.533279511454945010e-01
-2.343934026862051212e-01
-2.095682726036409149e-01
-1.794150933593058883e-01
-1.446620379941048196e-01
-1.060931659011681572e-01
-6.466831599745603842e-02
-2.138842984526775903e-02
2.269142959075103050e-02
6.646710522251467190e-02
1.088456023651445670e-01
1.487813724311750352e-01
1.852454106825624225e-01
2.173272961399518033e-01
2.442289330989118601e-01
2.652209747638375470e-01
2.798219217551943250e-01
2.876194120483120953e-01
2.884143227881966198e-01
2.822184407216473123e-01
2.691255215857583649e-01
2.495248288571410844e-01
2.238876500531158664e-01
1.928618331985784695e-01
1.572775731465053950e-01
1.180119193451479032e-01
7.610558751859475279e-02
3.264410591560707592e-02
-1.125306121523510228e-02
-5.442985286466370254e-02
-9.574575242696969912e-02
-1.341378946667990402e-01
-1.685697233455626109e-01
-1.981372426551494259e-01
-2.220857344321411353e-01
-2.397287649049212876e-01
-2.506635059921836772e-01
-2.545772460780502122e-01
-2.513720557638478570e-01
-2.412025758600447045e-01
-2.243001061715985955e-01
-2.012033897153826245e-01
-1.725504434099447149e-01
-1.391322712454616528e-01
-1.019277396025919102e-01
-6.195060292538649704e-02
-2.033607014703238056e-02
2.174155105960903431e-02
6.311695852445503574e-02
1.026364282186981169e-01
1.391737065765473735e-01
1.717485696411975848e-01
1.994341712674322364e-01
2.214591736720067372e-01
2.372605668392342437e-01
2.463437147069329480e-01
2.485233786050042581e-01
2.437288612555473244e-01
2.320811974331360994e-01
2.139696485488409017e-01
1.898478044678679200e-01
1.604375253369140220e-01
1.265631343939408182e-01
8.915422976561795942e-02
4.929415190814437353e-02
8.087040682289450833e-03
-3.330821448810099283e-02
-7.371201718393638469e-02
-1.119902376016880252e-01
-1.470783327492602433e-01
-1.779473178041629799e-01
-2.037674949885399656e-01
-2.237936798140116035e-01
-2.374434279825189398e-01
-2.443939552268988846e-01
-2.443910276674394477e-01
-2.375007566740554577e-01
-2.239296556412207762e-01
-2.040495810271039101e-01
-1.785077340389584766e-01
-1.480067723068422270e-01
-1.134678093262305731e-01
-7.591133174844250098e-02
-3.641369551643727775e-02
3.851969512362080073e-03
4.370677197441341644e-02
8.200319333597405613e-02
1.176094134524977020e-01
1.494770813120201991e-01
1.767102398654044060e-01
1.984595874034022489e-01
2.141285445593925640e-01
2.232471349222510115e-01
2.255034641438319887e-01
2.208862289292377601e-01
2.094522003118022280e-01
1.915583144376647451e-01
1.677181113041372185e-01
1.385712555841243920e-01
1.050072055899056167e-01
6.796132377969682503e-02
2.851886393995847757e-02
-1.215349313124675090e-02
-5.287514751497748855e-02
-9.243802424788363781e-02
-1.296411375649251241e-01
-1.633871306747984864e-01
-1.926380112229305608e-01
-2.164614434528810971e-01
-2.341554662265628028e-01
-2.450768210907186551e-01
-2.488749605892897621e-01
-2.453737337479828806e-01
-2.345476378043893639e-01
-2.167122320381080214e-01
-1.922560475612052622e-01
-1.618460407739366058e-01
-1.263222911398357573e-01
-8.661526046844914006e-02
-4.386691324973811951e-02
7.436773949421396357e-04
4.596829566168044584e-02
9.051392887311487945e-02
1.331152833735395891e-01
1.725789886797598760e-01
2.077374899416475629e-01
2.376054942369147382e-01
2.613215340982721901e-01
2.781427432124295995e-01
2.876341435879212205e-01
2.894338741008797289e-01
2.834812199787173914e-01
2.699290418654520796e-01
2.490556629275821887e-01
2.214754090797991237e-01
1.878760117825571396e-01
1.491644081047125980e-01
1.064098797381120565e-01
6.073465546141407212e-02
1.340419711807365466e-02
-3.429021522737413230e-02
-8.105945983620477246e-02
-1.256161122225146753e-01
-1.667223860915794664e-01
-2.032922796464777249e-01
-2.342825176060834846e-01
-2.588719330900191573e-01
-2.764188261157030091e-01
-2.863971226231444289e-01
-2.886358416355918055e-01
-2.830518534672248898e-01
-2.698493893287395862e-01
-2.494751457091393398e-01
-2.224752711127454541e-01
-1.897059640397242286e-01
-1.520968642210864807e-01
-1.107272765146018328e-01
-6.680837605179042182e-02
-2.156907038324855364e-02
2.371485099010817166e-02
6.776119566948174411e-02
1.093670150839416155e-01
1.474022720094287364e-01
1.808022872534956194e-01
2.087358121212072315e-01
2.304367123916413740e-01
2.453692118417840073e-01
2.532188501096887534e-01
2.537661645427523038e-01
2.471286933802123720e-01
2.335158639464474661e-01
2.133546742747841618e-01
1.872903880732735837e-01
1.560320233701962267e-01
1.205117126833643582e-01
8.172211947427260315e-02
4.073450221855708098e-02
-1.297550964554021469e-03
-4.321976232074323243e-02
-8.389168028447097081e-02
-1.221800500905942666e-01
-1.570456539322991896e-01
-1.875521338499621660e-01
-2.128209104621922032e-01
-2.322123307460465802e-01
-2.451614888215857824e-01
-2.513071118219813993e-01
-2.505205165713222382e-01
-2.427517012391272044e-01
-2.282660002186533421e-01
-2.074284052908889620e-01
-1.807835922293732356e-01
-1.490905524251567582e-01
-1.131572103364997528e-01
-7.397429942040004147e-02
-3.259098483850245143e-02
9.903325446518930486e-03
5.236911350054720971e-02
9.367600855830671147e-02
1.327585802908695101e-01
1.685756105270694860e-01
2.001967373610860079e-01
2.268358355205746246e-01
2.477617629808762656e-01
2.624952856577409954e-01
2.706482473225115259e-01
2.720075886278078836e-01
2.665981568489627085e-01
2.545081225356042309e-01
2.360965465622330006e-01
2.118234514707439398e-01
1.822815687770661386e-01
1.482519150028923371e-01
1.105524733529327092e-01
7.014052343289278735e-02
2.802675697642040276e-02
-1.475420267756583081e-02
-5.713236764243584398e-02
-9.804488251256013309e-02
-1.364937091392338098e-01
-1.715082062042262434e-01
-2.022111062881521426e-01
-2.278698725858906982e-01
-2.477987486918399318e-01
-2.615463647409739245e-01
-2.687615619660205235e-01
-2.692460156956436035e-01
-2.630486879697096492e-01
-2.502775208903043058e-01
-2.313023600306877703e-01
-2.066092692843581324e-01
-1.768013947822821286e-01
-1.426795644793933948e-01
-1.050805266703559449e-01
-6.496832773290950325e-02
-2.336557175936467001e-02
1.869143345264761072e-02
6.014262305153905697e-02
9.993535358999239282e-02
1.370959802291648877e-01
1.706896726675645182e-01
1.998701875467021050e-01
2.239551605594515271e-01
2.423069204718233949e-01
2.545153815607094083e-01
2.602860066267231876e-01
2.594544881146521043e-01
2.521076169510980680e-01
2.383874614792516056e-01
2.186725938441069772e-01
1.934667466385193157e-01
1.633688830486253463e-01
1.291691883899254711e-01
9.169275495354325956e-02
5.187545457654210712e-02
1.071422943912317405e-02
-3.078406268317272765e-02
-7.159282317634831083e-02
-1.106903710897123028e-01
-1.471295770835735484e-01
-1.800066156294613806e-01
-2.084925082156965648e-01
-2.319238904124619194e-01
-2.496796056151273091e-01
-2.613489436626115214e-01
-2.666483967455613446e-01
-2.654050729869505965e-01
-2.577002301328419342e-01
-2.436708341969160418e-01
-2.236734048892874971e-01
-1.982029893665989695e-01
-1.678358078249262975e-01
-1.333413967737578365e-01
-9.552678705415285076e-02
-5.530033169232301260e-02
-1.363710901914880202e-02
2.847963768416013342e-02
7.004873180697648860e-02
1.100715903635270665e-01
1.476186170546046061e-01
1.818077827690082748e-01
2.118181588266623283e-01
2.369906745056685193e-01
2.567067889065158814e-01
2.705318020358186137e-01
2.781632831528446093e-01
2.793861715893641851e-01
2.742238167859969433e-01
2.627544045723673172e-01
2.452446884687503048e-01
2.221031020843131087e-01
1.938048100433406029e-01
1.610124403536181137e-01
1.244297776559077917e-01
8.486239018481672725e-02
4.319570988830950808e-02
3.328116596071351019e-04
-4.277502774860431067e-02
-8.516891741649504355e-02
-1.259184349325341568e-01
-1.641164956833496835e-01
-1.988926836682636257e-01
-2.294940873552135385e-01
-2.551999579830860343e-01
-2.754344954697858783e-01
-2.897459548198793033e-01
-2.977542755161571852e-01
-2.993115761793188612e-01
-2.943295693238802135e-01
-2.829064786550717359e-01
-2.653072148038043698e-01
-2.418638427078692033e-01
-2.131293258016730419e-01
-1.797122784700644904e-01
-1.423415314481053240e-01
-1.018581042076483756e-01
-5.912786727503195616e-02
-1.509455628777106595e-02
2.928014069799918934e-02
7.304506084271944477e-02
1.152592977485698000e-01
1.550073950045714466e-01
1.914735060728612048e-01
2.238715437413194009e-01
2.515335820078727913e-01
2.739119256498733224e-01
2.905136517187477674e-01
3.010524136416703467e-01
3.053018306781774549e-01
3.031886621483116384e-01
2.948023749229483070e-01
2.802871079811438682e-01
2.599927798772383447e-01
2.343299636138401199e-01
2.038242152543744412e-01
1.691286578579136446e-01
1.309275209007966789e-01
9.001810667284947109e-02
4.723136854289960995e-02
3.428963626157186147e-03
-4.049188210372947627e-02
-8.363736152099134069e-02
-1.251399376605102920e-01
-1.641419376787870421e-01
-1.998488959789265773e-01
-2.315428221821016208e-01
-2.585411085256992814e-01
-2.803184946962513080e-01
-2.964033250866859870e-01
-3.064516284420161774e-01
-3.102807629310517790e-01
-3.077585985288683879e-01
-2.989688320058821458e-01
-2.840704715386238033e-01
-2.633492416888849608e-01
-2.372580668802068138e-01
-2.062897527540710485e-01
-1.710978204912684264e-01
-1.323935363390030817e-01
-9.094805443982061088e-02
-4.761503015177996623e-02
-3.258070805761407313e-03
4.123584611123718574e-02
8.497175281229979449e-02
1.270852278077775066e-01
1.667558815583576048e-01
2.031851392596837613e-01
2.356895827190856330e-01
2.636319728355557279e-01
2.864697680249634337e-01
3.038028714658589369e-01
3.152711405862819172e-01
3.207002452227646905e-01
3.199928253631481034e-01
3.131595608171989231e-01
3.003808310546713933e-01
2.818764426243113297e-01
2.580366085846750868e-01
2.293249424748150800e-01
1.962812469278657490e-01
1.595702488711568112e-01
1.198800912843771965e-01
7.798518565933587610e-02
3.469849106053049526e-02
-9.152198360803102950e-03
-5.271386515535537304e-02
-9.513582148849163145e-02
-1.356046268165084778e-01
-1.733247567357653063e-01
-2.075534794340603839e-01
-2.376428910908430225e-01
-2.629732875867759057e-01
-2.830741031271138963e-01
-2.975483983863880799e-01
-3.060952731198530730e-01
-3.085937174813470074e-01
-3.049650499606364473e-01
-2.953238460300320334e-01
-2.798840674151701347e-01
-2.589512236760057040e-01
-2.330096402035561898e-01
-2.025794939308248055e-01
-1.683170830435318233e-01
-1.309516833841538053e-01
-9.125064196240009751e-02
-5.005841631628978744e-02
-8.229458624570792913e-03
3.337722154827935106e-02
7.390023427570130421e-02
1.125088646129911163e-01
1.484387082557401538e-01
1.809455715452654712e-01
2.094033039625332049e-01
2.332550940081781210e-01
2.520184909762183123e-01
2.653773071181867449e-01
2.730539492081284769e-01
2.749410548891449424e-01
2.710356005835383719e-01
2.614127425325096787e-01
2.463294232985597243e-01
2.260813093514241756e-01
2.011061603688903965e-01
1.719326768998486465e-01
1.391381672550909554e-01
1.034170513741234920e-01
6.548622430027646601e-02
2.611859508292297544e-02
-1.387550871185351531e-02
-5.368415131217267600e-02
-9.249298815195622359e-02
-1.294913611704540390e-01
-1.639214461686849256e-01
-1.950623657408305234e-01
-2.222383829264559241e-01
-2.448950611106894271e-01
-2.625088332661736912e-01
-2.746989305416279170e-01
-2.811888032135058668e-01
-2.817733267339586067e-01
-2.764453992823771022e-01
-2.652444076326399003e-01
-2.483750182498168924e-01
-2.261678657303694551e-01
-1.990150596780113079e-01
-1.674842041130401860e-01
-1.321822398067249438e-01
-9.381770507049841390e-02
-5.318000192980602836e-02
-1.107963148570708517e-02
3.161330656678264239e-02
7.401764687002798659e-02
1.152636444669065952e-01
1.544910523863176621e-01
1.908660198310127565e-01
2.236413416642163976e-01
2.520941007119910648e-01
2.756157947150225662e-01
2.936972441516901844e-01
3.058878139737384871e-01
3.119294797581228518e-01
3.116145475090228989e-01
3.048978602285916106e-01
2.918815976780204102e-01
2.727316379220549036e-01
2.478276748331733059e-01
2.176049666541411132e-01
1.826368983742791274e-01
1.436275990313716777e-01
1.013213635163030812e-01
5.659733180008733738e-02
1.036903231786016899e-02
-3.640621728887893926e-02
-8.272781923862873588e-02
-1.276003331162333110e-01
-1.700566387880742547e-01
-2.091402617257797081e-01
-2.439796054003419146e-01
-2.737906708344917672e-01
-2.978405522686882190e-01
-3.155964725463650256e-01
-3.265855177444942914e-01
-3.305112250201981405e-01
-3.272672839631707853e-01
-3.168178777558991466e-01
-2.994001241057717699e-01
-2.753332266989043098e-01
-2.451049833177443849e-01
-2.093929100797416176e-01
-1.689238955936781528e-01
-1.246092743557464383e-01
-7.741640989026514486e-02
-2.837265080900236436e-02
2.142417047620392978e-02
7.087555007547099994e-02
1.188995777880564875e-01
1.644216930276072297e-01
2.064440954870693234e-01
2.440631913131833253e-01
2.764194891213399563e-01
3.028525703699045390e-01
3.227706330571180615e-01
3.357400705515551920e-01
3.415300225913071586e-01
3.399711621019568808e-01
3.311577395947492564e-01
3.152771775393892750e-01
2.926679105365705968e-01
2.638704875734660393e-01
2.294727809013530351e-01
1.902534087990959688e-01
1.470605093439945055e-01
1.008120719901921120e-01
5.252368827113369082e-02
3.222353395286134403e-03
-4.603996273697097408e-02
-9.420272495570189419e-02
-1.402453675179817782e-01
-1.832057747940264436e-01
-2.221501306680441212e-01
-2.562953077788004408e-01
-2.849194571141568932e-01
-3.074258581175886018e-01
-3.234087342943866572e-01
-3.325156471603252228e-01
-3.346439252613572224e-01
-3.297957857447239016e-01
-3.181149550656224845e-01
-2.999706273778712795e-01
-2.757816063219537539e-01
-2.461746705432248383e-01
-2.118672553434257089e-01
-1.736523518059290283e-01
-1.324485095696698311e-01
-8.919197704954995309e-02
-4.486204351469581103e-02
-4.571039113329261605e-04
4.305228250408238422e-02
8.474432248814750546e-02
1.237188762307439571e-01
1.592075094176387262e-01
1.905050840756761232e-01
2.170055647629115514e-01
2.382832340148320904e-01
2.539565255666504928e-01
2.638510042209947226e-01
2.678956859791559175e-01
2.661219132730001657e-01
2.587551657549157502e-01
2.460607290827681037e-01
2.284612546803370670e-01
2.064613364759688707e-01
1.806182288866502450e-01
1.515931266510916475e-01
1.200641581672828029e-01
8.675176310322814388e-02
5.239928375864121024e-02
1.774340064852646809e-02
-1.649362992554612162e-02
-4.959753345360096155e-02
-8.091459664348343850e-02
-1.098256971509488644e-01
-1.357582303916132771e-01
-1.582407316098253802e-01
-1.768265641839320557e-01
-1.911877842032968511e-01
-2.010671215590080774e-01
-2.062702526447364182e-01
-2.067453245686068364e-01
-2.024725834740845887e-01
-1.935664872118992852e-01
-1.802249354585041541e-01
-1.627047571704268725e-01
-1.414016430013989578e-01
-1.167405177664936899e-01
-8.924887528254232816e-02
-5.952079253960346206e-02
-2.818054512474795631e-02
4.074219243381541067e-03
3.653327296696394499e-02
6.847164876051473059e-02
9.915442369190713423e-02
1.278645200785962222e-01
1.539325866704343571e-01
1.767042341104311798e-01
1.956198194643083976e-01
2.101868742157748660e-01
2.199730444379596195e-01
2.247089192282664127e-01
2.241647616282583799e-01
2.182748568674361955e-01
2.070949091057254776e-01
1.907537275255857256e-01
1.695847855854016872e-01
1.439686380697690615e-01
1.144366169558877488e-01
8.163661308313036047e-02
4.626322187831150012e-02
9.144614170265880082e-03
-2.886283047147338715e-02
-6.685826559496110821e-02
-1.039049515664716705e-01
-1.390776889632353297e-01
-1.714916265093757719e-01
-2.002763136458637905e-01
-2.246701490226525877e-01
-2.440033141831839392e-01
-2.576747281496292730e-01
-2.653054577533192626e-01
-2.665746373389870083e-01
-2.613698908463695236e-01
-2.497624159755332252e-01
-2.319075892938122219e-01
-2.082368387236125939e-01
-1.792513772203311873e-01
-1.456246523714685992e-01
-1.081884693323692526e-01
-6.781817689663408033e-02
-2.552932403469659883e-02
1.762907349800187790e-02
6.058995665339479697e-02
1.022689436309297817e-01
1.416050827542751078e-01
1.776318386791159998e-01
2.094118309052345195e-01
2.361477873862917187e-01
2.571828924893754253e-01
2.719301536695012955e-01
2.800644926557382952e-01
2.813361951652082471e-01
2.756967654525990796e-01
2.633083383976595471e-01
2.444048012298716266e-01
2.194872477281534784e-01
1.891342231483295611e-01
1.540675186467004854e-01
1.151654988610670005e-01
7.334065209251705575e-02
2.962437604251240419e-02
-1.491790201275874743e-02
-5.921246666310205076e-02
-1.021761448843310910e-01
-1.427453039767728749e-01
-1.799520905093761058e-01
-2.128610856548643349e-01
-2.406620152155718451e-01
-2.626937711608889336e-01
-2.783551710792624978e-01
-2.873020934355537959e-01
-2.892761346033400072e-01
-2.842034486487715061e-01
-2.722399152235828734e-01
-2.536071908266203101e-01
-2.287982647589229535e-01
-1.983987892310384304e-01
-1.631284482865607288e-01
-1.238811426522309078e-01
-8.158382511790771008e-02
-3.728225500013700178e-02
7.936695205232456585e-03
5.298162995758717853e-02
9.675506234328865030e-02
1.381765903021685837e-01
1.762681966365875208e-01
2.100913803957694115e-01
2.388240302481556276e-01
2.618091449530752235e-01
2.784431992299174485e-01
2.883743363540562377e-01
2.913493403044123964e-01
2.872764792326153449e-01
2.763032343065253693e-01
2.586359406257571214e-01
2.347367191102945894e-01
2.051715529553279072e-01
1.706237591550808785e-01
1.319581141767231236e-01
9.007271399581148752e-02
4.598650729756582900e-02
7.690916125302378614e-04
-4.449793555831028924e-02
-8.871380657545176185e-02
-1.307876514450336258e-01
-1.697123806904755339e-01
-2.045188486341025791e-01
-2.343366692283636588e-01
-2.584625126413115370e-01
-2.762419676667782209e-01
-2.872690388182436161e-01
-2.912533277106275076e-01
-2.880562925816860798e-01
-2.778074101535235041e-01
-2.606969038307931363e-01
-2.371813114143341839e-01
-2.078460984883551133e-01
-1.733870345168286864e-01
-1.347028473939812787e-01
-9.272787098099044556e-02
-4.851129285961766624e-02
-3.160054110946133171e-03
4.221552538632102752e-02
8.649941908295617765e-02
1.285861772199444475e-01
1.674706943996964736e-01
2.022013073479945744e-01
2.319206260992336399e-01
2.559617001771564149e-01
2.737061096836821417e-01
2.847759416378393138e-01
2.889263878828675081e-01
2.860399767346381017e-01
2.762669902985207537e-01
2.598153431868741592e-01
2.371267962692839015e-01
2.087781432199761755e-01
1.754332992988424933e-01
1.379465495247816920e-01
9.720726334812515579e-02
5.420433425344683975e-02
9.986588796165443704e-03
-3.439200559000872570e-02
-7.786740804859829113e-02
-1.193813047857784221e-01
-1.579558950945330331e-01
-1.926642708306657570e-01
-2.226524878053223189e-01
-2.472430474539821788e-01
-2.658027521280557082e-01
-2.779114018351111492e-01
-2.832891700237906152e-01
-2.817637589429174971e-01
-2.734321695186009427e-01
-2.584515160241414033e-01
-2.372020096941513945e-01
-2.102173824463944296e-01
-1.781105147003826383e-01
-1.416989371721181223e-01
-1.018417534439300387e-01
-5.949994163882096898e-02
-1.570767614006400581e-02
2.849304752529669554e-02
7.204269907503607628e-02
1.138836582632073713e-01
1.530300405492151794e-01
1.885498491157749645e-01
2.195718240061539095e-01
2.454006050695418661e-01
2.653857848149984711e-01
2.790702179182372733e-01
2.861483192322045177e-01
2.864036511587176315e-01
2.798841704646990447e-01
2.667012594707786066e-01
2.471673634185569957e-01
2.217595878866910342e-01
1.910233918855833712e-01
1.557114651818676532e-01
1.166246094275955603e-01
7.466781924253579339e-02
3.083519576637223925e-02
-1.386396612133437151e-02
-5.837813295171442873e-02
-1.016490540060579206e-01
-1.426624713858079541e-01
-1.804434172304420492e-01
-2.140610507606258706e-01
-2.427384749924981766e-01
-2.657419226355661190e-01
-2.825103277666441981e-01
-2.926436794778177752e-01
-2.958216152827889966e-01
-2.920019069420625168e-01
-2.812174731929207860e-01
-2.637066160380590607e-01
-2.399076342213557478e-01
-2.103275122730250968e-01
-1.757134623057217127e-01
-1.368771725597501265e-01
-9.474318528832356701e-02
-5.035079201874823052e-02
-4.756338708901824974e-03
4.093402629826810302e-02
8.560294978816010425e-02
1.281794554869269409e-01
1.676418066536025653e-01
2.030094311434373078e-01
2.334721524543957871e-01
2.582725670526518358e-01
2.768205184318563994e-01
2.887112704292107423e-01
2.936103373133729377e-01
2.914631202415824962e-01
2.823017445546820436e-01
2.663404890929869651e-01
2.440045119053653733e-01
2.157774870578500481e-01
1.823699990718719577e-01
1.445643522772890044e-01
1.032413659549935026e-01
5.940095394484792152e-02
1.406077062216274168e-02
-3.170735386197087724e-02
-7.681522124708398125e-02
-1.202064878939363424e-01
-1.608650456942021245e-01
-1.978047327586764381e-01
-2.301863145814376788e-01
-2.572231170850337034e-01
-2.782681193433581557e-01
-2.928584671232089542e-01
-3.005910247824551407e-01
-3.013287809267033990e-01
-2.950317518317083776e-01
-2.818250292225900622e-01
-2.620610424940610361e-01
-2.361477145069663108e-01
-2.047242275390077637e-01
-1.685167643359738732e-01
-1.283463171652162449e-01
-8.517019576915134393e-02
-3.996619670335126162e-02
6.225945916985241302e-03
5.234301482112395376e-02
9.734503701989383195e-02
1.402270903510169364e-01
1.800068575916466407e-01
2.158318844757606825e-01
2.469040609860322921e-01
2.725375242687103627e-01
2.922227067425289815e-01
3.054986515796355162e-01
3.121345020391151359e-01
3.119988394253603858e-01
3.050912160850161592e-01
2.916259377887763238e-01
2.718655983274914645e-01
2.462799059013312530e-01
2.154316781128507441e-01
1.799704811859716425e-01
1.406943051025127678e-01
9.842749677689083265e-02
5.408484247946454548e-02
8.623303477252812488e-03
-3.699271031834521634e-02
-8.178581633310233467e-02
-1.247852454988572224e-01
-1.650851656548038005e-01
-2.018120535801440907e-01
-2.341638105295491545e-01
-2.614723091988286896e-01
-2.831064415756995856e-01
-2.986263181134626299e-01
-3.076905028292107325e-01
-3.100718718765059778e-01
-3.057668237708838221e-01
-2.948222473856817460e-01
-2.775068854180590128e-01
-2.542085531636898432e-01
-2.254102126834741093e-01
-1.917886284735462188e-01
-1.540575675303156866e-01
-1.130568395111593571e-01
-6.969678091294997935e-02
-2.491090711830065696e-02
2.031890093934518582e-02
6.500814125341546068e-02
1.082097938559071770e-01
1.489989703504764895e-01
1.865037058613457366e-01
2.199710520561491967e-01
2.486795431504433829e-01
2.720712657682384794e-01
2.896885323520994038e-01
3.011635707092372161e-01
3.063382014954619259e-01
3.051012697949739838e-01
2.975328446909558111e-01
2.838353271265848798e-01
2.642892066088424197e-01
2.393639357218785291e-01
2.095682364643837725e-01
1.755380249030734086e-01
1.379941879629029700e-01
9.769216180985068609e-02
5.547329471410680779e-02
1.219403086441034345e-02
-3.127242847316938357e-02
-7.404122054306550016e-02
-1.152454278644679253e-01
-1.540677858150931445e-01
-1.897065048610353244e-01
-2.214574590336251259e-01
-2.486877631693795998e-01
-2.708261749056510292e-01
-2.874734434605673572e-01
-2.982726167593667821e-01
-3.030387945301933339e-01
-3.017181204204024136e-01
-2.943323858098836898e-01
-2.811209913023611229e-01
-2.623740143930179958e-01
-2.385377793570865324e-01
-2.101828880633827001e-01
-1.779272607626456448e-01
-1.425273773112185061e-01
-1.047698195191945070e-01
-6.548864094859785379e-02
-2.555732402311702844e-02
1.415783595000598416e-02
5.281834309324423549e-02
8.959613398772595105e-02
1.237475077165937354e-01
1.546019465537236681e-01
1.815400318478523345e-01
2.041118991312445285e-01
2.219123339301583564e-01
2.346862880425949482e-01
2.423147396552736699e-01
2.447367328676340326e-01
2.420858604062501862e-01
2.345459319468893300e-01
2.224199422429756767e-01
2.061236208811439430e-01
1.861052165369638800e-01
1.629210446179787941e-01
1.371548674461295914e-01
1.094234426919886982e-01
8.037611668734802317e-02
5.065971357605880687e-02
2.090526037464259662e-02
-8.262165429220921092e-03
-3.626512577472523757e-02
-6.257531359437706886e-02
-8.669080377443488805e-02
-1.082121731861195868e-01
-1.267703370847640398e-01
-1.420785421598591558e-01
-1.539386966244086219e-01
-1.621836118930118920e-01
-1.667645018441314408e-01
-1.676681296073189165e-01
-1.649533221405005134e-01
-1.587599420318359655e-01
-1.492508743713209518e-01
-1.366768240253923850e-01
-1.213156374121933667e-01
-1.034888772625758846e-01
-8.356943959416252010e-02
-6.194150642243143046e-02
-3.903048326176068727e-02
-1.527474138682368213e-02
8.878036532248452517e-03
3.296875238100120675e-02
5.654017737351230144e-02
7.914840790837598949e-02
1.003545233844973517e-01
1.197450027626551505e-01
1.369388583056679320e-01
1.515690422287208072e-01
1.633329713786974557e-01
1.719512343541167443e-01
1.771979923519850231e-01
1.789190677503043614e-01
1.769833368930759376e-01
1.713633137821185537e-01
1.620699413705720127e-01
1.491836852087089493e-01
1.328821370536817370e-01
1.133690020288507516e-01
9.096209514088374193e-02
6.602303498168483886e-02
3.897282310912945913e-02
1.031909521406292052e-02
-1.941289397548041917e-02
-4.962947030553811756e-02
-7.970993383256136378e-02
-1.090216098030745706e-01
-1.369136390050454399e-01
-1.627395834420218290e-01
-1.858929055228537575e-01
-2.057843694847460436e-01
-2.218835878568772291e-01
-2.337539981254964649e-01
-2.409896185070026786e-01
-2.433411788435441148e-01
-2.406283144411403008e-01
-2.327751723476220724e-01
-2.198798215679190760e-01
-2.020819224144395632e-01
-1.797079899645645518e-01
-1.531698444816397275e-01
-1.229636631440493011e-01
-8.973208488396482163e-02
-5.414465744258989410e-02
-1.696667503500424307e-02
2.099120167540817483e-02
5.890638960855262840e-02
9.593503735734254523e-02
1.312376218973575481e-01
1.640293045903055136e-01
1.935528613187101898e-01
2.191147819856013035e-01
2.401428502160691258e-01
2.560980744446883506e-01
2.666130320996123459e-01
2.714098943639235983e-01
2.703113409270090362e-01
2.633394184124914217e-01
2.505609402059776891e-01
2.322378707327298342e-01
2.087384422133082285e-01
1.805149721916591288e-01
1.481935218147239497e-01
1.124338920584209423e-01
7.401280337424154254e-02
3.377337450288033643e-02
-7.417104235530692924e-03
-4.864004009921020499e-02
-8.897285934915694083e-02
-1.275222622211166501e-01
-1.634125082612295499e-01
-1.958175184701153038e-01
-2.240246834942556386e-01
-2.473522988980377257e-01
-2.652844271851991231e-01
-2.774081878279258118e-01
-2.834051159081662496e-01
-2.831801670283826122e-01
-2.766888698534373248e-01
-2.640933094008590665e-01
-2.456896162718960053e-01
-2.218565920866753527e-01
-1.931758106303007594e-01
-1.602703356605072738e-01
-1.238878223533278894e-01
-8.486034510470098768e-02
-4.404468721550980348e-02
-2.358746496027262773e-03
3.927133616190645049e-02
7.994246476118253841e-02
1.187679026407995608e-01
1.548996814101820940e-01
1.875964173679550151e-01
2.161449227159144837e-01
2.399710284325748400e-01
2.586034103715784127e-01
2.716418266476066656e-01
2.788859312213174957e-01
2.801828069513175867e-01
2.755488159989295527e-01
2.651310966471943642e-01
2.491420952309328363e-01
2.279834617388942775e-01
2.021003458979019896e-01
1.720582409063895202e-01
1.385197312722728780e-01
1.021796618086206893e-01
6.382750425318868548e-02
2.427294418601830261e-02
-1.565241038192907025e-02
-5.509848344115386709e-02
-9.322726402383729738e-02
-1.292433453832771695e-01
-1.623648415185463267e-01
-1.918939524776668848e-01
-2.172068639416591673e-01
-2.377291060431058756e-01
-2.530519753409603001e-01
-2.628111061020784178e-01
-2.667942868445893900e-01
-2.649291022992281142e-01
-2.572057575785628991e-01
-2.438281100057412831e-01
-2.250563392808363483e-01
-2.012926886214131961e-01
-1.730756950473391620e-01
-1.409862519266856795e-01
-1.057493790864956207e-01
-6.812759429471935968e-02
-2.893600631694588643e-02
1.095759182371927945e-02
5.068479832615296193e-02
8.938415219605881645e-02
1.261983359984336639e-01
1.603290021366166329e-01
1.910394874654677555e-01
2.176302127290438981e-01
2.395492067742688302e-01
2.562891874166548511e-01
2.674743875397493920e-01
2.728726897807057239e-01
2.723056913436382453e-01
2.658057462880951682e-01
2.534696473563188279e-01
2.355320152478301288e-01
2.123846734145271031e-01
1.844644625989642628e-01
1.523821537428274031e-01
1.168028113826777847e-01
7.847126734889209310e-02
3.822735771992849529e-02
-3.073426356111227942e-03
-4.452491016824659115e-02
-8.520561692295829104e-02
-1.242137873793837388e-01
-1.606721984317813767e-01
-1.937266330572490203e-01
-2.226361478608964162e-01
-2.467000198724132454e-01
-2.653343089268454524e-01
-2.781067944010464643e-01
-2.846373618662931815e-01
-2.847787592659712375e-01
-2.784675845125550997e-01
-2.657925242387372822e-01
-2.470486093340284461e-01
-2.225834218831330702e-01
-1.929654384567284775e-01
-1.588451071411220994e-01
-1.209696951991858782e-01
-8.022362297709823009e-02
-3.751380802458759156e-02
6.178633723313061571e-03
4.984466245208436092e-02
9.248828550259573233e-02
1.331329258224788481e-01
1.708210509149625245e-01
2.047082203621273799e-01
2.339967992033317734e-01
2.579959697989583356e-01
2.761801819920756684e-01
2.880714586748189809e-01
2.934193458501692109e-01
2.920703284359255081e-01
2.840056770418374343e-01
2.694243863695476859e-01
2.485755407368503422e-01
2.219254750435164514e-01
1.900367487375731468e-01
1.535659986758539097e-01
1.133284540819024244e-01
7.016799886975658151e-02
2.502945157224725770e-02
-2.109601297280710303e-02
-6.720674677409595177e-02
-1.122829841128535344e-01
-1.553114503435702176e-01
-1.953456316097416101e-01
-2.314717902590754939e-01
-2.628530179219623619e-01
-2.887943366879661133e-01
-3.086404991108740448e-01
-3.219418896664333896e-01
-3.283531975529319080e-01
-3.276530078504572563e-01
-3.198585269700689460e-01
-3.050410741635116163e-01
-2.835108764811308801e-01
-2.557044649937037506e-01
-2.221623169955437849e-01
-1.836335185564919592e-01
-1.409071513797622854e-01
-9.491142962883131196e-02
-4.665124074797319387e-02
2.841458639241235297e-03
5.247890006462001267e-02
1.011700578237725023e-01
1.478626530913028370e-01
1.915269788741172652e-01
2.311925173858773164e-01
2.660198346534503600e-01
2.952048290526690377e-01
3.181303592624005749e-01
3.342921597429069913e-01
3.432923615533083339e-01
3.449774957343661463e-01
3.392494516942157201e-01
3.262415881852784860e-01
3.062331371827916593e-01
2.796013627682361058e-01
2.469574748756946103e-01
2.089613120704022775e-01
1.664346168996939657e-01
1.203056685166302708e-01
7.154609327461977641e-02
2.123375605110895681e-02
-2.953579150175737744e-02
-7.965533999478222049e-02
-1.280097237056033177e-01
-1.735152441575550375e-01
-2.151731468824177318e-01
-2.520098956527386247e-01
-2.832018549190803980e-01
-3.080331084321865087e-01
-3.258783447603230132e-01
-3.363609438318584943e-01
-3.391644467587298650e-01
-3.342123242579447262e-01
-3.216080740330868326e-01
-3.015567999725897730e-01
-2.745511995955267626e-01
-2.411496399911684796e-01
-2.021065229479910019e-01
-1.583298578926886635e-01
-1.107818139685093906e-01
-6.057996077503260968e-02
-8.874057423017112090e-03
4.315131968865101864e-02
9.428310978138509935e-02
1.433303873480647472e-01
1.891771292474382360e-01
2.307305871543407494e-01
2.670394553561864504e-01
2.972733120291616293e-01
3.206819391709945233e-01
3.367764900230147407e-01
3.451362164535848320e-01
3.455706910124746734e-01
3.380950345863575901e-01
3.228151824068364872e-01
3.001378998176050250e-01
2.705470084822590993e-01
2.347176722597191234e-01
1.935033670969524000e-01
1.478113020847911518e-01
9.872614050753696080e-02
4.737689273135863022e-02
-5.054632515641005464e-03
-5.733524929735081543e-02
-1.082410230923684102e-01
-1.565932318541005119e-01
-2.012292192802037083e-01
-2.411008177336562142e-01
-2.752761884825197791e-01
-3.028901736305130155e-01
-3.233343779538607743e-01
-3.360760567852674741e-01
-3.408037387941881269e-01
-3.374407170540780210e-01
-3.259965238833429924e-01
-3.068095261586459288e-01
-2.803153442552244745e-01
-2.471460614311732362e-01
-2.081514162528221024e-01
-1.642357231500962134e-01
-1.165029603189288304e-01
-6.611641407945885451e-02
-1.429283416307842308e-02
3.768918266494196423e-02
8.855813195747438971e-02
1.370936408753098412e-01
1.820942168020977525e-01
2.224712558964783149e-01
2.572725452409881375e-01
2.856061688187682690e-01
3.068461507256451393e-01
3.204566655947391762e-01
3.261055847340287306e-01
3.237177819098238651e-01
3.132947504104970915e-01
2.951607901761968411e-01
2.697523421862330073e-01
2.376815512155163179e-01
1.997920626415454204e-01
1.569782359147624817e-01
1.103313568578618287e-01
6.101286080508819265e-02
1.023521066705696675e-02
-4.071896619929966238e-02
-9.056970838858199868e-02
-1.380832344253285771e-01
-1.820448289746677828e-01
-2.213431158459018278e-01
-2.550153627622473440e-01
-2.821542771798410953e-01
-3.021270233235214819e-01
-3.144101391540657930e-01
-3.186761458012166148e-01
-3.148918964909773743e-01
-3.030998448998113992e-01
-2.836802565682485233e-01
-2.571526013977686320e-01
-2.241997244865387984e-01
-1.857606176724340696e-01
-1.428228597504593578e-01
-9.655532798457908128e-02
-4.820410999423080378e-02
9.578827434691128406e-04
4.961412411291794833e-02
9.645684040877158805e-02
1.402719172967459571e-01
1.798883027726003725e-01
2.142537733039379111e-01
2.425199269252817369e-01
2.638972871370404150e-01
2.778959463545009889e-01
2.841672416084122244e-01
2.825402859387567966e-01
2.731622456610228733e-01
2.562510377073157208e-01
2.323303711729841625e-01
2.020740160740972513e-01
1.662785034418017283e-01
1.259692682118806473e-01
8.221142009896081904e-02
3.619393231149048429e-02
-1.083108356999153143e-02
-5.761232114859891895e-02
-1.029010485254799601e-01
-1.454627493625452461e-01
-1.841894078348064179e-01
-2.180412510597104503e-01
-2.460927210056387815e-01
-2.676521741762039608e-01
-2.820867297707482790e-01
-2.890513698431034229e-01
-2.883625469042622180e-01
-2.799836715710956048e-01
-2.641912971916177133e-01
-2.413279959262313312e-01
-2.119937965001409408e-01
-1.769394044883298434e-01
-1.370017462907146544e-01
-9.320825726155113067e-02
-4.661940741640724362e-02
1.629940246081262867e-03
5.035956237091593346e-02
9.840339043317623824e-02
1.446303943386824664e-01
1.879254934910541686e-01
2.272982424278938984e-01
2.618379739605216638e-01
2.907220771809077009e-01
3.133432060788262641e-01
3.291454657167462439e-01
3.377997750530757903e-01
3.391285538726979132e-01
3.330584444166754809e-01
3.197800390102629731e-01
2.995421238033067479e-01
2.727982861444480100e-01
2.401449704327212054e-01
2.022490808685283858e-01
1.599618428207771892e-01
1.141723337616759038e-01
6.586206098699828870e-02
1.607985512936016548e-02
-3.411668623161834280e-02
-8.364922913267226756e-02
-1.314398641662926914e-01
-1.764711348468998853e-01
-2.177716151616754248e-01
-2.544245943723469905e-01
-2.856743126675276856e-01
-3.108069133319573130e-01
-3.292937998000876609e-01
-3.407536384895393788e-01
-3.448941566421907523e-01
-3.416912411982622189e-01
-3.311861438764755472e-01
-3.136320559831554666e-01
-2.894580974298863740e-01
-2.591676497779581978e-01
-2.234925002691540152e-01
-1.832182259655968648e-01
-1.392483301935299456e-01
-9.258853837172148493e-02
-4.426347381750852378e-02
4.648243469346110407e-03
5.305821583404454755e-02
9.991603375893823302e-02
1.442056750675108912e-01
1.849513471547037380e-01
2.213198525788864224e-01
2.525180396672246919e-01
2.779080154158787286e-01
2.969986389452741737e-01
3.093685174655045333e-01
3.148422222616681365e-01
3.133114376046382543e-01
3.048482388911187280e-01
2.897027429903940576e-01
2.681876588206281165e-01
2.408379889354204662e-01
2.082497845546196769e-01
1.711388572897001858e-01
1.303444412691974752e-01
8.673410559380703710e-02
4.127167314582159963e-02
-5.053184553416897873e-03
-5.124260708517427987e-02
-9.628992195748595218e-02
-1.392047979180751627e-01
-1.790717616429568504e-01
-2.149998570354383909e-01
-2.462026181600421304e-01
-2.720109960393397586e-01
-2.918082199026472701e-01
-3.051934331236509923e-01
-3.118343473950280220e-01
-3.115650588980574121e-01
-3.044149050867326345e-01
-2.904752417282999710e-01
-2.700882938298877489e-01
-2.436775407867298737e-01
-2.118056091216500847e-01
-1.752056320260921285e-01
-1.346492284542158135e-01
-9.105352458196733223e-02
-4.538360651783987509e-02
1.359869029394271400e-03
4.813074305864594588e-02
9.388728473152752052e-02
1.376281303510029919e-01
1.783675466337735771e-01
2.152002650650793880e-01
2.473285944888404253e-01
2.739970713822066362e-01
2.946494425231617198e-01
3.088035610871151526e-01
3.161242622346800979e-01
3.164815870259061192e-01
3.098024650068437746e-01
2.962651736632461175e-01
2.761445141905622402e-01
2.498515879343866097e-01
2.179962132972155797e-01
1.812317185759071414e-01
1.403880217307748035e-01
9.636522793894825023e-02
5.012233620206471563e-02
2.707940140579307570e-03
-4.482040857454411970e-02
-9.139566984337828270e-02
-1.359476725891556048e-01
-1.774558559899561683e-01
-2.149787846026838256e-01
-2.476070294138768557e-01
-2.746071276730276400e-01
-2.953231768649474676e-01
-3.092345383951173310e-01
-3.160455844815500681e-01
-3.155187814339710517e-01
-3.076901678683298114e-01
-2.927208187611563539e-01
-2.709149042735798374e-01
-2.428250262429386686e-01
-2.090552015195954461e-01
-1.704172075841847989e-01
-1.278215869297214258e-01
-8.224347462788184071e-02
-3.477474115819405992e-02
1.347850076690151541e-02
6.139495819663878806e-02
1.078462413630642824e-01
1.517503087573917608e-01
1.921136567132992190e-01
2.279728129184513397e-01
2.585401149490449413e-01
2.831197582437234295e-01
3.011343765010494056e-01
3.122415948877003133e-01
3.161541423077788293e-01
3.128364362449010949e-01
3.023899115486645139e-01
2.850343129794575825e-01
2.612339272480318497e-01
2.315031154996277651e-01
1.965462552507692973e-01
1.571756603737116398e-01
1.142634210022357988e-01
6.880981645547329384e-02
2.183573308680166608e-02
-2.560022039379072217e-02
-7.241718579827803592e-02
-1.175576039446161181e-01
-1.600180257524985716e-01
-1.988144580067531253e-01
-2.330938808690479203e-01
-2.620846946242880726e-01
-2.851058797948048951e-01
-3.016912286153019540e-01
-3.114258167337227157e-01
-3.141245020867448057e-01
-3.097511905982190950e-01
-2.983763121448257949e-01
-2.803323898519207158e-01
-2.560085430600317902e-01
-2.259920512544539295e-01
-1.910044055560535803e-01
-1.518282231664360160e-01
-1.094009361893010790e-01
-6.468904579423012668e-02
-1.870918402063968811e-02
2.748658845013939728e-02
7.286133109827473697e-02
1.164220846341490478e-01
1.571914271838498189e-01
1.943042657010212726e-01
2.269785594487968572e-01
2.545023868106889853e-01
2.763621218216268383e-01
2.920925188848755849e-01
3.014165187691283943e-01
3.042023450828895692e-01
3.003971309912069065e-01
2.901774613962648797e-01
2.737736013100415255e-01
2.515770590618451874e-01
2.241093416611342759e-01
1.919428976150103217e-01
1.558016281005217274e-01
1.164436724978646365e-01
7.469505492747133268e-02
3.143895355052384044e-02
-1.243543915499032565e-02
-5.602468317826306277e-02
-9.842476841444347535e-02
-1.387764059474576872e-01
-1.762596288614974582e-01
-2.100909306661314369e-01
-2.396110488405783778e-01
-2.641948786008655459e-01
-2.833500159482585934e-01
-2.967058933028072221e-01
-3.039527992088554287e-01
-3.049904448652749345e-01
-2.997746057950734788e-01
-2.884192744064809633e-01
-2.711901266777489994e-01
-2.484080524554889147e-01
-2.205857878904768365e-01
-1.882872931136740924e-01
-1.521775239452205220e-01
-1.130225393139787371e-01
-7.160986294067735181e-02
-2.879706414426773387e-02
1.454053314864516000e-02
5.753307877598526354e-02
9.931644427407457232e-02
1.390454968106469846e-01
1.759559102790881346e-01
2.093086948206602793e-01
2.384608379941985934e-01
2.628740862522106481e-01
2.820547066536910896e-01
2.956868248614360484e-01
3.035093848681485462e-01
3.053916008344872979e-01
3.013511645044823495e-01
2.914530540711125495e-01
2.759491657121452834e-01
2.551503355769267345e-01
2.294735062456640939e-01
1.994619078887512331e-01
1.656898848456692108e-01
1.288507916888719795e-01
8.967636560986920469e-02
4.893969360739557073e-02
7.465250985343119261e-03
-3.391932336048841812e-02
-7.438664290573726579e-02
-1.131105182291565758e-01
-1.493080345913634366e-01
-1.822524684272288087e-01
-2.112447581285454845e-01
-2.357184111987118968e-01
-2.551552429684292300e-01
-2.691496092601819989e-01
-2.774484621012395791e-01
-2.798452814394001287e-01
-2.763415532622885973e-01
-2.670165724221645887e-01
-2.520730278578935946e-01
-2.318883345640797566e-01
-2.068807675084968489e-01
-1.776380475218653499e-01
-1.448133859563659476e-01
-1.091245289938061469e-01
-7.138461018022471127e-02
-3.241952171601972243e-02
6.912173814586142218e-03
4.573936621746405029e-02
8.321773887313443918e-02
1.185444964621494846e-01
1.509373218361945157e-01
1.797291165796529588e-01
2.043022014248671026e-01
2.241317264398345888e-01
2.388427774944732462e-01
2.481002617437694791e-01
2.517569111058876041e-01
2.497488775009821249e-01
2.421158888152100119e-01
2.290723121916846128e-01
2.108710077307048292e-01
1.879285520093054995e-01
1.607372173608878629e-01
1.298558871665182468e-01
9.596061036695704982e-02
5.974797643639892519e-02
2.198290014718267543e-02
-1.653691351629420214e-02
-5.500994117252011595e-02
-9.262797360596367047e-02
-1.285885909207361566e-01
-1.621443376002374981e-01
-1.925758172966476334e-01
-2.192205833379203272e-01
-2.415260830027456396e-01
-2.589693780100775777e-01
-2.711794137678640304e-01
-2.778655349708629707e-01
-2.788259654340997096e-01
-2.740376672757465215e-01
-2.635179048520641110e-01
-2.474601340316013032e-01
-2.261550867194332126e-01
-1.999706443494673191e-01
-1.694363110766002045e-01
-1.351137051071591710e-01
-9.767899638509812410e-02
-5.787434691006478060e-02
-1.647218751924071911e-02
2.568951182873768779e-02
6.776372928626653303e-02
1.089011039774587242e-01
1.482509719565684447e-01
1.849894171518178809e-01
2.183548646885519751e-01
2.476046462381815694e-01
2.721088705425188659e-01
2.913087475980750130e-01
3.047195935250609500e-01
3.120349282955556802e-01
3.129910648701313969e-01
3.075163239036181606e-01
2.956653739402023695e-01
2.775847700093345694e-01
2.536505672794937549e-01
2.242893386737916661e-01
1.901091594765965398e-01
1.518428151820141736e-01
1.102821297557129154e-01
6.637082652381257053e-02
2.108179167028345624e-02
-2.455890560007464862e-02
-6.948706241527308203e-02
-1.126538422881933621e-01
-1.530560228830758485e-01
-1.897072298995227668e-01
-2.217487256438158139e-01
-2.484174975112314887e-01
-2.690341203634368239e-01
-2.831593372055281610e-01
-2.904132331115924504e-01
-2.906490849049390701e-01
-2.839027777012202991e-01
-2.703065055106686487e-01
-2.502761185427289092e-01
-2.242935212143806201e-01
-1.930246363607137361e-01
-1.572858705007522950e-01
-1.179415439502233126e-01
-7.599768749487442743e-02
-3.249057918365044761e-02
1.151823558629275213e-02
5.494563640817057282e-02
9.673028767831581831e-02
1.358877765705338025e-01
1.714569665737326609e-01
2.026057291707347163e-01
2.286169873405449748e-01
2.488424460759306456e-01
2.628666186361487966e-01
2.703358802315617981e-01
2.710906214496705546e-01
2.651519080748004908e-01
2.526143506141197981e-01
2.338244174912567641e-01
2.091950752339253872e-01
1.792930258069510008e-01
1.448344625828415777e-01
1.065780521067054981e-01
6.542658504612097747e-02
2.232040580788918413e-02
-2.175791357767587614e-02
-6.578292510599276222e-02
-1.087356056457023656e-01
-1.496317388383835434e-01
-1.874996426857689080e-01
-2.214561594703542413e-01
-2.507119865817990512e-01
-2.745288327515061910e-01
-2.923723073587964350e-01
-3.037701263006755137e-01
-3.084230822897473523e-01
-3.062235793567741893e-01
-2.971315782761290158e-01
-2.813726752981064450e-01
-2.592542011519456402e-01
-2.312422236263919073e-01
-1.979863190987079524e-01
-1.601818698027734633e-01
-1.186967164147153253e-01
-7.445248289833783506e-02
-2.842416195267055690e-02
1.834883180677110426e-02
6.482714009907394881e-02
1.099912927481450919e-01
1.528301598732114130e-01
1.924061891834566440e-01
2.278746071934328876e-01
2.584318280929347456e-01
2.834632374181429437e-01
3.024208993402141554e-01
3.149029442203667428e-01
3.206998408640273635e-01
3.196584652735653398e-01
3.118697133209059613e-01
2.975130063107753742e-01
2.769049420016872487e-01
2.505507529440831327e-01
2.189990671595835325e-01
1.829745247742295133e-01
1.432677304147474961e-01
1.007337722462224583e-01
5.632030604535614993e-02
1.098621328902849026e-02
-3.428432046645174536e-02
-7.849800295524450577e-02
-1.206970753636855131e-01
-1.599771973628200117e-01
-1.954596735622025072e-01
-2.264055254790100502e-01
-2.521340807714756438e-01
-2.720803313619191144e-01
-2.858606594865346073e-01
-2.931413387875457799e-01
-2.938243406033912986e-01
-2.879133291188430976e-01
-2.755448020863946468e-01
-2.570727464433382181e-01
-2.328988216950109158e-01
-2.036253688173023102e-01
-1.699446921685955347e-01
-1.326232755569963506e-01
-9.255425927939178732e-02
-5.064966011464341888e-02
-7.870856621709203943e-03
3.479805904739064620e-02
7.639400807936387594e-02
1.159918703027693343e-01
1.526849378855650308e-01
1.856840850750561822e-01
2.142582620084332312e-01
2.377684852655149172e-01
2.557480016879885576e-01
2.677731005663481767e-01
2.736266696395144860e-01
2.731977000754740037e-01
2.664839084264814528e-01
2.536951051147721681e-01
2.350866391684983125e-01
2.111028628617248604e-01
1.822893703101962637e-01
1.492648681734458083e-01
1.127965822221807524e-01
7.367861782292781103e-02
3.278761355128922972e-02
-8.953731809192608249e-03
-5.061728635825855915e-02
-9.126428744458869868e-02
-1.299609857703939442e-01
-1.658387026648855678e-01
-1.980670052661180902e-01
-2.258798790390881550e-01
-2.486556396012659098e-01
-2.658098146389385463e-01
-2.769458364911392967e-01
-2.817821172811273978e-01
-2.801390780937714209e-01
-2.720745310859583044e-01
-2.576991349102129014e-01
-2.373356396307675920e-01
-2.114422674158902837e-01
-1.805585475415542041e-01
-1.454201524781366939e-01
-1.068016626714341499e-01
-6.558750869340801426e-02
-2.273536727276612157e-02
2.078295972098824496e-02
6.396241315392832416e-02
1.057967914443496693e-01
1.453340878232475264e-01
1.816601271812744445e-01
2.139160168475787438e-01
2.413914925105988263e-01
2.634143381264703598e-01
2.794907145363266787e-01
2.892566891436425536e-01
2.924364506595042990e-01
2.889978775607524031e-01
2.789657390052901476e-01
2.625644559175595583e-01
2.401702883795061583e-01
2.122327082944000798e-01
1.794096070270491672e-01
1.424054277677896108e-01
1.020438074334929779e-01
5.924304890242865218e-02
1.494522702560682412e-02
-2.984086793928318604e-02
-7.409455192149337621e-02
-1.168156165500118665e-01
-1.570208442058620701e-01
-1.937634892702171929e-01
-2.262158554101251773e-01
-2.535833988808348649e-01
-2.752253944363179383e-01
-2.906343613984066487e-01
-2.993798677074229198e-01
-3.012841293881869387e-01
-2.962347927067143227e-01
-2.843231815686144137e-01
-2.658248572466692106e-01
-2.410891927027339621e-01
-2.107110355976436478e-01
-1.753478195672524276e-01
-1.357927580110796506e-01
-9.296731376004523095e-02
-4.782227885943814844e-02
-1.401799019063561941e-03
4.522792086632788922e-02
9.100846663449166374e-02
1.348891079310872987e-01
1.758472174036133928e-01
2.129722769615239597e-01
2.453877460796697607e-01
2.723553424908323195e-01
2.932791690007382490e-01
3.076284926097368477e-01
3.151213224973614113e-01
3.155486414538695716e-01
3.088864446276823328e-01
2.953096818980442961e-01
2.750589534559806926e-01
2.486237473361878614e-01
2.165675717484989160e-01
1.795880102801802047e-01
1.385331998522386643e-01
9.428472779502135304e-02
4.784347215159766992e-02
2.457243336704464237e-04
-4.745666068282312910e-02
-9.419358233735997121e-02
-1.389095514975994539e-01
-1.806261906302839282e-01
-2.183920196459311902e-01
-2.513645936903680655e-01
-2.788349937155913949e-01
-3.001477849250269725e-01
-3.148823789554315300e-01
-3.226985372137352037e-01
-3.234261645015368281e-01
-3.171127551525978472e-01
-3.038676791865937976e-01
-2.840600495670702053e-01
-2.581501922983574504e-01
-2.267302028368506084e-01
-1.905681493068746291e-01
-1.504672371590137503e-01
-1.073617858111965695e-01
-6.223319048310697876e-02
-1.608304373685066208e-02
3.005894613575522609e-02
7.517158127087966712e-02
1.182976131120355989e-01
1.585053289056510828e-01
1.949486570808796893e-01
2.269063840228189299e-01
2.536980974535538724e-01
2.748398290952315803e-01
2.899267171984364899e-01
2.986817161035010271e-01
3.010223466341026555e-01
2.969144067872899195e-01
2.865372428770458502e-01
2.701594408964926863e-01
2.481545738887068753e-01
2.210630758894510106e-01
1.894594730632776503e-01
1.540536268362240890e-01
1.156141569473887465e-01
7.495113757129195919e-02
3.294332617642420358e-02
-9.523212601883601636e-03
-5.155644569158102791e-02
-9.226205838648489366e-02
-1.307799838467815501e-01
-1.663098420384038489e-01
-1.980733497436961144e-01
-2.254185712298080735e-01
-2.477541573211374248e-01
-2.645831830010215158e-01
-2.755801511188546993e-01
-2.804626539240663852e-01
-2.791543266762762099e-01
-2.716815479887728646e-01
-2.581790518625216579e-01
-2.389867940713250594e-01
-2.144880569201976783e-01
-1.852434900190115252e-01
-1.519059201991297403e-01
-1.151903706668814253e-01
-7.593444127874202088e-02
-3.499543095778145929e-02
6.721742995055478287e-03
4.828649179560334792e-02
8.878308997524456125e-02
1.273273918992668952e-01
1.630496012777084558e-01
1.951816435352107248e-01
2.230134133407679631e-01
2.459113646330476355e-01
2.634080133079054753e-01
2.750761456824036277e-01
2.806783409386495731e-01
2.800899209662996991e-01
2.732810933475747772e-01
2.604361693017937518e-01
2.417858149291530756e-01
2.177419511338303248e-01
1.888289054280436474e-01
1.556383326858540306e-01
1.189195841591259850e-01
7.945253212426808820e-02
3.810262374203907121e-02
-4.209305874871310804e-03
-4.655443454157913441e-02
-8.798617271901022774e-02
-1.275599719948313227e-01
-1.643907361807935286e-01
-1.976336806688843706e-01
-2.265015501023349143e-01
-2.503569743856323693e-01
-2.686009128537954482e-01
-2.808175080892502673e-01
-2.867204685550814314e-01
-2.861156757810988660e-01
-2.790567435493700454e-01
-2.656542663194650378e-01
-2.462219897153287151e-01
-2.212237053426948652e-01
-1.911949392232044076e-01
-1.568695089269486198e-01
-1.190236918505953589e-01
-7.853337012917910309e-02
-3.635124941728758163e-02
6.559443151946627026e-03
4.920943573083699091e-02
9.060809557851282059e-02
1.298223325074069623e-01
1.659654262371949851e-01
1.982005461389411416e-01
2.258464559681244710e-01
2.482627273170705529e-01
2.649757532715261155e-01
2.756522885415984003e-01
2.800339889730583121e-01
2.780998097857426132e-01
2.698880962512154036e-01
2.556128066136395538e-01
2.356421956611227664e-01
2.104039756877579825e-01
1.805174705870001284e-01
1.466492803375469556e-01
1.095641679251841694e-01
7.011695835150573430e-02
2.918021261543478351e-02
-1.232002167688070124e-02
-5.344636543802832457e-02
-9.328454837122487908e-02
-1.309424390428345075e-01
-1.655578572651938141e-01
-1.963820606528528800e-01
-2.226996441612183464e-01
-2.439255324142630688e-01
-2.596050258943647382e-01
-2.693440161160156054e-01
-2.729736912114521519e-01
-2.703897157050647593e-01
-2.616549313432700585e-01
-2.470068051377803942e-01
-2.267408679082956735e-01
-2.013676341791321156e-01
-1.714596016546467427e-01
-1.376989175556110334e-01
-1.008873256482742953e-01
-6.185018419392106226e-02
-2.149245031208285930e-02
1.925861669964279432e-02
5.948267156300440783e-02
9.826724560235386430e-02
1.347203444605216127e-01
1.680454692839374042e-01
1.974778926777374655e-01
2.223610941858449319e-01
2.421672551164292253e-01
2.564176805873034093e-01
2.648421264170544576e-01
2.672395824030820433e-01
2.635538593721646339e-01
2.539086469330226192e-01
2.384789045701886656e-01
2.176504845475337180e-01
1.918811842706253379e-01
1.617359214789395039e-01
1.279185553034969669e-01
9.116130821838178133e-02
5.230218374340741411e-02
1.221601195353617594e-02
-2.820519051618609885e-02
-6.804615699127850026e-02
-1.063992849681060504e-01
-1.424112969405388895e-01
-1.752501972127943342e-01
-2.041626016192769066e-01
-2.285064150053696119e-01
-2.476788216266869180e-01
-2.612662183893753043e-01
-2.689292041288506852e-01
-2.704602115427567344e-01
-2.658465626092277878e-01
-2.551260070128661961e-01
-2.385604773356752584e-01
-2.165028816741367823e-01
-1.894175038583426340e-01
-1.579405336286455186e-01
-1.227423051506496970e-01
-8.462520018955047019e-02
-4.444707645993160872e-02
-3.096525319745843663e-03
3.848846646538295335e-02
7.936952223841900467e-02
1.186377285593767650e-01
1.553978070422046276e-01
1.888136051312762631e-01
2.181488304328064176e-01
2.426991211715141539e-01
2.619287710607423603e-01
2.753804960888950326e-01
2.827096482570308211e-01
2.837700115272556167e-01
2.784631490150637489e-01
2.669101147550401176e-01
2.493381550453732109e-01
2.260821588651847347e-01
1.976748781529522048e-01
1.646893366013973403e-01
1.278576000679945146e-01
8.799189860341335989e-02
4.595332539566718971e-02
2.696379779956084577e-03
-4.081226649885280611e-02
-8.359269483839454340e-02
-1.246582915230831090e-01
-1.630588687492630640e-01
-1.979181494493116311e-01
-2.283848574618010940e-01
-2.537591297577587723e-01
-2.734248625216511575e-01
-2.868703100418519836e-01
-2.938032380356145334e-01
-2.939832777056868851e-01
-2.874080291816048516e-01
-2.742123162634529931e-01
-2.546420088190686770e-01
-2.291860253641375134e-01
-1.983831863940709039e-01
-1.629539197753800961e-01
-1.237279416210130822e-01
-8.158680095957408784e-02
-3.752921221529475354e-02
7.427811395064161382e-03
5.224856251719364741e-02
9.588568987370590935e-02
1.373236119428453417e-01
1.756246786764975032e-01
2.098750601015532680e-01
2.393057136800402773e-01
2.632428493084568166e-01
2.811015437206996759e-01
2.925198726041671748e-01
2.971882453518555067e-01
2.950147245090070092e-01
2.860568544941569646e-01
2.704662073241994036e-01
2.486386850714589758e-01
2.210237174033023444e-01
1.882458261922530796e-01
1.510551126745295347e-01
1.102544496213722081e-01
6.678748762256005167e-02
2.162566577695981818e-02
-2.421346499857960494e-02
-6.967782958753672429e-02
-1.137280288793305061e-01
-1.553645572339398262e-01
-1.936022988471738371e-01
-2.275644239416626524e-01
-2.564588518731854005e-01
-2.795639174420458395e-01
-2.963692308827327593e-01
-3.064179243923406126e-01
-3.094614718801552700e-01
-3.054216100209466433e-01
-2.943096972127740019e-01
-2.764125945916185989e-01
-2.520840852679510080e-01
-2.218704083267911131e-01
-1.864820456310994357e-01
-1.466872223538086550e-01
-1.034335941200090481e-01
-5.771044928200066981e-02
-1.056954343913876077e-02
3.688169960406007669e-02
8.354186362292165269e-02
1.283381141205965636e-01
1.702089471813582056e-01
2.081924988534301080e-01
2.414196284563416284e-01
2.690821776462531956e-01
2.905888870091277720e-01
3.054085780381936566e-01
3.132046914896417511e-01
3.138297806291377445e-01
3.072143896462781187e-01
2.935675323660388303e-01
2.731748679886606412e-01
2.465013488542632247e-01
2.141938442846317292e-01
1.769527280340769670e-01
1.356676260398033129e-01
9.128022975999554312e-02
4.480244670056505313e-02
-2.679424133645268158e-03
-5.007616985751874028e-02
-9.630150096756454059e-02
-1.402725591502773650e-01
-1.809795898707771133e-01
-2.174937141890151415e-01
-2.489330126156242828e-01
-2.746125836402920073e-01
-2.939099545945983993e-01
-3.063763484174675811e-01
-3.117636498584682725e-01
-3.098935751981818920e-01
-3.008719393245610219e-01
-2.848956640609105473e-01
-2.623347763075050132e-01
-2.337681331005878604e-01
-1.998268156055440503e-01
-1.613443987025649784e-01
-1.192206682088247094e-01
-7.442538524552914925e-02
-2.801645443367400262e-02
1.894222429808474495e-02
6.538476630050522875e-02
1.102461916490922456e-01
1.525242464452964963e-01
1.912992399876922156e-01
2.256892845972496842e-01
2.549937392436380512e-01
2.785785771783857445e-01
2.959519066220254180e-01
3.068171863103045793e-01
3.109337473688411069e-01
3.083079366079701789e-01
2.990395517923043478e-01
2.833654418842456724e-01
2.617191586266147674e-01
2.345783363658189291e-01
2.026006601844085320e-01
1.665143198513467371e-01
1.271127740790316818e-01
8.528725589004620966e-02
4.194175394806409773e-02
-1.988825988874107220e-03
-4.555755869684149223e-02
-8.784614495469347806e-02
-1.279812614398835868e-01
-1.651111659494678974e-01
-1.985063114500646431e-01
-2.274902724762721262e-01
-2.514862435639359517e-01
-2.700805462297957704e-01
-2.829029991222867801e-01
-2.897904205823097490e-01
-2.906728203451612313e-01
-2.855939042018395546e-01
-2.747917118871693876e-01
-2.585461324450671339e-01
-2.373120900204804262e-01
-2.116264857970783231e-01
-1.820901194230695741e-01
-1.494176349158233830e-01
-1.143413143777395335e-01
-7.764040957120409148e-02
-4.011688753592804191e-02
-2.559311858676617535e-03
3.426919945013950919e-02
6.961854766595544641e-02
1.028263252165249608e-01
1.332752890132803125e-01
1.604146534263211077e-01
1.838234860063009957e-01
2.031120558347369043e-01
2.180364997475956468e-01
2.284311265221851128e-01
2.342005937446420827e-01
2.353927299423605457e-01
2.320850183831409397e-01
2.244705136063468442e-01
2.128069062827703806e-01
1.973931160726485889e-01
1.786153357352517901e-01
1.568759510124465295e-01
1.326267384380178105e-01
1.063483081329489183e-01
7.853097584284048083e-02
4.968613795780701947e-02
2.032766991116821687e-02
-9.034957588248959670e-03
-3.789499847803662336e-02
-6.575684485238744714e-02
-9.215112059401281419e-02
-1.166159196312359092e-01
-1.387314266543692720e-01
-1.581047270242119662e-01
-1.743715260623261432e-01
-1.872373513928087818e-01
-1.964253068739578167e-01
-2.017429194410986781e-01
-2.030540432829870401e-01
-2.002695532613730789e-01
-1.934198000508144943e-01
-1.825630732186657446e-01
-1.678712303567120590e-01
-1.495952465018902944e-01
-1.280333537098593544e-01
-1.036081547319575719e-01
-7.676903854866158616e-02
-4.804524857648295039e-02
-1.802411930192197864e-02
1.268939919588359111e-02
4.344374988495883216e-02
7.357975880545639114e-02
1.024478881705013777e-01
1.294059374597079093e-01
1.538355782184381848e-01
1.751895522770426372e-01
1.929402278024075490e-01
2.066595477992307361e-01
2.159984969296765978e-01
2.206614699474198082e-01
2.205142479998958849e-01
2.154627471155611262e-01
2.055543790802765169e-01
1.909538441392749919e-01
1.718815449022304265e-01
1.487304364507819054e-01
1.219351519252698524e-01
9.203898301820712113e-02
5.967927721809052066e-02
2.552129913257211724e-02
-9.683463369881004090e-03
-4.516418067233579636e-02
-8.013797803523151075e-02
-1.138110935160248360e-01
-1.454060357657599445e-01
-1.742061544193738154e-01
-1.995134074927406020e-01
-2.207279265963338344e-01
-2.373425065990690808e-01
-2.489024335947621069e-01
-2.551405121290470368e-01
-2.558414552864491931e-01
-2.509454474581641059e-01
-2.405459019340611682e-01
-2.247943708234855231e-01
-2.040506952706517829e-01
-1.787321486259993431e-01
-1.493755673181484389e-01
-1.166408324022714244e-01
-8.121782075924890987e-02
-4.389967855498479177e-02
-5.507522418066693182e-03
3.312134867858346210e-02
7.113224642169282963e-02
1.076826370460321480e-01
