BVP Green Neck Signal
-4.625449875127219529e-02
-4.952435899819119386e-02
-3.989916890779481723e-02
-2.836928332359930915e-02
-2.283248733433849292e-02
-2.247356227840957912e-02
-2.150838046261420444e-02
-1.765134090579531176e-02
-1.346097348115937731e-02
-1.202298577580437552e-02
-1.353734923084085051e-02
-1.555233595111185640e-02
-1.703578813424323768e-02
-1.894840971640294330e-02
-2.241545492952404586e-02
-2.749689641730990869e-02
-3.301161430230798582e-02
-3.852176602596989879e-02
-4.433843472848218031e-02
-5.070900369225520010e-02
-5.756424866629068771e-02
-6.439852522628609910e-02
-7.103522560178938960e-02
-7.751828739875366026e-02
-8.380926360160807775e-02
-8.978095057163153203e-02
-9.528130530447533053e-02
-1.003015361924822074e-01
-1.047045857625084203e-01
-1.084852779451837279e-01
-1.115201142054464134e-01
-1.137993683536973333e-01
-1.152628575178377968e-01
-1.158066932774125118e-01
-1.154896154723590168e-01
-1.141573706139406563e-01
-1.118630664058804375e-01
-1.085591264271261874e-01
-1.041648285976209537e-01
-9.878667655290739036e-02
-9.233193059664052127e-02
-8.486814088897905173e-02
-7.646303243347468692e-02
-6.709558694108332111e-02
-5.694696657015139996e-02
-4.606748465881451565e-02
-3.456899816126030728e-02
-2.268562440477340722e-02
-1.047606163195864692e-02
1.751382182061200429e-03
1.386441858514885633e-02
2.565012492556776810e-02
3.679398457082487528e-02
4.726041106909076306e-02
5.659595564642505572e-02
6.484657805166033073e-02
7.171856789096234253e-02
7.702793319370435099e-02
8.099949228121536282e-02
8.309849273742431208e-02
8.386631157794884051e-02
8.305850483883296664e-02
8.080965453330614390e-02
7.780047993838605513e-02
7.353585796127617980e-02
6.912564253747105480e-02
6.450847403870893504e-02
6.011038114858416326e-02
5.695604630062516688e-02
5.467792479013769413e-02
5.455475323432451562e-02
5.667544767732889122e-02
6.144274135009917398e-02
6.969821752476426657e-02
8.117702923156742967e-02
9.655825285992285234e-02
1.158307796690653813e-01
1.389404772309142388e-01
1.658633033702437976e-01
1.963401823300068849e-01
2.298032110765952929e-01
2.658766108980324394e-01
3.038507983310085869e-01
3.425359600475251232e-01
3.816830263655631161e-01
4.195126169271723993e-01
4.553403710475915633e-01
4.881145347208373231e-01
5.159539530653490802e-01
5.388817502903304746e-01
5.547824315797477146e-01
5.631773273424365289e-01
5.634321646015877372e-01
5.540539245759077414e-01
5.357745294172632233e-01
5.073763913201619902e-01
4.692263410088196030e-01
4.218300223483628097e-01
3.650077681206835289e-01
3.003846488864114761e-01
2.283596191737354286e-01
1.502379438074858409e-01
6.771817483004090310e-02
-1.810218729907677598e-02
-1.052199314441855105e-01
-1.919949231780663790e-01
-2.769918457016712354e-01
-3.581229023846716486e-01
-4.340601949604239174e-01
-5.034849890502783865e-01
-5.646591461433709824e-01
-6.171834007068766059e-01
-6.596425535445390453e-01
-6.916279663751330187e-01
-7.132794309107407527e-01
-7.236962966904257888e-01
-7.239961489218524893e-01
-7.139209708921989694e-01
-6.942563738976670340e-01
-6.664064230655615262e-01
-6.304328865917947500e-01
-5.883272355808912835e-01
-5.407067128422889946e-01
-4.888923496621285780e-01
-4.345921700231353824e-01
-3.784130959706510922e-01
-3.220178937062376234e-01
-2.663289047592641290e-01
-2.123288937370167440e-01
-1.610546652397167322e-01
-1.132605061703250288e-01
-6.939284535784268071e-02
-3.026869234513938217e-02
3.917273019904979336e-03
3.324233295498043445e-02
5.697304139393887662e-02
7.600060765184533940e-02
8.977875114506328469e-02
9.879395271866951711e-02
1.040539087871677620e-01
1.048767313378851096e-01
1.029287097223936798e-01
9.791830952917013331e-02
9.056545243045593940e-02
8.220559221075007805e-02
7.220502635971870475e-02
6.216773352313498258e-02
5.192175080130551068e-02
4.196638646304031578e-02
3.329773198274760954e-02
2.535042846066968766e-02
1.903662393581970549e-02
1.414449961501467422e-02
1.077815989101189864e-02
9.198317550014633789e-03
9.003936304362251258e-03
1.029672304991682136e-02
1.275889092289298962e-02
1.630166537932796825e-02
2.047908564338727505e-02
2.522854351384930943e-02
3.020747225451113696e-02
3.505586048691284456e-02
3.990678061916308472e-02
4.395922396338150517e-02
4.761720610832697459e-02
5.062609285858425678e-02
5.268088088620399151e-02
5.444199723000028163e-02
5.511441921338007532e-02
5.551678061534049552e-02
5.578179182612487408e-02
5.566486148580886140e-02
5.628075228592513413e-02
5.699832603089077798e-02
5.875333953577793755e-02
6.195868850506119907e-02
6.633399177638207855e-02
7.300282003978682266e-02
8.145574593696958132e-02
9.233157485260819197e-02
1.059468765538484902e-01
1.218973232058115919e-01
1.407664061710525161e-01
1.620681437928063184e-01
1.858402512474742196e-01
2.119495957187740309e-01
2.398868304069193269e-01
2.693698560297353439e-01
2.999167601515662085e-01
3.309433220857823654e-01
3.617884151426786210e-01
3.919983937945976660e-01
4.205342578269123943e-01
4.470504832473097268e-01
4.706596780387047319e-01
4.904581951964465669e-01
5.063284382684074547e-01
5.169987589914474269e-01
5.225082389997326437e-01
5.222095707351994687e-01
5.154467630069805573e-01
5.027165357101814891e-01
4.831661906755835845e-01
4.573971656792213958e-01
4.254775257710244896e-01
3.873363526246836885e-01
3.441434528545303517e-01
2.958226317521296944e-01
2.434020744540752457e-01
1.877536843883709783e-01
1.292687840165044899e-01
6.947832983286884867e-02
8.906554073562731114e-03
-5.148875979625341937e-02
-1.103952608007383179e-01
-1.674832282106368253e-01
-2.214110653102029924e-01
-2.715768973016414733e-01
-3.176548105633084096e-01
-3.584295136241928414e-01
-3.941366474749097293e-01
-4.240683481540367117e-01
-4.479940402690218426e-01
-4.664466166733531871e-01
-4.786860650524638050e-01
-4.856111688621909117e-01
-4.872346052592504972e-01
-4.837998644971361339e-01
-4.764188841457627777e-01
-4.648904805779900951e-01
-4.503895827353276426e-01
-4.333590391296654465e-01
-4.142675399462910080e-01
-3.941736014767006635e-01
-3.732163719866051221e-01
-3.522296980281747758e-01
-3.316571147209802506e-01
-3.118299275544246241e-01
-2.931983867121725762e-01
-2.760213029446026978e-01
-2.603807846312392593e-01
-2.465096445928990354e-01
-2.344194330601024889e-01
-2.238438319240020347e-01
-2.151055471555052834e-01
-2.075567269071414978e-01
-2.013205483786835170e-01
-1.961361826517450391e-01
-1.912973544187582808e-01
-1.872234606554957215e-01
-1.828382595195719440e-01
-1.783271138163572966e-01
-1.732950264640193416e-01
-1.669372456195599153e-01
-1.597592077073541894e-01
-1.506221082390052368e-01
-1.398172981362863498e-01
-1.270123784614424212e-01
-1.115492422039062181e-01
-9.401372339848566850e-02
-7.358657910878611819e-02
-5.062710278316388812e-02
-2.517037527244811793e-02
3.120131016262578470e-03
3.350490302752574812e-02
6.614609812376769094e-02
1.006576576421490260e-01
1.363711092300850525e-01
1.732389783977844044e-01
2.103443066620727109e-01
2.471296079583061300e-01
2.832830601227152023e-01
3.175835795650627236e-01
3.497717939778948182e-01
3.789600643779695854e-01
4.042461895858240895e-01
4.255994952069189763e-01
4.417646777794419499e-01
4.526491602004558135e-01
4.577887789105811733e-01
4.565786948398432576e-01
4.494686888472495534e-01
4.358391058546865482e-01
4.160914681603909426e-01
3.904907010483630314e-01
3.592093050383551311e-01
3.231314813920132534e-01
2.826424768524865572e-01
2.385831802371973787e-01
1.918630375484369766e-01
1.433817059557471740e-01
9.400270947082420281e-02
4.492397160607718848e-02
-3.099930772480342586e-03
-4.902850732867362893e-02
-9.177721630030583055e-02
-1.311709261627329037e-01
-1.657691752088867321e-01
-1.955195854387377086e-01
-2.198212282096926318e-01
-2.379641971552390323e-01
-2.507930240287084001e-01
-2.571147542575032974e-01
-2.577276577099180677e-01
-2.526504232780526493e-01
-2.417186498077623646e-01
-2.264432531366704637e-01
-2.060821700747174079e-01
-1.818559663474905719e-01
-1.541617829984320287e-01
-1.232549447925479630e-01
-9.051297712961657582e-02
-5.574476747433949886e-02
-2.000022006058298912e-02
1.628210136533574798e-02
5.254956315038494113e-02
8.816769451330656870e-02
1.227026753259778252e-01
1.555690277530388799e-01
1.864645641889901562e-01
2.145685033611565706e-01
2.400698930586558366e-01
2.620007046259114625e-01
2.801904971283272761e-01
2.945318412052644885e-01
3.040728109389513323e-01
3.095563040644232489e-01
3.098940604706889035e-01
3.052314711170016071e-01
2.957488071489428605e-01
2.807653271816637486e-01
2.612695744190823843e-01
2.366784582970375972e-01
2.074620532500822678e-01
1.741779387844655802e-01
1.368594755984172684e-01
9.648965740904090482e-02
5.339169448176139116e-02
8.319998082613952461e-03
-3.790073806440646259e-02
-8.445171294088581193e-02
-1.306315228073956503e-01
-1.753673171526849428e-01
-2.178966738435829664e-01
-2.574889276951051187e-01
-2.929809715594794972e-01
-3.242480464418597275e-01
-3.500830395184414967e-01
-3.701504554732822361e-01
-3.842185184569920087e-01
-3.914558600409223099e-01
-3.924579154266392700e-01
-3.865365599728803891e-01
-3.740690238451383487e-01
-3.554781711422689838e-01
-3.307190654496644511e-01
-3.009123935895910429e-01
-2.661816498945703269e-01
-2.274888126229455132e-01
-1.856866934237159095e-01
-1.414825275993077391e-01
-9.600697401473250181e-02
-5.002862407914054205e-02
-4.593722452197329664e-03
3.947700777272374062e-02
8.115740895113758568e-02
1.198797771949645097e-01
1.546776397620562293e-01
1.849939702311645395e-01
2.104701272434023052e-01
2.303040451646065079e-01
2.448102292966393700e-01
2.532874955754848556e-01
2.559791721478121285e-01
2.531538571961010065e-01
2.445801059424988488e-01
2.313229542869811306e-01
2.131850950467609751e-01
1.910672483618427453e-01
1.656709679315351291e-01
1.373196874410245738e-01
1.072998664542450520e-01
7.584920850612109078e-02
4.402820564035110629e-02
1.255037014091469130e-02
-1.800425571209677417e-02
-4.674857666548448004e-02
-7.327591787025333758e-02
-9.690212714016617490e-02
-1.172904103498272066e-01
-1.339617815787533250e-01
-1.468017216751310583e-01
-1.555144341748671555e-01
-1.600669982870414065e-01
-1.606541443360595123e-01
-1.571129904344013006e-01
-1.500585468373221709e-01
-1.394572098158337048e-01
-1.258229649364165370e-01
-1.097516617753015594e-01
-9.138246693296099565e-02
-7.166012230650184445e-02
-5.078090529415333482e-02
-2.941429596089512044e-02
-8.229585952463060877e-03
1.253236041361143957e-02
3.212599510948071363e-02
5.029876181246995676e-02
6.666483495685515681e-02
8.082298632637434366e-02
9.266397354665027730e-02
1.020063036336108925e-01
1.087189359228589031e-01
1.129134338354187000e-01
1.146098298615728373e-01
1.139154057275570398e-01
1.112107463194099977e-01
1.065324598600732170e-01
1.003506256759636728e-01
9.299505793081308536e-02
8.467103188870366004e-02
7.599008599195603009e-02
6.706277324417234120e-02
5.834954092475301557e-02
5.022358749083318669e-02
4.278222481730563354e-02
3.645138303478968889e-02
3.128647512211508303e-02
2.740931935162276706e-02
2.500663948563220523e-02
2.394700215182600164e-02
2.423571626929666573e-02
2.581944314538791446e-02
2.840819007963368489e-02
3.194699121178477819e-02
3.613490587172033669e-02
4.062715897369402474e-02
4.532381023013009463e-02
4.973502157809615160e-02
5.369664735308356945e-02
5.693836796873475575e-02
5.906241029465295056e-02
6.005658385599783183e-02
5.956758780775752576e-02
5.753365709408891221e-02
5.391757222063793542e-02
4.856799400886364915e-02
4.166290563984038214e-02
3.320281055563120004e-02
2.334553710006346400e-02
1.233746644158545749e-02
3.476473606128767727e-04
-1.229125556220412793e-02
-2.528606074946784799e-02
-3.835159896369844112e-02
-5.110934958526143490e-02
-6.327247491866079543e-02
-7.452776651391194995e-02
-8.456337639517322313e-02
-9.320153522917572209e-02
-1.001645172189317978e-01
-1.053409420711086120e-01
-1.086172185990106620e-01
-1.099093851349628170e-01
-1.093193302045182003e-01
-1.067988279110576588e-01
-1.025377319707669738e-01
-9.666431813498355119e-02
-8.934383967984071973e-02
-8.091392819076613507e-02
-7.150142618508099901e-02
-6.145526400726243621e-02
-5.103169490194339047e-02
-4.045177299589986647e-02
-3.007765935268870428e-02
-2.005338102532277719e-02
-1.061603772779312616e-02
-1.994930914691385795e-03
5.751174694129828659e-03
1.243782467319776326e-02
1.801515028705813481e-02
2.253535294228353747e-02
2.587561268055684274e-02
2.821229946618363307e-02
2.959428989917729444e-02
3.006602824527429899e-02
2.993841752831707947e-02
2.917499606099716730e-02
2.808441957803439054e-02
2.685028220899393636e-02
2.552932767049580220e-02
2.449566060429841582e-02
2.372555647372107113e-02
2.346532053709025900e-02
2.387576263744553562e-02
2.492927430258469468e-02
2.684490728550407990e-02
2.955692338286489487e-02
3.308781813427823237e-02
3.748218525804683510e-02
4.258209829328498536e-02
4.834780400283920920e-02
5.468763222206840524e-02
6.136112979429506065e-02
6.832563185254697524e-02
7.532887506949816070e-02
8.212671313082992031e-02
8.867981458442601717e-02
9.457916378779146482e-02
9.980005356831739283e-02
1.040954988840342016e-01
1.071682939932891987e-01
1.091045120323558826e-01
1.094975939247240099e-01
1.084194021782122208e-01
1.057400267394614235e-01
1.012599378404407252e-01
9.519495787132140063e-02
8.731953402961023514e-02
7.779649314844488961e-02
6.669748954100829241e-02
5.401608089060518786e-02
4.003186874035819659e-02
2.483307967920168197e-02
8.603546910632590278e-03
-8.356590148869868367e-03
-2.584235021818677425e-02
-4.361255458817028807e-02
-6.124144777183461452e-02
-7.861528541373311030e-02
-9.527349952162129931e-02
-1.108773416744875673e-01
-1.253265175139591792e-01
-1.379944725009938922e-01
-1.489163380176974361e-01
-1.576407148508843781e-01
-1.638622559784721489e-01
-1.676893835866615778e-01
-1.685674400784682447e-01
-1.667228771107278074e-01
-1.619236531448482452e-01
-1.540898922178978170e-01
-1.435416123663965093e-01
-1.300785651239897978e-01
-1.140987437767615742e-01
-9.572849818604747818e-02
-7.521499674894124854e-02
-5.300913021322369023e-02
-2.938942057310922618e-02
-4.816568874856288346e-03
2.025277856111405705e-02
4.533042339681942617e-02
6.999847029770672746e-02
9.363198982586944108e-02
1.159084618788807919e-01
1.362558852957978517e-01
1.542158495551431696e-01
1.696184481225063156e-01
1.818315277142987796e-01
1.908965790596320322e-01
1.964338105495501696e-01
1.983189839467641158e-01
1.967886991548900566e-01
1.915385035191925489e-01
1.830565969726684061e-01
1.713538804178519892e-01
1.567356959465258659e-01
1.397870652472686381e-01
1.206202774705779357e-01
9.996301728246030638e-02
7.815070565584127105e-02
5.569417889091952956e-02
3.322231293108727362e-02
1.107066858895014438e-02
-1.020344723462586825e-02
-3.019899300018982768e-02
-4.856639988110435235e-02
-6.497982496918135176e-02
-7.914905603109868848e-02
-9.100201750164124692e-02
-1.002945494723029296e-01
-1.070496009570279378e-01
-1.113732573986203206e-01
-1.131475316592915337e-01
-1.127750316837672490e-01
-1.102079140905552340e-01
-1.057674924318239840e-01
-9.983170680826357335e-02
-9.241626446561336528e-02
-8.410503112928709168e-02
-7.495153888950573107e-02
-6.533990923555563213e-02
-5.563119671172930825e-02
-4.589483647198282917e-02
-3.656213977175239854e-02
-2.769202709187616740e-02
-1.953825303907468988e-02
-1.224242520920569566e-02
-5.893304795266281898e-03
-6.034071029254982343e-04
3.595012324526658011e-03
6.637092341222039157e-03
8.622068117190925460e-03
9.450506783160110558e-03
9.291862407002617064e-03
8.133618894931216384e-03
6.062778517357212196e-03
3.311909929908767643e-03
-1.984249033348409533e-04
-4.159614078238782486e-03
-8.568796925336257322e-03
-1.325161579426455127e-02
-1.797278404727469664e-02
-2.275160500352406065e-02
-2.728651139039590945e-02
-3.156380458211806295e-02
-3.539434179301760575e-02
-3.863444610011285141e-02
-4.124974091401734794e-02
-4.305336857251298305e-02
-4.405282815178859085e-02
-4.412444499579271789e-02
-4.327023247159392932e-02
-4.146661449130036037e-02
-3.869703966843997256e-02
-3.504680985508831087e-02
-3.050518581502113802e-02
-2.523959260695244136e-02
-1.929093155758918043e-02
-1.278970711733094096e-02
-5.932762792022290912e-03
1.232758355795966071e-03
8.404204178854131346e-03
1.551939700983253831e-02
2.242494312684668520e-02
2.884894658088104497e-02
3.485086975173166957e-02
4.009097703453400052e-02
4.460922563647259920e-02
4.840497931611931204e-02
5.122047920653318570e-02
5.337723418691554117e-02
5.462171856524081215e-02
5.517585767803490082e-02
5.528682308930910755e-02
5.478169939610742778e-02
5.422156781090015087e-02
5.350670710861502727e-02
5.296279476739992886e-02
5.298589071335425837e-02
5.348852162556758105e-02
5.500474626580237336e-02
5.755200469735993751e-02
6.133396020569115148e-02
6.661977171547422971e-02
7.335444173170034554e-02
8.166052353392626306e-02
9.156727123523478173e-02
1.029338619051626685e-01
1.156230124475410986e-01
1.295800024169383446e-01
1.442744530991708074e-01
1.596766332728207782e-01
1.752685593187261470e-01
1.904438403244261280e-01
2.052039037886640993e-01
2.184810763818423873e-01
2.302401053655937502e-01
2.398246560376777192e-01
2.464160092073471309e-01
2.502173350006717256e-01
2.500980578713735136e-01
2.461878282870669787e-01
2.381037253112405216e-01
2.252682492323084262e-01
2.082280697603020037e-01
1.863696997438780700e-01
1.601324736432556128e-01
1.297419306697372154e-01
9.520613315368170460e-02
5.739673103226717449e-02
1.653933557877864183e-02
-2.668832786782013994e-02
-7.143715179183435238e-02
-1.171482374496791989e-01
-1.628984034849280116e-01
-2.077732374400770299e-01
-2.512015029936202071e-01
-2.920686206475773816e-01
-3.296837978922257939e-01
-3.635125074688113078e-01
-3.924713941261014361e-01
-4.165252696002139099e-01
-4.348195454092795842e-01
-4.470296134028517443e-01
-4.533413477998641805e-01
-4.530326069720748139e-01
-4.467753751372289805e-01
-4.343359395007045931e-01
-4.159505631081235610e-01
-3.924873933925023817e-01
-3.638086243490624705e-01
-3.310140767093052161e-01
-2.945043893447359395e-01
-2.548503882997555925e-01
-2.131917821804581448e-01
-1.698599613138016551e-01
-1.258062884518295621e-01
-8.180766904794668781e-02
-3.833930978538221956e-02
3.716731607564482693e-03
4.382126691501745525e-02
8.167325673114810003e-02
1.164414492215433000e-01
1.480497385386055353e-01
1.762095310511930801e-01
2.003798839882479643e-01
2.210307356743006491e-01
2.374971106854613656e-01
2.501026653043258996e-01
2.591410857407229207e-01
2.641643141304502729e-01
2.661277676600737330e-01
2.646211147780354600e-01
2.601473441220050753e-01
2.533065517276785195e-01
2.437921289198729524e-01
2.325832713578240840e-01
2.195304663951175295e-01
2.050777329880562050e-01
1.897969178355063957e-01
1.735767955113491912e-01
1.570568427955105761e-01
1.403148185123005431e-01
1.236171680038226917e-01
1.072883506684727678e-01
9.144795613654475852e-02
7.626986897368749629e-02
6.199380136403746105e-02
4.870854684408978258e-02
3.643983304950260821e-02
2.549562450527902494e-02
1.565869922845027074e-02
7.229744938885968725e-03
1.591470536205863776e-04
-5.760025364656801497e-03
-1.015972418789075002e-02
-1.348717325680924908e-02
-1.548900583965983832e-02
-1.632039030487196854e-02
-1.630591600880979333e-02
-1.515786318560920914e-02
-1.338768729461035922e-02
-1.085117729288963273e-02
-7.767013925203044081e-03
-4.456252890864469823e-03
-7.736972336136026945e-04
2.847313812842502696e-03
6.458992876681298075e-03
9.856874038144487413e-03
1.282789938797034533e-02
1.541900755211399361e-02
1.738050821161659515e-02
1.874366965722178147e-02
1.940798085403212803e-02
1.932336551970797664e-02
1.852650658945297416e-02
1.698407439410357100e-02
1.476147021449037908e-02
1.189687934836424973e-02
8.480226720966203835e-03
4.584615931024949194e-03
3.329458737522566006e-04
-4.175600440424778043e-03
-8.815461680542986678e-03
-1.343815397433702555e-02
-1.795473569269795053e-02
-2.220624157615008407e-02
-2.609881825579316028e-02
-2.952755708006039870e-02
-3.237115334328492106e-02
-3.458787667593642146e-02
-3.609948059574184798e-02
-3.685819812275093615e-02
-3.688013374401003658e-02
-3.611756608412069330e-02
-3.462991165940097760e-02
-3.247421127090334425e-02
-2.966145648033226279e-02
-2.636084487978630070e-02
-2.258824173839589847e-02
-1.850649575061144581e-02
-1.427470374414054055e-02
-9.937762598854510410e-03
-5.757751383438690709e-03
-1.758352185875474219e-03
1.857228660747545050e-03
4.932109347537616366e-03
7.440300191980020808e-03
9.156331587109295400e-03
1.011642673889011357e-02
1.017884934621871018e-02
9.304661131122233392e-03
7.531248298222418050e-03
4.794373804743146464e-03
1.216696563577686005e-03
-3.209330022652230607e-03
-8.356802045515173208e-03
-1.413242780478909250e-02
-2.040224526696772858e-02
-2.699970057776288068e-02
-3.380705874665248384e-02
-4.058461930972347836e-02
-4.723996584202460464e-02
-5.351563986267233314e-02
-5.928076443010961427e-02
-6.437577601330564392e-02
-6.856771780131198923e-02
-7.182718579623537103e-02
-7.391921199613386839e-02
-7.481157351429905400e-02
-7.441397685545340923e-02
-7.262161596544140785e-02
-6.949908597124865306e-02
-6.497769145513468403e-02
-5.914107750599313651e-02
-5.205275191041420363e-02
-4.379883114340441669e-02
-3.453215729926759070e-02
-2.441399748624928367e-02
-1.361442101032101989e-02
-2.361977528047232155e-03
9.107220149856766825e-03
2.058984167432059698e-02
3.177186731883227533e-02
4.247217862508693986e-02
5.238930214191925283e-02
6.129572121815007879e-02
6.900611100567341505e-02
7.526724181753907672e-02
7.999462713920864332e-02
8.297914470051208358e-02
8.421245950861550034e-02
8.359928035491666354e-02
8.118045949382129978e-02
7.704996564183863583e-02
7.122415362499835700e-02
6.403339925940186583e-02
5.549486873089922584e-02
4.602153540872824800e-02
3.586485082069675728e-02
2.525788384389957009e-02
1.477192630565084264e-02
4.475295162519246986e-03
-5.025260142162734853e-03
-1.347228224268760474e-02
-2.058499515738653959e-02
-2.585812805427664673e-02
-2.928853387092297117e-02
-3.043156240595563944e-02
-2.923138071695027124e-02
-2.558159591367844404e-02
-1.938123300540725916e-02
-1.077868002685795912e-02
2.022369707521901733e-04
1.329748254060575917e-02
2.832124150380229896e-02
4.483753501374085348e-02
6.257372260575561063e-02
8.099790685273981772e-02
9.961887457773414833e-02
1.180476181220702359e-01
1.355143074110368162e-01
1.517974829837698825e-01
1.661422409718208426e-01
1.781350767238522592e-01
1.874591964351644546e-01
1.934560290410116123e-01
1.962074625614315670e-01
1.951787620978012172e-01
1.903668481567353798e-01
1.818163599560771448e-01
1.693654183979395600e-01
1.535280893234814426e-01
1.342866169311076607e-01
1.121225808976753502e-01
8.750850892011902138e-02
6.080522816066803032e-02
3.277270678935059744e-02
3.847579801956994578e-03
-2.532484810448338425e-02
-5.409390399979556452e-02
-8.193182806903029358e-02
-1.082800541642535003e-01
-1.325795301592883613e-01
-1.545127172204101007e-01
-1.736137507557093396e-01
-1.895907843551766780e-01
-2.024403691275193928e-01
-2.117531614518515792e-01
-2.177697734060838330e-01
-2.203738805358665398e-01
-2.196125838047005008e-01
-2.160033134778617803e-01
-2.093292156077241617e-01
-2.001961238987793323e-01
-1.887546081348447369e-01
-1.752195250605674270e-01
-1.602855628861514781e-01
-1.438774210440370571e-01
-1.265741053165129748e-01
-1.086362487446483477e-01
-9.025230837343053980e-02
-7.191932525464979353e-02
-5.370803564967131793e-02
-3.588053400570525436e-02
-1.870632032849162824e-02
-2.289784310804430373e-03
1.325695488036228269e-02
2.766844249729673993e-02
4.104087212878532870e-02
5.312735462827974930e-02
6.385325188677107300e-02
7.344207649632635004e-02
8.145077449846029050e-02
8.819305404948259153e-02
9.346513337698436619e-02
9.719391399995955250e-02
9.975720594693901488e-02
1.006968577742160253e-01
1.003876377473472553e-01
9.871703095867716271e-02
9.567834264850344494e-02
9.163683648662708514e-02
8.633324239335722627e-02
8.011850946825370412e-02
7.300396556458703390e-02
6.512465840092113156e-02
5.673957418960313970e-02
4.787886501859793531e-02
3.882726843200608874e-02
2.968547212375757458e-02
2.071201064830952704e-02
1.201628911997600080e-02
3.836820744628459488e-03
-3.655826117920604745e-03
-1.035058087132810847e-02
-1.598839525770049189e-02
-2.060857898895880613e-02
-2.394307100611620109e-02
-2.598804005121600758e-02
-2.669098350547259579e-02
-2.594851834531335805e-02
-2.391994628029264075e-02
-2.047804452477011011e-02
-1.581844484090792757e-02
-9.983425269926352735e-03
-3.122510900928543789e-03
4.527397225736124950e-03
1.287804905710104517e-02
2.157363884823091521e-02
3.049680348838239990e-02
3.929737736385575247e-02
4.774429053471281742e-02
5.561453781405244212e-02
6.254855397269656891e-02
6.844793020129921746e-02
7.297321618204304083e-02
7.602316709990630805e-02
7.743339840715773859e-02
7.704912936698429804e-02
7.490004212127969463e-02
7.089429591096356453e-02
6.513881796569957749e-02
5.768804130097469895e-02
4.870010574163630840e-02
3.835402430979131805e-02
2.689426102378933425e-02
1.457846807567392267e-02
1.682820758843915458e-03
-1.141310805087310948e-02
-2.449028275074732752e-02
-3.709505449354512374e-02
-4.900506578539585989e-02
-5.987811864953399010e-02
-6.935564571793680078e-02
-7.734851206343971997e-02
-8.344507872598154463e-02
-8.764662883838611473e-02
-8.973877003421917853e-02
-8.960619960990019728e-02
-8.738350042458993550e-02
-8.290327358483039200e-02
-7.643180162971788261e-02
-6.798110288520819999e-02
-5.773257293265492140e-02
-4.598514421600723850e-02
-3.286334938726503951e-02
-1.875995945883779381e-02
-3.880913181793078578e-03
1.141744068253986236e-02
2.683677156701763308e-02
4.204967901104205569e-02
5.675383913901175387e-02
7.066262279548821135e-02
8.343758477755412739e-02
9.494399526620765639e-02
1.048036150337728484e-01
1.129665521443738024e-01
1.191983116716448660e-01
1.233329802780561701e-01
1.254799658224038383e-01
1.253621400043469225e-01
1.232110766169937366e-01
1.189503811633502717e-01
1.126407485392336150e-01
1.045995514460804771e-01
9.474891693819499638e-02
8.348741235788387227e-02
7.092733474164794605e-02
5.729315774704094727e-02
4.296626715773295413e-02
2.807176233593367334e-02
1.297500396561968722e-02
-2.085423330491371560e-03
-1.685656407968271972e-02
-3.107021616605889353e-02
-4.447653422071387586e-02
-5.691571633319982004e-02
-6.813379904915568830e-02
-7.797368830357900849e-02
-8.638924352783537708e-02
-9.311709891089998969e-02
-9.825800655994273991e-02
-1.016410074318115087e-01
-1.032627203420291989e-01
-1.032900650420513627e-01
-1.015472394124716377e-01
-9.832418273844346912e-02
-9.358339871311370517e-02
-8.746091174367877363e-02
-8.023348585735574912e-02
-7.187607020097815103e-02
-6.272652553703818301e-02
-5.287736274974103035e-02
-4.254164284034372273e-02
-3.197263167780166337e-02
-2.130142786956030349e-02
-1.077303668728829197e-02
-5.580163884332158680e-04
9.141350461966984975e-03
1.820348196040679628e-02
2.640646353902821597e-02
3.369275080487309920e-02
3.989864242415003953e-02
4.492300536588423460e-02
4.882194347563798692e-02
5.139319151162920901e-02
5.278472429881916894e-02
5.291285772185935765e-02
5.182838937411368002e-02
4.972596686380467007e-02
4.651365829244362426e-02
4.247526045479667334e-02
3.762311165565071502e-02
3.213773680876051697e-02
2.624514431458293412e-02
1.998408209997130230e-02
1.364723103562529016e-02
7.299240593621029310e-03
1.163785939428777470e-03
-4.617402447772063837e-03
-9.926009009494835000e-03
-1.458214016272876834e-02
-1.853355624607816443e-02
-2.161794520186910082e-02
-2.383790753721358457e-02
-2.508015153616184600e-02
-2.533765148746414814e-02
-2.461505435368179298e-02
-2.288474288769483736e-02
-2.027446503234915307e-02
-1.675302118509785013e-02
-1.246752701976415467e-02
-7.487655977962507162e-03
-1.932786947371095340e-03
4.021315782968117557e-03
1.029302981927961505e-02
1.666624460927381562e-02
2.303955990442266982e-02
2.921071757622322254e-02
3.504939618998252626e-02
4.040931212549670609e-02
4.512147505412596876e-02
4.911612613062854571e-02
5.222220136909834498e-02
5.442638423895026362e-02
5.561416524956701996e-02
5.575481963303416388e-02
5.486285698190255383e-02
5.289835521196506463e-02
4.997201065193875719e-02
4.608035539672215158e-02
4.134341074164022550e-02
3.585869364387853087e-02
2.974107230121928250e-02
2.315528717994229033e-02
1.621646359237553098e-02
9.118571573732418140e-03
1.982277148839396708e-03
-4.987997146571358439e-03
-1.167841736105692044e-02
-1.791656423184801242e-02
-2.354868697828265550e-02
-2.850180653367617722e-02
-3.258789255023222808e-02
-3.581219511498042601e-02
-3.802847139475018512e-02
-3.920560054837003011e-02
-3.935322567000196919e-02
-3.839135787391742549e-02
-3.644257747667366959e-02
-3.345487586892345599e-02
-2.953909542910736902e-02
-2.477856860733095370e-02
-1.924457547603086738e-02
-1.311842622956526164e-02
-6.467759133521943510e-03
5.013341207800326577e-04
7.676627398614257157e-03
1.486375348089354932e-02
2.190943670901502119e-02
2.866292448079716532e-02
3.491881868192860117e-02
4.059971608560321993e-02
4.548408332991529801e-02
4.952461089417844325e-02
5.257529558261176544e-02
5.453680933643516304e-02
5.541911804719614615e-02
5.509582363776596020e-02
5.365669930242764757e-02
5.105222458833239690e-02
4.734973851327186484e-02
4.265003952184492214e-02
3.700114425826743492e-02
3.058609361459196235e-02
2.348468704744748406e-02
1.590403152554299357e-02
7.972960828422260768e-03
-9.959944931444558724e-05
-8.141592035347361769e-03
-1.598989923446691996e-02
-2.339767386867305787e-02
-3.029895448157270132e-02
-3.641578280880684165e-02
-4.168889447501167300e-02
-4.596035310248475225e-02
-4.905771932190669538e-02
-5.103749649946726086e-02
-5.167220145012942079e-02
-5.105782735085583057e-02
-4.912391984234327352e-02
-4.584598233369333031e-02
-4.139781922441004153e-02
-3.569692993393516062e-02
-2.895808175495262482e-02
-2.123668167623529376e-02
-1.265950714994404716e-02
-3.449517441357267608e-03
6.299343433671334737e-03
1.634974272950311808e-02
2.654280506604855816e-02
3.666396627222170967e-02
4.654258156481255737e-02
5.595256322387927306e-02
6.474645069646930984e-02
7.273924466491148155e-02
7.972977311297636815e-02
8.569234952299173425e-02
9.037133421067977679e-02
9.378649780684984727e-02
9.582396870278545031e-02
9.638464018607573180e-02
9.562120802798237951e-02
9.335626046834950842e-02
8.977171607465102288e-02
8.488426977620493197e-02
7.872256586107488630e-02
7.156046570102846116e-02
6.335649494086290079e-02
5.436198606378206399e-02
4.471335816420750342e-02
3.452212473818695726e-02
2.406295552715706151e-02
1.342270172657093578e-02
2.796080633768560034e-03
-7.622986357776554908e-03
-1.771687224740840783e-02
-2.732062699949984463e-02
-3.627082993235659913e-02
-4.451437671485010406e-02
-5.186918355836894062e-02
-5.827446485884370253e-02
-6.371497028078368374e-02
-6.802157796164040593e-02
-7.129079368439171505e-02
-7.340260512279250804e-02
-7.438736376030513631e-02
-7.434569022892940915e-02
-7.318029532172753981e-02
-7.108669061821180912e-02
-6.803428902051805727e-02
-6.415305055297543246e-02
-5.958383720660868910e-02
-5.435946274416860596e-02
-4.869474710977071685e-02
-4.264187116143076939e-02
-3.640359465434781644e-02
-3.007262666653554711e-02
-2.381304140796249719e-02
-1.777267382728959025e-02
-1.203940991815632272e-02
-6.823957061680529027e-03
-2.100421968867637046e-03
1.900910701745434778e-03
5.164554273130465313e-03
7.632374898107170159e-03
9.166546692438701238e-03
9.928849597565205659e-03
9.720949073919408351e-03
8.672848077517761670e-03
6.793537270505365169e-03
4.073364577527833173e-03
7.456579896600225993e-04
-3.281599335087908437e-03
-7.789806109858944672e-03
-1.272922795557410169e-02
-1.797761515001318824e-02
-2.335995867437129156e-02
-2.883599630149358273e-02
-3.419144750060804094e-02
-3.940042248711869005e-02
-4.424421389126383802e-02
-4.869904435660166175e-02
-5.262137292973292912e-02
-5.585935378089190023e-02
-5.845655124536339176e-02
-6.014697692808093632e-02
-6.105931268372066789e-02
-6.101025827262626655e-02
-5.991882747409033039e-02
-5.789991455925025399e-02
-5.471435883453302368e-02
-5.056208942384715632e-02
-4.531822810792896644e-02
-3.896607159764258616e-02
-3.166508614756945866e-02
-2.331098038460291400e-02
-1.407791461175986539e-02
-4.007575417772061069e-03
6.838807605964085032e-03
1.828578664300896384e-02
3.020680374458803788e-02
4.250001076424320123e-02
5.490946907137718436e-02
6.728186355072064695e-02
7.944537880481315761e-02
9.106173081961814464e-02
1.020819328436720491e-01
1.121235288132917812e-01
1.209923640579210480e-01
1.285313119942946281e-01
1.343989693407670605e-01
1.385490655189381415e-01
1.406951301503849838e-01
1.407576729318067987e-01
1.385993340624758763e-01
1.342197058142902688e-01
1.275523431069966185e-01
1.186564217992899378e-01
1.077696357407857825e-01
9.478305947952651855e-02
8.030904060097938946e-02
6.429562567563888720e-02
4.725210877630145467e-02
2.981695883680524420e-02
1.192686513543580323e-02
-5.261352277524222742e-03
-2.173689324475524751e-02
-3.671628852161065021e-02
-4.937815474447352498e-02
-5.973607641400477397e-02
-6.662860229330662409e-02
-7.002349022155740510e-02
-6.930738609552530849e-02
-6.402211183650985404e-02
-5.418182424534239566e-02
-3.944187579130326721e-02
-1.992901980163907377e-02
4.310875596822601359e-03
3.277855557567807554e-02
6.537451386099815687e-02
1.010564710336321892e-01
1.393663030864645824e-01
1.794410988983201616e-01
2.196995449592302752e-01
2.599720216507203085e-01
2.980768396356235361e-01
3.333464489889756965e-01
3.645382248393574387e-01
3.896799604891276192e-01
4.087808609648037605e-01
4.196674354343742919e-01
4.220003994779345513e-01
4.150511894964971638e-01
3.976993815789368059e-01
3.705472517451240955e-01
3.328297604768791218e-01
2.851692054585734382e-01
2.281277270635843069e-01
1.623508568368071669e-01
8.923731008097736395e-02
1.004881976018265344e-02
-7.357432050395482093e-02
-1.597995150796648334e-01
-2.465162598046504727e-01
-3.319924434646743250e-01
-4.137234924231648070e-01
-4.899915503374226988e-01
-5.587183995241844503e-01
-6.178724369784154291e-01
-6.664931932787999669e-01
-7.025646793146419489e-01
-7.257315093379976823e-01
-7.350460901824045212e-01
-7.301969285155407441e-01
-7.119160455469840665e-01
-6.799870234673149882e-01
-6.360611532559917736e-01
-5.808935311004512769e-01
-5.161492669160685498e-01
-4.439834950260302393e-01
-3.657824117208845482e-01
-2.842143918809734715e-01
-2.010104541748622409e-01
-1.184106569035804218e-01
-3.857249442127841377e-02
3.684822186711969594e-02
1.060717904005173545e-01
1.676481524113782040e-01
2.205193842354164491e-01
2.639253920086132021e-01
2.970701631039908697e-01
3.203032834316568711e-01
3.331446530369438497e-01
3.363599322498374011e-01
3.308886125947818613e-01
3.168896847882557988e-01
2.965103979009566793e-01
2.700218263565293819e-01
2.392304346744560384e-01
2.059026040200563346e-01
1.704859939582111794e-01
1.354363150164751839e-01
1.011123021877266687e-01
6.900891745021517365e-02
4.045250441212897702e-02
1.554493948162573476e-02
-4.404877740392358285e-03
-1.943108041616100831e-02
-2.918825153752649393e-02
-3.354016440259442039e-02
-3.283397305161325774e-02
-2.736189616576613359e-02
-1.755511726494883573e-02
-4.074556902767730374e-03
1.219809000024750685e-02
3.082875976162711626e-02
5.057957706581077406e-02
7.097851802357253714e-02
9.115652201531905530e-02
1.100145791351596486e-01
1.274585199211630826e-01
1.423889598151839020e-01
1.546551211308158091e-01
1.639123939061079560e-01
1.695742947692532865e-01
1.720128560340510870e-01
1.709292805840408880e-01
1.665609821179449557e-01
1.592482269437431874e-01
1.490748650005386255e-01
1.366585745550980557e-01
1.224052806388956360e-01
1.067197497097076980e-01
9.027776557537785240e-02
7.345547835886691301e-02
5.681803717352549438e-02
4.091645369891715872e-02
2.605017350033559526e-02
1.276376583444634519e-02
1.250960363299858692e-03
-8.147358098927619946e-03
-1.523626950121512169e-02
-1.995635105622961883e-02
-2.215500197169013863e-02
-2.204025648457057923e-02
-1.951254574865846775e-02
-1.487400324745762059e-02
-8.273462310312966819e-03
6.389603253240637437e-05
9.641815668457603267e-03
2.038698181738229226e-02
3.170810726699903326e-02
4.339606581117544382e-02
5.504599162135177109e-02
6.619272908149298473e-02
7.670400224329715355e-02
8.605643313604098565e-02
9.416982490632999636e-02
1.006925736630323448e-01
1.054828090166861770e-01
1.084578508127001933e-01
1.094031056204393115e-01
1.084749596641875341e-01
1.054844563140284602e-01
1.006758881488995921e-01
9.405289042340225780e-02
8.569157229734758463e-02
7.595157223878842845e-02
6.476090311949464495e-02
5.258878428452612441e-02
3.950571268113840101e-02
2.568730281644726263e-02
1.158577332955904732e-02
-2.856170350576895528e-03
-1.717951862923974143e-02
-3.127596375674100704e-02
-4.507067342589476944e-02
-5.814176082709597571e-02
-7.060479625574314633e-02
-8.219954768651245580e-02
-9.281466376897938575e-02
-1.025774160368722598e-01
-1.112057601935243223e-01
-1.188759823799422771e-01
-1.256001040194756335e-01
-1.312913859528599958e-01
-1.362251559937797118e-01
-1.403125285908747300e-01
-1.436970817563218983e-01
-1.465874571167534168e-01
-1.489062841158348416e-01
-1.508838409661133473e-01
-1.525919185655503219e-01
-1.539907168997443065e-01
-1.553107639758268821e-01
-1.564436223437137841e-01
-1.573691590508231042e-01
-1.582462254051249517e-01
-1.587701316211569957e-01
-1.590475482055699330e-01
-1.589514889653426133e-01
-1.581579212854404282e-01
-1.568712822353479086e-01
-1.546210310103324215e-01
-1.513690032347336234e-01
-1.470704768934307793e-01
-1.412531866984559348e-01
-1.341678997385493122e-01
-1.254338606756287833e-01
-1.149560460882573520e-01
-1.028996880596773078e-01
-8.891360250362999318e-02
-7.329378738505823443e-02
-5.601562307257568207e-02
-3.703742393910174069e-02
-1.679332147983082779e-02
4.737097416320352333e-03
2.724992652703411844e-02
5.030804568694991624e-02
7.385929319189950271e-02
9.727282820509046413e-02
1.202373412336811276e-01
1.425196241581920265e-01
1.633719602765696943e-01
1.827254196483342197e-01
1.999517776252323076e-01
2.146447408578620597e-01
2.267444326207403438e-01
2.355544533282562525e-01
2.411557232300280407e-01
2.431804801871355060e-01
2.414780100496464188e-01
2.362516103779364607e-01
2.272464180425132207e-01
2.148348484798548452e-01
1.990965130564323338e-01
1.803590847814839915e-01
1.590791143398361251e-01
1.356015937847500075e-01
1.105331824941126750e-01
8.435782329100142973e-02
5.775007661907220757e-02
3.122264031539552856e-02
5.487194736826727162e-03
-1.893727478066265998e-02
-4.146006623371819438e-02
-6.151457683009176058e-02
-7.883679115573856422e-02
-9.282381629336240725e-02
-1.034272045251304339e-01
-1.102894191226870130e-01
-1.133884732632688963e-01
-1.128850583071637353e-01
-1.086419677373880455e-01
-1.012084954763052547e-01
-9.059478870106407733e-02
-7.739863457745239927e-02
-6.210882275957312071e-02
-4.505973254867385452e-02
-2.714704816468292009e-02
-8.626320305805502270e-03
9.627256327483237411e-03
2.709937586092695319e-02
4.329076022350190900e-02
5.744928710951242162e-02
6.934066697073397456e-02
7.835697376961604788e-02
8.428553607160259309e-02
8.687342375338130696e-02
8.595092944201689067e-02
8.154307872685094549e-02
7.371746177380313070e-02
6.269723845246681637e-02
4.872687766009425187e-02
3.230572708711237223e-02
1.374455179128612065e-02
-6.222519340791009268e-03
-2.714358912985131989e-02
-4.836756056099465739e-02
-6.909372009919839686e-02
-8.897067013983388228e-02
-1.070325481212378166e-01
-1.230390682709126132e-01
-1.363030943042217169e-01
-1.462907411047718598e-01
-1.529385125305870452e-01
-1.555866363339173386e-01
-1.545163918441643247e-01
-1.493682138986576202e-01
-1.402015486240394404e-01
-1.273623373045145168e-01
-1.107539369292843412e-01
-9.109844092702036600e-02
-6.847723513877472523e-02
-4.342628743156131538e-02
-1.653866793911356464e-02
1.181644062599326861e-02
4.087253956560942675e-02
7.020784664585637269e-02
9.919899046280325483e-02
1.272978139004338760e-01
1.539326924134258867e-01
1.787264141635145909e-01
2.011051000811634459e-01
2.207270501970474696e-01
2.373548689072255136e-01
2.504577192420689435e-01
2.602853157944384210e-01
2.663151680305418378e-01
2.686295295608291944e-01
2.674363016158983752e-01
2.623650650737435752e-01
2.542053007447251378e-01
2.426367174610443711e-01
2.280165319121851830e-01
2.109223941526744417e-01
1.911277462151015905e-01
1.695801237755574231e-01
1.462143718353137167e-01
1.213523743476288691e-01
9.568944310653901275e-02
6.909428733012326629e-02
4.222390321922953743e-02
1.526258842826277648e-02
-1.171665845251418370e-02
-3.816529070895516990e-02
-6.406979239430790618e-02
-8.930065240896398193e-02
-1.134271018101524753e-01
-1.365776965598726189e-01
-1.584788317589250206e-01
-1.788330230016734745e-01
-1.979621338887938564e-01
-2.152183538420883169e-01
-2.307120923418759517e-01
-2.444371885909229491e-01
-2.557629923290949403e-01
-2.652160876818062119e-01
-2.720877748854779732e-01
-2.763296438066113470e-01
-2.781597559259977315e-01
-2.768200188072565959e-01
-2.728353738507002801e-01
-2.657269865252606666e-01
-2.553737990616432030e-01
-2.421771183131868344e-01
-2.256546947315228313e-01
-2.062384262519169065e-01
-1.839497751616409604e-01
-1.588214004506643406e-01
-1.313490879122697352e-01
-1.016810792853324319e-01
-7.011949762109977169e-02
-3.724957038292579098e-02
-3.411217982050178399e-03
3.097548011259683778e-02
6.507167184859599662e-02
9.876575839061484119e-02
1.311219491698711326e-01
1.615734161481823250e-01
1.899705227921298922e-01
2.150959302126197459e-01
2.371125585492907528e-01
2.551215659035153682e-01
2.686283698989867519e-01
2.778504124988345203e-01
2.817396424708610292e-01
2.807729484303874146e-01
2.744634346664178715e-01
2.627512752446327093e-01
2.461594616518540946e-01
2.243481626598239353e-01
1.980617568103860138e-01
1.674407046651522069e-01
1.330861631324139482e-01
9.564387539765652202e-02
5.574131647236924003e-02
1.422499813915740693e-02
-2.819696373393484196e-02
-7.038059910144549292e-02
-1.118295719053471332e-01
-1.511914772024136600e-01
-1.878423509766760091e-01
-2.208883608025455358e-01
-2.491680227650541202e-01
-2.726404691276704262e-01
-2.899255351542335823e-01
-3.010084844818236016e-01
-3.053481520047348630e-01
-3.024364063232798383e-01
-2.928631066769140645e-01
-2.759798981420879538e-01
-2.525654418924600519e-01
-2.227961850303903368e-01
-1.871818378053940468e-01
-1.468053409818327326e-01
-1.020909105895955044e-01
-5.435521483123527398e-02
-4.417788415998685769e-03
4.644999573071526000e-02
9.716731851612546433e-02
1.465527761467190215e-01
1.934326582087345647e-01
2.368526969137292881e-01
2.755557609953369624e-01
3.090906792977317075e-01
3.362702113215579325e-01
3.567817952311427843e-01
3.701310883346340397e-01
3.758415968417994080e-01
3.744182504919738030e-01
3.653221089165214486e-01
3.493319070796587766e-01
3.266735522569451100e-01
2.978733449565135749e-01
2.641417720678156389e-01
2.257579571492722703e-01
1.841385057081456611e-01
1.400273562029545893e-01
9.453642359558420138e-02
4.889602896974802604e-02
3.905649042911510469e-03
-3.922284024113834727e-02
-7.969480163447717480e-02
-1.165289405260981903e-01
-1.491761238872306161e-01
-1.768087933437761383e-01
-1.991267487472798692e-01
-2.157160469480863818e-01
-2.262750342015391047e-01
-2.312407817180444636e-01
-2.301419190521867830e-01
-2.237354950488596450e-01
-2.121394338430730997e-01
-1.958009018738594009e-01
-1.758559647196286102e-01
-1.522860088897193820e-01
-1.264100089025436136e-01
-9.868188926164159214e-02
-6.990448213542480027e-02
-4.121326727826883640e-02
-1.287491684390049823e-02
1.402032467991406670e-02
3.905482680223825581e-02
6.161142333512330260e-02
8.117264930876366691e-02
9.746416601323257267e-02
1.101737119522997604e-01
1.191919483135176483e-01
1.243919615707622800e-01
1.260558161239944130e-01
1.240603709642948416e-01
1.188792398579652521e-01
1.107226991881867378e-01
9.988060658350850218e-02
8.713148010887647454e-02
7.249150125219075425e-02
5.677874574627898852e-02
4.032870233001520366e-02
2.354308337449448341e-02
7.177878802859571743e-03
-8.707487698141612095e-03
-2.348342375492303361e-02
-3.691163579396825045e-02
-4.876171480262114083e-02
-5.868568863704917704e-02
-6.666163365634716897e-02
-7.254272146958835876e-02
-7.629362416269766523e-02
-7.795767103579857860e-02
-7.765555477319184552e-02
-7.542725319374059267e-02
-7.155811859764640848e-02
-6.617233864175783853e-02
-5.950808728133948067e-02
-5.193852654010268355e-02
-4.354601041403594747e-02
-3.477674062756255791e-02
-2.579183520582022104e-02
-1.686722015719166468e-02
-8.336734734528998547e-03
-2.908660869427679568e-04
6.943777999866734482e-03
1.327600426441738479e-02
1.852793747074634248e-02
2.259136577212718031e-02
2.540625495742166590e-02
2.691492186748608087e-02
2.713819315750308145e-02
2.606773125659621326e-02
2.383834089220261687e-02
2.045486884319442852e-02
1.611651799184886380e-02
1.092725420012688985e-02
5.042374057711477599e-03
-1.276716812405837703e-03
-7.957882360497889676e-03
-1.467638306644619001e-02
-2.132463346311398375e-02
-2.766443167800212294e-02
-3.347240726809441735e-02
-3.865756761079128245e-02
-4.294217381720059207e-02
-4.630106376895681136e-02
-4.853679677255848951e-02
-4.958558528195462778e-02
-4.941376410779237116e-02
-4.791875360353370361e-02
-4.519727331505382639e-02
-4.119558263231532652e-02
-3.602847760013488249e-02
-2.976906869538072792e-02
-2.251383255560050756e-02
-1.444809141473607852e-02
-5.686561652617097215e-03
3.558122912509232173e-03
1.311790200028349097e-02
2.277862196454391933e-02
3.234858208103871813e-02
4.161022853547709233e-02
5.037971422123967841e-02
5.846292913770142347e-02
6.566889566140465817e-02
7.188718177668564080e-02
7.692434368359428454e-02
8.073575117907713650e-02
8.319618981430350335e-02
8.426888522845016327e-02
8.397597839502209116e-02
8.226976144488831744e-02
7.928217030868743576e-02
7.502195880653916849e-02
6.965020799231078086e-02
6.330266402485044963e-02
5.611490580946103257e-02
4.832921424463541143e-02
4.007610857567107943e-02
3.163315127431130802e-02
2.316285371897057813e-02
1.490644521931406945e-02
7.074754268108995880e-03
-1.651341277257760767e-04
-6.584752190982286549e-03
-1.210030272675330712e-02
-1.651021316491783214e-02
-1.977109856797598653e-02
-2.177962626878160793e-02
-2.250324407811879479e-02
-2.199345299098205350e-02
-2.020510384005974602e-02
-1.730621093918388587e-02
-1.330611387896593265e-02
-8.400566180872700434e-03
-2.747809661911447890e-03
3.526157690378626478e-03
1.012163289756926390e-02
1.694651369055175452e-02
2.368356679883823826e-02
3.016674882282115513e-02
3.619558935839754105e-02
4.150377093969787740e-02
4.600722576105822220e-02
4.945566136584546302e-02
5.179048869849512543e-02
5.288568437813721129e-02
5.266342717910094118e-02
5.113886085457768071e-02
4.827892548869763822e-02
4.418579809396166319e-02
3.890519651450320693e-02
3.258560279148843553e-02
2.536137436134893938e-02
1.742233974810649538e-02
8.975735594344759483e-03
2.143337719933092675e-04
-8.599660219521482879e-03
-1.728170574478186949e-02
-2.556310359178571440e-02
-3.326294125257878848e-02
-4.016733814573606592e-02
-4.608918946027210778e-02
-5.090140832109685265e-02
-5.444952484313973773e-02
-5.669649871888934878e-02
-5.754389559056249936e-02
-5.701628267808829531e-02
-5.511464270527293569e-02
-5.190845372845989680e-02
-4.752831464720933680e-02
-4.204792828820336920e-02
-3.569609398671137052e-02
-2.859217479996228189e-02
-2.098631553245570644e-02
-1.309150071913199598e-02
-5.100543692688476807e-03
2.701098959418189293e-03
1.015716008938601957e-02
1.700591651767728585e-02
2.309120477276144223e-02
2.823523046412687240e-02
3.229188976920213672e-02
3.517332336116292535e-02
3.679075882801854935e-02
3.715488799483422644e-02
3.622356839465495915e-02
3.410207105608201172e-02
3.082440781914342481e-02
2.654119341468813911e-02
2.142741910024586333e-02
1.559160540589830599e-02
9.330930360452870109e-03
2.759750479674062673e-03
-3.835375281646187517e-03
-1.023277840819257142e-02
-1.627157921456732007e-02
-2.165397421431702191e-02
-2.628543600848081557e-02
-2.994145967871710001e-02
-3.250124314898356070e-02
-3.388564305778588720e-02
-3.398699624744149633e-02
-3.281231942343695168e-02
-3.035449678749815861e-02
-2.666928140319741597e-02
-2.183364262873840195e-02
-1.599282280409967255e-02
-9.261774380065564485e-03
-1.860982158991945218e-03
6.022300921816114289e-03
1.418823742534960040e-02
2.234321284419631820e-02
3.033510131138923357e-02
3.785582641050552755e-02
4.472171873824509758e-02
5.072978479860663914e-02
5.564336450815093871e-02
5.937633393220189543e-02
6.173761163398433505e-02
6.268582204939521230e-02
6.214800609342302495e-02
6.011883583378612589e-02
5.664373215061017236e-02
5.178585275993661391e-02
4.568920476337051673e-02
3.846474002159496614e-02
3.035878375572586760e-02
2.151972324502813422e-02
1.223783367294915478e-02
2.749626012736739854e-03
-6.717826777252073125e-03
-1.581917242335954821e-02
-2.440987093724068108e-02
-3.214687633261092276e-02
-3.886657269866505143e-02
-4.436763609118697660e-02
-4.842878915208240209e-02
-5.101602942502683757e-02
-5.194248136592906351e-02
-5.124068343590772179e-02
-4.885815690960142177e-02
-4.484753545117298873e-02
-3.931658845147117942e-02
-3.235127062435255718e-02
-2.417739564398317317e-02
-1.492127864343105112e-02
-4.893099749436946241e-03
5.724553409480912132e-03
1.661401520078039859e-02
2.748679705071960938e-02
3.811559412770394034e-02
4.810456461772511655e-02
5.732177111074527459e-02
6.539140458231071373e-02
7.214439617866320875e-02
7.739436208058617095e-02
8.088825708304847595e-02
8.265433999306127932e-02
8.246897397781251249e-02
8.040533486608222868e-02
7.644097534576153874e-02
7.061409761139512964e-02
6.312827987659433426e-02
5.403506545479680456e-02
4.362412815838214580e-02
3.205797798010950883e-02
1.963925264558530337e-02
6.639704722397725585e-03
-6.650114603125891616e-03
-1.989290228468046026e-02
-3.283590541282344066e-02
-4.509300248756908241e-02
-5.649010680948192420e-02
-6.666036220199450524e-02
-7.542366357306257152e-02
-8.258168248583733217e-02
-8.788266952010007071e-02
-9.136605101755387870e-02
-9.277672831962409383e-02
-9.220388749417435248e-02
-8.960953211631915438e-02
-8.500370393083798992e-02
-7.863188180670836747e-02
-7.046546191307964668e-02
-6.081831218724527421e-02
-4.982779393939004708e-02
-3.774248728262091790e-02
-2.489097982911174164e-02
-1.146666510463139818e-02
2.161628484338006841e-03
1.575556793502193645e-02
2.897799412376147674e-02
4.158681238729092233e-02
5.328110759436133909e-02
6.383967416105645887e-02
7.304858411582210165e-02
8.067710448358116071e-02
8.669715410984644988e-02
9.086518958799531809e-02
9.323359544956241751e-02
9.372075474884976332e-02
9.233388063279568403e-02
8.926872001596482253e-02
8.446150517780559586e-02
7.821183635339946927e-02
7.059505162500756548e-02
6.184827056015966551e-02
5.227177520872283711e-02
4.199482453966988521e-02
3.139880417509163801e-02
2.064755286637100576e-02
1.006961420650223649e-02
-1.059602262560984873e-04
-9.649534306252696356e-03
-1.830459581555832910e-02
-2.592771042410947635e-02
-3.228261675410476483e-02
-3.733490934050753829e-02
-4.089024544942893025e-02
-4.294677573592669412e-02
-4.345977730504907433e-02
-4.241179422058652393e-02
-3.996559531606623528e-02
-3.606787312874912277e-02
-3.096236520267030973e-02
-2.471420307058403917e-02
-1.753726367561682029e-02
-9.681567122309699125e-03
-1.265450430775970012e-03
7.355392312165474553e-03
1.606140185072453888e-02
2.451696592697765950e-02
3.253360887658444944e-02
3.989838738108952843e-02
4.633134834497901200e-02
5.175424104169824152e-02
5.588911461505337297e-02
5.872346405788019669e-02
6.009090776599151223e-02
5.993173712171835643e-02
5.828462617704386478e-02
5.507800247135197225e-02
5.048761904392561756e-02
4.450565686318529168e-02
3.731086743263682670e-02
2.905515506975193604e-02
1.990432869648140618e-02
1.011762361466999466e-02
-1.435023282132337138e-04
-1.057894618098460804e-02
-2.100995744628868928e-02
-3.113247941952525244e-02
-4.076215425550345356e-02
-4.965766050453256086e-02
-5.757298092709546566e-02
-6.440990783062611191e-02
-6.988757713693705131e-02
-7.400605212261805732e-02
-7.657061267840507834e-02
-7.751791303274950529e-02
-7.688806303353194760e-02
-7.455956575732608504e-02
-7.071775085720935494e-02
-6.531372662762202630e-02
-5.849116907966581125e-02
-5.041286214616040595e-02
-4.117227158975612228e-02
-3.104439549224502493e-02
-2.015660140652637475e-02
-8.780058523933594733e-03
2.876430131735049217e-03
1.455175843189649744e-02
2.602262151235203852e-02
3.704313894253022377e-02
4.735862864847613374e-02
5.681932388596993427e-02
6.512822691388749086e-02
7.223453239141035265e-02
7.789674825846938655e-02
8.201591995042892269e-02
8.458335884605190647e-02
8.541889064253961605e-02
8.468298815865743512e-02
8.226072512981259799e-02
7.827026223642494229e-02
7.285128211549665722e-02
6.603062805568310489e-02
5.810649448608919132e-02
4.913670888557163108e-02
3.939964449543287978e-02
2.909945794615682174e-02
1.844608063631603817e-02
7.721485111401190510e-03
-2.896551908782447546e-03
-1.311165571985696554e-02
-2.277762307149349200e-02
-3.161456590288651974e-02
-3.949930737465352781e-02
-4.623945423793886927e-02
-5.166318189535685362e-02
-5.576316745773946676e-02
-5.832531732062204433e-02
-5.943894959948907430e-02
-5.899484582867899063e-02
-5.702110827846854080e-02
-5.364919047503497601e-02
-4.882993389223527769e-02
-4.281385356217283500e-02
-3.562430139937568241e-02
-2.747220376881918946e-02
-1.855636769404958239e-02
-9.015853263839588086e-03
8.599332972730076505e-04
1.093257048448009749e-02
2.090528642134657084e-02
3.061716078900868915e-02
3.980581245125268397e-02
4.828101134081717177e-02
5.586987550154925986e-02
6.232804374801693970e-02
6.762881913532831080e-02
7.151726687853147968e-02
7.400026104399273774e-02
7.497846726289995878e-02
7.437740794253488996e-02
7.234298426499845280e-02
6.875537519812983944e-02
6.382140452684352538e-02
5.758029306778474077e-02
5.015340414081380371e-02
4.179937286368472921e-02
3.257913982547251674e-02
2.278968537193530250e-02
1.258273348537160968e-02
2.191565015143286284e-03
-8.149103108635506396e-03
-1.825150538577890308e-02
-2.789135262321645881e-02
-3.689659813099013808e-02
-4.505583442330970273e-02
-5.228663328044853842e-02
-5.837685780968604465e-02
-6.328960137162271959e-02
-6.692161828092317577e-02
-6.918051592472496125e-02
-7.017509587784341585e-02
-6.975604490038317396e-02
-6.807636214304171873e-02
-6.513963185449771209e-02
-6.098936886807379554e-02
-5.586285610525325990e-02
-4.971804949873217389e-02
-4.280480428963678169e-02
-3.522120492940469805e-02
-2.709841781529939708e-02
-1.868840958985655207e-02
-1.005692714309985164e-02
-1.424231867227203872e-03
7.062513416334945983e-03
1.526425548765132471e-02
2.302073544987891240e-02
3.020152219976950103e-02
3.671736578181861166e-02
4.243420428178999726e-02
4.728312677945623738e-02
5.125144606171750522e-02
5.421604591520838567e-02
5.625469144726009951e-02
5.729906855923504877e-02
5.739371082571428917e-02
5.665580860702403715e-02
5.503387003669559657e-02
5.272835451790257311e-02
4.974810750894225614e-02
4.623516123149024049e-02
4.234945377130511224e-02
3.812779958782222534e-02
3.378664951791730819e-02
2.937166567720814886e-02
2.505362325242508834e-02
2.092474498709404745e-02
1.707789068908551616e-02
1.363812719918669480e-02
1.063356451269643031e-02
8.190566614806693221e-03
6.277615409824386511e-03
4.994906547930617891e-03
4.333976790317202975e-03
4.280588105322294390e-03
4.881363824882450214e-03
6.002454887479253230e-03
7.713828096279887539e-03
9.901524296606872833e-03
1.251697301851814256e-02
1.552929660630184873e-02
1.877150009541486003e-02
2.226344465257504984e-02
2.585127632933814298e-02
2.948087427262652271e-02
3.306835961480771025e-02
3.649317988182079059e-02
3.972679835048316399e-02
4.264189891329572130e-02
4.521870553577285456e-02
4.734977452085623734e-02
4.902086515383400483e-02
5.017707143912855661e-02
5.075555997044649964e-02
5.081014350927241796e-02
5.022949412766312266e-02
4.912443107737858583e-02
4.744340518228653408e-02
4.518074664033063653e-02
4.247897681184054780e-02
3.922076783578611753e-02
3.560276885676684488e-02
3.159074366350790586e-02
2.718441504900411324e-02
2.258420854375286710e-02
1.764871051975776262e-02
1.257633430971559149e-02
7.346840083413167313e-03
1.910070452371419661e-03
-3.531522017525413892e-03
-9.140881545592076732e-03
-1.478643965361418205e-02
-2.046805212365861854e-02
-2.628794294014910604e-02
-3.207230955146676138e-02
-3.796060725846250178e-02
-4.388645188921554835e-02
-4.980341428054440439e-02
-5.580833081956522446e-02
-6.173939967073861779e-02
-6.765983679819322083e-02
-7.350947188764693496e-02
-7.918197635595970729e-02
-8.471430149697252443e-02
-8.993269256346091145e-02
-9.482707123800483695e-02
-9.931069632910444200e-02
-1.032588865867142686e-01
-1.066654789983913082e-01
-1.093852131603237632e-01
-1.113990586581885961e-01
-1.126558065345155957e-01
-1.130990039906339950e-01
-1.127421328889234575e-01
-1.115928006819208035e-01
-1.096548074601820244e-01
-1.070270661145059088e-01
-1.037793382578962448e-01
-9.993540891892517541e-02
-9.578118290856857397e-02
-9.124094023656491304e-02
-8.658684560845947287e-02
-8.196939930845226208e-02
-7.725786340309595546e-02
-7.299600560606372968e-02
-6.881964311769125930e-02
-6.499890674903112397e-02
-6.162241209557171862e-02
-5.818288877779771717e-02
-5.526126404843220707e-02
-5.210279673757537561e-02
-4.871894461900298096e-02
-4.504774336007565105e-02
-4.021984845674764220e-02
-3.461681319542415231e-02
-2.736867659226837474e-02
-1.820761847451450588e-02
-7.082734924964965983e-03
6.771149665247231178e-03
2.315989177851193737e-02
4.242573500663491398e-02
6.476423848874800215e-02
8.986137538517374734e-02
1.177136934820887659e-01
1.480982191402465120e-01
1.803158651791591516e-01
2.141219667863671350e-01
2.487022201807711497e-01
2.830744353250158607e-01
3.169464854500198547e-01
3.487833818504324501e-01
3.780209535729294745e-01
4.037433515026372377e-01
4.245850992447443573e-01
4.405181499195739980e-01
4.500782220393728106e-01
4.529825485048947775e-01
4.489050579467342428e-01
4.370674564883727520e-01
4.181030995399834804e-01
3.915361246041934029e-01
3.578611045255072898e-01
3.177296350565408933e-01
2.714754483692877196e-01
2.203498360869221573e-01
1.650910203817099742e-01
1.067925885031628663e-01
4.680119503486660643e-02
-1.378972963713787775e-02
-7.375054299993431817e-02
-1.316850436275330272e-01
-1.867070097505153514e-01
-2.375163132055828075e-01
-2.831372851452521044e-01
-3.231642528793732261e-01
-3.563387176879940221e-01
-3.827420864326268046e-01
-4.017350538005920457e-01
-4.130981497042844341e-01
-4.175569833369693340e-01
-4.144374478352860214e-01
-4.048518363474862825e-01
-3.889144809308232031e-01
-3.671403556994520256e-01
-3.409428174638747810e-01
-3.102222431588168572e-01
-2.764679257281752456e-01
-2.402117886190011098e-01
-2.022382332580141551e-01
-1.637936751428592519e-01
-1.251709918144316425e-01
-8.740709855689815511e-02
-5.104079885586351728e-02
-1.670461742682697454e-02
1.520006158872500880e-02
4.409761395557037361e-02
6.983639938401771385e-02
9.209824474634931146e-02
1.105191848855097553e-01
1.256576848748000574e-01
1.367241839220686983e-01
1.443159344363644236e-01
1.483545847410816521e-01
1.486692185975548863e-01
1.463416851736037971e-01
1.405719161032719655e-01
1.322406650095717673e-01
1.214247656778262296e-01
1.080933549648199071e-01
9.327225286381202185e-02
7.643698798042561360e-02
5.835531733203355720e-02
3.916617885564372542e-02
1.905564237473028610e-02
-1.394560756416349245e-03
-2.219903075932843847e-02
-4.283642205966321781e-02
-6.317181964474816169e-02
-8.270153809263891542e-02
-1.013569950416920024e-01
-1.186359261675708487e-01
-1.342121066394296180e-01
-1.480145763322187613e-01
-1.592942489882867574e-01
-1.683538359116751315e-01
-1.744606727008659597e-01
-1.774540579947678776e-01
-1.774129395898009776e-01
-1.736611615998527869e-01
-1.667123155135053492e-01
-1.560585194384890295e-01
-1.417939007434178000e-01
-1.242415002781600969e-01
-1.031957930503694665e-01
-7.928746921279050675e-02
-5.258698589080709751e-02
-2.352876125633689836e-02
7.314382940098364955e-03
3.951140476787082939e-02
7.242750069506816157e-02
1.054159794851852738e-01
1.378358880062307557e-01
1.690533541476023638e-01
1.982619634966644173e-01
2.250645862391293384e-01
2.486342015122906535e-01
2.685175069896971745e-01
2.843667302719540269e-01
2.955505737738442495e-01
3.021968013143126464e-01
3.038225242632160983e-01
3.005429332346061244e-01
2.925536312070036726e-01
2.798121329333581042e-01
2.630169321692560902e-01
2.422804057727250826e-01
2.182738410862712919e-01
1.916429175571338073e-01
1.628744954915531951e-01
1.328771070260189036e-01
1.021794207109919528e-01
7.155066831328804611e-02
4.169127316014000634e-02
1.318995478008335234e-02
-1.338059563918836403e-02
-3.745461380224475445e-02
-5.870591926115982517e-02
-7.675931525317658544e-02
-9.132916180587578869e-02
-1.025135251234549766e-01
-1.099754988358462027e-01
-1.140552169152873191e-01
-1.148168219195537937e-01
-1.123874445162428570e-01
-1.074485921972196945e-01
-9.992359884956415750e-02
-9.060433914933445354e-02
-7.982361230655805884e-02
-6.793592271749362976e-02
-5.578523638667213375e-02
-4.341811851036465192e-02
-3.160818839725317020e-02
-2.065991413869286766e-02
-1.085815813023399690e-02
-2.744026194382733971e-03
3.678318188244389126e-03
8.061321949154593228e-03
1.034443101120942343e-02
1.051602218910193884e-02
8.563187139481849564e-03
4.603254702230870007e-03
-1.173085189543295916e-03
-8.574514084435741479e-03
-1.733734767934097185e-02
-2.706254349593179009e-02
-3.756008197623172951e-02
-4.830902457586693649e-02
-5.904256302130811429e-02
-6.939623015628607061e-02
-7.889298531486928223e-02
-8.739829305921464897e-02
-9.441848274534729579e-02
-9.982298550750098864e-02
-1.033716261328320452e-01
-1.048186960909759796e-01
-1.041946478157558809e-01
-1.013123194499354063e-01
-9.627441070607618834e-02
-8.911264234599143574e-02
-7.992055678266124508e-02
-6.891913955173542550e-02
-5.629446139233626467e-02
-4.231923710373611952e-02
-2.730325142258089449e-02
-1.156015619911252013e-02
4.569922799518999317e-03
2.067831543738656713e-02
3.649624422342583052e-02
5.157183910689118467e-02
6.562320309257238526e-02
7.833260042227239983e-02
8.933749355958116312e-02
9.855597892170776808e-02
1.056073760788290433e-01
1.104709596116597581e-01
1.129961478662719759e-01
1.130970269768212522e-01
1.109628467248879730e-01
1.064602478869900309e-01
9.989619507790968578e-02
9.134933705669717741e-02
8.106269831850655694e-02
6.941886012283500496e-02
5.656080678302252696e-02
4.297328936091019541e-02
2.889213271677791919e-02
1.472573137455219713e-02
8.416726101203525837e-04
-1.247538613381856537e-02
-2.484160141954294687e-02
-3.602443968228552507e-02
-4.571583040620703225e-02
-5.377233310925167570e-02
-5.996317788927882364e-02
-6.423106269759717990e-02
-6.648678034801613901e-02
-6.670939946555103084e-02
-6.505973803893740082e-02
-6.148734957236681731e-02
-5.629075338844921617e-02
-4.956144314005582474e-02
-4.155510469274203283e-02
-3.264118273872737563e-02
-2.293531111436264425e-02
-1.290331059874016625e-02
-2.736440806205461471e-03
7.229714329229594907e-03
1.663657657276697982e-02
2.533193720777156613e-02
3.297599285314688211e-02
3.941881133116936775e-02
4.449762856914980108e-02
4.806197423804612484e-02
5.007772554638125623e-02
5.053636037920052060e-02
4.942867981817989503e-02
4.689324325572932078e-02
4.304147304241565802e-02
3.800746845886710662e-02
3.209381983908513036e-02
2.541349609650528363e-02
1.831569181215409250e-02
1.104862392276568378e-02
3.820918878782185446e-03
-2.981547620808487273e-03
-9.238733899314935730e-03
-1.462950045461213974e-02
-1.897245634507745485e-02
-2.213917695626820351e-02
-2.392650280076261821e-02
-2.431802654993606150e-02
-2.323258611097760162e-02
-2.068852192945196122e-02
-1.673590655804618396e-02
-1.148060263839624159e-02
-5.035541022573433723e-03
2.390486731496815204e-03
1.059911557155054050e-02
1.938298091329888201e-02
2.841167223804368092e-02
3.751766131248415043e-02
4.633875647825393823e-02
5.464860048073671289e-02
6.221052827487270204e-02
6.870040972891816589e-02
7.402131453944764405e-02
7.788807713790940612e-02
8.022116621569558292e-02
8.090682161787304816e-02
7.984432418870261727e-02
7.709388597642370666e-02
7.262150596805834468e-02
6.656653833957607014e-02
5.901652162942667978e-02
5.015363905584752091e-02
4.017969609056701308e-02
2.932254872596536110e-02
1.785793098283578600e-02
6.029522858645892935e-03
-5.830555874595664406e-03
-1.749017538187822365e-02
-2.861297631572422284e-02
-3.896866457661311151e-02
-4.829507302174677191e-02
-5.634187980238645338e-02
-6.297901927283230950e-02
-6.797434720603609537e-02
-7.130061600394971277e-02
-7.281788215145053311e-02
-7.253405515441971319e-02
-7.049003746024587458e-02
-6.669737819856334793e-02
-6.136539142590644036e-02
-5.454019547738200163e-02
-4.650057625453980076e-02
-3.742776470862075461e-02
-2.756414572838443433e-02
-1.724443950788790911e-02
-6.655170893947849955e-03
3.815494212304136080e-03
1.395954508615963874e-02
2.346252997516254379e-02
3.206222038893007109e-02
3.956227718679889566e-02
4.570918874417192329e-02
5.040243291657618696e-02
5.346505999376259533e-02
5.487586186620929674e-02
5.456279184000131788e-02
5.258027021822398589e-02
4.900289648596173331e-02
4.391388955798251892e-02
3.755723744389909829e-02
3.002721202076422818e-02
2.166508825781679470e-02
1.266413338514085600e-02
3.311759950736992229e-03
-6.035177131682575510e-03
-1.520224813493390240e-02
-2.377614939480456741e-02
-3.159184614072721442e-02
-3.835722231071948818e-02
-4.383241090871384943e-02
-4.790616432747842740e-02
-5.035591239603664365e-02
-5.116535449692476839e-02
-5.023664645065225448e-02
-4.759211739805929708e-02
-4.327194059965300960e-02
-3.738099407657660689e-02
-3.005849225939941083e-02
-2.147455661272156674e-02
-1.188754735966078557e-02
-1.473822881697025786e-03
9.396589408297711943e-03
2.052703872955722111e-02
3.156349298532690889e-02
4.218182816774223437e-02
5.216961697962770039e-02
6.111157354146181525e-02
6.889232074701005792e-02
7.517060294904712170e-02
7.977195890200979023e-02
8.258050130629693286e-02
8.339205057814075284e-02
8.227154332743072396e-02
7.909673256387503293e-02
7.397638583419183234e-02
6.697962550278180327e-02
5.825469607037244563e-02
4.803395155710418751e-02
3.650327097247185043e-02
2.400906755142753757e-02
1.077732696523931930e-02
-2.766873661822204233e-03
-1.636645366574356400e-02
-2.962681727624526945e-02
-4.217987587041580055e-02
-5.378577466981020183e-02
-6.399713247064069133e-02
-7.271951635316610540e-02
-7.957511662069571834e-02
-8.441864709910661124e-02
-8.715241164997043766e-02
-8.756968294210425163e-02
-8.583242747435242126e-02
-8.178230901566205246e-02
-7.560272437839107851e-02
-6.740151328175092438e-02
-5.732220923305475502e-02
-4.571606971891103294e-02
-3.271545925335353489e-02
-1.873629932708286219e-02
-4.033416247425843440e-03
1.099445495046583524e-02
2.599860040593543475e-02
4.064255435432389402e-02
5.452156641399060616e-02
6.738226727269436278e-02
7.881266310389160867e-02
8.867708134428187172e-02
9.663421528168938957e-02
1.025401504550103593e-01
1.062994222484135304e-01
1.077304867334638733e-01
1.070071873813428498e-01
1.039764198937484785e-01
9.884660961965849313e-02
9.173800983805489861e-02
8.278506971499106915e-02
7.238085045152990726e-02
6.061622941909974860e-02
4.791839215374499306e-02
3.453775661781628703e-02
2.080675046459064259e-02
7.109008015636367195e-03
-6.315317909548119960e-03
-1.908379599812628363e-02
-3.097254315586501355e-02
-4.166894495216588723e-02
-5.100984435311531340e-02
-5.875941895588408792e-02
-6.479499863473048293e-02
-6.903469047488147714e-02
-7.135944732807972257e-02
-7.189444426865039539e-02
-7.052877280559279038e-02
-6.745089884630374455e-02
-6.274070983560155190e-02
-5.652206078696072472e-02
-4.911457192757616441e-02
-4.057157293196807929e-02
-3.127304686127108796e-02
-2.138977336030561949e-02
-1.120489747139158040e-02
-1.041804780642435584e-03
8.935314100473991730e-03
1.836858900960675750e-02
2.711286614783235682e-02
3.488940389879467002e-02
4.154908317200543127e-02
4.692916940500663908e-02
5.088178576936615294e-02
5.337961028634675281e-02
5.430235171059175081e-02
5.374261515362571684e-02
5.164253879409053810e-02
4.812844926895420983e-02
4.330063381183854587e-02
3.726009586287829661e-02
3.026512270180239245e-02
2.239354845590163859e-02
1.396118077594285870e-02
5.116837002884379315e-03
-3.873165117003880137e-03
-1.275011044049478848e-02
-2.135447943184449332e-02
-2.935324256919760039e-02
-3.665917703826106905e-02
-4.297518228370490745e-02
-4.819101832708300864e-02
-5.216435639870436319e-02
-5.470699532268730181e-02
-5.586186681870600884e-02
-5.544594698222957835e-02
-5.355049894062007682e-02
-5.013959173916263112e-02
-4.524839144293959364e-02
-3.903857006223677290e-02
-3.153180911005942083e-02
-2.296095270276906491e-02
-1.342985873590444093e-02
-3.166071195642668201e-03
7.631622699477520408e-03
1.873912013168666305e-02
2.991123380710630081e-02
4.094248155108173859e-02
5.152770699166946133e-02
6.153564314154845449e-02
7.063491096225524291e-02
7.869835706926144037e-02
8.551594986483736227e-02
9.085412218125740735e-02
9.473067480522411044e-02
9.686439503316278399e-02
9.732459514067999529e-02
9.601407539050074713e-02
9.289291835534491115e-02
8.814474130040980682e-02
8.168328284884493473e-02
7.375600569307122489e-02
6.444225633227218530e-02
5.391902858412229993e-02
4.245581395241068007e-02
3.020558752365040331e-02
1.747046039439536375e-02
4.467102279174982316e-03
-8.505133161224557800e-03
-2.123547606838774998e-02
-3.340885839142406638e-02
-4.483147484603964422e-02
-5.526296515051390412e-02
-6.443509841917477443e-02
-7.231732390404946309e-02
-7.857925956065339723e-02
-8.324246837967355650e-02
-8.615902815723124053e-02
-8.721880425948648485e-02
-8.659571998860626785e-02
-8.408550021451886847e-02
-7.991892356516928919e-02
-7.410085891951428971e-02
-6.672349120362959518e-02
-5.808177478766747559e-02
-4.817875341115242932e-02
-3.734661710844729837e-02
-2.572994288336125090e-02
-1.357714186541002926e-02
-1.160623261012785554e-03
1.131554066248786558e-02
2.357090344327416112e-02
3.539854089223527789e-02
4.650665280612892999e-02
5.678283887935301616e-02
6.591652388760937953e-02
7.380941266727435168e-02
8.030077097795880470e-02
8.518602400733588098e-02
8.857838972371856467e-02
9.020180501704094800e-02
9.018567907673925854e-02
8.849828680360301292e-02
8.510891494854987138e-02
8.030985827229075724e-02
7.397819874183260425e-02
6.640622393269671186e-02
5.770026340123911301e-02
4.800500575739232584e-02
3.764820040921521005e-02
2.670035529021812931e-02
1.547254657048968002e-02
4.141269284836938264e-03
-7.051341812414284316e-03
-1.790683244209931302e-02
-2.820710312044691359e-02
-3.776589952576327180e-02
-4.643153584489605190e-02
-5.397278675634729211e-02
-6.041047774794724989e-02
-6.547799485074334847e-02
-6.918334896141115076e-02
-7.146687751115256282e-02
-7.220284728878881286e-02
-7.160076810114043844e-02
-6.946713245052765773e-02
-6.598212029883177010e-02
-6.119764154907700315e-02
-5.514761938602027319e-02
-4.811632873606344618e-02
-4.007829055815795988e-02
-3.129945025378565171e-02
-2.191485563182505106e-02
-1.210764924619956232e-02
-2.110305359657532742e-03
7.924690899879590841e-03
1.775596993303256779e-02
2.723093646555070635e-02
3.609652917328316085e-02
4.426592673164384678e-02
5.149230286289869368e-02
5.765978025243505972e-02
6.267688300353013720e-02
6.634549692242822094e-02
6.875696947727498454e-02
6.970819842205473738e-02
6.926530630140086131e-02
6.744903408078618823e-02
6.422574561971397533e-02
5.981989145379273259e-02
5.418171136385716707e-02
4.753635353469743557e-02
4.000020023379855655e-02
3.173065034854549715e-02
2.297341047464576333e-02
1.384803216581722250e-02
4.637926092625922238e-03
-4.522508373617846467e-03
-1.335765978206293961e-02
-2.172413948861044025e-02
-2.941012849750358760e-02
-3.620339960858388884e-02
-4.203893682739491544e-02
-4.665551295210152577e-02
-5.008231977887072500e-02
-5.213498235829774202e-02
-5.276795010489868792e-02
-5.202925730644918784e-02
-4.979862359898427904e-02
-4.626067616510207842e-02
-4.135728826655931528e-02
-3.522925426466616550e-02
-2.801667032169825183e-02
-1.980407418582921103e-02
-1.084234245770255081e-02
-1.233510503321380396e-03
8.755408626297124519e-03
1.896242118009829059e-02
2.912699365351347630e-02
3.905006296063170262e-02
4.851963202427755917e-02
5.726159502335479573e-02
6.518297075010134889e-02
7.196716618390201770e-02
7.756834002946540185e-02
8.178228890404461160e-02
8.446016931363552194e-02
8.564737282103548899e-02
8.512982373850422335e-02
8.305058387367698913e-02
7.933374508279714132e-02
7.403327605407909739e-02
6.733164569695024304e-02
5.922828239088356872e-02
4.999368176165926159e-02
3.972794648737301010e-02
2.866164399893999723e-02
1.702661406531065513e-02
5.036340748924658661e-03
-7.049354048955321431e-03
-1.900823363191255985e-02
-3.055190547142382779e-02
-4.152750293744325583e-02
-5.161185940776693432e-02
-6.069394128172150848e-02
-6.854371884456728070e-02
-7.495622832535216162e-02
-7.994362135198056218e-02
-8.322019302447605793e-02
-8.488120334281913648e-02
-8.479626334123276099e-02
-8.293733184862681074e-02
-7.947705844347459359e-02
-7.429465338135918251e-02
-6.764734573161713949e-02
-5.956232255366276929e-02
-5.020384038265147952e-02
-3.982100837993866188e-02
-2.851868285593409796e-02
-1.659952269513153417e-02
-4.234710484145094711e-03
8.285732626809594326e-03
2.075905961148144518e-02
3.289276494334474055e-02
4.447653381817651130e-02
5.527927791484987807e-02
6.501124914759076612e-02
7.362288172029549105e-02
8.076432713347315995e-02
8.641919137236418746e-02
9.041562588022090952e-02
9.260086712871810899e-02
9.311722309156227062e-02
9.172537965265741000e-02
8.862126349781783430e-02
8.378246418326679157e-02
7.727432858232242963e-02
6.936945630928371964e-02
6.005573471318578077e-02
4.965625132678979509e-02
3.830134408599501078e-02
2.625114285584215224e-02
1.376775856884673334e-02
1.070849120683201733e-03
-1.153901759767015853e-02
-2.385781146709184397e-02
-3.554469246961734080e-02
-4.648609196527826032e-02
-5.633259269782311951e-02
-6.494172619634212829e-02
-7.214497126725376297e-02
-7.767230973427927121e-02
-8.161939483614613633e-02
-8.367084021367425517e-02
-8.390622426389879318e-02
-8.228081903628953198e-02
-7.872383995016139779e-02
-7.350031424551747850e-02
-6.648521278517664779e-02
-5.795039479258012882e-02
-4.800454365451520961e-02
-3.682249697758844392e-02
-2.472032008356173094e-02
-1.183505681518980460e-02
1.483915274560269199e-03
1.502225852314049460e-02
2.843091677565063452e-02
4.149253780389881158e-02
5.387118986747179566e-02
6.530423972998679327e-02
7.558700785138945666e-02
8.437038719940136156e-02
9.165743932499198499e-02
9.709163049675154089e-02
1.006410794442234580e-01
1.022351744624147157e-01
1.017146609332353485e-01
9.932265008650217886e-02
9.487486655458651774e-02
8.860288090688316076e-02
8.061701120912101448e-02
7.103535899073068483e-02
6.022223622888341066e-02
4.825609815327312063e-02
3.551491217351802898e-02
2.222152764239007650e-02
8.696665465265703693e-03
-4.760914976977052848e-03
-1.787960868502618678e-02
-3.033426658393521824e-02
-4.192279850676672998e-02
-5.230200035159897343e-02
-6.139110035040340474e-02
-6.888471504331405981e-02
-7.467648243066477010e-02
-7.869204833143331190e-02
-8.074228330442762003e-02
-8.099568357346718928e-02
-7.926841115160086770e-02
-7.572062499281166648e-02
-7.043372361410379923e-02
-6.346319180409648597e-02
-5.513447330913469335e-02
-4.546992095485388741e-02
-3.481537545986582854e-02
-2.335743674514357063e-02
-1.136535295417973046e-02
8.395679029127014678e-04
1.305299613709209189e-02
2.491333945797707602e-02
3.623345736201219469e-02
4.667300706172280989e-02
5.607229204480201207e-02
6.417039789501274849e-02
7.077271459355798100e-02
7.580046396692061150e-02
7.902870158456165584e-02
8.053919456731647997e-02
8.017143697361983623e-02
7.800181050827376117e-02
7.410950594840916283e-02
6.851310457114051511e-02
6.149245879730388248e-02
5.307878678639615933e-02
4.358215604106126934e-02
3.319018067656388099e-02
2.215458900965489031e-02
1.079954452778685015e-02
-6.849809007669818012e-04
-1.192172735633508299e-02
-2.273650993261319697e-02
-3.278712176357066743e-02
-4.188262462256402141e-02
-4.979858874150758924e-02
-5.628935199622259189e-02
-6.130258680303007912e-02
-6.459138739516372130e-02
-6.619504499377036610e-02
-6.598709481357140083e-02
-6.397769435618021194e-02
-6.026728050625074218e-02
-5.483712580224266164e-02
-4.793049904970808628e-02
-3.959238935995339215e-02
-3.008345372734411854e-02
-1.960222211642106277e-02
-8.374312305661059039e-03
3.281707691747992248e-03
1.517177256014756725e-02
2.691783544317356835e-02
3.833449212509941473e-02
4.906704301005469782e-02
5.889134619530414505e-02
6.757591840830654006e-02
7.482633120893791845e-02
8.058340445440534405e-02
8.455834578297669046e-02
8.675038976917529010e-02
8.703347568746840068e-02
8.536477847480025694e-02
8.186237933114447196e-02
7.647214267604492133e-02
6.943093297117630680e-02
6.080126331613647933e-02
5.082503291189134631e-02
3.974125411513391298e-02
2.776465747766061753e-02
1.524470397331645181e-02
2.394563128947949700e-03
-1.039271054703661337e-02
-2.289707641189706738e-02
-3.475864730544157150e-02
-4.571254128296987213e-02
-5.552440006956796403e-02
-6.387251837941829158e-02
-7.068777549749688527e-02
-7.566863599970820309e-02
-7.878731612068225199e-02
-7.992382232977174317e-02
-7.901264374026792381e-02
-7.617845198018108333e-02
-7.134809901400473997e-02
-6.475472239109043848e-02
-5.645894321467256893e-02
-4.669853882967517356e-02
-3.572298795724554443e-02
-2.373357833277977072e-02
-1.110491962976319080e-02
1.959133294865880032e-03
1.503746216535714261e-02
2.790014138966106019e-02
4.017719070420483485e-02
5.155738125438539404e-02
6.181636096919806977e-02
7.057962771622648679e-02
7.778158408409015234e-02
8.309059768815058034e-02
8.644399913769360011e-02
8.773897926972290540e-02
8.686528149074784766e-02
8.398188481100370140e-02
7.898743614346319386e-02
7.212168232069016138e-02
6.347145848500704290e-02
5.326182051827262759e-02
4.179667587807023993e-02
2.926037076204108037e-02
1.606776109147788761e-02
2.436490572078095322e-03
-1.119893220430896036e-02
-2.457408159720411364e-02
-3.733004173206695003e-02
-4.911477221952206818e-02
-5.972319354523851487e-02
-6.875444909818888284e-02
-7.615620210771041620e-02
-8.159609099848784408e-02
-8.498866006136067408e-02
-8.627320653549205853e-02
-8.529720490155473511e-02
-8.227164625726955671e-02
-7.706456656463439581e-02
-6.990664062576125437e-02
-6.092400329395776526e-02
-5.028017140198731000e-02
-3.834673619816433149e-02
-2.525015659800996723e-02
-1.140608155136274213e-02
2.938142435500100749e-03
1.741130279147612772e-02
3.168095292566884547e-02
4.544301295105674515e-02
5.833500855146966230e-02
7.012536227633940633e-02
8.045816839758766770e-02
8.922374441855447647e-02
9.612160522525631245e-02
1.010542627999168885e-01
1.039391310467055324e-01
1.046455293304506540e-01
1.033481561699877566e-01
9.992350402057396941e-02
9.459610566183011826e-02
8.747477394785840854e-02
7.871932489351152196e-02
6.868756894368713284e-02
5.748338888875291486e-02
4.551710490637937007e-02
3.301044718413553847e-02
2.029961653786449549e-02
7.718593032451355994e-03
-4.490584505706263913e-03
-1.597433800617429830e-02
-2.653686543124673253e-02
-3.587531266879524089e-02
-4.386173479351211657e-02
-5.027024911274759200e-02
-5.500260456592018232e-02
-5.799235197667704234e-02
-5.914463345606382760e-02
-5.858907659523093781e-02
-5.623906846936573695e-02
-5.229862868244680718e-02
-4.684391963369007039e-02
-4.003855945041875225e-02
-3.217727872588511950e-02
-2.334721789427108077e-02
-1.394069194846558543e-02
-4.107645763351179188e-03
5.818179081477718381e-03
1.555002858478611583e-02
2.489300431668173275e-02
3.347500536434355745e-02
4.118298145095843077e-02
4.769503114141478151e-02
5.289646551310978745e-02
5.661795406887596555e-02
5.870429169584429063e-02
5.917129823710960690e-02
5.788856848236925701e-02
5.498042459550865624e-02
5.042214292366303807e-02
4.435191368007807000e-02
3.692390179065318384e-02
2.827117357103093448e-02
1.868274137880103491e-02
8.301931533335183550e-03
-2.529200022027257300e-03
-1.360832467422461514e-02
-2.461861370100841551e-02
-3.528269620545730623e-02
-4.537776343761985159e-02
-5.455936593527840189e-02
-6.271105921586495047e-02
-6.951145870822188211e-02
-7.486387499598760875e-02
-7.860258030995202760e-02
-8.056954356713276477e-02
-8.081845369508780519e-02
-7.919136858303035820e-02
-7.582824392473776209e-02
-7.071736694783684052e-02
-6.395742858329150904e-02
-5.575377788048720834e-02
-4.618356675359893554e-02
-3.554174511502612710e-02
-2.398230054298713942e-02
-1.178905490570024070e-02
7.845251184437074254e-04
1.347512312286537443e-02
2.599874287562786365e-02
3.810986137610692520e-02
4.950641160588140077e-02
6.001893667255626952e-02
6.933958905949398621e-02
7.735663294132147372e-02
8.385610861578927933e-02
8.869102815455405520e-02
9.186600712765304044e-02
9.319075681570190839e-02
9.279516720416257358e-02
9.060234831311030079e-02
8.670767930520006939e-02
8.128351478771918270e-02
7.435372645756475884e-02
6.622569789732005163e-02
5.698525613116948302e-02
4.692246244323138721e-02
3.627158021105067465e-02
2.524830965556500162e-02
1.417215899487127978e-02
3.224064278870879523e-03
-7.266155964453464844e-03
-1.714280978112036821e-02
-2.612025802303673955e-02
-3.403507808719043182e-02
-4.071992502476656783e-02
-4.597599879642297327e-02
-4.980950238481542114e-02
-5.201449077235666130e-02
-5.266154742250753890e-02
-5.168250509846766122e-02
-4.911247674693773602e-02
-4.510504211625042392e-02
-3.964334056774023590e-02
-3.299270674452883106e-02
-2.521152112654994476e-02
-1.656234536424345746e-02
-7.252385620533020882e-03
2.528679214119392178e-03
1.245220980525155521e-02
2.237735379558284526e-02
3.193217039017787889e-02
4.098095728524589476e-02
4.922128529473085434e-02
5.642591835479642687e-02
6.246940202738172215e-02
6.705252560929564343e-02
7.020509503900593251e-02
7.167864698061286732e-02
7.146778243557687371e-02
6.956103457170904891e-02
6.589011793888835400e-02
6.065666790567753042e-02
5.381542126026302164e-02
4.558978642508741685e-02
3.611176063980434808e-02
2.558461049382054070e-02
1.427682604842219448e-02
2.382829072483155699e-03
-9.770364750541531834e-03
-2.197837224256955074e-02
-3.387350654257963167e-02
-4.528510723568696800e-02
-5.587467459397747749e-02
-6.539738747406236008e-02
-7.369791274679887705e-02
-8.043226435327741064e-02
-8.564464580636148294e-02
-8.901838075724308186e-02
-9.052656365400260641e-02
-9.015577080243722397e-02
-8.775403916948767979e-02
-8.357651758686675258e-02
-7.748293919992518819e-02
-6.968040104303843685e-02
-6.031389009467573448e-02
-4.949632609712767417e-02
-3.756548229845665943e-02
-2.463641478372169402e-02
-1.104111523981467224e-02
2.983017012580393458e-03
1.711740189283225688e-02
3.111033156098056904e-02
4.464435356233360103e-02
5.743436168506060174e-02
6.926810070755937132e-02
7.978221558132993219e-02
8.894275700926825012e-02
9.638895736296965167e-02
1.020354518602984012e-01
1.058082785378880175e-01
1.074842828347238183e-01
1.072781415370790553e-01
1.049666338642459701e-01
1.007182685766883912e-01
9.463757476195680529e-02
8.675199290259233420e-02
7.742462774765720979e-02
6.666974520048229991e-02
5.482832638254832303e-02
4.211727391200675158e-02
2.879376124134553488e-02
1.518345300056099523e-02
1.511430463647737629e-03
-1.187774238192748980e-02
-2.478346527369391927e-02
-3.684541930272531435e-02
-4.794053654498606210e-02
-5.775417121894668715e-02
-6.609786350068475036e-02
-7.289749814269672057e-02
-7.785087195779062663e-02
-8.109395415863314416e-02
-8.237181301507502662e-02
-8.172821426071814888e-02
-7.925225037155901597e-02
-7.482804949030973096e-02
-6.878192675982006121e-02
-6.103345286773832756e-02
-5.183180667438959388e-02
-4.138570658917843648e-02
-2.981566600239648340e-02
-1.748943170748208306e-02
-4.533888659033202817e-03
8.705975329221668502e-03
2.200528655649405807e-02
3.505975477102149518e-02
4.762661682353332843e-02
5.944420632675263827e-02
7.022294575907749026e-02
7.984686997215939552e-02
8.796714146317280436e-02
9.458279984463209555e-02
9.944166929671680033e-02
1.024357817827268868e-01
1.036405447175210021e-01
1.028189337188874647e-01
1.002186177638045989e-01
9.572939921306489186e-02
8.946045455874834795e-02
8.166062068866271340e-02
7.229675522963814605e-02
6.174637170153065430e-02
5.008599777658490765e-02
3.756721695265630850e-02
2.449069648107190383e-02
1.101613750814842661e-02
-2.537270038165482383e-03
-1.596177018985426091e-02
-2.899769711588229271e-02
-4.144479578500789851e-02
-5.303480421254126720e-02
-6.365384461443263087e-02
-7.306462599250193590e-02
-8.110841758532391643e-02
-8.777237572175897173e-02
-9.278472865131219549e-02
-9.626586080165711046e-02
-9.804381537214475195e-02
-9.810487822166182037e-02
-9.661120985317595000e-02
-9.338771000962227398e-02
-8.871121193835004859e-02
-8.254038225625132119e-02
-7.499678610097815223e-02
-6.633391685529702042e-02
-5.654702336777635285e-02
-4.594380886691648569e-02
-3.463235375587335463e-02
-2.282317752777819966e-02
-1.075401443221666448e-02
1.396837391617978229e-03
1.340808052513162499e-02
2.506446128414936692e-02
3.614398254830913926e-02
4.651686453977892793e-02
5.589756612658995649e-02
6.423202320239393415e-02
7.129731500070558836e-02
7.696123166358219414e-02
8.125424757906038464e-02
8.392763022600106815e-02
8.512137400566707757e-02
8.471390168832025613e-02
8.274429049303748396e-02
7.938794688136123490e-02
7.456247032809167063e-02
6.855248825369246457e-02
6.138596523481405776e-02
5.327538269531317816e-02
4.445225746588318122e-02
3.503485866797274167e-02
2.533346208849799122e-02
1.548537755424147545e-02
5.783342716173248653e-03
-3.605609618220760246e-03
-1.243985001011088665e-02
-2.052248853787455585e-02
-2.770330085849154189e-02
-3.375406057310269270e-02
-3.865982835615457830e-02
-4.219532268144157716e-02
-4.436876690892573027e-02
-4.510845922834143262e-02
-4.437011787408735169e-02
-4.229796101365997096e-02
-3.880708829745767308e-02
-3.410770267238071723e-02
-2.824400696186423615e-02
-2.138555980439105220e-02
-1.375843181307302709e-02
-5.462362074201585968e-03
3.192266373252630220e-03
1.208090418034021840e-02
2.090219347032742231e-02
2.947594957214687283e-02
3.757976232756696927e-02
4.496205757823509147e-02
5.150938963231813106e-02
5.694617638556153522e-02
6.125121660264426504e-02
6.421251540687539228e-02
6.576981423098490764e-02
6.590903289722477298e-02
6.452429952666002833e-02
6.177818357494989365e-02
5.759201945363695563e-02
5.212235133791590785e-02
4.547705415097513110e-02
3.776848840396872936e-02
2.925093289526456419e-02
2.002478757769578926e-02
1.036393699710576322e-02
4.386031241132839695e-04
-9.492027015887650673e-03
-1.923216364377549822e-02
-2.855897392016746444e-02
-3.724104629347071982e-02
-4.514505435440623743e-02
-5.200562614605314105e-02
-5.779800257169355471e-02
-6.229346607516438039e-02
-6.542508729904468467e-02
-6.716895642583134429e-02
-6.738086078269402146e-02
-6.622013717559945001e-02
-6.356170705292092660e-02
-5.952871963514450027e-02
-5.421787938211123509e-02
-4.766579336906071745e-02
-4.013411553142041954e-02
-3.165829044478157134e-02
-2.248208871381697158e-02
-1.277614985091228214e-02
-2.730616542638069841e-03
7.417469921601204524e-03
1.749347111303801994e-02
2.725789472769800034e-02
3.654745068439255173e-02
4.511945358819351160e-02
5.287283415317419605e-02
5.958621253444013749e-02
6.514672663438958455e-02
6.947823802548816485e-02
7.241520193530431859e-02
7.404032822537176539e-02
7.420463035964608434e-02
7.298601444748653577e-02
7.043354538686141808e-02
6.655123578165433873e-02
6.156477330835791878e-02
5.547275680129765824e-02
4.851009322271859769e-02
4.081603641990651232e-02
3.256033993872517462e-02
2.399309108616514905e-02
1.524373554826515334e-02
6.583228336988305313e-03
-1.848684044667193299e-03
-9.812905351351403072e-03
-1.716490868046778931e-02
-2.373096637869655592e-02
-2.934199046805091582e-02
-3.393861572674511384e-02
-3.734148972057252380e-02
-3.957831088483510645e-02
-4.053011928372932116e-02
-4.021375554563680343e-02
-3.867475056037519149e-02
-3.589147967399163724e-02
-3.203843344831142775e-02
-2.711283731845032241e-02
-2.131262644119648678e-02
-1.474805951941248958e-02
-7.577814705542531074e-03
-2.546514747263795703e-05
7.799584229047729599e-03
1.560572392418702048e-02
2.329707957933810011e-02
3.059882428616572322e-02
3.735673329370778339e-02
4.341639478355316384e-02
4.852337380960897173e-02
5.267242274925119927e-02
5.560030964992278280e-02
5.730631016952297124e-02
5.769000093069392293e-02
5.665277982457093270e-02
5.431058657126098393e-02
5.054546171934806709e-02
4.551675759903025392e-02
3.925036671654105747e-02
3.185082218462988862e-02
2.351007423290430234e-02
1.432311859905934306e-02
4.527840434696903463e-03
-5.726366787087674645e-03
-1.618164830126391646e-02
-2.667442545551343414e-02
-3.693097533151568773e-02
-4.676125468194630014e-02
-5.596802128228486189e-02
-6.425933776000550268e-02
-7.160194303655978421e-02
-7.766205779148482868e-02
-8.239858868729534047e-02
-8.567044306344655247e-02
-8.728213562467836140e-02
-8.736790383723062881e-02
-8.568304842537823041e-02
-8.235970945808951393e-02
-7.739159907475931521e-02
-7.076560931218300876e-02
-6.273539288278155712e-02
-5.326274803226959537e-02
-4.259588309039540749e-02
-3.088358898525185581e-02
-1.830456881825872142e-02
-5.126448522883407174e-03
8.448988567704865046e-03
2.216705534827609347e-02
3.577478116071405867e-02
4.898012567073511264e-02
6.162106820876692842e-02
7.333689914756445771e-02
8.399043861571203751e-02
9.333633093197181430e-02
1.011144000063065596e-01
1.073550749526937381e-01
1.117084819522720512e-01
1.142417988821651936e-01
1.148388243553939286e-01
1.134144514240857798e-01
1.101977707662505496e-01
1.050210356710983423e-01
9.815164515019413061e-02
8.966124230369874881e-02
7.969524409260227149e-02
6.858416980937082075e-02
5.641620283703930455e-02
4.354381682147947380e-02
3.017938638402280910e-02
1.662370322463223998e-02
3.143606084398269367e-03
-9.979089623071927401e-03
-2.248247460908985376e-02
-3.413445309005295331e-02
-4.464001711675955747e-02
-5.393464258250180859e-02
-6.169215639163139198e-02
-6.787683858515712598e-02
-7.235214978055547197e-02
-7.498173746579868404e-02
-7.593390493049236023e-02
-7.499233990627153512e-02
-7.237065006251404420e-02
-6.807975854968091600e-02
-6.221143597926669100e-02
-5.507745959657432688e-02
-4.666232094486930104e-02
-3.733070405026115562e-02
-2.721313577696658770e-02
-1.658444998967385439e-02
-5.738707191125923257e-03
5.149798120206792139e-03
1.573806080766200488e-02
2.586449965651675328e-02
3.521247399143328377e-02
4.365019682742599799e-02
5.092819483460926666e-02
5.688816762852977327e-02
6.143998838223562603e-02
6.439503127558750262e-02
6.584090563120985340e-02
6.561042461755631217e-02
6.380331802899849580e-02
6.045748568910482706e-02
5.561756367532552647e-02
4.953288457051285149e-02
4.221669689019569988e-02
3.396792863133717144e-02
2.492085864075731239e-02
1.533065230954647716e-02
5.460788865130346975e-03
-4.512377894795638333e-03
-1.425055491238134964e-02
-2.361924690359008816e-02
-3.228493409156821953e-02
-4.011873748101152382e-02
-4.688904363211299220e-02
-5.238654221812158451e-02
-5.656817815954000295e-02
-5.918783651742276497e-02
-6.031778783976442238e-02
-5.980367949753358225e-02
-5.765975698639645708e-02
-5.397006658482617764e-02
-4.869674095549095943e-02
-4.207261263370324494e-02
-3.411166874330673338e-02
-2.503651304686032794e-02
-1.502435632190239276e-02
-4.267699972880829515e-03
6.958895016569209210e-03
1.846938935870937742e-02
2.994618351601865611e-02
4.120660635239994929e-02
5.191959625028588765e-02
6.191106101486200386e-02
7.091785192093162660e-02
7.869182019109223492e-02
8.515098129856943365e-02
8.999688434085462152e-02
9.325869451815570199e-02
9.474507510388702203e-02
9.441336836268809929e-02
9.234623142190662159e-02
8.843526180195181163e-02
8.291311234751577719e-02
7.576788580055711375e-02
6.718579446790426402e-02
5.738250825817229478e-02
4.648738803123777380e-02
3.482154841950219765e-02
2.255252849215196032e-02
9.989776491060722158e-03
-2.628221678295086794e-03
-1.501699413519304999e-02
-2.693100441630189718e-02
-3.811885427868876713e-02
-4.831965952698839828e-02
-5.738983269006572852e-02
-6.505104668899280851e-02
-7.125578256498817098e-02
-7.580005621001015270e-02
-7.861883524269150381e-02
-7.972375419433470889e-02
-7.899824413227438114e-02
-7.661468857495173923e-02
-7.251632873336437413e-02
-6.688409456786961749e-02
-5.986422048777492733e-02
-5.157440815347954371e-02
-4.232370401185581166e-02
-3.222409824050077171e-02
-2.162716489483892945e-02
-1.072768804760569281e-02
1.780529515642515978e-04
1.079708345023211447e-02
2.092286337943993074e-02
3.021263022727908865e-02
3.853684625641840000e-02
4.559168166989172738e-02
5.125740229789178815e-02
5.536745542576593931e-02
5.778827439940933258e-02
5.853456930293018251e-02
5.748862568334996148e-02
5.477935491876426144e-02
5.038702373228049619e-02
4.448972979219519702e-02
3.723217869435553606e-02
2.877475485996432158e-02
1.943289871827708071e-02
9.336556733850785023e-03
-1.095053635019724650e-03
-1.169459537500507421e-02
-2.209923778060545255e-02
-3.198096098314098107e-02
-4.116194817529555960e-02
-4.919638774872441001e-02
-5.602416070899441519e-02
-6.128186055694025136e-02
-6.481539963069517241e-02
-6.653353460472545555e-02
-6.620430011118023927e-02
-6.394042463423668665e-02
-5.959160081296011047e-02
-5.327211979181433604e-02
-4.506277369266795119e-02
-3.508168173528643935e-02
-2.357744250382736925e-02
-1.072225501313985377e-02
3.151376849573500963e-03
1.780375070677354260e-02
3.281611327571713060e-02
4.793093445453382867e-02
6.272140194415647130e-02
7.682139183909079960e-02
8.995351715138376336e-02
1.016281113395731128e-01
1.117425954477215960e-01
1.198438031876405269e-01
1.257641379972790907e-01
1.293607106535416829e-01
1.303629308930621122e-01
1.289276904133710988e-01
1.248361455137445425e-01
1.182540279886025031e-01
1.092819009477472569e-01
9.803577200641169775e-02
8.488481918404047755e-02
6.997036393818288624e-02
5.371820938029792103e-02
3.642914053670644886e-02
1.853314548194267761e-02
4.111427344407310794e-04
-1.752319757496850761e-02
-3.483784391977899630e-02
-5.120232589741258861e-02
-6.613617777446201274e-02
-7.947803407976986034e-02
-9.077246937173791275e-02
-9.985261632310654667e-02
-1.065373247220651604e-01
-1.105778450711677324e-01
-1.121417756798007981e-01
-1.109633869046290633e-01
-1.072604760239377619e-01
-1.010838649130579858e-01
-9.255886639239581382e-02
-8.209220241583549404e-02
-6.973329611287969187e-02
-5.597853764436479945e-02
-4.105977185147090952e-02
-2.539757008871838806e-02
-9.421825193924000114e-03
6.566998241456340271e-03
2.206095042503726858e-02
3.680006928919056508e-02
5.031574381452270928e-02
6.239080694829191032e-02
7.267375316232067839e-02
8.092637930998665408e-02
8.702555388666644021e-02
9.072498713103023527e-02
9.214173337554346088e-02
9.108614407748620578e-02
8.772100710118284350e-02
8.213215485958701156e-02
7.442962444541423306e-02
6.499177690789653683e-02
5.388554898872141563e-02
4.157406580300183202e-02
2.827984670801807210e-02
1.439113810848701921e-02
3.180731682131798105e-04
-1.368598328053223165e-02
-2.712398418186278554e-02
-3.979727295703209405e-02
-5.126476678790413410e-02
-6.132199389712150728e-02
-6.969652836478629210e-02
-7.612059100610521489e-02
-8.055234918598422333e-02
-8.273006674996111198e-02
-8.275841690205440471e-02
-8.050666401657173565e-02
-7.605658434882783814e-02
-6.955463709222776958e-02
-6.104445605220158722e-02
-5.086830270000971405e-02
-3.911446051183536943e-02
-2.614811783622707220e-02
-1.222715043773792490e-02
2.330272331736599548e-03
1.713962578384985863e-02
3.193645380968425374e-02
4.627881548022277913e-02
5.994123774018557393e-02
7.250011459543913295e-02
8.374419140724008448e-02
9.337793165799672390e-02
1.011227154925070509e-01
1.069229321556135898e-01
1.104738531086054271e-01
1.118621630570117292e-01
1.109310193178951048e-01
1.077138908695070285e-01
1.023726102759300177e-01
9.487889095919059546e-02
8.557519705586048853e-02
7.452943721008431499e-02
6.205788156837191427e-02
4.845215860044165684e-02
3.396008047679451025e-02
1.898699579550545968e-02
3.776302464476189759e-03
-1.125744124791683981e-02
-2.586093523290648732e-02
-3.965285933303167032e-02
-5.238738498487239409e-02
-6.378223529071240516e-02
-7.354690090756117737e-02
-8.160278253071659438e-02
-8.763065353394472456e-02
-9.166852491244871504e-02
-9.353685342030647332e-02
-9.321498454924542765e-02
-9.083123892691886969e-02
-8.628478714325182874e-02
-7.987178025443984752e-02
-7.159794298367058718e-02
-6.172263885119348703e-02
-5.050555909561284945e-02
-3.811466985866455992e-02
-2.495515291741488492e-02
-1.120713876385706631e-02
2.714298300104488106e-03
1.655835894403255917e-02
2.997188536703462164e-02
4.264209190654642129e-02
5.432046012007271663e-02
6.464454309401686249e-02
7.351553501084398534e-02
8.058466740564987352e-02
8.579665179327886082e-02
8.898640275191821436e-02
9.003869898196488475e-02
8.907599117118680798e-02
8.594809640937388362e-02
8.089445418885667094e-02
7.393244347637015212e-02
6.526042264128187331e-02
5.515887905858926632e-02
4.375494156953321778e-02
3.145583341014353274e-02
1.843789503767430740e-02
5.106225862243091856e-03
-8.270044017744834081e-03
-2.136521940726436933e-02
-3.382675960462081660e-02
-4.544134767225843641e-02
-5.581148512673191064e-02
-6.484674370243433128e-02
-7.220065132306199840e-02
-7.776156205297025947e-02
-8.141162255888738375e-02
-8.295919805241978862e-02
-8.255117802265607430e-02
-7.999622925550084473e-02
-7.547261644211517018e-02
-6.902563943022935189e-02
-6.075552408782963765e-02
-5.096917338284992494e-02
-3.972598566782312157e-02
-2.739380466952785059e-02
-1.416041270409196598e-02
-3.615203817033917078e-04
1.369885701685559162e-02
2.773656681524437270e-02
4.138749671617381054e-02
5.441936369513304672e-02
6.643391501136067245e-02
7.729752724173716283e-02
8.664527834586376043e-02
9.431134366057736251e-02
1.001498070690263753e-01
1.039089559594065376e-01
1.057110859322599877e-01
1.053034686222184546e-01
1.028139172252652972e-01
9.827182930515346304e-02
9.170705649589042108e-02
8.344450331706433632e-02
7.347774226051173585e-02
6.216476230985903961e-02
4.969518088104067643e-02
3.636153065176017662e-02
2.251370861018706093e-02
8.387732122127657119e-03
-5.624430473265025834e-03
-1.928732881819089293e-02
-3.220959004715966828e-02
-4.421411229487373640e-02
-5.495632462043056887e-02
-6.422344178257434477e-02
-7.186743995976169197e-02
-7.760860068077511664e-02
-8.153067850221229484e-02
-8.336604263747107724e-02
-8.318851969408518066e-02
-8.100886108402603758e-02
-7.680245758085385566e-02
-7.086093358581566082e-02
-6.312809355582839344e-02
-5.392561181305095125e-02
-4.340604483171792843e-02
-3.181381047000356177e-02
-1.949543367529137441e-02
-6.627068310918218103e-03
6.380511395875264162e-03
1.932475611843029531e-02
3.181499479511833844e-02
4.362697616580200888e-02
5.445759862625796505e-02
6.401166038199865294e-02
7.215931805993808235e-02
7.856681461995218552e-02
8.325106991191730255e-02
8.596012300906291648e-02
8.666718695490084612e-02
8.540315145991674017e-02
8.207178996529398973e-02
7.692969481795390585e-02
6.992378007023551667e-02
6.131285801042556799e-02
5.127892908166992864e-02
4.001636626633172517e-02
2.788440960878422331e-02
1.505133318150477136e-02
1.922587417906442865e-03
-1.128430046229039405e-02
-2.419047288109179780e-02
-3.653774132231651928e-02
-4.804419780915485799e-02
-5.837127689655487173e-02
-6.740944883407923305e-02
-7.478807816261620611e-02
-8.049554710977534222e-02
-8.429448944931072774e-02
-8.607656785750458783e-02
-8.591565920010152402e-02
-8.362228746810024260e-02
-7.943655140855146457e-02
-7.328734727608229860e-02
-6.533293224468263161e-02
-5.579857925505246619e-02
-4.475551052580494654e-02
-3.256824649615428641e-02
-1.936651408868276386e-02
-5.484141651826068484e-03
8.816010567903802969e-03
2.323899295235173912e-02
3.748069340852115683e-02
5.127263367103384456e-02
6.426921110723166075e-02
7.630667571928548276e-02
8.700109086076270037e-02
9.626216615469698756e-02
1.038167343571786416e-01
1.094708978762729962e-01
1.132573633969017196e-01
1.148807490253573454e-01
1.145173648356184598e-01
1.120311769516857403e-01
1.074683123330957835e-01
1.010592389830616139e-01
9.273025121418569661e-02
8.284281843733402872e-02
7.146443658337342519e-02
5.884737878383992232e-02
4.530942227249333543e-02
3.101955913260174419e-02
1.634472737946193049e-02
1.511776205043126840e-03
-1.315412916413411307e-02
-2.741067376652710913e-02
-4.093662226254119602e-02
-5.353869229005617930e-02
-6.494835100713504394e-02
-7.492336710727748317e-02
-8.341534478349325876e-02
-9.009840242899556928e-02
-9.503653194109910884e-02
-9.804167511063183182e-02
-9.905836497049640144e-02
-9.824453128027742232e-02
-9.540973743829245235e-02
-9.083397825953914984e-02
-8.448569089874055638e-02
-7.651584661584305558e-02
-6.720486948155274254e-02
-5.658088505062122686e-02
-4.501159327540628363e-02
-3.262902742701347808e-02
-1.972667374207333346e-02
-6.576177893656488110e-03
6.588891505664995485e-03
1.947185024233803047e-02
3.184713915830157671e-02
4.340991738366578589e-02
5.402470489453080338e-02
6.337016847646888273e-02
7.135338667673625512e-02
7.777732599206371722e-02
8.247608904210174119e-02
8.552094766981731266e-02
8.667167106856593639e-02
8.608905924756762862e-02
8.371184354323274457e-02
7.960547188439509592e-02
7.401714771163621365e-02
6.690981227668840736e-02
5.862623709249256687e-02
4.926001670475809585e-02
3.907779652402703502e-02
2.836715834974303657e-02
1.729430299109255970e-02
6.211554201257757195e-03
-4.713802093630564682e-03
-1.515395414326986545e-02
-2.494622733726550162e-02
-3.382734980849785855e-02
-4.161013558322443351e-02
-4.816602809974813992e-02
-5.326716001678323542e-02
-5.696334904940579535e-02
-5.903216453306676936e-02
-5.953015916083162495e-02
-5.843833464118448895e-02
-5.572924008539330981e-02
-5.162945099460257425e-02
-4.606402735463522441e-02
-3.928818734115305245e-02
-3.139602978326239829e-02
-2.256555038691349102e-02
-1.307278077737107636e-02
-3.026322663935099300e-03
7.253525344721191079e-03
1.761440964868912079e-02
2.775859544860619088e-02
3.750774082854914371e-02
4.662123398528759260e-02
5.486942449977553343e-02
6.212796459100349694e-02
6.812261200516726845e-02
7.286542387878999771e-02
7.611225782196778811e-02
7.783414394412883908e-02
7.801349054407377692e-02
7.654060390684923332e-02
7.361067031230615620e-02
6.911935142646130625e-02
6.324884118222237617e-02
5.610856040712387111e-02
4.781126340822756254e-02
3.863304550315486280e-02
2.866816303224163642e-02
1.821148024886771327e-02
7.439010922143030578e-03
-3.374652360670506168e-03
-1.402022852762114039e-02
-2.425995940212911928e-02
-3.384032631380466671e-02
-4.261928844790473236e-02
-5.030180316656487904e-02
-5.685458384198541215e-02
-6.202468358924453917e-02
-6.572728045375079986e-02
-6.793207292728095648e-02
-6.847189294832010942e-02
-6.750418649086516176e-02
-6.489188566596894303e-02
-6.076032708387597847e-02
-5.520532624315271919e-02
-4.827317465252592421e-02
-4.023148742907067116e-02
-3.112928264095563696e-02
-2.124401331196662870e-02
-1.074590523269555384e-02
1.207176687332868481e-04
1.110992322779638837e-02
2.201163888515045644e-02
3.252663225768914756e-02
4.250425515217788608e-02
5.161781582257658069e-02
5.976862765889143919e-02
6.670022182712018188e-02
7.224012684232972159e-02
7.635038754620046553e-02
7.878767551636550737e-02
7.966031785218237460e-02
7.880816546723741489e-02
7.627723680698857145e-02
7.217549299152863085e-02
6.646915702445710394e-02
5.942648431440122891e-02
5.106811380051556881e-02
4.163915726288534846e-02
3.133640591897766947e-02
2.035316298439269339e-02
8.980866365353612490e-03
-2.598947080563735260e-03
-1.406312729636314054e-02
-2.524229057421993952e-02
-3.581130665459800883e-02
-4.560778546963487751e-02
-5.439264207139758722e-02
-6.191974888455380188e-02
-6.815008803898224554e-02
-7.277893650041958318e-02
-7.585651076754061639e-02
-7.721054642301289350e-02
-7.678239369680082971e-02
-7.469527889048227509e-02
-7.080283233004001919e-02
-6.534598252845696953e-02
-5.830762006116413376e-02
-4.983906593951023534e-02
-4.017645633953362272e-02
-2.939901708648721967e-02
-1.782791082016309606e-02
-5.613503056076170339e-03
6.956358742969674658e-03
1.964310790911633423e-02
3.218053741372439713e-02
4.432067097628292207e-02
5.582302388201308002e-02
6.640411294886930382e-02
7.594873582946939927e-02
8.413445572586336629e-02
9.091347127244514548e-02
9.608407321755217667e-02
9.950672013855250964e-02
1.012630977851196601e-01
1.011293014941348073e-01
9.928899822817963128e-02
9.568413921584106863e-02
9.038156039740974368e-02
8.362894475759606594e-02
7.539572832318347517e-02
6.600601891150584266e-02
5.556357245805543243e-02
4.429216520474732466e-02
3.247890845717758823e-02
2.027858660857407430e-02
7.991121379466489816e-03
-4.184064503349330458e-03
-1.598912880725388008e-02
-2.723875578760628219e-02
-3.767939713864158768e-02
-4.717499068350339275e-02
-5.552655214153499191e-02
-6.256628530792195109e-02
-6.828404309147795281e-02
-7.244675470230951819e-02
-7.513269394445433458e-02
-7.622580085803529193e-02
-7.572700970203398441e-02
-7.378568062760385016e-02
-7.029961203787229995e-02
-6.551848876064116090e-02
-5.945316434338064615e-02
-5.228161737313267304e-02
-4.423094130031416521e-02
-3.538254128865893355e-02
-2.604724362388302628e-02
-1.634870536442483563e-02
-6.567975676170310917e-03
3.100334544698573735e-03
1.243534435054750691e-02
2.120440591217144163e-02
2.924682142296527662e-02
3.631932312048584410e-02
4.235741758035173332e-02
4.713386096260429453e-02
5.061110877420071236e-02
5.269262464153970371e-02
5.331645302742996084e-02
5.258264130432727806e-02
5.040051197946097267e-02
4.695534350974465282e-02
4.226822098672039507e-02
3.651115816301245265e-02
2.988380633832735112e-02
2.248691047742620158e-02
1.463506554736226060e-02
6.431277885587751569e-03
-1.798576768274794992e-03
-9.887715538710383639e-03
-1.760761449749172550e-02
-2.468042124194046866e-02
-3.101315684214455554e-02
-3.629255010092015399e-02
-4.049824279879617878e-02
-4.340899730240985188e-02
-4.492654835861719514e-02
-4.504752419739002645e-02
-4.363130472276278982e-02
-4.082364086624985788e-02
-3.654165226496057517e-02
-3.090935144692846109e-02
-2.403259057582410665e-02
-1.601714187110553356e-02
-7.092856714929552872e-03
2.621481774374344754e-03
1.285210551431970223e-02
2.343010104773830815e-02
3.405313934196667336e-02
4.453216189374870071e-02
5.459748024103943526e-02
6.397300667276777097e-02
7.251910017020186949e-02
7.989111169442676685e-02
8.605380063834677795e-02
9.073015773590906163e-02
9.379551411190030497e-02
9.523181032966773762e-02
9.483514708326752640e-02
9.276266774557162531e-02
8.888674319432293691e-02
8.330796033173225312e-02
7.615961600503035056e-02
6.748784613193821447e-02
5.757294836545414490e-02
4.651248846786790181e-02
3.457998837855984914e-02
2.200001025963264217e-02
9.043240433226249278e-03
-4.032758477019730142e-03
-1.695287407758670761e-02
-2.942136235684620488e-02
-4.123907132321507490e-02
-5.205438977918585425e-02
-6.177381120865509112e-02
-7.008371601316559785e-02
-7.683043689818479238e-02
-8.194238042411283729e-02
-8.516852598255914009e-02
-8.663613540879545882e-02
-8.614565669954633853e-02
-8.377643332505675666e-02
-7.961700141451598378e-02
-7.364660453437463228e-02
-6.615970762953846118e-02
-5.716417709291311822e-02
-4.694820723102002824e-02
-3.571188013679836570e-02
-2.368058541287833621e-02
-1.117926276589591497e-02
1.590150066328582627e-03
1.426367781561637196e-02
2.663985984022525580e-02
3.836095438345517306e-02
4.923309930371831677e-02
5.897920229573825474e-02
6.734358179863547678e-02
7.424259366086430334e-02
7.937558788753822092e-02
8.278712389556618090e-02
8.428366721329247357e-02
8.385712790412025441e-02
8.159942378160402188e-02
7.742768734727660529e-02
7.161330586790906616e-02
6.414865435397427984e-02
5.528420574731872372e-02
4.523851822868798361e-02
3.418388094135071942e-02
2.248118229063384571e-02
1.029346887805555888e-02
-2.000511268205275653e-03
-1.418648934639149886e-02
-2.593889515375750326e-02
-3.699532112247992666e-02
-4.713170287964153771e-02
-5.603517438485294128e-02
-6.362267017676730141e-02
-6.958881802096451852e-02
-7.390124245250652424e-02
-7.640632252836766780e-02
-7.701091091265931110e-02
-7.581443883452133881e-02
-7.268807031740066871e-02
-6.784253248120106217e-02
-6.128260021640401234e-02
-5.317699346826552237e-02
-4.376202994740520380e-02
-3.315025481087848641e-02
-2.168678920422356660e-02
-9.534834802493296485e-03
2.966673537962690420e-03
1.556720791920965068e-02
2.797531723940087714e-02
3.989299963396092386e-02
5.109092769378631438e-02
6.124307421900503784e-02
7.022648366773358297e-02
7.773076539344003777e-02
8.367020908002131829e-02
8.788466558990211397e-02
9.023994823184496028e-02
9.082231997935029388e-02
8.947018872704465275e-02
8.636435697691183244e-02
8.150550530064537558e-02
7.501987897535417060e-02
6.716131064815031304e-02
5.799020605725955374e-02
4.785280606694757022e-02
3.689567425779687049e-02
2.542184840373952828e-02
1.370325040080376533e-02
1.968479875118491970e-03
-9.466722600585690886e-03
-2.040841324807639648e-02
-3.054918609651103428e-02
-3.975623713417101440e-02
-4.776138230699602388e-02
-5.444698271553392865e-02
-5.967965044528071583e-02
-6.330385237374949736e-02
-6.539363755896328290e-02
-6.577173138806313712e-02
-6.456893872059379924e-02
-6.177282021512388310e-02
-5.744707962592027206e-02
-5.182180381752956450e-02
-4.488920455124376790e-02
-3.694971978200013024e-02
-2.810568768388933131e-02
-1.859991312492649887e-02
-8.688437545427304259e-03
1.468831514618343034e-03
1.155798691327312652e-02
2.142495109529304192e-02
3.077072143850919164e-02
3.945152705439303881e-02
4.722545043080540045e-02
5.392207226439024725e-02
5.942695558809620027e-02
6.353742521421104628e-02
6.629916492988771615e-02
6.752214986421735399e-02
6.726268509869942624e-02
6.551496770943598946e-02
6.228043621809074143e-02
5.776424994974872773e-02
5.193649710783531520e-02
4.504491274966846565e-02
3.719157092820631061e-02
2.858589646374249879e-02
1.946679438999443165e-02
9.984610947263810460e-03
4.439181706290045923e-04
-9.015281649882524520e-03
-1.807898728877733313e-02
-2.661721997381905763e-02
-3.437909463653032738e-02
-4.116004714018856731e-02
-4.687151367412907554e-02
-5.125176569223557216e-02
-5.434745387714350756e-02
-5.594524920690890912e-02
-5.603650897262468095e-02
-5.463739793078089407e-02
-5.167034464905746055e-02
-4.732860621890007391e-02
-4.155641277765368541e-02
-3.454299892527077503e-02
-2.640561965506878217e-02
-1.730137556757302408e-02
-7.471813971412008884e-03
2.937984420730341013e-03
1.362719263874952527e-02
2.443466956443984123e-02
3.503141143494069298e-02
4.524839987841557803e-02
5.480791894985922313e-02
6.344287859643571448e-02
7.104062613957391747e-02
7.726232522437129213e-02
8.210657807466346936e-02
8.531730580637278405e-02
8.680387427334422534e-02
8.658334032893044707e-02
8.449054222331545128e-02
8.071272729865448803e-02
7.516804500325087457e-02
6.800474830650148073e-02
5.938322303791759155e-02
4.941011508987157991e-02
3.838209137853432901e-02
2.644373295690748138e-02
1.391410830980285146e-02
1.017579864405086798e-03
-1.192198770752854464e-02
-2.465163848285547091e-02
-3.688337957006440626e-02
-4.829847223296276915e-02
-5.873641440690004212e-02
-6.783152434066395953e-02
-7.551501727946158260e-02
-8.151467312898091899e-02
-8.568728840623743293e-02
-8.802834352946266316e-02
-8.832469356961601681e-02
-8.673705801782119473e-02
-8.315217751998650597e-02
-7.768741311412222239e-02
-7.049951207776949946e-02
-6.164258147859348613e-02
-5.143431251130269055e-02
-3.997699900795499001e-02
-2.759940807041147415e-02
-1.453689844576645102e-02
-1.087283182924670723e-03
1.243217836566061496e-02
2.576249882275092815e-02
3.852778518936079283e-02
5.054444248194033679e-02
6.142438727009655319e-02
7.101859316833246394e-02
7.905611815442421808e-02
8.531379303148162174e-02
8.977108637494095322e-02
9.215664995258024406e-02
9.258283328807508095e-02
9.091925724938530740e-02
8.722543430233641037e-02
8.166922783437463584e-02
7.424252478946896661e-02
6.527609173385634511e-02
5.484587227954230287e-02
4.327125703403959800e-02
3.081592256415307401e-02
1.773253825911572101e-02
4.398499360810308872e-03
-8.965735267755511190e-03
-2.194891841010789685e-02
-3.435206951281068177e-02
-4.580337012478389452e-02
-5.608212973909629945e-02
-6.496259458171878276e-02
-7.215386982551452721e-02
-7.764767681955093981e-02
-8.114527476051557053e-02
-8.270039121642963620e-02
-8.221171460938077324e-02
-7.964922848413803769e-02
-7.521252900346701853e-02
-6.881877628978182171e-02
-6.076663068287721514e-02
-5.113223887771513321e-02
-4.014765762264795729e-02
-2.812099930401420339e-02
-1.521408915702873038e-02
-1.813523144233203550e-03
1.187156881809833461e-02
2.547747764188691352e-02
3.874874811417526599e-02
5.137135722892477441e-02
6.307262300260105259e-02
7.362720839292946629e-02
8.273321576964313973e-02
9.032860032715446519e-02
9.611470805709866616e-02
1.000775939314052509e-01
1.021032100866906545e-01
1.021083907223517551e-01
1.002649763366315200e-01
9.644238682299408061e-02
9.089055196068161757e-02
8.366567589593114362e-02
7.493596719002784678e-02
6.501134927090075621e-02
5.398300970836190926e-02
4.222227286144331071e-02
2.991088596748586390e-02
1.736516972949084248e-02
4.855132165302613462e-03
-7.367790746583079142e-03
-1.901407994328179960e-02
-2.988505073339894902e-02
-3.968605562634398148e-02
-4.833474457849485512e-02
-5.554954517200540870e-02
-6.126845219123379371e-02
-6.537573635646866388e-02
-6.774287065105262517e-02
-6.850560435936813020e-02
-6.748580389364000620e-02
-6.486767235184646985e-02
-6.066066205656590882e-02
-5.496315206019482952e-02
-4.803767177043707925e-02
-3.989599793836302866e-02
-3.087068309832034785e-02
-2.107411088843972810e-02
-1.079414086712732548e-02
-2.690257857724835319e-04
1.029789039728546893e-02
2.058414285427322826e-02
3.044772132735394654e-02
3.953587235918531312e-02
4.776834308284782366e-02
5.484864366451738110e-02
6.061530596000180848e-02
6.498875803316336852e-02
6.772047114437607096e-02
6.893169019696876454e-02
6.839900136332099922e-02
6.619682485043218434e-02
6.236738581521344971e-02
5.689859960087542690e-02
5.005137414469949808e-02
4.181022172483569305e-02
3.245014718754598432e-02
2.212022651241214027e-02
1.106367514955424076e-02
-4.529697673230706489e-04
-1.222293029063265327e-02
-2.390319570834048557e-02
-3.532517764353337170e-02
-4.610358927223637271e-02
-5.610708650122452762e-02
-6.501959281287085501e-02
-7.259662544949732621e-02
-7.875582794613590620e-02
-8.315878607023957647e-02
-8.588246568443713702e-02
-8.667605348411479282e-02
-8.551387713702583715e-02
-8.246348268237603529e-02
-7.740639353942514733e-02
-7.060147203444815112e-02
-6.200894739928650146e-02
-5.184130655643860025e-02
-4.030431575899892649e-02
-2.756860490638509548e-02
-1.396008769013618728e-02
3.147557915660703989e-04
1.490638414063613637e-02
2.956244744115183246e-02
4.390588064402554253e-02
5.770378618129139853e-02
7.060687095798159896e-02
8.231257300371848384e-02
9.265464058985162232e-02
1.012491818522714693e-01
1.080880888669447509e-01
1.128671522403690286e-01
1.155054447218019642e-01
1.160235192929869597e-01
1.142395957468072959e-01
1.103985545300558702e-01
1.044035135139645548e-01
9.645657163432112824e-02
8.676362184057388738e-02
7.543953736515796038e-02
6.287132685753007988e-02
4.920684284953313892e-02
3.483057783676489494e-02
2.001887916421158514e-02
5.110218614508273832e-03
-9.565842854274307291e-03
-2.371521462941220126e-02
-3.697670676971665654e-02
-4.915946368381981374e-02
-5.988804721895277239e-02
-6.906426683977399950e-02
-7.641106116640294932e-02
-8.178295692335388334e-02
-8.517717575522887330e-02
-8.637558218258704901e-02
-8.556482024347671078e-02
-8.262262340411381800e-02
-7.769758581363540861e-02
-7.097027144925230346e-02
-6.248486803543437662e-02
-5.261972279343651165e-02
-4.145322417840744539e-02
-2.935493654107001332e-02
-1.658265332196710157e-02
-3.411271354122686478e-03
9.780111321355257695e-03
2.277597318248557323e-02
3.517116375341622359e-02
4.678142652577565314e-02
5.725086533202920769e-02
6.639334773499921960e-02
7.399369135590866398e-02
7.981642553059260792e-02
8.386620271119737957e-02
8.589680250545238260e-02
8.601131779623621965e-02
8.412587796063773771e-02
8.029055647385713312e-02
7.470497363016338765e-02
6.735725958361642174e-02
5.857861829820600746e-02
4.845797552156681787e-02
3.729227294326768749e-02
2.535976634636975466e-02
1.287651807793924012e-02
2.168911930140737798e-04
-1.242238365971666536e-02
-2.466034946155894539e-02
-3.630509273929835579e-02
-4.703246584674639075e-02
-5.662316496773557584e-02
-6.489180667406635461e-02
-7.156465796863087370e-02
-7.664651872745874284e-02
-7.986833741907826967e-02
-8.126945522482394157e-02
-8.077811979768864670e-02
-7.835311748176211621e-02
-7.419230804899629161e-02
-6.821288500973386737e-02
-6.067999848103410032e-02
-5.167501198156754932e-02
-4.140110055009745688e-02
-3.014407039375618241e-02
-1.805247586623715678e-02
-5.477462008040469982e-03
7.384853247964149464e-03
2.018882176914731791e-02
3.271189652690845162e-02
4.464286502436722731e-02
5.572533449122081539e-02
6.575286919172099176e-02
7.441222903486618967e-02
8.166947633629630110e-02
8.720932572643180780e-02
9.100671996696663157e-02
9.296139937485578542e-02
9.295643420139090840e-02
9.117376385536628269e-02
8.745963220263583415e-02
8.203821862421840916e-02
7.497008626345343096e-02
6.639988369419533298e-02
5.662624246047330556e-02
4.573762083740522122e-02
3.409095384507255383e-02
2.186260079491013017e-02
9.389542809352851085e-03
-3.089757661447657330e-03
-1.528934307177332377e-02
-2.690684411507784923e-02
-3.776181853974241998e-02
-4.748656246853950880e-02
-5.604819823593171213e-02
-6.309981476625238506e-02
-6.854401359884555733e-02
-7.229839539521468184e-02
-7.413359526266177779e-02
-7.424675930112117905e-02
-7.239225582278710491e-02
-6.871971303421227362e-02
-6.328661333724248939e-02
-5.611237570429124244e-02
-4.751872109453234710e-02
-3.749064271084644184e-02
-2.635239122180525750e-02
-1.427232901252811423e-02
-1.523435622060864691e-03
1.160991117576571155e-02
2.489115100592292559e-02
3.796801965018281599e-02
5.065035337833605905e-02
6.252596977504829012e-02
7.348810588895747509e-02
8.316505025429273001e-02
9.133735051808883343e-02
9.790755365364574303e-02
1.025148681165203995e-01
1.052980545821301933e-01
1.059472059753201745e-01
1.044850832351985198e-01
1.009882957107736123e-01
9.532395424824180452e-02
8.783404677875603084e-02
7.843755211276970396e-02
6.739409278687330529e-02
5.493919598725140879e-02
4.122839502929395716e-02
2.665224386405105894e-02
1.139420970411063848e-02
-4.181645493294132432e-03
-1.979993284428705966e-02
-3.510460945744867806e-02
-4.985235658295869565e-02
-6.369932424156511674e-02
-7.636235375057161268e-02
-8.767461037129176127e-02
-9.725445577552892240e-02
-1.051311162103368418e-01
-1.109711220617690675e-01
-1.147062913615751467e-01
-1.163662952051485733e-01
-1.157128864331970347e-01
-1.130351923481882348e-01
-1.081605055083182249e-01
-1.012566913146144276e-01
-9.253575919515447112e-02
-8.199628838098199646e-02
-7.005101134577992883e-02
-5.675851863477480996e-02
-4.243520067175574062e-02
-2.737679908711022903e-02
-1.180864181087467116e-02
3.919369349554458967e-03
1.955032385231975783e-02
3.476764915109627208e-02
4.932737834980777114e-02
6.288567117732310474e-02
7.531122449662741580e-02
8.627444065542275164e-02
9.560660537487397637e-02
1.032312373812699913e-01
1.088485953179722382e-01
1.126061101396914899e-01
1.142594033675178450e-01
1.138686742555426179e-01
1.115603275027950009e-01
1.072154490316909042e-01
1.011917001393622811e-01
9.343352545759547878e-02
8.420093916773262188e-02
7.375104037191175521e-02
6.218729791901956433e-02
4.990826353741579374e-02
3.704474248398381686e-02
2.393157753667106771e-02
1.081502682477394547e-02
-2.045174373545519467e-03
-1.439318217821610943e-02
-2.600263469889501494e-02
-3.661610101951228574e-02
-4.612323484025566966e-02
