BVP Signal
-5.249256816341453524e-03
-3.268698947363644913e-02
-7.090470723356923077e-02
-1.085436603325576205e-01
-1.384255781191999768e-01
-1.604099100340633521e-01
-1.791163736026363251e-01
-1.955563067876885386e-01
-2.071700471264715793e-01
-2.113782075118385839e-01
-2.076118360202425239e-01
-1.980990226308981250e-01
-1.837385703540637405e-01
-1.640055942636128028e-01
-1.384639723812589596e-01
-1.075936300664624146e-01
-7.292970365552750578e-02
-3.570233364907621221e-02
3.550810701114737178e-03
4.433967451037143515e-02
8.545565862056755946e-02
1.259370979426947534e-01
1.645165575917216239e-01
2.003716009720621916e-01
2.330233628253926548e-01
2.612702807589403764e-01
2.848345638857745499e-01
3.029216485175596496e-01
3.151049349261144106e-01
3.213488119245926367e-01
3.211007786400136843e-01
3.148856233348639733e-01
3.023954563466295653e-01
2.840658131322242319e-01
2.603749710251968552e-01
2.315759136109815930e-01
1.986683589026166930e-01
1.619874201172691319e-01
1.225414327685405147e-01
8.106299387914328580e-02
3.846761313831732060e-02
-4.333613744639527171e-03
-4.650145492123483604e-02
-8.700803075659203911e-02
-1.252438590649932459e-01
-1.600786729118222340e-01
-1.911870900113001037e-01
-2.176227726496455794e-01
-2.388839092632135119e-01
-2.547973201706330570e-01
-2.645833004230831453e-01
-2.686835032247699706e-01
-2.665114591724213611e-01
-2.583721436160902885e-01
-2.445916488763220653e-01
-2.251550126676240549e-01
-2.010363999620314868e-01
-1.722845617933075058e-01
-1.398991008959944160e-01
-1.044612381430749803e-01
-6.677997106499522495e-02
-2.784403306831922942e-02
1.172665065320313560e-02
5.066849418713934017e-02
8.854825965403055610e-02
1.240572195115932086e-01
1.566991899093292950e-01
1.856336533892202767e-01
2.098668913914767398e-01
2.294204634994947145e-01
2.430517524957364062e-01
2.509904310583267462e-01
2.526248366438700321e-01
2.476501557587922897e-01
2.365880625660798375e-01
2.188472782377573478e-01
1.952788418177758833e-01
1.658513720179892736e-01
1.311172887653958008e-01
9.189561972896317932e-02
4.859966853206509896e-02
2.353939050244641118e-03
-4.621196098324385770e-02
-9.586230219805086383e-02
-1.458352944106003912e-01
-1.948242659420303946e-01
-2.419014806629844472e-01
-2.860656593288279370e-01
-3.259271990673720532e-01
-3.611728412987838532e-01
-3.902210033826518654e-01
-4.127978724244958930e-01
-4.281017648824118060e-01
-4.352954923542518006e-01
-4.347931603287141233e-01
-4.255881390927961361e-01
-4.083085692232009678e-01
-3.828976425221712887e-01
-3.495691465015929311e-01
-3.094366148043452003e-01
-2.626393121848408785e-01
-2.105148910246575356e-01
-1.538827889607675692e-01
-9.390986399450362843e-02
-3.194858473886535988e-02
3.082467248674675142e-02
9.304263671112000811e-02
1.534366401054290119e-01
2.106029415311763131e-01
2.636694733190158568e-01
3.111336901396493104e-01
3.524208500039662240e-01
3.865121502220817407e-01
4.126394472661387702e-01
4.309323912990891681e-01
4.403720437795257681e-01
4.415875871076264669e-01
4.342963885363657628e-01
4.188016334038719979e-01
3.961724698341259066e-01
3.662832460994323025e-01
3.306571165105470778e-01
2.897483889522808331e-01
2.446876598778358058e-01
1.968660794733024799e-01
1.469339154586285501e-01
9.647756337538893057e-02
4.630995886782407478e-02
-2.292865451570258450e-03
-4.838938599852110611e-02
-9.099775949484074922e-02
-1.293047234067933315e-01
-1.626144288321664799e-01
-1.901845836206743356e-01
-2.120080150465503410e-01
-2.272699963012365099e-01
-2.363146966179694997e-01
-2.388878146826364235e-01
-2.351047715331374133e-01
-2.258420071597909140e-01
-2.107758828906858284e-01
-1.911587479196866224e-01
-1.672021945711162361e-01
-1.397202494596699318e-01
-1.099323300138316251e-01
-7.803065381578178084e-02
-4.546812593641624822e-02
-1.266852889181330211e-02
1.935497811223615972e-02
4.973315836489608510e-02
7.798956431837980596e-02
1.032039883751615511e-01
1.250732659536064606e-01
1.429093454591928991e-01
1.566118841371341719e-01
1.657376563566707595e-01
1.702514756122525119e-01
1.701605334529915914e-01
1.653852769923347954e-01
1.565128471126734921e-01
1.433929622081173139e-01
1.267266993766892336e-01
1.068108887118733863e-01
8.413498823930182224e-02
5.955589600904648284e-02
3.330814268109036358e-02
6.367044893477002976e-03
-2.084272500208955714e-02
-4.755496795332875282e-02
-7.310494448634041742e-02
-9.700626642363678609e-02
-1.185271888112809091e-01
-1.373429415121565078e-01
-1.528272288717272831e-01
-1.648249200758816202e-01
-1.729048760207504976e-01
-1.769400998275557080e-01
-1.769072081824641374e-01
-1.726676171201826926e-01
-1.646317427490546215e-01
-1.527175093235972336e-01
-1.374415673777169555e-01
-1.191265018800682363e-01
-9.819600890091817469e-02
-7.538457297506168109e-02
-5.102478670110760506e-02
-2.595636300004114383e-02
-6.617053839779729607e-04
2.414345509203980056e-02
4.784428748570923595e-02
6.992209646132994949e-02
8.973450888586978480e-02
1.069631943171653471e-01
1.210506223900146006e-01
1.318890335386304069e-01
1.391117985292595893e-01
1.426567504855350832e-01
1.425739574734216086e-01
1.387691623772653871e-01
1.316905506301870865e-01
1.213013480893474633e-01
1.081089507159358198e-01
9.245665792807861161e-02
7.469468838079684758e-02
5.552234745421646966e-02
3.517575192105603515e-02
1.438907310841937293e-02
-6.450091192690105002e-03
-2.680491147188934775e-02
-4.613068706355112625e-02
-6.410040934027419479e-02
-8.016710722467108863e-02
-9.410893326340388776e-02
-1.055122469958420933e-01
-1.142279444665927901e-01
-1.200196258829671486e-01
-1.227886358390181121e-01
-1.225374685232982347e-01
-1.192069439252898821e-01
-1.130424084754236003e-01
-1.040331897004536099e-01
-9.257560004775511331e-02
-7.884747602107089470e-02
-6.323746977149891091e-02
-4.622592861606877879e-02
-2.807534698678793017e-02
-9.511670708167274668e-03
9.221040645645550704e-03
2.742724577258659480e-02
4.464243817060931097e-02
6.046334962901367405e-02
7.420369982809160714e-02
8.570520618975863147e-02
9.435790878505445622e-02
9.997287588406433834e-02
1.022801125892519591e-01
1.010571565704347363e-01
9.634082224949724882e-02
8.804399670105966802e-02
7.638870631361932562e-02
6.146448659335543296e-02
4.374473515899146570e-02
2.344704538584432146e-02
1.196372454231486859e-03
-2.245397555160291714e-02
-4.705192055035989362e-02
-7.157597030546791750e-02
-9.578110138385970140e-02
-1.185760722495284858e-01
-1.393814171795077494e-01
-1.576543280482058385e-01
-1.723569770022721492e-01
-1.834528499092535903e-01
-1.899939513893130760e-01
-1.917798905630991868e-01
-1.885806758502694969e-01
-1.799882890348735165e-01
-1.663410253032738817e-01
-1.474511018932737061e-01
-1.237391992447265388e-01
-9.554090331681519555e-02
-6.340879273344834921e-02
-2.798343664125946262e-02
9.968111100929266666e-03
4.955873411488992408e-02
9.000649236373109430e-02
1.300712760327389916e-01
1.691508107893994750e-01
2.059311148289507953e-01
2.395886309137845172e-01
2.693414343243717424e-01
2.940138484677197184e-01
3.134519069995447271e-01
3.265579457067515623e-01
3.331508729736492036e-01
3.329296440959466086e-01
3.255332746637558117e-01
3.114607846249782819e-01
2.904723883381385430e-01
2.632702538807112358e-01
2.302593102815554127e-01
1.921560559540852475e-01
1.499631108388861656e-01
1.044305427430467781e-01
5.683562640512301867e-02
8.110207797500587623e-03
-4.039173156262135245e-02
-8.765776894817040032e-02
-1.324358036488403334e-01
-1.736442587259388604e-01
-2.103548997012580912e-01
-2.414980286509474938e-01
-2.666685868063157772e-01
-2.849284460173603373e-01
-2.961741106682279634e-01
-3.000427701411824133e-01
-2.965300801756152183e-01
-2.861636038485084743e-01
-2.688873314227374633e-01
-2.457761120091940255e-01
-2.172055034476511048e-01
-1.842663711179253205e-01
-1.481388755565008486e-01
-1.095442233965702172e-01
-7.010844171790775459e-02
-3.058719455104519369e-02
7.616005942088943659e-03
4.341203661655551604e-02
7.595477391503713260e-02
1.041136567388595280e-01
1.273297822352988939e-01
1.448898795538537954e-01
1.564625486664359688e-01
1.617358684610830100e-01
1.607976688709497060e-01
1.536403369973138311e-01
1.407453019540070849e-01
1.226808938699336937e-01
9.988572998807832004e-02
7.358854223001898287e-02
4.426502415361288634e-02
1.327188166710979722e-02
-1.835613545874903441e-02
-4.977884284183342611e-02
-7.944718438481124245e-02
-1.068185451767587058e-01
-1.305857342984196867e-01
-1.499799904469577561e-01
-1.644200610277111174e-01
-1.730699498692714888e-01
-1.757945365280920713e-01
-1.722461661296567081e-01
-1.624623713196397534e-01
-1.466256809789829862e-01
-1.251597344598564532e-01
-9.851318509709533489e-02
-6.756680072634763112e-02
-3.311299611036677693e-02
3.932695205280889450e-03
4.222028506866740138e-02
8.101171177752325425e-02
1.187723398747536907e-01
1.545919461075497825e-01
1.873938683971683172e-01
2.158852006300574222e-01
2.395998204915222307e-01
2.573592108639145004e-01
2.688746193600748402e-01
2.735974354988877644e-01
2.712009607227416352e-01
2.618635354222737521e-01
2.454959573693314412e-01
2.226977949497509490e-01
1.937722171248580372e-01
1.595692392446562691e-01
1.208179090538916700e-01
7.853554489085390333e-02
3.383043582349565259e-02
-1.234305061360496669e-02
-5.852588225548915890e-02
-1.039028495961776821e-01
-1.469828013539577483e-01
-1.868868720026963248e-01
-2.225620675751179556e-01
-2.528733908288485210e-01
-2.774381074616376064e-01
-2.951557325068224769e-01
-3.059840997697608200e-01
-3.093496408214693183e-01
-3.051544689797208720e-01
-2.937064155988525771e-01
-2.749026376171475605e-01
-2.496360165581619772e-01
-2.181094854506552272e-01
-1.813417222137743701e-01
-1.401729035359506326e-01
-9.552294286758888919e-02
-4.873519604652198911e-02
-6.350179341301775970e-04
4.724410961231065298e-02
9.403542045937232641e-02
1.383647028260973355e-01
1.792336668893474427e-01
2.157134763649810605e-01
2.466723274431894541e-01
2.717587223164633081e-01
2.899486514492405909e-01
3.011953774672662121e-01
3.050111416127440633e-01
3.013241768669202014e-01
2.905207742069042531e-01
2.724817834801748218e-01
2.481583035403331639e-01
2.177538397321100438e-01
1.822820852251634538e-01
1.426510402946942480e-01
9.966055063329518071e-02
5.473418728774734343e-02
8.606723436484733925e-03
-3.722664978590127516e-02
-8.185615112707594898e-02
-1.240775638305895434e-01
-1.628002893474408408e-01
-1.972271499684072615e-01
-2.262719915523170033e-01
-2.495582310725425190e-01
-2.662200888349878225e-01
-2.761378166548585922e-01
-2.789513647713761646e-01
-2.746432460860960267e-01
-2.636044859307110078e-01
-2.458328776945487848e-01
-2.222647630841262656e-01
-1.931876818486626957e-01
-1.596666315675856485e-01
-1.226194485915723387e-01
-8.287431339893025495e-02
-4.186322135391964960e-02
-2.890593020947185288e-04
4.036997527372027106e-02
7.926096935745768901e-02
1.152922491673228356e-01
1.474121800844961916e-01
1.749990388919205331e-01
1.970822499100941538e-01
2.134135579355955215e-01
2.233369712599976298e-01
2.268090968819309050e-01
2.236870572453937278e-01
2.140926958411597525e-01
1.985153455346369000e-01
1.771274304308659842e-01
1.508998795710563001e-01
1.202313917881761840e-01
8.625317617335308273e-02
4.985833700489725184e-02
1.192765966836833308e-02
-2.615474715686531143e-02
-6.373540541412457683e-02
-9.935874259494839600e-02
-1.323217320608164049e-01
-1.615837159972603465e-01
-1.862007335463590485e-01
-2.057238966676453451e-01
-2.192516647754920722e-01
-2.267649356734101063e-01
-2.277119392189814184e-01
-2.221792755882565085e-01
-2.102617584263768435e-01
-1.921516543631875129e-01
-1.685738766189882054e-01
-1.398113011384838344e-01
-1.069218460892464306e-01
-7.051073516772445038e-02
-3.171864255713409408e-02
8.450607936721560298e-03
4.906725493647887126e-02
8.879810085653680463e-02
1.269347740701519123e-01
1.621178617640001984e-01
1.937562272295874910e-01
2.208444258115536962e-01
2.426309495605010191e-01
2.587736353555645796e-01
2.685048868415059742e-01
2.720539743351698125e-01
2.689062491386564613e-01
2.593368135072570690e-01
2.435733809045551590e-01
2.218457995630029322e-01
1.950547176129349691e-01
1.634440737130568866e-01
1.281120179758200306e-01
8.970836757988676080e-02
4.927220876641802416e-02
7.840892467372573282e-03
-3.375279234343492307e-02
-7.425571725335672335e-02
-1.129728609273813467e-01
-1.486790993120036819e-01
-1.807993309934501358e-01
-2.083911617859399157e-01
-2.307822086114537097e-01
-2.476252975109143328e-01
-2.582124944186555693e-01
-2.627696521661719853e-01
-2.607783582649656484e-01
-2.525506008701580707e-01
-2.382927332517836283e-01
-2.182166298195582776e-01
-1.932485536406984561e-01
-1.635750082968305541e-01
-1.303289087183020223e-01
-9.414688474634322346e-02
-5.601064378872466776e-02
-1.703264550494509866e-02
2.206268278021877860e-02
5.998467742700641647e-02
9.606874855145952630e-02
1.291840578395476724e-01
1.586683029805394662e-01
1.837509306787068475e-01
2.037436600012021426e-01
2.183633889974503361e-01
2.270212516771921152e-01
2.298738326666536214e-01
2.265850218777045733e-01
2.174685228209604082e-01
2.027793614174850934e-01
1.828164748639329873e-01
1.584502865907431723e-01
1.299604074477735405e-01
9.847631762597650051e-02
6.461325849823576495e-02
2.936414905597582725e-02
-6.199458223550069653e-03
-4.139362664309541306e-02
-7.493829592365158776e-02
-1.062568603860125360e-01
-1.342763963774923353e-01
-1.583536881475614000e-01
-1.778641055440026708e-01
-1.921403619207024960e-01
-2.010209169999956358e-01
-2.040269577790159161e-01
-2.013260362228030953e-01
-1.927787504213523961e-01
-1.787456805290536521e-01
-1.595861685245842931e-01
-1.357414687155266697e-01
-1.080749251005768685e-01
-7.703016911076876472e-02
-4.379224532290937333e-02
-8.970111347548589964e-03
2.631296543067541266e-02
6.106583483726003847e-02
9.456270804244559791e-02
1.254935861245348727e-01
1.534658117717799808e-01
1.773110675938537328e-01
1.965529413745591147e-01
2.106522030807546630e-01
2.189190664983923784e-01
2.214915317730325461e-01
2.177954144211980969e-01
2.081699063792916693e-01
1.925947666383677204e-01
1.713663662018592715e-01
1.451065754809850727e-01
1.141433293673995708e-01
7.943197319369552090e-02
4.149546170979700327e-02
1.440975360282418204e-03
-3.999135403395156357e-02
-8.172532775798287130e-02
-1.227436356962955388e-01
-1.622591225966608097e-01
-1.989455010174993599e-01
-2.324028283199809919e-01
-2.613417952549885737e-01
-2.852716306065567475e-01
-3.035798059321848652e-01
-3.154236460343836645e-01
-3.210307657665525394e-01
-3.195659554718823236e-01
-3.113702538997934477e-01
-2.963719874873657067e-01
-2.746653582083485312e-01
-2.470442723711259170e-01
-2.135771239089272744e-01
-1.752864088799468700e-01
-1.327180297581273261e-01
-8.685640803089242357e-02
-3.867988090556633007e-02
1.086040223174619332e-02
6.058113979153266493e-02
1.095693412875417411e-01
1.564787129308373159e-01
2.006256062373115157e-01
2.406705410350104823e-01
2.758969627449655571e-01
3.054792396300434199e-01
3.284738840662819737e-01
3.448497925326306501e-01
3.536252057028815288e-01
3.550070037498979092e-01
3.487151549660842953e-01
3.348249233605535835e-01
3.140431501005205850e-01
2.863362670079041550e-01
2.528559454716937660e-01
2.140570229106195099e-01
1.710843395361839048e-01
1.250782883376976296e-01
7.696934352393633438e-02
2.829503021211195180e-02
-2.003578146675795424e-02
-6.647734913911711174e-02
-1.100997062194114251e-01
-1.496451372084555975e-01
-1.841137090019978328e-01
-2.127618803983157281e-01
-2.346570106453782223e-01
-2.496951765775535514e-01
-2.571361771016698605e-01
-2.572039438884147211e-01
-2.498076209790617563e-01
-2.352594988892422745e-01
-2.143822490032990524e-01
-1.873734539049139725e-01
-1.555898610084417155e-01
-1.195655260357078586e-01
-8.064374251982814323e-02
-4.003304609417215887e-02
1.381841027182917347e-03
4.194591734071792533e-02
8.097022076812288027e-02
1.169526898226574407e-01
1.490992206903026251e-01
1.764912889899675208e-01
1.981841177448488422e-01
2.138580107857165902e-01
2.227778127696896648e-01
2.250531482934264860e-01
2.203429150610365372e-01
2.089372231576672179e-01
1.911104366921705100e-01
1.672949073509862050e-01
1.383968530165784194e-01
1.048542028028162792e-01
6.794249752766599870e-02
2.834882623606251040e-02
-1.264235530584095768e-02
-5.392737416415474550e-02
-9.457311724378078543e-02
-1.331442808393676625e-01
-1.689910921897659624e-01
-2.007738744615961413e-01
-2.279075357048965800e-01
-2.495446296298347022e-01
-2.649797469332281219e-01
-2.740452297124184589e-01
-2.761418938229848186e-01
-2.715969958843977849e-01
-2.601714418752169022e-01
-2.422985851532864499e-01
-2.184342285625249791e-01
-1.890328425044939531e-01
-1.551375247045335137e-01
-1.172458730770132296e-01
-7.660984275546360578e-02
-3.403149255205509260e-02
9.315415557614337150e-03
5.233522603686679986e-02
9.411508772903892650e-02
1.333917494334127818e-01
1.695156533516255504e-01
2.013127656306634428e-01
2.283201259737874800e-01
2.497382779802666541e-01
2.650543862042598620e-01
2.741567303592473692e-01
2.765191778759883978e-01
2.725951788883735905e-01
2.621137590255880334e-01
2.455865765955961288e-01
2.234918156611035711e-01
1.961837027833402969e-01
1.647747056067127569e-01
1.296186904732151146e-01
9.192461702003529300e-02
5.247549148492787474e-02
1.224045299383694219e-02
-2.763696729980574807e-02
-6.643010170574634166e-02
-1.029478967085555863e-01
-1.365630269757949211e-01
-1.662876155497821640e-01
-1.915957389186309090e-01
-2.118448542211735508e-01
-2.265549706028138766e-01
-2.356273804454234178e-01
-2.386334389975441339e-01
-2.359557934216535702e-01
-2.274102602433087650e-01
-2.134847922600086600e-01
-1.946462200642707918e-01
-1.712342947192607989e-01
-1.442877277739270658e-01
-1.141334329509277462e-01
-8.190223018028526536e-02
-4.830255129438830453e-02
-1.418225487598757939e-02
1.939070040122983785e-02
5.184326147037771060e-02
8.208092470833677767e-02
1.096022413964179154e-01
1.335818224195880477e-01
1.535224805908345924e-01
1.689781175562213023e-01
1.795046914713059882e-01
1.850833762628023571e-01
1.853877330166731896e-01
1.807237110022174575e-01
1.710268172763997618e-01
1.567275783264039934e-01
1.382563500014892810e-01
1.159701867080253218e-01
9.076298415173335299e-02
6.297577852984123647e-02
3.366688209767187967e-02
3.431879986631025670e-03
-2.687951926004303327e-02
-5.630471629417210799e-02
-8.431749352834905231e-02
-1.098227286320622720e-01
-1.324423666242953157e-01
-1.513268277943748963e-01
-1.660036253146462415e-01
-1.761203336299675959e-01
-1.811773197344856423e-01
-1.812785616879270534e-01
-1.760993178154669214e-01
-1.659395949271781912e-01
-1.508830048804934987e-01
-1.313289850851855067e-01
-1.078229480709038679e-01
-8.079123644474268950e-02
-5.113011505293708209e-02
-1.933159621920968463e-02
1.352786918616197265e-02
4.680495106024326613e-02
7.955183665427881246e-02
1.108200949505790955e-01
1.400193214277945797e-01
1.660254363640341624e-01
1.885273955856461292e-01
2.066056127350606730e-01
2.198422949046788810e-01
2.279276917653101364e-01
2.303494909322865158e-01
2.273572633198006621e-01
2.185955889845975220e-01
2.044461214628512102e-01
1.850874366284556982e-01
1.609284295344274029e-01
1.326656599150723981e-01
1.007328058888128097e-01
6.611485894399317387e-02
2.940196372853728923e-02
-8.290391848364830896e-03
-4.621439686066934616e-02
-8.336654624248998613e-02
-1.187285907192200951e-01
-1.516344959861800068e-01
-1.809037505334888385e-01
-2.062125411047958101e-01
-2.265514645644749470e-01
-2.415066675847808431e-01
-2.507497227752082947e-01
-2.537440418655275143e-01
-2.508554627603621356e-01
-2.416541152024727357e-01
-2.266408387056785267e-01
-2.060457397516860245e-01
-1.803174721444336936e-01
-1.503493038453085906e-01
-1.165337929581679588e-01
-8.003075073478813084e-02
-4.147671265172685195e-02
-2.047184019705688973e-03
3.738963440879081168e-02
7.587099693628465702e-02
1.122734880475128594e-01
1.459860809228218093e-01
1.757980164167525783e-01
2.014337763529782666e-01
2.219249044398097781e-01
2.368518793574385106e-01
2.460140849783715167e-01
2.488370312639299753e-01
2.458123752986820509e-01
2.364891559372302443e-01
2.213754462137714762e-01
2.007772108869562144e-01
1.750402242911286155e-01
1.451380334455400767e-01
1.113492924698241127e-01
7.481654322698087778e-02
3.615057708859485686e-02
-3.581308963614500320e-03
-4.347323956033626036e-02
-8.268560259805141088e-02
-1.200567921413996930e-01
-1.550376373506221483e-01
-1.863920449221173059e-01
-2.137891437146424156e-01
-2.362854754869271323e-01
-2.533086710834796529e-01
-2.647098376236259321e-01
-2.697162618934415002e-01
-2.687772167446881300e-01
-2.613675152284729020e-01
-2.478044974478627593e-01
-2.284694957428292095e-01
-2.034546889163346972e-01
-1.737789644459167282e-01
-1.396320988012923481e-01
-1.020500495304161592e-01
-6.175329223939246548e-02
-1.963965417442525146e-02
2.324994188422888769e-02
6.613280105350011207e-02
1.078189249314040615e-01
1.476720596110512873e-01
1.844738634912003739e-01
2.177341696936516413e-01
2.465217395736395423e-01
2.701171341932696035e-01
2.883364997090547277e-01
3.002638458419998324e-01
3.062102971527635997e-01
3.055865226642823229e-01
2.984951919046079927e-01
2.852947248678578407e-01
2.658280164911042687e-01
2.410261647083103698e-01
2.109404574367845231e-01
1.764399162877150762e-01
1.382225127847823698e-01
9.698784084708209074e-02
5.381386520332033518e-02
9.373498345391167996e-03
-3.510677099637786458e-02
-7.895044589679850455e-02
-1.209165341899184898e-01
-1.602991130077114912e-01
-1.961426001646758288e-01
-2.274568435079927786e-01
-2.539341754867530665e-01
-2.744247183089799091e-01
-2.889452526612749650e-01
-2.967831198515872848e-01
-2.977306366887653155e-01
-2.920242176953007918e-01
-2.792756150821242289e-01
-2.602517656307098970e-01
-2.349056087266327419e-01
-2.040237341386660075e-01
-1.682574626964151998e-01
-1.282899213217940648e-01
-8.528049141217977636e-02
-3.987786839566315883e-02
6.441468307216993705e-03
5.301493911959750949e-02
9.836976876296940620e-02
1.415473721488396397e-01
1.815944876299463162e-01
2.170558047974372462e-01
2.476947108347790638e-01
2.720002039876688316e-01
2.897390869871382391e-01
3.002272820687995059e-01
3.028032117512271526e-01
2.978623607812058705e-01
2.846902371841203427e-01
2.639673379751247273e-01
2.357098584124066587e-01
2.004822567119650678e-01
1.591678452669363364e-01
1.123146664823555518e-01
6.125492846456012663e-02
6.749507081809436038e-03
-4.959217584579139748e-02
-1.068399796650870148e-01
-1.633838704749031034e-01
-2.178838560897957966e-01
-2.692432953008740415e-01
-3.155971459226216691e-01
-3.565349942562022756e-01
-3.902178929616885728e-01
-4.160681055039419651e-01
-4.333400677941071644e-01
-4.409406860417514062e-01
-4.393919848413394558e-01
-4.276500198432258704e-01
-4.063642594863456914e-01
-3.756909328571221840e-01
-3.359529236178662170e-01
-2.885379823794502752e-01
-2.337742952191814161e-01
-1.733034393391906236e-01
-1.081819854598627950e-01
-3.994133406933997321e-02
2.983670137826849311e-02
9.970057718337169139e-02
1.679492208915639995e-01
2.332400453474450797e-01
2.937937725694629298e-01
3.487904994175864415e-01
3.965263586775442661e-01
4.363115860930629752e-01
4.673165789905894263e-01
4.885605313379292047e-01
5.005623875337155138e-01
5.022310481972239726e-01
4.943341944626847839e-01
4.769593656632231671e-01
4.503572549642637646e-01
4.161198553523325350e-01
3.741368824705751939e-01
3.261487372430830201e-01
2.729673874317097848e-01
2.157468837354850066e-01
1.562261762493274420e-01
9.513578080108081592e-02
3.416805828578767246e-02
-2.566589913127331757e-02
-8.301551450727846782e-02
-1.369510487183164260e-01
-1.863003585668815965e-01
-2.302997888590452291e-01
-2.682319238817558738e-01
-2.991805918959270505e-01
-3.234632196187624542e-01
-3.399340014697225243e-01
-3.490545321811074353e-01
-3.506624560410894209e-01
-3.446113452784497211e-01
-3.321994405627881064e-01
-3.127663375023086445e-01
-2.876673530798866119e-01
-2.572759414340005102e-01
-2.222062293709461400e-01
-1.839991016395150503e-01
-1.427353588317092914e-01
-9.995542092707909720e-02
-5.628320872209233161e-02
-1.276243364515275425e-02
2.959650286837658961e-02
7.010979556950970581e-02
1.077501538557225219e-01
1.420393660268347291e-01
1.719797153277970170e-01
1.975133208709969890e-01
2.177585773570887562e-01
2.325533877542840244e-01
2.418176110782839228e-01
2.449957528436889076e-01
2.428680857671114413e-01
2.348014332423785655e-01
2.214200974891515905e-01
2.030430101471530357e-01
1.797607468165104416e-01
1.527127801487562220e-01
1.218239122417783538e-01
8.815643576772436152e-02
5.225100425877188259e-02
1.481963563714658316e-02
-2.316829869094175209e-02
-6.118708895887507715e-02
-9.817121210709903179e-02
-1.336146961339935157e-01
-1.664704079588384400e-01
-1.963152191478954034e-01
-2.223131000127247237e-01
-2.438157590861547708e-01
-2.606225098964188858e-01
-2.718574848947789557e-01
-2.777975503031741566e-01
-2.778092028879777797e-01
-2.719562168846412220e-01
-2.605129596628812938e-01
-2.432657315384711971e-01
-2.210706136490264706e-01
-1.939127268453017527e-01
-1.625650792083597751e-01
-1.276919270983765675e-01
-8.989543675946734536e-02
-5.020608998727243977e-02
-9.253187146244748473e-03
3.185847360750017343e-02
7.243228518358590939e-02
1.113674335397993459e-01
1.479991976351027749e-01
1.814333666711708537e-01
2.108218474588759161e-01
2.358567142933281069e-01
2.555347275619330727e-01
2.699328616412066117e-01
2.783951469020599645e-01
2.807824584563858861e-01
2.773610555323509641e-01
2.677289855138724750e-01
2.526737794442898699e-01
2.320887516863530675e-01
2.066051693456730787e-01
1.769036201941444064e-01
1.433542512343222997e-01
1.070547692373552129e-01
6.845760025327476961e-02
2.864981327795047827e-02
-1.164523504547294863e-02
-5.147674138501906471e-02
-8.997715083315668827e-02
-1.263934731569777981e-01
-1.597087426973467228e-01
-1.895550781786553562e-01
-2.148708936592840790e-01
-2.354596649177342349e-01
-2.506858490926967553e-01
-2.601072685294393838e-01
-2.639506325219493355e-01
-2.615768059776648058e-01
-2.535836421050746692e-01
-2.398065585398751476e-01
-2.205994401157961859e-01
-1.966999627369060422e-01
-1.681995397802633074e-01
-1.361942693450318709e-01
-1.010545758867246735e-01
-6.373144202640826372e-02
-2.506583966785420892e-02
1.420794330882143609e-02
5.307497609115617576e-02
9.088746518173684841e-02
1.265990971890722516e-01
1.597542769305530519e-01
1.893721319854674845e-01
2.150350159533400973e-01
2.361907877514071719e-01
2.521968066119480434e-01
2.632246004431498809e-01
2.685105711491398983e-01
2.683966516542380387e-01
2.626929554445908699e-01
2.514273431699471373e-01
2.352789597685642220e-01
2.140519893577470245e-01
1.886374909531736976e-01
1.592878285823351725e-01
1.266777975967793290e-01
9.163376562118638602e-02
5.464382587897119448e-02
1.671591322968644239e-02
-2.157628401862907164e-02
-5.920639407556949063e-02
-9.561484266529096665e-02
-1.298328713656944911e-01
-1.612047630933475806e-01
-1.891267394777307320e-01
-2.126987808664578816e-01
-2.319207686578209637e-01
-2.458225793353908673e-01
-2.544274341457929411e-01
-2.574416617084855363e-01
-2.545616132641090323e-01
-2.463828933441078450e-01
-2.324596618688773431e-01
-2.135216617176984855e-01
-1.897674743690622168e-01
-1.616883815495794297e-01
-1.301914177854366639e-01
-9.560194322802222089e-02
-5.901671807336418552e-02
-2.100131909214401210e-02
1.738887304535620404e-02
5.542639145904970643e-02
9.220131233195114073e-02
1.268050135720868443e-01
1.586531262215316596e-01
1.866693208106741664e-01
2.107158796502977549e-01
2.297919110286519850e-01
2.436473327744161921e-01
2.520205656884696999e-01
2.543779284321311396e-01
2.512620363683191194e-01
2.421123695877719917e-01
2.274797875148146797e-01
2.075726986597908330e-01
1.826961335439617473e-01
1.537935610121905217e-01
1.210509187145069332e-01
8.555741782558279329e-02
4.787831073090297040e-02
9.021565521551346001e-03
-3.015479974274754005e-02
-6.881363131716250470e-02
-1.058736048849489020e-01
-1.407303895023111484e-01
-1.722034056038783678e-01
-1.999603982411988223e-01
-2.230061037824756509e-01
-2.408416392905703973e-01
-2.531970277684814086e-01
-2.593788924186337108e-01
-2.597919576962204324e-01
-2.538766064707769776e-01
-2.420202878525760659e-01
-2.244838322196350822e-01
-2.014637003033985518e-01
-1.739211007585263480e-01
-1.420466710818120148e-01
-1.069251580026494702e-01
-6.919615859908108402e-02
-2.983116923605558246e-02
1.018191617222666268e-02
5.005440236278549393e-02
8.860355122456409216e-02
1.252255880296347934e-01
1.587203412236417588e-01
1.886488843634794854e-01
2.141036952684786110e-01
2.344512203029255892e-01
2.495124433977038425e-01
2.584886301455454061e-01
2.617516785994463691e-01
2.587629375255276476e-01
2.497515964362811980e-01
2.350730242205246734e-01
2.146974127244296038e-01
1.896060126192357365e-01
1.598744025375573308e-01
1.264363229323501869e-01
8.998056661037606707e-02
5.121577477192566785e-02
1.121683317210513814e-02
-2.939654393474713800e-02
-6.948178064861851300e-02
-1.083890897608782156e-01
-1.450453192183612239e-01
-1.788328869086521777e-01
-2.089294005040945867e-01
-2.345632797711179607e-01
-2.554887708650629974e-01
-2.708117019805504899e-01
-2.806961767477250680e-01
-2.845687642547076179e-01
-2.824129878774294111e-01
-2.745520399681044554e-01
-2.607157790477038217e-01
-2.417714932390496729e-01
-2.177017345517009428e-01
-1.892303936184894508e-01
-1.570862961293033322e-01
-1.217327444947768900e-01
-8.427341133681144625e-02
-4.522372004958524067e-02
-5.641915717602754947e-03
3.376156185356075923e-02
7.205826651942776051e-02
1.085082308006140028e-01
1.423744324723549559e-01
1.728131542764685114e-01
1.995423570091036658e-01
2.216256336076933287e-01
2.390573626476088509e-01
2.512528521829028305e-01
2.579620254041566918e-01
2.594636518147473425e-01
2.552227037078562133e-01
2.459253396187008334e-01
2.313926785366717809e-01
2.120420186206365964e-01
1.885361734363093511e-01
1.609716335613721738e-01
1.303633791256638697e-01
9.700096754449438752e-02
6.177146672494707169e-02
2.536817419901764986e-02
-1.150381196160452785e-02
-4.797923374536691710e-02
-8.345277999924269330e-02
-1.169427661359252191e-01
-1.480931212448511891e-01
-1.758834043313417250e-01
-1.999933385648697826e-01
-2.198252428817985549e-01
-2.347217106754748706e-01
-2.448954975641312037e-01
-2.494769279290136033e-01
-2.488528256529549121e-01
-2.427793903133237952e-01
-2.312160728054980519e-01
-2.149137444987591072e-01
-1.935628843010737676e-01
-1.680906686452650622e-01
-1.387523127968815773e-01
-1.061191850249703361e-01
-7.113420996392523510e-02
-3.415956436411450581e-02
3.795993478936336013e-03
4.214351609425462386e-02
8.000832842442696935e-02
1.167522846040883189e-01
1.515538358606910441e-01
1.838185851934081294e-01
2.129576280113074094e-01
2.382014382917841122e-01
2.595499766441736744e-01
2.760978152481324832e-01
2.879138216817546669e-01
2.946946213618222288e-01
2.960799943120491218e-01
2.926904971961749036e-01
2.839152285583901314e-01
2.703965060973717582e-01
2.522392483849328348e-01
2.296086533529477502e-01
2.034226761318317922e-01
1.736332421043520480e-01
1.411291397383171164e-01
1.063732250798598705e-01
6.998574854105826804e-02
3.274394145331634143e-02
-4.774747287617120417e-03
-4.182776496883899853e-02
-7.779143979562694322e-02
-1.118294522006387792e-01
-1.436709495787990565e-01
-1.723283802943346710e-01
-1.975287328541411869e-01
-2.187791184866712535e-01
-2.353824495539428852e-01
-2.477294456480085283e-01
-2.548573998095930992e-01
-2.571016882039587892e-01
-2.543487080445950843e-01
-2.463669951046512097e-01
-2.340594547448558438e-01
-2.169294605100989815e-01
-1.957945076453240230e-01
-1.709626310889099943e-01
-1.427970675743505113e-01
-1.122764623984128518e-01
-7.958749888487055835e-02
-4.566626466284379182e-02
-1.102728284339861940e-02
2.351158228191763816e-02
5.742273575985105960e-02
8.993650248330817276e-02
1.204154498978752819e-01
1.484663815772984119e-01
1.731405134820572511e-01
1.946278934357085211e-01
2.119326131036522454e-01
2.249358612530806267e-01
2.335813410290689118e-01
2.371210206005427978e-01
2.363521115310527887e-01
2.304640156465443401e-01
2.198292741590834876e-01
2.047520051484381653e-01
1.849520010221060162e-01
1.614672946040252022e-01
1.340218143285721308e-01
1.033090694559528622e-01
6.987979406994054843e-02
3.406325052564884714e-02
-3.256658604062684370e-03
-4.167744803428066747e-02
-8.041137287371256936e-02
-1.188539311355873845e-01
-1.561637982783981859e-01
-1.918806093244414257e-01
-2.251098081029973552e-01
-2.552348645701228991e-01
-2.818252698729429295e-01
-3.039271847381352920e-01
-3.216063444109850122e-01
-3.339705807306220242e-01
-3.408614907749134559e-01
-3.422182618828095158e-01
-3.375524145391432529e-01
-3.274003741057385231e-01
-3.114276500803749848e-01
-2.901193301030156046e-01
-2.638289708576149195e-01
-2.329481331601062633e-01
-1.982625050277460887e-01
-1.602505335220228977e-01
-1.199340676146439522e-01
-7.790560337340420027e-02
-3.535599735389589882e-02
7.018762877659547039e-03
4.815763345398989259e-02
8.695891129822813648e-02
1.228855200782390245e-01
1.545744496623137898e-01
1.817364770787022465e-01
2.033224400579775604e-01
2.188024521267565303e-01
2.279232825944043084e-01
2.300447549032639261e-01
2.254423022516736652e-01
2.137069634074588720e-01
1.954120704966110789e-01
1.706239105525664268e-01
1.400926266997638003e-01
1.045768677108447897e-01
6.460213278039333984e-02
2.190239351983735983e-02
-2.330925532267311140e-02
-6.892590672734486001e-02
-1.140437904994440199e-01
-1.574675101039479386e-01
-1.969225727931422920e-01
-2.323702853603809293e-01
-2.612480290164036489e-01
-2.830501275782257853e-01
-2.966827549368908912e-01
-3.004812678492504441e-01
-2.949310784092247784e-01
-2.784223684696913725e-01
-2.513817320023253865e-01
-2.136889377931504574e-01
-1.653701380308011393e-01
-1.075728610114251582e-01
-4.072465978862815916e-02
3.370047107148677057e-02
1.144924399571550788e-01
1.997082131047512865e-01
2.878956871896197756e-01
3.766331683722332624e-01
4.640423420162856916e-01
5.481448014117630274e-01
6.260743357489101379e-01
6.969593725015499341e-01
7.576741540304372524e-01
8.071565181213202766e-01
8.439036072781442854e-01
8.658081887052466730e-01
8.734974048616848119e-01
8.648724701547145788e-01
8.406535089443361031e-01
8.008907304233414681e-01
7.454297904180144929e-01
6.765500954389570554e-01
5.941906478014951087e-01
5.006748151942235214e-01
3.977087554205772646e-01
2.869233237580792739e-01
1.712559575551831914e-01
5.240627218635740547e-02
-6.709731164380106083e-02
-1.848139344944049745e-01
-2.986382530424155357e-01
-4.065671514385278407e-01
-5.062550436319038782e-01
-5.966107774412479081e-01
-6.756582258074441683e-01
-7.421779618812734958e-01
-7.961761404618088456e-01
-8.357110243586458598e-01
-8.618179571739101874e-01
-8.736729989516168748e-01
-8.714450382106280202e-01
-8.570029611846314843e-01
-8.293236672681212340e-01
-7.909232911932411181e-01
-7.421107793975678657e-01
-6.840544880596831634e-01
-6.193265765191268146e-01
-5.479132861589420811e-01
-4.724126301226731495e-01
-3.938209059936141898e-01
-3.135741576616353776e-01
-2.335670072791744545e-01
-1.546891447476098080e-01
-7.839592893404356833e-02
-5.851766099545907540e-03
6.180147014452078147e-02
1.241638625719784783e-01
1.796930964205496750e-01
2.285138930915554811e-01
2.696753497204870675e-01
3.025803365085493191e-01
3.282641086155751453e-01
3.450018157967452703e-01
3.541669270061139074e-01
3.552379939837077560e-01
3.482576336327339317e-01
3.350134271285850618e-01
3.142486143105949203e-01
2.879091860611086018e-01
2.559797655755057244e-01
2.191842092540626785e-01
1.792372193273086278e-01
1.358826495991872219e-01
9.098593366576052111e-02
4.494077485790549942e-02
-9.775215114392749038e-04
-4.575606358980955496e-02
-8.861391589017039716e-02
-1.282855860828717720e-01
-1.642853264885649756e-01
-1.952630308337058862e-01
-2.211709772428233078e-01
-2.408268520904839338e-01
-2.539191462985290748e-01
-2.603043108910502723e-01
-2.592216086315582979e-01
-2.515491516461133004e-01
-2.365449189445845979e-01
-2.149304021703978551e-01
-1.871502897470985194e-01
-1.534427471310026436e-01
-1.152256254911474542e-01
-7.264649157635783006e-02
-2.709386553930812069e-02
2.057888934404400461e-02
6.931567266131266614e-02
1.178204851976689949e-01
1.652545949372115908e-01
2.102871047675919924e-01
2.521529021618941213e-01
2.896456794269930413e-01
3.222153445763032975e-01
3.489437658547978049e-01
3.692530319539158445e-01
3.829152424062855498e-01
3.892831114975384699e-01
3.887746352979987718e-01
3.809657687368033230e-01
3.662905657706396756e-01
3.451641518053193414e-01
3.178353274875075352e-01
2.853913703459826090e-01
2.481347667011390978e-01
2.072173088677520258e-01
1.634458580490927293e-01
1.178036362682504112e-01
7.142112104102482650e-02
2.516297188013599806e-02
-1.976219781725568891e-02
-6.259566793624360415e-02
-1.021608423516132680e-01
-1.379149854735326197e-01
-1.688837086804811649e-01
-1.944894568619144337e-01
-2.144253617029768522e-01
-2.279557290814682724e-01
-2.354484677173933616e-01
-2.363103110204586021e-01
-2.309471293730758212e-01
-2.196473210530319742e-01
-2.024947552271545437e-01
-1.806017875191711086e-01
-1.539958995788817953e-01
-1.238791077111418004e-01
-9.091469951312988740e-02
-5.591004565266236015e-02
-2.013671404301239920e-02
1.590995396888669755e-02
5.086396923880412424e-02
8.414880707993252495e-02
1.147341576172671851e-01
1.418645610698316961e-01
1.649895219370249855e-01
1.832793100783610685e-01
1.966397450941076708e-01
2.043924598421312799e-01
2.066621436757850039e-01
2.032231448187135636e-01
1.941457263528865995e-01
1.799015297984647710e-01
1.604897212215090074e-01
1.367875166298468670e-01
1.090392207570252958e-01
7.808380547165572061e-02
4.471350860141043437e-02
9.547625451796465379e-03
-2.629842327294608373e-02
-6.225170451403211347e-02
-9.722922363776423382e-02
-1.305517878761106032e-01
-1.613715502300845928e-01
-1.889617535917356705e-01
-2.127685180074986859e-01
-2.320954323731910796e-01
-2.467632230157161821e-01
-2.561991313343266463e-01
-2.604595671490575470e-01
-2.593496474950744424e-01
-2.529399709615877123e-01
-2.416444383441434252e-01
-2.254868965435088690e-01
-2.052304665602172062e-01
-1.811435742249022929e-01
-1.539787751533696070e-01
-1.244539026620591626e-01
-9.314855114244144363e-02
-6.102738251293152172e-02
-2.862750539060013311e-02
3.087372771468095689e-03
3.357946176550660744e-02
6.204502179673779261e-02
8.790915683445160722e-02
1.106826757131718630e-01
1.297171189834218641e-01
1.449790879733759419e-01
1.558250430108613083e-01
1.623688215706882709e-01
1.643867256846600622e-01
1.618424670123835840e-01
1.551821731495843792e-01
1.441938639903203589e-01
1.295803378797509842e-01
1.114343017741929454e-01
9.032663642222504841e-02
6.689528171779757226e-02
4.144676627901952570e-02
1.490862395053232925e-02
-1.240088559205919372e-02
-3.956465186116025351e-02
-6.609932383002709022e-02
-9.132445912862252602e-02
-1.145125593398719499e-01
-1.353092134022433335e-01
-1.528723975794557544e-01
-1.671065784679923727e-01
-1.773225040968584021e-01
-1.833165374176219942e-01
-1.849312348530742223e-01
-1.818408891191743981e-01
-1.743900909891923368e-01
-1.623248925909881457e-01
-1.460790195746795583e-01
-1.258571229514452994e-01
-1.020840318483020870e-01
-7.539463190523640335e-02
-4.620011852754199455e-02
-1.537604654604011328e-02
1.656416418739388441e-02
4.863698041660974303e-02
8.023679611590123217e-02
1.104901906627535624e-01
1.385543655972620858e-01
1.638890830250658293e-01
1.855375005177612446e-01
2.032605690050579561e-01
2.162724149835184573e-01
2.242882547343754140e-01
2.270788801481848918e-01
2.243706031329020245e-01
2.164398145657320804e-01
2.031445162497663715e-01
1.850093243801061993e-01
1.622738479020548186e-01
1.356300266963667289e-01
1.057239776467612941e-01
7.321302395393589069e-02
3.919807767805703891e-02
4.235639410647501490e-03
-3.035298818496315332e-02
-6.393458781907290778e-02
-9.543756486470439393e-02
-1.238199495598252819e-01
-1.485823388199954964e-01
-1.685664204694434787e-01
-1.835754204865105432e-01
-1.928091515953913593e-01
-1.959746478277698545e-01
-1.929868996311484564e-01
-1.836309405823378094e-01
-1.683439584333389361e-01
-1.471433170288488634e-01
-1.207812522145381151e-01
-8.966407369974654928e-02
-5.476152422850874557e-02
-1.693123672368054833e-02
2.297433193495916626e-02
6.351461556394162600e-02
1.040810475584528216e-01
1.430265348993763896e-01
1.795997881267781260e-01
2.126471999649392763e-01
2.408673302897752500e-01
2.638959355539460816e-01
2.803753237020021327e-01
2.901603528094270357e-01
2.925393895504854735e-01
2.871558637996224905e-01
2.741925943781316488e-01
2.534399024779385168e-01
2.255260373785252237e-01
1.906891693430284862e-01
1.498197355619920734e-01
1.036275459716102798e-01
5.328108507649301218e-02
-9.521819662636210602e-05
-5.535436541629137897e-02
-1.107906395746083711e-01
-1.655164495109498757e-01
-2.175852766769060254e-01
-2.660016056399844842e-01
-3.093308233765289517e-01
-3.460616418954179929e-01
-3.756667346807551766e-01
-3.965848645495209102e-01
-4.086418033581667997e-01
-4.110059092748840626e-01
-4.034023879192357720e-01
-3.861070545072449733e-01
-3.589790399197487214e-01
-3.229910948244067992e-01
-2.785004093627584387e-01
-2.268194853515730913e-01
-1.690171154215085181e-01
-1.065351068595243866e-01
-4.108870075072373895e-02
2.596385138826051708e-02
9.244988913988834434e-02
1.571059403529979082e-01
2.178223376763268604e-01
2.731845967862314706e-01
3.217283711918741962e-01
3.618509962906826805e-01
3.929561096417333865e-01
4.136643157053121467e-01
4.238936275760775141e-01
4.230444145036347248e-01
4.112268950425981284e-01
3.889980790673500666e-01
3.565820842740201613e-01
3.154431463598768581e-01
2.661676083740237564e-01
2.105561290266620145e-01
1.499965994590923835e-01
8.605287014049731176e-02
2.087144761968157125e-02
-4.429118824256242370e-02
-1.071348152324688857e-01
-1.663631439597526573e-01
-2.201988078685576944e-01
-2.671851316284207245e-01
-3.062982981968054852e-01
-3.362469584922830323e-01
-3.566919403280723322e-01
-3.668029396703539335e-01
-3.667569721601293131e-01
-3.564128108103409298e-01
-3.362933386385749124e-01
-3.072267445524479168e-01
-2.697771063735711627e-01
-2.256247920798565287e-01
-1.755072704776995951e-01
-1.213580699579756145e-01
-6.457927323994396007e-02
-6.650978061294166022e-03
5.035890222396706417e-02
1.054237034120357464e-01
1.564834488152762604e-01
2.025374407361914819e-01
2.421886020525423899e-01
2.743121953016618986e-01
2.983127997056228553e-01
3.132801096541984465e-01
3.192852470180008173e-01
3.158532288509193764e-01
3.034627667346022628e-01
2.823122797496540048e-01
2.531059872662504429e-01
2.169105239944276176e-01
1.743700234788612136e-01
1.271782769983475225e-01
7.614925981403433686e-02
2.305698464473079912e-02
-3.075578341910592539e-02
-8.398984346297405645e-02
-1.348436697740220680e-01
-1.824279581632420877e-01
-2.250255094368065478e-01
-2.618862264714469368e-01
-2.918517505488352204e-01
-3.141275817931802883e-01
-3.283183628246129637e-01
-3.337838915696886843e-01
-3.308607686800626446e-01
-3.192071572678716329e-01
-2.994984633616937231e-01
-2.720985620698361251e-01
-2.377662167256161529e-01
-1.977336964673100939e-01
-1.526350449340877491e-01
-1.041468930955795069e-01
-5.316674344999622326e-02
-1.295072737191371726e-03
5.011974341512284714e-02
9.991478855116786573e-02
1.465089756259447262e-01
1.890471574177834679e-01
2.261405949785259828e-01
2.571873495957945344e-01
2.812339020125569355e-01
2.978010067504727187e-01
3.066046500706945954e-01
3.073253185554600808e-01
3.004751397852477579e-01
2.858576834524435006e-01
2.643668838893772355e-01
2.364212896245222462e-01
2.029057256868482262e-01
1.650856998751949745e-01
1.235684840878377988e-01
8.001810839028028477e-02
3.523807989709790145e-02
-9.307475258656661143e-03
-5.239154089748895848e-02
-9.306593206464763846e-02
-1.299444590703708602e-01
-1.623770652075728071e-01
-1.892665612930810315e-01
-2.101750941494263669e-01
-2.244549121060985808e-01
-2.318483377716237526e-01
-2.322857304397633327e-01
-2.257107050725360720e-01
-2.127336532139657843e-01
-1.934078622757414434e-01
-1.687267750991547632e-01
-1.392259174587735238e-01
-1.058595753014762164e-01
-6.987082643868383625e-02
-3.190303339721294040e-02
6.483103411900420499e-03
4.455090142078924759e-02
8.102214974341453990e-02
1.148357891156830957e-01
1.452633274982846334e-01
1.711859578135075388e-01
1.921899780895245380e-01
2.075124622749844883e-01
2.169303070635118236e-01
2.201382001525944432e-01
2.171187633709916187e-01
2.080527231338778205e-01
1.931292507172411299e-01
1.730490802581367005e-01
1.481090188063012569e-01
1.193156746151558534e-01
8.731114926587742187e-02
5.304124297569948882e-02
1.764021765096315114e-02
-1.821109935122919993e-02
-5.318634958614369690e-02
-8.659574161649088997e-02
-1.173849752674495373e-01
-1.447151556004166173e-01
-1.679704325937402820e-01
-1.863715821244796844e-01
-1.996170374757577359e-01
-2.072329904394067668e-01
-2.092043534079073841e-01
-2.053852615794869163e-01
-1.960418601400285565e-01
-1.814525162266664160e-01
-1.620227156921071054e-01
-1.385575562597170518e-01
-1.114655057231954266e-01
-8.186237431686357868e-02
-5.040434430256178489e-02
-1.807872658742540675e-02
1.403755107292220528e-02
4.528800508535663072e-02
7.446678736507418572e-02
1.010012559177380920e-01
1.240025318459677395e-01
1.428397757555744940e-01
1.570709335363689174e-01
1.662000205829672617e-01
1.701235047049360349e-01
1.686387703784883452e-01
1.619662002718197102e-01
1.501661495528591461e-01
1.337660354969018306e-01
1.131842006601686268e-01
8.901839963849167425e-02
6.218311358172955161e-02
3.317682759731273301e-02
3.193599278215303316e-03
-2.712061215513587517e-02
-5.677638306223403014e-02
-8.476576285585689374e-02
-1.105052942169908042e-01
-1.329170016425526291e-01
-1.515723342355935477e-01
-1.657522285315754795e-01
-1.750234065659832527e-01
-1.791383950310837803e-01
-1.778528928806339948e-01
-1.712775438149824192e-01
-1.594618483452811541e-01
-1.428555413643319560e-01
-1.217537856384375283e-01
-9.691703933759818201e-02
-6.895065004921584195e-02
-3.864907165184734705e-02
-7.045704661441596663e-03
2.521162901858204144e-02
5.688473609749250537e-02
8.729323759348200928e-02
1.154451275081935235e-01
1.404451773369302381e-01
1.617448759769012367e-01
1.784853254639175435e-01
1.903969879074565719e-01
1.969612473115263662e-01
1.980509129467658558e-01
1.935896140772955798e-01
1.836852277503944197e-01
1.686789737671955391e-01
1.488610593876044941e-01
1.249790075707523929e-01
9.747279746449875881e-02
6.734706875024690231e-02
3.533488806738124821e-02
2.330083339574268164e-03
-3.053406478729410456e-02
-6.260055566877015254e-02
-9.264184289029028796e-02
-1.200264617381388288e-01
-1.438547340369073502e-01
-1.633756201261808982e-01
-1.781586680769635112e-01
-1.875883826994123593e-01
-1.915823610998506066e-01
-1.898387572998604944e-01
-1.825306402498483860e-01
-1.697530643160765629e-01
-1.519433803882372369e-01
-1.296559345821190756e-01
-1.033906252132645864e-01
-7.416669998456255908e-02
-4.253383626482244717e-02
-9.702098147873750716e-03
2.351120166611977980e-02
5.615688808359628470e-02
8.705014988623305250e-02
1.155890746256655333e-01
1.406095767857721834e-01
1.616098488081537110e-01
1.778422146580427854e-01
1.887650277308106084e-01
1.941534121655714151e-01
1.936738156013903533e-01
1.875044649928839235e-01
1.755988377471406903e-01
1.584408248243741046e-01
1.363449701775499290e-01
1.100396023114979527e-01
8.028346090511750965e-02
4.776509893721056499e-02
1.369011499061207476e-02
-2.129524309416984396e-02
-5.587593175556999914e-02
-8.922152748043361836e-02
-1.203629251725173988e-01
-1.481785600353181520e-01
-1.721377075724108696e-01
-1.912167734598363977e-01
-2.050927735682851472e-01
-2.131734236540244187e-01
-2.151941409654512527e-01
-2.111262775140714809e-01
-2.009313590499505753e-01
-1.850575033535085678e-01
-1.636934892336722180e-01
-1.376420010999808707e-01
-1.074182670513259830e-01
-7.400069489769922626e-02
-3.833668174849647059e-02
-1.258969453683742024e-03
3.589011473103655842e-02
7.240965852959171944e-02
1.069640293831843336e-01
1.387518946805288977e-01
1.668672011281284451e-01
1.903319014593530534e-01
2.087476633530186976e-01
2.213007587070382476e-01
2.278902454551289813e-01
2.281224704455520613e-01
2.220375650821737046e-01
2.098044192804244812e-01
1.916476947023803279e-01
1.682540937951998994e-01
1.399750691259808999e-01
1.078588013088030984e-01
7.252536333046624706e-02
3.509189095336649744e-02
-3.396319512287344564e-03
-4.208119909001861031e-02
-7.956419831199804116e-02
-1.151881279733897034e-01
-1.476445699753194951e-01
-1.762082996817597169e-01
-2.000667435168954622e-01
-2.183629498763612342e-01
-2.308521250184448204e-01
-2.368546236820051609e-01
-2.364625484104698194e-01
-2.294306025485074452e-01
-2.160073355595126809e-01
-1.965474295791557746e-01
-1.714313011074136972e-01
-1.415474048150057729e-01
-1.073720547858923458e-01
-7.012430857503153259e-02
-3.053216813324017426e-02
1.019972540146599563e-02
5.094348072257123827e-02
9.082175108621265425e-02
1.284032776978970558e-01
1.630846978597906838e-01
1.935794921461410634e-01
2.192485198310849537e-01
2.393754966967810982e-01
2.531991242248826657e-01
2.606547077409047675e-01
2.611401282380094169e-01
2.549246559154657588e-01
2.418902918683239478e-01
2.224086856302800452e-01
1.970193561370451318e-01
1.661529457557560652e-01
1.308518297733510527e-01
9.166687542361573460e-02
4.988899472122144962e-02
6.347960259287223350e-03
-3.774729420744808717e-02
-8.119409741153769955e-02
-1.231054110383512923e-01
-1.620382162012527216e-01
-1.973899585925789346e-01
-2.278857078269359016e-01
-2.529047982104252190e-01
-2.717710039331470151e-01
-2.837647971051874829e-01
-2.889249417491574490e-01
-2.866692275406925172e-01
-2.773844324637681491e-01
-2.610337818242323138e-01
-2.380759810140237742e-01
-2.092192162180899206e-01
-1.749156577679948921e-01
-1.363700476487965940e-01
-9.420100866214586866e-02
-4.977269739881326482e-02
-4.035718733037860217e-03
4.182125074138762222e-02
8.650123848003454796e-02
1.291410679059148137e-01
1.683044067549047951e-01
2.034074543056483553e-01
2.332468847987416716e-01
2.572286055482457257e-01
2.747804439187447878e-01
2.852493286540370709e-01
2.887942345851337023e-01
2.848848404095200015e-01
2.739985678745388009e-01
2.561798814607857411e-01
2.319352959285819749e-01
2.020830944870081192e-01
1.670440903714582870e-01
1.281029313248200907e-01
8.586904633179479052e-02
4.170865937844400739e-02
-3.389454684807877149e-03
-4.831787862945179785e-02
-9.173020492316980024e-02
-1.328403113243477041e-01
-1.702180361144164933e-01
-2.033200680772291602e-01
-2.310024269732342539e-01
-2.526600320608882733e-01
-2.678310878667036210e-01
-2.758572417698315071e-01
-2.770183560742340290e-01
-2.707998565957847603e-01
-2.577213960134712711e-01
-2.379464471326031560e-01
-2.119679261519722413e-01
-1.807547188735443844e-01
-1.446984989190313320e-01
-1.051379996521904225e-01
-6.273777017399256861e-02
-1.882430570650989177e-02
2.555917952988275010e-02
6.938606598872303077e-02
1.113167014187370629e-01
1.506436299897053466e-01
1.859932162087346852e-01
2.169319594772235460e-01
2.423956039712604482e-01
2.618325182156240882e-01
2.749406890314933238e-01
2.810478820992411975e-01
2.806152068936881849e-01
2.730967573966974760e-01
2.590130255383206181e-01
2.386297281233895617e-01
2.122882753166287495e-01
1.810673881211933012e-01
1.451940159313993006e-01
1.059246267309351675e-01
6.391958801330346884e-02
2.030803366476156835e-02
-2.385502726135716942e-02
-6.769159696016940897e-02
-1.099251778499259202e-01
-1.498771828878533163e-01
-1.862461362670750631e-01
-2.185849800872506077e-01
-2.458436486623227779e-01
-2.674160641146923756e-01
-2.830000493036303744e-01
-2.918139442147931195e-01
-2.942803350986255562e-01
-2.897645633639486795e-01
-2.786587957168318308e-01
-2.612413819655166614e-01
-2.376585638249317234e-01
-2.089957643571844215e-01
-1.753767636971822474e-01
-1.379637695553058430e-01
-9.746297911622338328e-02
-5.483082800907684851e-02
-1.121252892766896880e-02
3.262470793890942522e-02
7.541159264364515058e-02
1.164488687896108876e-01
1.545216690863590037e-01
1.890749292530917169e-01
2.191596734924193823e-01
2.440912828001555179e-01
2.635983275888192923e-01
2.768430465209940627e-01
2.841614668863585713e-01
2.849257669537036963e-01
2.793619118860822814e-01
2.677666637645021996e-01
2.500590952409502132e-01
2.272593794618902874e-01
1.993437854832940115e-01
1.672760498650812666e-01
1.317304480001904032e-01
9.336911291852176276e-02
5.334071349211008672e-02
1.219525215061283141e-02
-2.888293368711929848e-02
-6.922147920746068994e-02
-1.077635335516794191e-01
-1.438209774035714150e-01
-1.765762518055155605e-01
-2.052092758374216008e-01
-2.294233222801371763e-01
-2.482823912780726117e-01
-2.619005320718151841e-01
-2.696296040245804160e-01
-2.713949604279608518e-01
-2.674563602306087584e-01
-2.574410336427224721e-01
-2.421983182570594528e-01
-2.215844391257334456e-01
-1.962712803416981622e-01
-1.669486149549733733e-01
-1.339590082112542824e-01
-9.844247647873752283e-02
-6.080367887925525183e-02
-2.209239524002172550e-02
1.695593210811571772e-02
5.548906298721027752e-02
9.266909064598100043e-02
1.278010018144733195e-01
1.599894515386854066e-01
1.888732175360200438e-01
2.135194631174965330e-01
2.338052168814203080e-01
2.491236917266222428e-01
2.591371158687339471e-01
2.640523450604044808e-01
2.632737792785979081e-01
2.574104253698937250e-01
2.462315019572954844e-01
2.300576203266787578e-01
2.095405259263241060e-01
1.846652920238933127e-01
1.564352393116938411e-01
1.250854883364494186e-01
9.140647556669559415e-02
5.615283440486167066e-02
1.988520132748126251e-02
-1.649089130546361331e-02
-5.240683038555356277e-02
-8.697064331260348502e-02
-1.197103716846213417e-01
-1.497428591086895078e-01
-1.766766136710444801e-01
-1.999031929776274863e-01
-2.188200140742211364e-01
-2.334839975751312191e-01
-2.430920073322916375e-01
-2.479318599061897666e-01
-2.476707765357946678e-01
-2.422563041045265875e-01
-2.322603287975814612e-01
-2.173379000788272508e-01
-1.983065371060226956e-01
-1.752750487435711935e-01
-1.487576827760830334e-01
-1.195473885943672265e-01
-8.791674052193110267e-02
-5.480770618532700839e-02
-2.068068601227970871e-02
1.362558210441578571e-02
4.753162648660402834e-02
8.028031924226516902e-02
1.112555478101056039e-01
1.399128898221619621e-01
1.654538526629598660e-01
1.878218846694219568e-01
2.061103991316543538e-01
2.202842370800408567e-01
2.299866714722375582e-01
2.347840968820626428e-01
2.351567138757607589e-01
2.304491488829253365e-01
2.211824877170009973e-01
2.073489645010845317e-01
1.890687325425461918e-01
1.671087256010437005e-01
1.413881880990182638e-01
1.127461944912071801e-01
8.153212915504225167e-02
4.841530572577289887e-02
1.408843339983358034e-02
-2.085860037248245952e-02
-5.560800083139480487e-02
-8.960897547054305634e-02
-1.218839255207431749e-01
-1.521407112163593034e-01
-1.793610054627725603e-01
-2.031002185004763816e-01
-2.229022264564580746e-01
-2.379292207725753339e-01
-2.484728726439364155e-01
-2.536051896455899235e-01
-2.534989716481246824e-01
-2.480847792609776059e-01
-2.371154617060240444e-01
-2.213868137745640952e-01
-2.005670521224893754e-01
-1.754173952121880764e-01
-1.463266567136635443e-01
-1.138088992555076895e-01
-7.878447809243284417e-02
-4.170205942890618106e-02
-3.559540929634549822e-03
3.502155507604065576e-02
7.300032441720863408e-02
1.098360730638204830e-01
1.445318868145733515e-01
1.763555742230017431e-01
2.048223579004646577e-01
2.288769117415626053e-01
2.486555615605816061e-01
2.631285407982494884e-01
2.721874181031919693e-01
2.757521570092713037e-01
2.732564862309418974e-01
2.654526354677204103e-01
2.517809572504005611e-01
2.328084639816747070e-01
2.089004702290793714e-01
1.802567651681790672e-01
1.478933207287567164e-01
1.119961190401524975e-01
7.356229043717024685e-02
3.322681610050008671e-02
-8.109783483546524618e-03
-4.963341307712736128e-02
-9.050001844193274192e-02
-1.297279792022798250e-01
-1.667375595500522056e-01
-2.003394872110805525e-01
-2.303123142253167277e-01
-2.555898376020287466e-01
-2.756749526676637863e-01
-2.903748022175212662e-01
-2.987960746940397927e-01
-3.014532638684644938e-01
-2.976250257619641459e-01
-2.875702834599199176e-01
-2.716362709643187490e-01
-2.496855497862191520e-01
-2.227689946903748663e-01
-1.908855114005807985e-01
-1.549538346284524137e-01
-1.157054483580632620e-01
-7.382216372641646485e-02
-3.039615508218602297e-02
1.389390610688023830e-02
5.792168034909337543e-02
1.009706413377915307e-01
1.419067311048133606e-01
1.801356314742591225e-01
2.146931599107565480e-01
2.448052804050712683e-01
2.701553915964841068e-01
2.897325060174389955e-01
3.037232019140918005e-01
3.113795209218663262e-01
3.126587943434959160e-01
3.078000145010542088e-01
2.964147593827186622e-01
2.793736823006620074e-01
2.565106545904121682e-01
2.285465610006953696e-01
1.961497493549250182e-01
1.597479086315932995e-01
1.204904407526344035e-01
7.885861061724475096e-02
3.600729272658127061e-02
-7.294914146224837359e-03
-5.001896338871253400e-02
-9.126577379325351291e-02
-1.301774444601624947e-01
-1.657287865336540822e-01
-1.974429330706408692e-01
-2.242381073119925627e-01
-2.459112753069944146e-01
-2.617203152864909788e-01
-2.713267783093024077e-01
-2.748304332787423476e-01
-2.717086131228346746e-01
-2.626057831406540810e-01
-2.473284613487026773e-01
-2.264584513193836912e-01
-2.006512505309405725e-01
-1.702388851222920163e-01
-1.364148262282776081e-01
-9.960438730152348930e-02
-6.101864741545154347e-02
-2.147372811735825948e-02
1.806669055664672507e-02
5.651420859177062189e-02
9.316452025115917746e-02
1.268482256707185729e-01
1.571320194445413598e-01
1.829926227738999933e-01
2.040658644200713523e-01
2.198418478243555629e-01
2.298106127321422054e-01
2.342161944072937985e-01
2.325021770132880139e-01
2.251987286115593179e-01
2.122561530341124936e-01
1.940187219661935192e-01
1.712410572900214811e-01
1.440467720883996661e-01
1.135066074410240322e-01
7.999040718018068929e-02
4.444862018395734360e-02
7.678185350523891728e-03
-2.961625425225594688e-02
-6.641632226919175208e-02
-1.021622928452930734e-01
-1.357678576111475688e-01
-1.668468400158015508e-01
-1.944291850454526183e-01
-2.180436967982652130e-01
-2.372361118859701579e-01
-2.512608987375673508e-01
-2.603601881573343602e-01
-2.637366119565073275e-01
-2.616615307693854753e-01
-2.540419968547799057e-01
-2.407926592929389153e-01
-2.226789340627747249e-01
-1.994763682137706828e-01
-1.720384871723118492e-01
-1.407201878647299509e-01
-1.061338368648500063e-01
-6.918019315705942196e-02
-3.035933916755689799e-02
9.330254338074661646e-03
4.925354383786473278e-02
8.838364295079154109e-02
1.261766099502958649e-01
1.616195654325724984e-01
1.940740694726735827e-01
2.229650706419589734e-01
2.473306492586874183e-01
2.672970303921302082e-01
2.818078114020295954e-01
2.908921493039804407e-01
2.943306478946435267e-01
2.916714453335680357e-01
2.836535952457546195e-01
2.696766133299557944e-01
2.504160160133803714e-01
2.261112991403463335e-01
1.970526161447566094e-01
1.642228864626913420e-01
1.277957317377134416e-01
8.879409923008163563e-02
4.780642579918871482e-02
5.782506595660335050e-03
-3.652567500185294191e-02
-7.820023969068085057e-02
-1.183214440879353235e-01
-1.562317679234564161e-01
-1.907350111022265149e-01
-2.216774214758189254e-01
-2.478246961427221229e-01
-2.688034069058343745e-01
-2.842357264118933191e-01
-2.932933983764182684e-01
-2.965136158977416114e-01
-2.930233707122656961e-01
-2.832382034901030909e-01
-2.673054243100965177e-01
-2.452497479100727018e-01
-2.181064169630400063e-01
-1.858443670007763338e-01
-1.495442186919692107e-01
-1.098250203297641142e-01
-6.758348618221925175e-02
-2.388661016900344575e-02
2.048984267917536989e-02
6.431455794149493199e-02
1.068572037235105410e-01
1.468479365364900036e-01
1.837153284206546333e-01
2.163773361433883047e-01
2.440946976854804218e-01
2.664525248227764820e-01
2.825236903339650163e-01
2.925259179994944558e-01
2.957030046846795823e-01
2.922209831211712294e-01
2.822154787030164425e-01
2.656239794729784442e-01
2.433600461786978308e-01
2.154000706419139100e-01
1.827663480396879425e-01
1.460741940937970162e-01
1.061632332468655238e-01
6.420557138494020766e-02
2.088582227169510919e-02
-2.243188860546274643e-02
-6.498899409599012689e-02
-1.055244317132246756e-01
-1.432018224742521717e-01
-1.770699111509942414e-01
-2.061746180942333195e-01
-2.300657609853051788e-01
-2.478196644318075847e-01
-2.594165183454099077e-01
-2.642525157381830914e-01
-2.623724058180161300e-01
-2.539404633786862542e-01
-2.389527471057416586e-01
-2.182625358015402028e-01
-1.919844781372230524e-01
-1.611768124047616713e-01
-1.265117800850684149e-01
-8.889926026115686775e-02
-4.956780641576907787e-02
-9.205950833203219164e-03
3.074172796089641446e-02
6.958033574451888414e-02
1.060689458888599557e-01
1.393581650683525242e-01
1.686888424015570154e-01
1.930783306279062472e-01
2.122891076760862195e-01
2.254779381297976615e-01
2.326624303799672555e-01
2.334762223288214811e-01
2.279207233655713427e-01
2.163420397152502339e-01
1.987295430031429389e-01
1.759074604655587182e-01
1.480745272472130392e-01
1.161668375381000873e-01
8.087480177855010943e-02
4.300093998398091255e-02
3.690054644602869249e-03
-3.642001012894655054e-02
-7.597250865384316820e-02
-1.143296640388496710e-01
-1.502953355243974443e-01
-1.830205829238629456e-01
-2.117828132206902580e-01
-2.355300152621168930e-01
-2.540482967656115254e-01
-2.664076438699023996e-01
-2.725326381701571599e-01
-2.720689162675654638e-01
-2.648751883932702889e-01
-2.513419959464608389e-01
-2.313754036541335046e-01
-2.057626456752794653e-01
-1.747913162196680914e-01
-1.393508442010480963e-01
-1.002702850404743329e-01
-5.838293580497386226e-02
-1.492259222373812366e-02
2.932353696011244515e-02
7.294385695681747384e-02
1.151471480435103667e-01
1.546715448657396408e-01
1.905657622610956170e-01
2.220328225120803134e-01
2.480023251201231016e-01
2.682172831806074464e-01
2.817619422621742142e-01
2.885687525613135351e-01
2.883233290763846379e-01
2.809709034640737180e-01
2.669686852787310216e-01
2.462942026646089688e-01
2.198531621780585310e-01
1.879893516360344741e-01
1.517263032713382642e-01
1.119860955540492448e-01
6.963756355001851639e-02
2.606989177906240268e-02
-1.794142995886825742e-02
-6.089244572441074310e-02
-1.019367140699050378e-01
-1.398607709534011312e-01
-1.736127863418888140e-01
-2.024867430824411618e-01
-2.254302296581682241e-01
-2.422158318954171219e-01
-2.520580123804924688e-01
-2.549265633812447529e-01
-2.506556641412905351e-01
-2.393328874145321805e-01
-2.215442975620428023e-01
-1.974253667342914242e-01
-1.680449387356472979e-01
-1.338800826460924687e-01
-9.611841674925888923e-02
-5.582002164529419053e-02
-1.390983535843279967e-02
2.808649703107773260e-02
6.940269307145244260e-02
1.085228869271200325e-01
1.445958783748900467e-01
1.765612695261123966e-01
2.034021847271587913e-01
2.246099441254267026e-01
2.393246667303886854e-01
2.474662361613742256e-01
2.485443006602109928e-01
2.426972895446426193e-01
2.300209334797449212e-01
2.108497445965562267e-01
1.859367124748407818e-01
1.556587978358223434e-01
1.212184212427675212e-01
8.325294009404023143e-02
4.305402421075029545e-02
1.737753811301145923e-03
-3.971882858396619254e-02
-7.982142322416727054e-02
-1.178075891987378776e-01
-1.522891687324612053e-01
-1.824994331559376126e-01
-2.075301606389181042e-01
-2.265797530860310938e-01
-2.392780638502961521e-01
-2.450844619269305913e-01
-2.440881477913369735e-01
-2.360869262901604260e-01
-2.215220263380050236e-01
-2.006739555264040742e-01
-1.742258205353935108e-01
-1.430749899163591687e-01
-1.078559355863745878e-01
-6.997192613636821212e-02
-3.014910235595461008e-02
1.017027822190208486e-02
4.987778434872031097e-02
8.796390795288339115e-02
1.229991095365304266e-01
1.543278325846870191e-01
1.807287115961892510e-01
2.016245860665384360e-01
2.163371779663613714e-01
2.243694157705214409e-01
2.255884937084419173e-01
2.198184832878608552e-01
2.074026673191719516e-01
1.884532115336734759e-01
1.637518974958972473e-01
1.337747755846053765e-01
9.952202410774287078e-02
6.204421470850207676e-02
2.216828535256479271e-02
-1.853370473827048448e-02
-5.930197460277233934e-02
-9.860084443717220815e-02
-1.353621177004436515e-01
-1.686029686630036162e-01
-1.969898926083198942e-01
-2.200225952290244535e-01
-2.366452590064025419e-01
-2.465199449912235941e-01
-2.491970095682981556e-01
-2.444931332731001272e-01
-2.325684238337450971e-01
-2.135661579943440858e-01
-1.881656747088841508e-01
-1.567833704123492433e-01
-1.205378430741818746e-01
-8.018505426250017998e-02
-3.697855090916883636e-02
7.810817168665856736e-03
5.317816626030133498e-02
9.744748029753509677e-02
1.397830518186036763e-01
1.786595684183462374e-01
2.130844911151944243e-01
2.421459548762312508e-01
2.647419064150874357e-01
2.805523235219938849e-01
2.887773089140412974e-01
2.894097547634818524e-01
2.822248102028790395e-01
2.674330756704782486e-01
2.454779353580418544e-01
2.167715281775691172e-01
1.823468806412251453e-01
1.427892051587178468e-01
9.948478904597804484e-02
5.338095727450664629e-02
5.799659215235092313e-03
-4.182415391953397954e-02
-8.848687818963107965e-02
-1.325355958723822836e-01
-1.731251326235992982e-01
-2.088964069257702727e-01
-2.389579036511071397e-01
-2.625483516559922736e-01
-2.788526991362489937e-01
-2.877148278124037617e-01
-2.886247270086048644e-01
-2.818751325612307568e-01
-2.674453848425418778e-01
-2.459156483577645269e-01
-2.179572565057000810e-01
-1.842053570094872861e-01
-1.459811631502038187e-01
-1.039687484550300273e-01
-5.974311852835667569e-02
-1.433730348091044604e-02
3.095597575431693893e-02
7.466814194607018784e-02
1.159372947231098461e-01
1.532555701811900151e-01
1.859560551544504059e-01
2.129649879029633652e-01
2.336363394972900687e-01
2.475186416203694617e-01
2.541314861203056163e-01
2.536124944872568121e-01
2.457509050980903886e-01
2.311088459380726823e-01
2.098858343983656116e-01
1.828732890665204225e-01
1.508808380177880104e-01
1.146180676763876305e-01
7.545702206211428453e-02
3.406249862560005448e-02
-8.037277308342631599e-03
-4.991110681661076187e-02
-9.039369540910963119e-02
-1.281708301882215628e-01
-1.625518470829818984e-01
-1.922065045342495337e-01
-2.166953859560370454e-01
-2.350989333359920219e-01
-2.469776163171476524e-01
-2.520718943892256703e-01
-2.500480031381648316e-01
-2.412776364990343869e-01
-2.256428589617827107e-01
-2.038542041075421807e-01
-1.762747478424751268e-01
-1.437474324729968445e-01
-1.072356093069801591e-01
-6.748005488649642947e-02
-2.587172990577583584e-02
1.684520869850093111e-02
5.920835592572586126e-02
1.003145677702891037e-01
1.390399126943138164e-01
1.742188266848218592e-01
2.052289735307893936e-01
2.308953856648046643e-01
2.509927680893598301e-01
2.646794664741202174e-01
2.717361897447118091e-01
2.720490309001152296e-01
2.653955774023850633e-01
2.523738281175550990e-01
2.328689169286914384e-01
2.077045687832854703e-01
1.773164848991490294e-01
1.425114359884132043e-01
1.043309400067279347e-01
6.342447426130269628e-02
2.114587235003391463e-02
-2.178407409426391661e-02
-6.401002016523846261e-02
-1.046804837229211860e-01
-1.427344049232130985e-01
-1.770885847402269286e-01
-2.071578376823036693e-01
-2.318183061029761571e-01
-2.509289659392386351e-01
-2.636230765760734784e-01
-2.697376208299847589e-01
-2.691861117606600962e-01
-2.617338731015569353e-01
-2.480581492536613752e-01
-2.279987632253508423e-01
-2.024221635412750131e-01
-1.717995025791272390e-01
-1.369118477022821523e-01
-9.887110659159500936e-02
-5.828825314896939058e-02
-1.655198993873584212e-02
2.561619460415965471e-02
6.689672763424679702e-02
1.064010006443979472e-01
1.431512338834745879e-01
1.760481424218826585e-01
2.045856358841202649e-01
2.276782712176215751e-01
2.451875348443391389e-01
2.563630547975044305e-01
2.610218988959527864e-01
2.591894317908719492e-01
2.506208900496220693e-01
2.360084915547893680e-01
2.152523923122259819e-01
1.891752477387330100e-01
1.583124104153459943e-01
1.233744914691153327e-01
8.548453688929755212e-02
4.522371690883422723e-02
3.944706757048124790e-03
-3.763963754597693390e-02
-7.827790675317042313e-02
-1.170640546380398717e-01
-1.530979190195715101e-01
-1.852621566721842639e-01
-2.131159344521433019e-01
-2.355704941894282145e-01
-2.524686048560042528e-01
-2.631285775200891131e-01
-2.672901674757214296e-01
-2.650765127968136015e-01
-2.561556701412186499e-01
-2.412208348451836404e-01
-2.202012295140842180e-01
-1.938227610209750096e-01
-1.627145632434191524e-01
-1.274654903742087342e-01
-8.922265763388309567e-02
-4.854908599659948920e-02
-6.733678510626256442e-03
3.547625239364915473e-02
7.691093997650086389e-02
1.166405652447414787e-01
1.538173264807130847e-01
1.873115884008085819e-01
2.167359598493547590e-01
2.409713230292238051e-01
2.598448389450193075e-01
2.727084230329214765e-01
2.791837135842000217e-01
2.794879377255398145e-01
2.731097906649616047e-01
2.607152368023315514e-01
2.421868011517202546e-01
2.180515967315333481e-01
1.890036383391452413e-01
1.553671596395376775e-01
1.182694830888876281e-01
7.816735237969640870e-02
3.619707146585957047e-02
-6.854676555716004982e-03
-4.999065131946363316e-02
-9.221342660596104635e-02
-1.327307184808066975e-01
-1.703654260807040410e-01
-2.046714202467064814e-01
-2.344591721599671441e-01
-2.593793368725550441e-01
-2.787295496683998008e-01
-2.918788569609188088e-01
-2.990049359576417709e-01
-2.993238936194038691e-01
-2.933422846848193211e-01
-2.808514094223975577e-01
-2.620934304197051201e-01
-2.378315597874167131e-01
-2.080920437783126409e-01
-1.739973056468337720e-01
-1.359505958041942464e-01
-9.493456331896549250e-02
-5.188878604583491150e-02
-7.616103171733626387e-03
3.674845662557302967e-02
8.044847757733555871e-02
1.222846282722011152e-01
1.616986156625866700e-01
1.975313314965179423e-01
2.292444432850696268e-01
2.561602036323934461e-01
2.774495157127102596e-01
2.932691633730484804e-01
3.026442927756723411e-01
3.058908796084031656e-01
3.027458776558454856e-01
2.931069744268848809e-01
2.777667286600210561e-01
2.563608495608936111e-01
2.298725682709812923e-01
1.985586616683383265e-01
1.630591910178310622e-01
1.243872793254187231e-01
8.295332780340870793e-02
3.991748864307319983e-02
-4.085543540486023632e-03
-4.796593547034016386e-02
-9.101198384691741583e-02
-1.322027497766808113e-01
-1.707469175601539491e-01
-2.059545542233561788e-01
-2.367626120749482810e-01
-2.631440889526071580e-01
-2.839215179757969554e-01
-2.990440754863051831e-01
-3.081381333028389569e-01
-3.106466406376539036e-01
-3.072949251296495099e-01
-2.973051794156194028e-01
-2.814015325234006104e-01
-2.597452878605456816e-01
-2.325411985118083225e-01
-2.009445972740591391e-01
-1.649428964690018429e-01
-1.256880275214421749e-01
-8.378702182777729435e-02
-4.009750337847391155e-02
4.382023952480045004e-03
4.891015362244337250e-02
9.247059428691419003e-02
1.343534859397070014e-01
1.734527602180650496e-01
2.094592734996421624e-01
2.412283351887880012e-01
2.683580990206171357e-01
2.904129863240418885e-01
3.065250535740010052e-01
3.172469014571527302e-01
3.215368907692395806e-01
3.197655064685808735e-01
3.119765727972663161e-01
2.979062994337938752e-01
2.786765075341748887e-01
2.538239307402556100e-01
2.242861436322902136e-01
1.905519389358485971e-01
1.530743562475878061e-01
1.130050650802936069e-01
7.068346242980691474e-02
2.719069160404796737e-02
-1.677158533517238148e-02
-6.022885434994626475e-02
-1.024960190568522389e-01
-1.426093030608999168e-01
-1.798058290370195822e-01
-2.135122359901006073e-01
-2.426776302272400376e-01
-2.673705032807611737e-01
-2.864975902383558037e-01
-2.999510848443581179e-01
-3.075851729583209404e-01
-3.087795153320943009e-01
-3.043246655077272433e-01
-2.935567177237768388e-01
-2.770895194797821648e-01
-2.552966941457490146e-01
-2.283042500339730885e-01
-1.972717636233130567e-01
-1.622793930171460008e-01
-1.243966077735124687e-01
-8.431154919439079465e-02
-4.283272379206490982e-02
-9.365920005732462916e-04
4.065697508607842015e-02
8.092556991876057038e-02
1.192696654984613802e-01
1.546044631893387089e-01
1.866122018549505324e-01
2.143490750175545689e-01
2.373087934556886713e-01
2.553155156777495161e-01
2.675154590909751273e-01
2.743795706560752112e-01
2.752091536474557953e-01
2.702157660017430740e-01
2.597225772215728257e-01
2.434849894310393004e-01
2.225048252919701874e-01
1.966426555925998576e-01
1.667107253143337020e-01
1.333428459467556892e-01
9.701814582505607909e-02
5.878853087927594923e-02
1.911777469464528631e-02
-2.093228924020144877e-02
-6.075012877848409709e-02
-9.932583180963186487e-02
-1.360270126606714092e-01
-1.700312860347702459e-01
-2.004703212495156373e-01
-2.270792253900744684e-01
-2.487677216556261062e-01
-2.655978535943477881e-01
-2.768291935197297327e-01
-2.821694726771953321e-01
-2.818739078455929081e-01
-2.753058899184253616e-01
-2.631975046436798027e-01
-2.453023750851138218e-01
-2.220577316565841008e-01
-1.941434564819969899e-01
-1.617167068903820892e-01
-1.258409160440855101e-01
-8.689694744986486974e-02
-4.587005490808979818e-02
-3.512465958539573441e-03
3.927583583893438923e-02
8.160664721315186165e-02
1.226871401733766742e-01
1.614274604640459354e-01
1.974130160701840220e-01
2.294187991705849972e-01
2.571501474121056785e-01
2.798239131025300752e-01
2.967465514552865558e-01
3.080709460887157136e-01
3.128351553444743693e-01
3.114744285924233580e-01
3.036213399994251994e-01
2.893224472643267653e-01
2.692372129514720158e-01
2.431618845196637513e-01
2.120781892231668464e-01
1.762393716261488608e-01
1.364692015999633412e-01
9.363025414580389283e-02
4.843794389338688250e-02
2.000162831663793161e-03
-4.491500460896391544e-02
-9.103909776126867248e-02
-1.357311143154204536e-01
-1.776673875869475006e-01
-2.161348852984473767e-01
-2.502601436878444940e-01
-2.789454462778753197e-01
-3.021488328258238321e-01
-3.186142078714019332e-01
-3.284296528265053805e-01
-3.311237572267291540e-01
-3.263704640396348777e-01
-3.148405580215529742e-01
-2.960186716828218656e-01
-2.708373816738572915e-01
-2.395123764876535555e-01
-2.027098056703322271e-01
-1.615233993093155851e-01
-1.164444948353033638e-01
-6.882316391670494082e-02
-1.941915114326533964e-02
3.044311443006056384e-02
7.984527133122154563e-02
1.275813071226323259e-01
1.725924286277468744e-01
2.140467016851735904e-01
2.506576487793036323e-01
2.822336629718943390e-01
3.074889098654874919e-01
3.262264171181459282e-01
3.380155341593161777e-01
3.422502102035395177e-01
3.396140699078818992e-01
3.293567684463615253e-01
3.122488644843123828e-01
2.884744783975481397e-01
2.583748363058420705e-01
2.231764561696786831e-01
1.829883130473909658e-01
1.391550270390390920e-01
9.235818157045069809e-02
4.367899584617102038e-02
-5.735922284034411511e-03
-5.500922070492100802e-02
-1.029027006606124395e-01
-1.486049839887647050e-01
-1.908554400594770772e-01
-2.291824701337858983e-01
-2.623934909619464184e-01
-2.899861619658686829e-01
-3.114571628799520653e-01
-3.260038741910536997e-01
-3.341067172987930434e-01
-3.348596150832842122e-01
-3.287665920975541001e-01
-3.159204337542766972e-01
-2.963730163985851540e-01
-2.713447969253270364e-01
-2.406559115078465427e-01
-2.055545044374750274e-01
-1.666705761204315128e-01
-1.248285505691640318e-01
-8.134058739112560998e-02
-3.676961543527313553e-02
7.582814603710505419e-03
5.094800846059388544e-02
9.224322193497619393e-02
1.307597586440034654e-01
1.655969972079123775e-01
1.960913384932233550e-01
2.217920662271524179e-01
2.419402298996455869e-01
2.567754113616703693e-01
2.655506952465950254e-01
2.685281980043605632e-01
2.657823678953437074e-01
2.571978584174091642e-01
2.437549426216547577e-01
2.251720470867090151e-01
2.024011565850510896e-01
1.759052792063880988e-01
1.461739559301195035e-01
1.143341503957297778e-01
8.061767259726054791e-02
4.612752737640164746e-02
1.139260857269573657e-02
-2.276607272123479242e-02
-5.565337090895758343e-02
-8.668016836994774099e-02
-1.150877315006550994e-01
-1.405577216210689984e-01
-1.622863607100127892e-01
-1.802633066748727808e-01
-1.938294521570805840e-01
-2.028262965013041264e-01
-2.072648087605397649e-01
-2.066985720425873474e-01
-2.016974843274514928e-01
-1.918745358405961055e-01
-1.776876725451472239e-01
-1.594501648138968442e-01
-1.373246117034254699e-01
-1.121520296149169926e-01
-8.406370957834843893e-02
-5.395687286797634652e-02
-2.229991997119115665e-02
1.013169183191418160e-02
4.259566985893971369e-02
7.448857215872831117e-02
1.048376773273231866e-01
1.332644643527816641e-01
1.587370585260357014e-01
1.809345398731952992e-01
1.991461010681526700e-01
2.127823976596388000e-01
2.217833832286906226e-01
2.254332360647511857e-01
2.239843467564238688e-01
2.170747804961417060e-01
2.048382879830696890e-01
1.876063961167067085e-01
1.654396079068812808e-01
1.390772772351842601e-01
1.087712040619601139e-01
7.539590029378273606e-02
3.954530987747101323e-02
2.108042682001390333e-03
-3.600715554312706318e-02
-7.403961864224545275e-02
-1.107747111690133290e-01
-1.456654949282696898e-01
-1.774593684035192798e-01
-2.055570639074502659e-01
-2.291495104822717788e-01
-2.473744129849897999e-01
-2.600991285851331214e-01
-2.664638446609947087e-01
-2.665958913158329446e-01
-2.601773115483886345e-01
-2.472807512878186786e-01
-2.283620250820823649e-01
-2.035157071374367188e-01
-1.736341663790217371e-01
-1.391176094837858201e-01
-1.010096350744820737e-01
-6.013139086314858717e-02
-1.749044815577062428e-02
2.573234832729356242e-02
6.869054732269443131e-02
1.099733397475600588e-01
1.489243188432906873e-01
1.842415751162693183e-01
2.151820894442979526e-01
2.410076618143748850e-01
2.607889856532302209e-01
2.744863849212973994e-01
2.812601874772885924e-01
2.812850525660165468e-01
2.743651614135826922e-01
2.605972558056972588e-01
2.406107370483876462e-01
2.144732882086909376e-01
1.832080919795342488e-01
1.472415298742323075e-01
1.076409403217402638e-01
6.534185723753477282e-02
2.125251572034807246e-02
-2.332246132119728324e-02
-6.761017921220592586e-02
-1.101733535978606238e-01
-1.503278432186156144e-01
-1.868396450316062996e-01
-2.188660247663277159e-01
-2.457510452548076207e-01
-2.664930959438099878e-01
-2.810894430766204266e-01
-2.886646307364011399e-01
-2.893385444615454438e-01
-2.829680332868119153e-01
-2.695577828216286775e-01
-2.498329992739370953e-01
-2.237678187576686017e-01
-1.924096487064858030e-01
-1.562198425420197878e-01
-1.162158485277131892e-01
-7.344619790348577704e-02
-2.873799822216643179e-02
1.652405856354201633e-02
6.157165839197915186e-02
1.049599604659696706e-01
1.459594392324199130e-01
1.833776133462950708e-01
2.162961637891443467e-01
2.441218371052591429e-01
2.657990455162380639e-01
2.813725427155088221e-01
2.899460840635049164e-01
2.915896446687156196e-01
2.862283851774393151e-01
2.737702430563908607e-01
2.550195502998564012e-01
2.298526449385566162e-01
1.992909200734171993e-01
1.638098188068715377e-01
1.243279005815981497e-01
8.195899963403496802e-02
3.741601626704760264e-02
-7.883511112608286575e-03
-5.319000273279134855e-02
-9.707244457894989575e-02
-1.387431145334978855e-01
-1.770424601139762300e-01
-2.109448599470208907e-01
-2.398735387326736412e-01
-2.626898536799374684e-01
-2.793936175371977693e-01
-2.890627443395793472e-01
-2.916608802295070357e-01
-2.871600159822491616e-01
-2.753783061224107098e-01
-2.571484195782122728e-01
-2.323376827703280689e-01
-2.019508104452518715e-01
-1.665496609066638989e-01
-1.270107050557780226e-01
-8.455155478857764861e-02
-3.986794661177366084e-02
5.567605644021804412e-03
5.096711053919913970e-02
9.493373719548005296e-02
1.365759572043381553e-01
1.748401972327561227e-01
2.086402380413615032e-01
2.374711783007458776e-01
2.602298274024860691e-01
2.768715088368662869e-01
2.866175552159744844e-01
2.893746015523140924e-01
2.852252865891526379e-01
2.739597688281692478e-01
2.563970090383346223e-01
2.324528198471181861e-01
2.030538141281169606e-01
1.688022016138967518e-01
1.304616621176486746e-01
8.924122444255169762e-02
4.575885435807250379e-02
1.429425753401859789e-03
-4.299376668551577185e-02
-8.621345561758922416e-02
-1.273063025599452391e-01
-1.653242962221712353e-01
-1.991404865298440630e-01
-2.282975565768147752e-01
-2.516746185099684174e-01
-2.691465187307754969e-01
-2.799849354879631047e-01
-2.839656726689409050e-01
-2.812146185669149312e-01
-2.714033058071887994e-01
-2.552881376452124096e-01
-2.327844538717865341e-01
-2.046963408710666954e-01
-1.716769412428721941e-01
-1.343663863531930902e-01
-9.398621911509502658e-02
-5.112457591766439435e-02
-7.162768649575476654e-03
3.711692763067005185e-02
8.047637482745786941e-02
1.219217100514907864e-01
1.605666227205788665e-01
1.952187546422635700e-01
2.254530500213191846e-01
2.501213282560637574e-01
2.690142654028722657e-01
2.814720084710384818e-01
2.871330540031437062e-01
2.861895984828680128e-01
2.781982859211376002e-01
2.638406242579974248e-01
2.430466324148800039e-01
2.164646186907425163e-01
1.847914140702261454e-01
1.485141172526593112e-01
1.088286041094622403e-01
6.627903211015093166e-02
2.217431996554823648e-02
-2.267531768320093372e-02
-6.710947069065464898e-02
-1.100509643154384959e-01
-1.506485051868484137e-01
-1.876215707546207145e-01
-2.205026557440386281e-01
-2.480796462051648166e-01
-2.699771951735155939e-01
-2.855335341678651995e-01
-2.942006548581785896e-01
-2.961553538511730865e-01
-2.908189848027236124e-01
-2.787627441223420321e-01
-2.599261105549028339e-01
-2.348307603628903006e-01
-2.042455887662092961e-01
-1.685686751623558244e-01
-1.290403743911987255e-01
-8.623913115678474850e-02
-4.148594909727956748e-02
4.300889868539574043e-03
4.997932401721453394e-02
9.433580256592287439e-02
1.365314584021549704e-01
1.751916535276289155e-01
2.098289767162630215e-01
2.392155621966289836e-01
2.628712169917517549e-01
2.802203534821062214e-01
2.906017397606697750e-01
2.942836386327730702e-01
2.906193349611632670e-01
2.801401856756264852e-01
2.628548583314268550e-01
2.391580337583346649e-01
2.099281645648977124e-01
1.754164886360830289e-01
1.368678057112296675e-01
9.483876007793928808e-02
5.054968703311933653e-02
4.981458528081073034e-03
-4.086771700660166151e-02
-8.572180742122142982e-02
-1.288126192905164058e-01
-1.687455771685334449e-01
-2.050186328511474088e-01
-2.364148616682751891e-01
-2.623300979075211536e-01
-2.822425966274045850e-01
-2.953187648823974443e-01
-3.018726897474083848e-01
-3.011089890284994186e-01
-2.934396670167121468e-01
-2.789103063684630901e-01
-2.576772979665156171e-01
-2.307420850380480504e-01
-1.981397416923534049e-01
-1.610741570477302598e-01
-1.201318811508902407e-01
-7.634788899843392151e-02
-3.084373182798424984e-02
1.556055074667592186e-02
6.154981568959280724e-02
1.063646940032845489e-01
1.486652661719828905e-01
1.878881056373392644e-01
2.228718102933880951e-01
2.529164069697518169e-01
2.775412511453642650e-01
2.957829985441190468e-01
3.079815452341915782e-01
3.131997854987655927e-01
3.116959326373258121e-01
3.035150198232874352e-01
2.885076055955808072e-01
2.677259866629080332e-01
2.408889603449919092e-01
2.090372993517785605e-01
1.726937664782025594e-01
1.325702531271931994e-01
8.984502321839607508e-02
4.504735807815576920e-02
-5.469063778223703931e-04
-4.621593991614827285e-02
-9.073814983633457509e-02
-1.334030594997265284e-01
-1.731363607525452930e-01
-2.090499614750879198e-01
-2.406044360543758698e-01
-2.666611527696550188e-01
-2.873283150718316525e-01
-3.015490970588070585e-01
-3.092551903524490831e-01
-3.104030780731429351e-01
-3.045045729314271865e-01
-2.924573742981037006e-01
-2.737864841827505336e-01
-2.492877028915289617e-01
-2.194718408557217448e-01
-1.847448677554605623e-01
-1.463647220778953040e-01
-1.046635217619314440e-01
-6.089712549902057126e-02
-1.584143008320082480e-02
2.943940377520903873e-02
7.398103598943386872e-02
1.168838617866510554e-01
1.570809961645228958e-01
1.939989401278776615e-01
2.264710704037113387e-01
2.543328093706787585e-01
2.766218413859581893e-01
2.929748186594468007e-01
3.033489541842837589e-01
3.070211855844339754e-01
3.046906255826818954e-01
2.957998636694125771e-01
2.808110231320846140e-01
2.602195066547226543e-01
2.340346460966210573e-01
2.034420731521475179e-01
1.685182340493869835e-01
1.302778103690380718e-01
8.948748271236034446e-02
4.684108103486650521e-02
3.438125543866188405e-03
-4.007895087375742960e-02
-8.262875193685192965e-02
-1.235428122171228771e-01
-1.617781727511429513e-01
-1.968075541030091524e-01
-2.277524062653213943e-01
-2.539555559175149524e-01
-2.751728409999512071e-01
-2.905162710918076652e-01
-3.002654760021010727e-01
-3.037743878378220685e-01
-3.011256551707036655e-01
-2.926597897351650990e-01
-2.780889817704060296e-01
-2.583902594852710011e-01
-2.334971987346112776e-01
-2.041949806931544487e-01
-1.712723363328500503e-01
-1.351531080115543348e-01
-9.704706884791697297e-02
-5.745431355545804752e-02
-1.743566075664844395e-02
2.219604434607404253e-02
6.060287770982718258e-02
9.696734026116611560e-02
1.305725098437714449e-01
1.606653908924957630e-01
1.868763134956020200e-01
2.084367127059316427e-01
2.253460993540303270e-01
2.370828185091372053e-01
2.435721446138201518e-01
2.450792765494492209e-01
2.412520619914229059e-01
2.328606121429107612e-01
2.197865908877014163e-01
2.025853080804217998e-01
1.819523486556134106e-01
1.580187720956821029e-01
1.318580900382340937e-01
1.037079902416451205e-01
7.439404362260784720e-02
4.460535191806298816e-02
1.481535950482066807e-02
-1.417375656570672715e-02
-4.196332625981731568e-02
-6.786474990935165152e-02
-9.158260329351985973e-02
-1.125206660985542118e-01
-1.304992813884198744e-01
-1.451669756143967871e-01
-1.562130181877588453e-01
-1.638528228436305079e-01
-1.675768056481059531e-01
-1.678012154588984783e-01
-1.643541566264812848e-01
-1.573325868569009356e-01
-1.472840626365056194e-01
-1.339703125741800727e-01
-1.181088171951508170e-01
-9.975905426751946470e-02
-7.934696108361968814e-02
-5.743571814535325393e-02
-3.419855097795349019e-02
-1.031268352730929649e-02
1.396372495090260346e-02
3.800153013209038588e-02
6.150593675232662871e-02
8.390174301884278929e-02
1.047978005009823632e-01
1.238671413124818876e-01
1.404626602568712079e-01
1.546847466411085947e-01
1.657783687362550107e-01
1.737317278155204869e-01
1.783231633123261162e-01
1.791269473730531248e-01
1.765681990927710499e-01
1.700871883039429266e-01
1.600220409258673593e-01
1.464027528042161075e-01
1.292635336026439763e-01
1.091620221067352292e-01
8.609158877049047365e-02
6.063741237124359307e-02
3.312736656993801182e-02
4.154330386184151847e-03
-2.581503421529694753e-02
-5.612394748966052782e-02
-8.612828918193496386e-02
-1.153230411573606951e-01
-1.427496347039972635e-01
-1.682434900398445676e-01
-1.907653618117489125e-01
-2.099044051236106934e-01
-2.252636741170628287e-01
-2.360059393094894875e-01
-2.424194357287285384e-01
-2.436569615780662668e-01
-2.398325181862284161e-01
-2.309497250929773426e-01
-2.168122371595661568e-01
-1.981210507083469019e-01
-1.747301669631272647e-01
-1.473283765103301779e-01
-1.163723959439937339e-01
-8.248559394068956385e-02
-4.645738729825060059e-02
-8.947629094202075306e-03
2.909817708880702014e-02
6.702935456234077050e-02
1.037168787298319295e-01
1.387130094102087541e-01
1.709229054539475601e-01
1.996548108251304243e-01
2.244493338145822636e-01
2.442765167090306666e-01
2.593084088859310410e-01
2.686014842252512080e-01
2.721197948358764496e-01
2.698592184945278749e-01
2.614348096732172499e-01
2.476038767026702558e-01
2.280482955189775396e-01
2.034585369934182875e-01
1.742957316507041943e-01
1.410302220523345085e-01
1.046698424405308470e-01
6.566500713218038909e-02
2.512583785953749482e-02
-1.626046712615511480e-02
-5.739971356344804321e-02
-9.752145661190766979e-02
-1.356677759595985022e-01
-1.708662796773195713e-01
-2.025928158362403364e-01
-2.297039479367071757e-01
-2.520909377326837064e-01
-2.688286486982165990e-01
-2.796135344574566250e-01
-2.844188963520753455e-01
-2.826613001940082581e-01
-2.750088076987419750e-01
-2.610734831641450815e-01
-2.414070458277488562e-01
-2.165288526815176140e-01
-1.867051648699730448e-01
-1.530648071150071121e-01
-1.159246632947323330e-01
-7.639864024260831221e-02
-3.525035942285543317e-02
6.587903764456868455e-03
4.812990020385706641e-02
8.859185659616508612e-02
1.268992054601432995e-01
1.625046772219004843e-01
1.943198968817176076e-01
2.220299772486024059e-01
2.448311230984958620e-01
2.622287701332243204e-01
2.741971732794126204e-01
2.800174913523310050e-01
2.801821690836346912e-01
2.742582623708916256e-01
2.625333407302844480e-01
2.454889710972780748e-01
2.230906107074666356e-01
1.963526177911188442e-01
1.653994669232839998e-01
1.311320405352200680e-01
9.426707065479310310e-02
5.546522508519639849e-02
1.575241200214348020e-02
-2.426510876293047625e-02
-6.349893423050934071e-02
-1.013732688159524747e-01
-1.368334074105042042e-01
-1.693296977283981763e-01
-1.980900525275513802e-01
-2.223409714287448991e-01
-2.419562936641218576e-01
-2.559937630084366256e-01
-2.646407109818355585e-01
-2.673787052939713971e-01
-2.641255441005339044e-01
-2.553008482822274328e-01
-2.405623498847448416e-01
-2.207572979483098941e-01
-1.959136367272264478e-01
-1.667049004124142586e-01
-1.338949132688248000e-01
-9.793165479531718010e-02
-5.991002500163017386e-02
-2.036848030529317399e-02
1.958537713156104088e-02
5.927234455294813631e-02
9.768707373868552868e-02
1.340399109718567738e-01
1.676128668381018927e-01
1.974075629367657292e-01
2.232192876004960302e-01
2.439956567520287778e-01
2.596374644967102130e-01
2.696462241537048721e-01
2.736148425294541164e-01
2.719267422834373837e-01
2.640099832288290704e-01
2.504922838352905967e-01
2.313558366148369960e-01
2.069942430489622454e-01
1.781804465758785039e-01
1.451303527146438621e-01
1.088998856783154612e-01
6.996650251927555297e-02
2.936849377233612113e-02
-1.212266464046581060e-02
-5.357377891508288692e-02
-9.399705498015742400e-02
-1.326661308262991612e-01
-1.683823251654571751e-01
-2.007838769404683976e-01
-2.286821622590546332e-01
-2.516569745511357814e-01
-2.691481336112082623e-01
-2.804223754729104900e-01
-2.857703288432713040e-01
-2.843979506121390721e-01
-2.767206325282908219e-01
-2.626972188848820666e-01
-2.424952718979753730e-01
-2.169603328906267170e-01
-1.861492959734339370e-01
-1.511481708833798954e-01
-1.124671094671738369e-01
-7.112682521611163322e-02
-2.806781251943810118e-02
1.582758901880367691e-02
5.936862050217912856e-02
1.018203119200080109e-01
1.418348820202353089e-01
1.789495954014972134e-01
2.119295451971869859e-01
2.401293154786770523e-01
2.630424077911388547e-01
2.796899780167438898e-01
2.904009262330710106e-01
2.942176894609984106e-01
2.913918697928283286e-01
2.819317489929285547e-01
2.657162533483472533e-01
2.437150899086696909e-01
2.157183913990917690e-01
1.827478073625760646e-01
1.453099414975168036e-01
1.042063481981278794e-01
6.053233802427634980e-02
1.494273459753928113e-02
-3.128168681407565016e-02
-7.741249789854483254e-02
-1.221002907134571269e-01
-1.647161809552007972e-01
-2.040447090028726929e-01
-2.391901927125884564e-01
-2.696071503226658561e-01
-2.940688213006651952e-01
-3.127540901328060285e-01
-3.245318271946648903e-01
-3.293542538357877025e-01
-3.271911722250660515e-01
-3.175760981083535217e-01
-3.014414860446493205e-01
-2.783610011537734352e-01
-2.491860459137471007e-01
-2.144582846122094488e-01
-1.747310897377680750e-01
-1.312454803520463620e-01
-8.450683883106713257e-02
-3.584926476928913808e-02
1.390463830504451610e-02
6.346544414238228238e-02
1.119230068836212233e-01
1.581406762195506355e-01
2.009896876993895742e-01
2.398417416723381823e-01
2.733459205228525035e-01
3.014063301624038682e-01
3.228802255138284449e-01
3.374254913495419728e-01
3.449597198830702816e-01
3.447605471267565225e-01
3.375957759099295630e-01
3.229073259477726054e-01
3.013173297503596304e-01
2.733245451803585357e-01
2.392063423999750416e-01
2.002114143111064504e-01
1.566421755836478469e-01
1.097993931463319139e-01
6.049542974479844154e-02
9.890040945573205788e-03
-4.089195421122079899e-02
-9.085811345274585893e-02
-1.386485468634177654e-01
-1.835721418539090211e-01
-2.241614507202122075e-01
-2.599692836791318018e-01
-2.898593873744565452e-01
-3.130975241402341180e-01
-3.295108224502437122e-01
-3.380966181164641871e-01
-3.393416929742419375e-01
-3.326088921592992298e-01
-3.182115158957541379e-01
-2.966399305640821105e-01
-2.679205222939344821e-01
-2.332840335746610705e-01
-1.929514684530918012e-01
-1.481775685814480104e-01
-9.987206766221232157e-02
-4.908801996650609401e-02
2.808832085450435612e-03
5.490800808495674423e-02
1.056567667425551971e-01
1.542599469154029013e-01
1.992289895782282660e-01
2.397887732218388357e-01
2.749091299832350233e-01
3.035704486452421302e-01
3.255739357681111668e-01
3.398157658928397384e-01
3.465331400793366656e-01
3.451718887807520009e-01
3.357947948904518309e-01
3.189264461831103348e-01
2.944381700658486034e-01
2.634645808686255641e-01
2.262189339579211145e-01
1.838234084868093088e-01
1.372403076864617821e-01
8.737767560399575806e-02
3.568537914916272008e-02
-1.699739079486242699e-02
-6.907021589455486499e-02
-1.196616140814947826e-01
-1.673194414888695136e-01
-2.110353295606535173e-01
-2.498347378746412217e-01
-2.824974543946398575e-01
-3.087464005879608786e-01
-3.273944283817348810e-01
-3.384410360560102249e-01
-3.413614556276143852e-01
-3.360155940164487598e-01
-3.229259188078880682e-01
-3.018545189881590152e-01
-2.738604935193388878e-01
-2.391848206606996818e-01
-1.988809268268320607e-01
-1.540004005473620263e-01
-1.053803252823362763e-01
-5.457912903545968780e-02
-2.424522090331449053e-03
4.942372576568440645e-02
1.000088836382898305e-01
1.479303858011525585e-01
1.920043041920460047e-01
2.313528490387337100e-01
2.646539369089219718e-01
2.916265385175136893e-01
3.111214641657710778e-01
3.230012357709575177e-01
3.268688226113106721e-01
3.224860319506351325e-01
3.104263119023532025e-01
2.904307495144862750e-01
2.634982118802676188e-01
2.299315089137590196e-01
1.907085737364211941e-01
1.469467666374449921e-01
9.939921134714041484e-02
4.966560009646570767e-02
-1.441516509640694554e-03
-5.228293362465162575e-02
-1.018169942262098504e-01
-1.487383448178290213e-01
-1.917362957722814065e-01
-2.299874112041661589e-01
-2.621532236155464934e-01
-2.878807509602545056e-01
-3.061163875378857258e-01
-3.166186918957327734e-01
-3.190862795312634503e-01
-3.133081966172660549e-01
-2.998701677694043943e-01
-2.786304766555217638e-01
-2.506033219168145587e-01
-2.162139728959570073e-01
-1.765298815868326932e-01
-1.327466668085732771e-01
-8.570537524618840330e-02
-3.708625442474582784e-02
1.225335504398104847e-02
6.062676911895920756e-02
1.069820568758506341e-01
1.500573172239170749e-01
1.885408653798105738e-01
2.217341850426210459e-01
2.483819885621036394e-01
2.682689074218203018e-01
2.805093198341035432e-01
2.849780324203611270e-01
2.815957258964675303e-01
2.702979100026570158e-01
2.518583470651405420e-01
2.262808750930608293e-01
1.946992669961745692e-01
1.576758355261158040e-01
1.163555370697643698e-01
7.198969013260139715e-02
2.544288738923244919e-02
-2.159786620612176578e-02
-6.833031483687468377e-02
-1.131014101571113512e-01
-1.549806091896808180e-01
-1.928033960235415734e-01
-2.253496112931275830e-01
-2.521403195378447704e-01
-2.719824347400424114e-01
-2.848869768990390794e-01
-2.901022054159732022e-01
-2.875920482417033686e-01
-2.775543651354860364e-01
-2.599050492262577894e-01
-2.356199250309206628e-01
-2.047772089298467435e-01
-1.684890179175994041e-01
-1.275098771908615980e-01
-8.282838265885927864e-02
-3.576821843132316214e-02
1.286531256240222576e-02
6.153395873304773334e-02
1.094240078056495230e-01
1.550846703566041707e-01
1.976695207322519687e-01
2.361254152291820119e-01
2.693778111408478004e-01
2.970567686039515265e-01
3.180114044540077733e-01
3.323584127333966132e-01
3.393410827173068411e-01
3.388786700984960931e-01
3.312438977365970705e-01
3.161124879361614237e-01
2.944622062042101529e-01
2.661939684722028354e-01
2.321840412492496841e-01
1.931891088933441747e-01
1.498264453551935160e-01
1.033894019565836375e-01
5.449282014064732449e-02
4.482747031139877603e-03
-4.578578858926722617e-02
-9.506033683601884665e-02
-1.424004117050826634e-01
-1.867689279175687722e-01
-2.270363008901041257e-01
-2.626940878342917118e-01
-2.924725764693813512e-01
-3.162747812512406442e-01
-3.331827689169447049e-01
-3.428657885119028581e-01
-3.454621775742802714e-01
-3.403352670765317223e-01
-3.283125074124274012e-01
-3.090932395370627472e-01
-2.833322303710668066e-01
-2.517725755683167810e-01
-2.147375233287625029e-01
-1.735748074054410950e-01
-1.287376842739450244e-01
-8.153091032113742032e-02
-3.288385534165438884e-02
1.611602991760782699e-02
6.431116994214673699e-02
1.108032705478840529e-01
1.543222782659890713e-01
1.943067003193627573e-01
2.294871487553939438e-01
2.595053708635952083e-01
2.835342576319456187e-01
3.009692537407667179e-01
3.119354537404874228e-01
3.155998866855691531e-01
3.125598812264108739e-01
3.024691880959395895e-01
2.856496449921288594e-01
2.628245277156486259e-01
2.339744813429175396e-01
2.003225494068507917e-01
1.621417957168213020e-01
1.205046877893546087e-01
7.633454432702706238e-02
3.042707889695125262e-02
-1.597467459097890591e-02
-6.214695017536109312e-02
-1.067736308210909812e-01
-1.492209171906009879e-01
-1.882606798924170155e-01
-2.232224575447765424e-01
-2.533324881529175898e-01
-2.776537295119698712e-01
-2.961901699882617534e-01
-3.078988890833987968e-01
-3.130052973894776880e-01
-3.111296936559270199e-01
-3.021838818462758702e-01
-2.868430676042628136e-01
-2.648063970113185839e-01
-2.370949180368150944e-01
-2.039517056742854439e-01
-1.662029667920074116e-01
-1.248534160698098749e-01
-8.051356289057384763e-02
-3.448679268110729779e-02
1.251226869389016061e-02
5.915511692802766230e-02
1.046675583743307270e-01
1.478515399763317140e-01
1.877925909824812445e-01
2.237294099026734262e-01
2.545059813407174465e-01
2.800209220762712725e-01
2.991124594413831494e-01
3.117219276752580814e-01
3.174680498426241670e-01
3.159550729935662883e-01
3.078209863208120622e-01
2.925388041023678776e-01
2.709383656753872605e-01
2.432192501157179887e-01
2.099611154543729596e-01
1.722105075712278000e-01
1.303570226620034966e-01
8.571585518582985896e-02
3.895752996485650488e-02
-8.627851225771233923e-03
-5.613025572534022234e-02
-1.024250805889155569e-01
-1.463629496736549573e-01
-1.871711957198476661e-01
-2.234953343886271204e-01
-2.550655759120676880e-01
-2.806128971220955282e-01
-2.997676876298430715e-01
-3.121163170370364615e-01
-3.169724448120161409e-01
-3.149197928000384561e-01
-3.052472591377328182e-01
-2.886174313547886228e-01
-2.652509199678069196e-01
-2.355295817820761139e-01
-2.006327349252184367e-01
-1.607931263486260254e-01
-1.173870964049816557e-01
-7.113745533853849112e-02
-2.328848602723106870e-02
2.504363482530110041e-02
7.284752691603708918e-02
1.187880410158581590e-01
1.621056356366329387e-01
2.013895385096299284e-01
2.362444864298126057e-01
2.654718494045302246e-01
2.885125032420700619e-01
3.050376631754633805e-01
3.142274612537574452e-01
3.166269903993153556e-01
3.115025780073876205e-01
2.993465091018998603e-01
2.804333637059702733e-01
2.549272532990934370e-01
2.240080413012796035e-01
1.877557768509428016e-01
1.474270217755593027e-01
1.037257395378733404e-01
5.767902028364564615e-02
1.047928657990473966e-02
-3.705947002339106400e-02
-8.357350385456674413e-02
-1.283234887777118804e-01
-1.699609031747896237e-01
-2.078968420432232844e-01
-2.410414825203187617e-01
-2.686247438674536636e-01
-2.902982332657064179e-01
-3.050919587637692110e-01
-3.133428021048667578e-01
-3.142916731452505275e-01
-3.081625421996027070e-01
-2.952294050628417321e-01
-2.754001071633556119e-01
-2.497857767219098246e-01
-2.183667776093439761e-01
-1.822354432012497916e-01
-1.421494573123766592e-01
-9.891103181378652076e-02
-5.381113804117743094e-02
-7.527397433182730913e-03
3.858621253924217342e-02
8.375647172263378515e-02
1.267532477393547852e-01
1.668289262808332063e-01
2.030394902699526050e-01
2.344911717487149216e-01
2.608736055213850547e-01
2.811567822370463210e-01
2.955308815997483296e-01
3.032838657621917400e-01
3.043843115907512997e-01
2.991462433483901284e-01
2.871845348059619552e-01
2.694784201216884334e-01
2.458616455891927122e-01
2.170987149267808447e-01
1.839292063743296346e-01
1.467393147005744414e-01
1.067631044121932216e-01
6.442663804525880500e-02
2.088144588265854196e-02
-2.310589326545253730e-02
-6.656808398954359995e-02
-1.086240878243737717e-01
-1.484752317476230321e-01
-1.851134989156768551e-01
-2.181421861662325434e-01
-2.464423003575932358e-01
-2.698898124949654642e-01
-2.877172622551639192e-01
-2.994980052412655191e-01
-3.054307816214916205e-01
-3.047573904028569314e-01
-2.981599843605524103e-01
-2.853098819023653365e-01
-2.665415476340008971e-01
-2.425873801227454996e-01
-2.134094072204544834e-01
-1.801666264963500685e-01
-1.431380189546199444e-01
-1.032424454586196305e-01
-6.137745148412348389e-02
-1.822466774595388889e-02
2.515419189732411021e-02
6.805341646033138958e-02
1.094236925110956271e-01
1.486881509197801599e-01
1.847896372867389725e-01
2.172765791787736878e-01
2.454039251554271939e-01
2.684729873954309620e-01
2.865294128527877682e-01
2.986277446297852523e-01
3.051082302525724432e-01
3.055477959339092386e-01
2.998861350076326704e-01
2.887500121681950693e-01
2.717234384279078041e-01
2.497400471514445441e-01
2.228805980258443953e-01
1.917322815862279872e-01
1.571816639282051231e-01
1.195366598434050298e-01
7.989007808305578773e-02
3.877968645221797905e-02
-2.807579996167125502e-03
-4.414446217544376605e-02
-8.432073853957122722e-02
-1.225604704098573472e-01
-1.581350787990858930e-01
-1.900930018029637902e-01
-2.182179920415656671e-01
-2.414341224949390075e-01
-2.596395466459821000e-01
-2.723071362295998443e-01
-2.789908882092960729e-01
-2.801238357619735830e-01
-2.750211136713249238e-01
-2.643338164957610426e-01
-2.480315315013377209e-01
-2.264293865093001679e-01
-2.004181434271465057e-01
-1.700578770558412722e-01
-1.364615093383581002e-01
-1.000863763905266018e-01
-6.187274884727465146e-02
-2.269167513983788576e-02
1.670719274511675567e-02
5.530166856542778619e-02
9.245655976638256224e-02
1.270721414610687661e-01
1.588031430492753415e-01
1.866121925910220747e-01
2.100814731398292223e-01
2.287844339804513405e-01
2.419863270367499375e-01
2.500805501378069451e-01
2.522416125987375080e-01
2.488396420168352274e-01
2.398761928716579006e-01
2.253014211590534388e-01
2.060378337015520422e-01
1.818459944301534237e-01
1.536728958062222872e-01
1.219203600986766972e-01
8.723707035402886167e-02
5.058304918984343063e-02
1.242555721083098141e-02
-2.617283837263988111e-02
-6.463759070215388536e-02
-1.018982152186957701e-01
-1.374676313676274908e-01
-1.703679783419874694e-01
-1.999131869352068769e-01
-2.256741612690064680e-01
-2.466316170155096188e-01
-2.630280827224525386e-01
-2.738493127733684918e-01
-2.790891813266273003e-01
-2.787149780770721841e-01
-2.722410064209626612e-01
-2.605071964873493795e-01
-2.430036568989765722e-01
-2.203899226495052710e-01
-1.930703758133439640e-01
-1.613428756170693645e-01
-1.262344036745400577e-01
-8.801264437377270822e-02
-4.769530295742557824e-02
-5.925668345588525066e-03
3.633499995638511670e-02
7.834895566097460629e-02
1.192021479647497884e-01
1.579731177013137255e-01
1.940892298163250373e-01
2.263715772367430601e-01
2.546759331681158200e-01
2.779051801153352153e-01
2.956522106878053946e-01
3.076888880925838787e-01
3.132174629390943044e-01
3.127421851688201304e-01
3.055781683320324404e-01
2.920846120713052607e-01
2.725327935935714652e-01
2.469919440224378759e-01
2.164443380943505968e-01
1.810341820112926492e-01
1.418220002679519143e-01
9.950404879043142636e-02
5.505865336444767943e-02
9.543088263356647172e-03
-3.614038743059405645e-02
-8.071603544227501370e-02
-1.234309405493337897e-01
-1.629307785900055427e-01
-1.986315250842577984e-01
-2.294391793006171909e-01
-2.545880344528911321e-01
-2.737521464887991973e-01
-2.860142082441183842e-01
-2.916574701927619473e-01
-2.900724920444947563e-01
-2.815097909168851054e-01
-2.663077569654581089e-01
-2.445314424630525285e-01
-2.172432629629131584e-01
-1.846279450506069231e-01
-1.478542811702776849e-01
-1.076966195577341440e-01
-6.512701478509744235e-02
-2.139778026958882862e-02
2.272715804659566907e-02
6.581372033870280802e-02
1.071783678069301304e-01
1.455240353216579741e-01
1.801236995540885233e-01
2.101428439738404763e-01
2.346589287484353026e-01
2.535188377123565595e-01
2.657950335093689498e-01
2.716775340815890116e-01
2.707282778684353408e-01
2.629915626168130016e-01
2.489308892386525862e-01
2.284381760420464147e-01
2.024892444784097134e-01
1.712527802514205721e-01
1.356780747398949050e-01
9.657387682849043198e-02
5.468771100338609692e-02
1.124858927708367179e-02
-3.307180098217142594e-02
-7.691531686339969642e-02
-1.195804234043609249e-01
-1.598370858762629965e-01
-1.968480350654255306e-01
-2.298114122065784137e-01
-2.576501580294394134e-01
-2.801876809948252722e-01
-2.963435840809878208e-01
-3.061274668627472773e-01
-3.090821842883596515e-01
-3.049704003015705212e-01
-2.943020049508740521e-01
-2.767215351043808003e-01
-2.531039010191536986e-01
-2.236253583741854012e-01
-1.890057387126790056e-01
-1.502017411275488046e-01
-1.077647671408774738e-01
-6.296628416176727749e-02
-1.651454986070409470e-02
3.031922256066148236e-02
7.667483539349581600e-02
1.214066032933629191e-01
1.635528808597763173e-01
2.022914562030975749e-01
2.364887115381700267e-01
2.658919667039432166e-01
2.893598800682118388e-01
3.067654851979606523e-01
3.176197043464446534e-01
3.215001806077439350e-01
3.189111122482369276e-01
3.092649160519541085e-01
2.933231324549249175e-01
2.711572953224649085e-01
2.432403299110204586e-01
2.105563729277216967e-01
1.733356117025971199e-01
1.328283404832102110e-01
8.960308920087184381e-02
4.478008718000566629e-02
-6.973170255618055258e-04
-4.590064166900861831e-02
-8.971929170276474186e-02
-1.313966698751792284e-01
-1.697216304515151708e-01
-2.042949759707899937e-01
-2.339554745184106999e-01
-2.582963780138946008e-01
-2.767892556463937836e-01
-2.887473861214867044e-01
-2.945557392189951940e-01
-2.934209495422518410e-01
-2.858674593776434625e-01
-2.718956995860484782e-01
-2.517089292961393054e-01
-2.263004408126718658e-01
-1.956541630977808310e-01
-1.609709245251021714e-01
-1.227605008992625202e-01
-8.201065920775710283e-02
-3.977576440578151074e-02
3.209141823877796271e-03
4.570018920428154524e-02
8.701857088009734564e-02
1.259167401592160285e-01
1.618877969437815534e-01
1.938611113973112698e-01
2.211955008010163537e-01
2.434534854572868445e-01
2.597569874748275054e-01
2.704269109743167032e-01
2.746034652302341561e-01
2.725474418411723554e-01
2.642909722935866124e-01
2.497497523097060856e-01
2.298730041326397244e-01
2.044476754669947716e-01
1.744764353821576242e-01
1.404257667129397147e-01
1.030517513710361155e-01
6.341141540716846436e-02
2.206541816903566378e-02
-1.974664075022786180e-02
-6.137955795918688395e-02
-1.016049702682446099e-01
-1.397774671648724376e-01
-1.748708623400279105e-01
-2.060096876866886195e-01
-2.327301031319421176e-01
-2.539568381902103100e-01
-2.697773521826397625e-01
-2.792852308226139724e-01
-2.824183287601254588e-01
-2.791903995817073825e-01
-2.692689640832907072e-01
-2.534560934553760636e-01
-2.315020167754240910e-01
-2.042203481728326331e-01
-1.721344333010190741e-01
-1.358594026577242819e-01
-9.651282155363277715e-02
-5.463730152754027458e-02
-1.150790961539488455e-02
3.214807049557870389e-02
7.510027278222268510e-02
1.165198504705978744e-01
1.554137541850299509e-01
1.907259887126050157e-01
2.219730734935679295e-01
2.479767077783357199e-01
2.686537729183299250e-01
2.831335657157558194e-01
2.911373057591915003e-01
2.927146339250262241e-01
2.873587340937396317e-01
2.757781595351144754e-01
2.576905057643868457e-01
2.337372555460367485e-01
2.044698357678479406e-01
1.703137220377127503e-01
1.323991730626068453e-01
9.116827376182674858e-02
4.786243540371946936e-02
3.229649884667989274e-03
-4.157893566949489444e-02
-8.558735235577312472e-02
-1.278736753810126026e-01
-1.672178429988659121e-01
-2.030942729530014756e-01
-2.342132814780062966e-01
-2.602674873885434947e-01
-2.803744181812896086e-01
-2.939763679482363945e-01
-3.011018883732599627e-01
-3.010141221642473885e-01
-2.942752336602397212e-01
-2.805535189209131253e-01
-2.602761191254495121e-01
-2.340569190396379895e-01
-2.021182897207323137e-01
-1.656310857080737775e-01
-1.249952311929034138e-01
-8.141652006209297576e-02
-3.575793194476191428e-02
1.092185022052722873e-02
5.746166798111658480e-02
1.029886216025461820e-01
1.461559163452179344e-01
1.863682784930435765e-01
2.223037773150057517e-01
2.534462676005304060e-01
2.789656253674375752e-01
2.980828585910115791e-01
3.108411669009982226e-01
3.163415476839346874e-01
3.149998761456920815e-01
3.064832940363837466e-01
2.909737674776834981e-01
2.691539407959712138e-01
2.409901740619212751e-01
2.076223209289508320e-01
1.693791237769002866e-01
1.272990596129436325e-01
8.235024769261017896e-02
3.536556611977087483e-02
-1.237330415446189977e-02
-6.006789503825470111e-02
-1.063621881379110401e-01
-1.505303279454640875e-01
-1.913118528193596402e-01
-2.279574874549361030e-01
-2.596541745033684179e-01
-2.854362354152390480e-01
-3.052555738085122039e-01
-3.180815378063388543e-01
-3.241170433891174540e-01
-3.230009961569754728e-01
-3.146597314420933045e-01
-2.998035908188028675e-01
-2.781520705475809541e-01
-2.507738540168950592e-01
-2.179518298209502380e-01
-1.805179865944492590e-01
-1.395672752086584145e-01
-9.566633834988487461e-02
-5.016739316003328286e-02
-3.787855080938463959e-03
4.221512150223594162e-02
8.700387634795526959e-02
1.295116840001905578e-01
1.688458632998729725e-01
2.042973150284675687e-01
2.348425600579578942e-01
2.603879218611492297e-01
2.798998719511586186e-01
2.933864087706374857e-01
3.005093631223259010e-01
3.009389653986463964e-01
2.953502086728925780e-01
2.831969929934349262e-01
2.653217320710535287e-01
2.418799981593328652e-01
2.133395458535454758e-01
1.807513925646305197e-01
1.442912753239889156e-01
1.051821095657072824e-01
6.396195634493913318e-02
2.166470487040023096e-02
-2.083614002445356717e-02
-6.271108478880839388e-02
-1.029409415910306769e-01
-1.408839738241135231e-01
-1.754043410719375307e-01
-2.062464158779203083e-01
-2.323098382140582063e-01
-2.532474286825492915e-01
-2.686583523596683398e-01
-2.778417061328456450e-01
-2.813041575073346179e-01
-2.782393681857504575e-01
-2.691449854515040596e-01
-2.541065654233827797e-01
-2.332293807178969502e-01
-2.075477631219928565e-01
-1.769883476351646889e-01
-1.426623017078936795e-01
-1.051020198589148191e-01
-6.518750976614670622e-02
-2.393471066391159724e-02
1.796418826369991159e-02
5.934389573123103473e-02
9.955081572576653104e-02
1.373776208864346260e-01
1.723727010510409940e-01
2.034693433472677393e-01
2.300298197564744074e-01
2.516644631047693648e-01
2.674554101255560701e-01
2.777269163612457459e-01
2.816252123572416388e-01
2.793379746243432327e-01
2.709530310178234758e-01
2.563041023821011066e-01
2.363100573401674120e-01
2.107775481193860379e-01
1.806223078007752614e-01
1.463633705520247519e-01
1.086800785172676309e-01
6.863656343557850148e-02
2.679710311126189126e-02
-1.562745892290863525e-02
-5.795325833520766079e-02
-9.898367924688436514e-02
-1.380181923730282867e-01
-1.740493095167361393e-01
-2.061660790790559861e-01
-2.339011673715669648e-01
-2.561685989681772857e-01
-2.729999532362127335e-01
-2.835290141871413261e-01
-2.876396323872182359e-01
-2.853879788271888041e-01
-2.764030234847262846e-01
-2.614804688590920412e-01
-2.403973764892023413e-01
-2.139301218963887141e-01
-1.826618907078478293e-01
-1.471403870136009928e-01
-1.085329584387240975e-01
-6.735077219282070704e-02
-2.485477402688304749e-02
1.819355104141399254e-02
6.065382733702648355e-02
1.016224558460458866e-01
1.402026752905845552e-01
1.753363461032532988e-01
2.065559807598646991e-01
2.327618169087911082e-01
2.538122635501951496e-01
2.689473757232697659e-01
2.778658045840454727e-01
2.806668067458056304e-01
2.768498112464540806e-01
2.670968484424894873e-01
2.511678920850279884e-01
2.296441221635164287e-01
2.031170576310721287e-01
1.719065931368485289e-01
1.371443148930783229e-01
9.919989355004496523e-02
5.922182493433632289e-02
1.796058614738461207e-02
-2.362102271933175582e-02
-6.452303914185630873e-02
-1.039843711218199074e-01
-1.408696462511275227e-01
-1.746830283663622363e-01
-2.043127276439648532e-01
-2.293994776755874931e-01
-2.492194716807371035e-01
-2.632262706685804532e-01
-2.714706685696129385e-01
-2.732727874723922534e-01
-2.691062294334195526e-01
-2.586977948742373856e-01
-2.423761853004733346e-01
-2.207375652468064886e-01
-1.938958831872690802e-01
-1.629188501785764631e-01
-1.281296318486385977e-01
-9.056154746114480902e-02
-5.102360641216628634e-02
-1.035098524202798798e-02
3.036500440415090818e-02
7.042362047738033592e-02
1.086358247199550597e-01
1.444609205974606847e-01
1.767984218656038775e-01
2.051157919003426811e-01
2.287528754305255263e-01
2.469754870327138807e-01
2.598287504815267601e-01
2.665128095744119796e-01
2.673191427918293894e-01
2.619868288164973191e-01
2.505957909136783401e-01
2.337528907975745529e-01
2.113609744768885079e-01
1.843729622518563427e-01
1.530562214808160182e-01
1.182620085597302639e-01
8.082621816948862281e-02
4.140935499072121578e-02
1.134958833957259300e-03
-3.935926996834027136e-02
-7.887198682440388353e-02
-1.168035228239536760e-01
-1.520640384645570720e-01
-1.839357539676623743e-01
-2.117748238373238778e-01
-2.346319382970867284e-01
-2.524967132481109600e-01
-2.644119123819849704e-01
-2.704447729080066143e-01
-2.703226354090321193e-01
-2.638425672940810096e-01
-2.516270583756141099e-01
-2.333641791714003988e-01
-2.098891553045961755e-01
-1.814652289464019630e-01
-1.487560407389646178e-01
-1.126909555695945198e-01
-7.377355265414992092e-02
-3.317459532109477000e-02
8.470716850443302248e-03
4.996912983129306318e-02
9.061390193035362417e-02
1.293497547949366000e-01
1.652853904570305010e-01
1.977883005211266698e-01
2.257422160486519114e-01
2.490719350898533690e-01
2.667115374418471685e-01
2.785107146348218543e-01
2.841943164627995788e-01
2.832921672098213106e-01
2.764187947306811499e-01
2.630494744715379807e-01
2.438618324734324050e-01
2.190932843818219622e-01
1.891799192368875948e-01
1.551149838751186283e-01
1.172076880978740188e-01
7.663957109804017676e-02
3.404250976417204366e-02
-9.430003005663434301e-03
-5.292533284595860033e-02
-9.543220771545740666e-02
-1.358570493141825763e-01
-1.735184377569847225e-01
-2.071250144518123615e-01
-2.364464274135056332e-01
-2.602985399846548531e-01
-2.782706645291059266e-01
-2.900437761662765235e-01
-2.949005719278630644e-01
-2.934011890758510543e-01
-2.848704774317738497e-01
-2.698467967791706168e-01
-2.485934501131858432e-01
-2.213867083016641812e-01
-1.893172687692841194e-01
-1.525940713322228581e-01
-1.124467500187005947e-01
-6.956504747187119975e-02
-2.506753449712969400e-02
2.000809807161858800e-02
6.473513160530131039e-02
1.078513850273201125e-01
1.486744974395683150e-01
1.858622153294454127e-01
2.190070213278232925e-01
2.470168252889072824e-01
2.692729716094285908e-01
2.855125454771175186e-01
2.948831216646639053e-01
2.978308959959184987e-01
2.936922781183888831e-01
2.828100817310471027e-01
2.654829023896658202e-01
2.417817573550252730e-01
2.127668019043694736e-01
1.785382136849626711e-01
1.402214033855967712e-01
9.850426495700567719e-02
5.434467692675329364e-02
8.872746131936493780e-03
-3.711554029878649796e-02
-8.227752678165112243e-02
-1.259144014438325354e-01
-1.666703645310499693e-01
-2.039223437903410485e-01
-2.366251571468596659e-01
-2.639080890490650977e-01
-2.854661849189826794e-01
-3.002646929407822851e-01
-3.085295281071547269e-01
-3.095670064028052115e-01
-3.034556094775474611e-01
-2.904976203051295447e-01
-2.705540155624763243e-01
-2.446208969933386657e-01
-2.127608178110504955e-01
-1.759932876723331596e-01
-1.350901184974462599e-01
-9.089545886165227573e-02
-4.466903653047027412e-02
2.826153207319960763e-03
5.016557953860825009e-02
9.656049584574902256e-02
1.406569166374881108e-01
1.816211869971395276e-01
2.184641172116657537e-01
2.501323307374805904e-01
2.763052451543343557e-01
2.958623491811795403e-01
3.088636807818002095e-01
3.146621071094650723e-01
3.131399722460334045e-01
3.046439922242939469e-01
2.888726631049533533e-01
2.667564663271828618e-01
2.383280550549287669e-01
2.044639449812106213e-01
1.659890206704508764e-01
1.235627197048908832e-01
7.850123192617143586e-02
3.147165886388136880e-02
-1.611568689833730444e-02
-6.342057622915137083e-02
-1.091806092933884920e-01
-1.523905735880137780e-01
-1.921425206611109826e-01
-2.272350152400502421e-01
-2.573085375712304002e-01
-2.811684511326102975e-01
-2.986757821258922974e-01
-3.092100717386558895e-01
-3.124176411128044561e-01
-3.086758966231915036e-01
-2.974871660040747656e-01
-2.796878518733574848e-01
-2.553024126636722624e-01
-2.250066915545553270e-01
-1.897464102610157966e-01
-1.499529745225703370e-01
-1.069961919654146554e-01
-6.149619227928469767e-02
-1.476034572829745817e-02
3.224594290805768426e-02
7.845092218748735136e-02
1.227182435271606531e-01
1.642397654958875075e-01
2.018010851431074060e-01
2.350029842870506869e-01
2.627164569397285043e-01
2.846563863820703033e-01
3.002912326555121081e-01
3.091028794221612475e-01
3.115005220937469010e-01
3.068303467074395829e-01
2.957772233359850511e-01
2.783447238610489149e-01
2.548983201167164259e-01
2.264340259488700213e-01
1.930280603639543124e-01
1.559364146755402025e-01
1.156583327153488938e-01
7.318351095650299509e-02
2.956058940469601104e-02
-1.449492772963476006e-02
-5.782304613993811959e-02
-9.971108357376144704e-02
-1.390708005720590612e-01
-1.753564736959537240e-01
-2.075780960314533297e-01
-2.352571820689769444e-01
-2.578493165212248361e-01
-2.746928476693966115e-01
-2.860500050829677399e-01
-2.911273234389843978e-01
-2.903532471893208733e-01
-2.836444204317424833e-01
-2.710432056857584593e-01
-2.535071216950257056e-01
-2.307815478698501122e-01
-2.039463561831991734e-01
-1.733987192704721791e-01
-1.397789952781642031e-01
-1.042250503758059277e-01
-6.706407212170131804e-02
-2.942251735408922889e-02
8.092966905982178216e-03
4.463331713299228953e-02
7.951786313582800969e-02
1.120539378092332283e-01
1.416561807468847967e-01
1.678672131146903834e-01
1.900311653547341884e-01
2.082870759367161928e-01
2.218801820361311350e-01
2.309892877287366142e-01
2.355091394670608684e-01
2.351835364761114544e-01
2.308366571888981200e-01
2.219124515433837930e-01
2.091404119152401875e-01
1.927326614922904024e-01
1.728446562204254688e-01
1.504685442416468788e-01
1.254550548902866325e-01
9.865683419464080228e-02
7.043885218488882272e-02
4.128632638722690845e-02
1.185742874360312671e-02
-1.749924109356937318e-02
-4.615028568245316265e-02
-7.373790266475779842e-02
-9.957704835794345399e-02
-1.235505534001162808e-01
-1.449294493391354854e-01
-1.634457469411240149e-01
-1.788696007053476311e-01
-1.905371852966731283e-01
-1.988114483099368557e-01
-2.029307459841646066e-01
-2.030353930184602973e-01
-1.991382141019842900e-01
-1.909293957225065008e-01
-1.790726816344949957e-01
-1.632216276054367921e-01
-1.439182425002000776e-01
-1.214678563122740529e-01
-9.616971612825683802e-02
-6.874223827397271669e-02
-3.948132575298442248e-02
-9.175391187038334229e-03
2.171698078967293499e-02
5.236532179553438082e-02
8.229387613767003007e-02
1.107433364258478548e-01
1.370042319984882684e-01
1.607382202174599817e-01
1.809913065331965609e-01
1.977534503643007535e-01
2.102476724120470042e-01
2.181896567032483580e-01
2.215811151471168694e-01
2.198528984840564804e-01
2.134935621571854569e-01
2.021493965474168708e-01
1.861502276596274374e-01
1.658760175981462415e-01
1.414765449301690625e-01
1.137524684210666354e-01
8.297311266278743769e-02
4.998265003432356135e-02
1.536287153126691257e-02
-2.005840784971121837e-02
-5.552875073157212404e-02
-9.030770177969485446e-02
-1.234298937884023284e-01
-1.544330294165825457e-01
-1.822316825639226368e-01
-2.065143234785308812e-01
-2.264941126845291808e-01
-2.415955550789988804e-01
-2.517771659571224063e-01
-2.562799631284092272e-01
-2.554528093684624857e-01
-2.489180745880204548e-01
-2.368321402520983110e-01
-2.196572051126551850e-01
-1.973726558147244903e-01
-1.708615568652752659e-01
-1.403585632968200048e-01
-1.066924374419042643e-01
-7.059194349934325152e-02
-3.277126699079419003e-02
5.807188791860026789e-03
4.446007451690794920e-02
8.212683012418151018e-02
1.182395656615973789e-01
