BVP Signal
-3.938742983960574762e-03
2.672851857825506161e-02
5.663892212283339056e-02
8.513855725039581879e-02
1.115735135615641971e-01
1.352898806569596823e-01
1.556705411635240788e-01
1.722503308220914020e-01
1.846080004234642580e-01
1.924387927571830081e-01
1.955594029181646487e-01
1.938357692754496542e-01
1.873195673577509046e-01
1.761165572701326454e-01
1.604524503106038447e-01
1.406815426750817055e-01
1.171962047900276249e-01
9.052863523177567817e-02
6.125168952505588571e-02
2.999852919419972175e-02
-2.531214734276469869e-03
-3.562917693956337006e-02
-6.856284254505151665e-02
-1.005938553417546899e-01
-1.310135213621151373e-01
-1.591467646793979229e-01
-1.843429451610077985e-01
-2.060576264472704366e-01
-2.237808177106076490e-01
-2.371044858575251935e-01
-2.457394115379274435e-01
-2.494396329223288467e-01
-2.481363945966226225e-01
-2.418180825804306933e-01
-2.305878762974766794e-01
-2.146865023547032125e-01
-1.943920154724428917e-01
-1.701287291930582146e-01
-1.423684532298339356e-01
-1.116459577853167184e-01
-7.857357916133955733e-02
-4.377565538576572157e-02
-7.913860051245918958e-03
2.833847105077783035e-02
6.432162591729675971e-02
9.939316451301044575e-02
1.329245814381459778e-01
1.643558660893656154e-01
1.931513676626409881e-01
2.188374478149409663e-01
2.410212656984182522e-01
2.593354897027373429e-01
2.735236113316998341e-01
2.833687716017304070e-01
2.887222303523843681e-01
2.895265045634527468e-01
2.857481151205236158e-01
2.774540059800227887e-01
2.647478746709122088e-01
2.477877236695235630e-01
2.268063624410469603e-01
2.020551658715179499e-01
1.738627281815464110e-01
1.425866653580071253e-01
1.086246690468869736e-01
7.243119948743992342e-02
3.447368777845753046e-02
-4.727724055581389306e-03
-4.463268072129492059e-02
-8.468162697975020747e-02
-1.242870543264584238e-01
-1.628589635747716979e-01
-1.998055951369860361e-01
-2.345349107012456580e-01
-2.664771410954018815e-01
-2.950959354252143951e-01
-3.198703109674845280e-01
-3.403613928219065832e-01
-3.561643527361321171e-01
-3.669454878632342210e-01
-3.724807640893272875e-01
-3.725779064339718172e-01
-3.671952021003705990e-01
-3.563544325182337880e-01
-3.401675302583143101e-01
-3.188893163027712863e-01
-2.928074497314310243e-01
-2.623497024374509823e-01
-2.280042063519735485e-01
-1.903153958869155948e-01
-1.499193734721264160e-01
-1.074668607345283800e-01
-6.365287505856520589e-02
-1.919172829807336278e-02
2.521029405750230268e-02
6.886054524731854976e-02
1.110764698689408192e-01
1.512409427077912039e-01
1.887670305583963870e-01
2.231226481102925874e-01
2.538704086873135868e-01
2.805974485831423948e-01
3.030073069603933522e-01
3.208583386314796115e-01
3.339719867138288834e-01
3.422815717068379282e-01
3.457452605047690586e-01
3.444273332298868340e-01
3.384433723411717221e-01
3.279571090440475123e-01
3.132200054302406445e-01
2.945017224596650496e-01
2.721446944781290012e-01
2.465275148610727718e-01
2.180577450248872284e-01
1.871971711999180221e-01
1.544177279142472381e-01
1.202266992798306511e-01
8.514937562729452125e-02
4.971718684073067607e-02
1.447322549958740545e-02
-2.003996872682622943e-02
-5.329666669230204157e-02
-8.478011113922701014e-02
-1.139978514920685360e-01
-1.405059503694456868e-01
-1.638745907811571811e-01
-1.837506361659151377e-01
-1.998225679670493360e-01
-2.118283265948317506e-01
-2.196070167843249266e-01
-2.230216560789781699e-01
-2.220442040886432267e-01
-2.167073255853944058e-01
-2.070971234576124420e-01
-1.934118364965717873e-01
-1.758736283197223083e-01
-1.547995422350728623e-01
-1.305609501316417065e-01
-1.035657224191620651e-01
-7.430020682294366519e-02
-4.326585492292746998e-02
-1.101257584711384796e-02
2.188121622448863102e-02
5.482698716783296344e-02
8.721420737934504341e-02
1.184301619847262232e-01
1.478709408793190683e-01
1.749380286581876387e-01
1.990516136934983304e-01
2.196751609010934025e-01
2.362848217136390705e-01
2.484293056885544804e-01
2.557026171187752883e-01
2.577482895805929264e-01
2.543268020597309054e-01
2.452275935322720812e-01
2.303760807087679163e-01
2.097849096291329873e-01
1.835396869680530063e-01
1.519025536597654602e-01
1.151761733611181837e-01
7.382785724775264846e-02
2.843349262489253126e-02
-2.036151463806384898e-02
-7.173977255605995529e-02
-1.248478500812066905e-01
-1.787192440052347842e-01
-2.323108127682752544e-01
-2.845565814394054316e-01
-3.343344954465096164e-01
-3.805162770100721792e-01
-4.220106366043264168e-01
-4.577521514714945061e-01
-4.867329431179434618e-01
-5.080993404468788777e-01
-5.210397358938623213e-01
-5.249614250661660542e-01
-5.194287633656899938e-01
-5.041282335499103207e-01
-4.790774117985372449e-01
-4.443723765731273923e-01
-4.004071198861325342e-01
-3.477953841023032067e-01
-2.872676583945962259e-01
-2.198755780385958092e-01
-1.467411302934762130e-01
-6.917577251836459773e-02
1.136534561217567019e-02
9.339147031440606095e-02
1.753167814005485714e-01
2.555409773527480555e-01
3.325106457060248988e-01
4.047089759519317820e-01
4.706857361080963864e-01
5.291915929324699785e-01
5.790312056980642108e-01
6.192588258080073960e-01
6.491289141871228185e-01
6.680191193383593351e-01
6.756785074081911313e-01
6.719472306065090716e-01
6.569633627193925962e-01
6.311106971023272560e-01
5.948809104617107657e-01
5.490935124658966604e-01
4.946453334232191468e-01
4.326177403111948205e-01
3.642485989057959173e-01
2.908158993616878352e-01
2.137159860190979976e-01
1.343698135213375611e-01
5.419359909109384282e-02
-2.540057421207675414e-02
-1.030347608789666247e-01
-1.774491201302798582e-01
-2.474175613697480736e-01
-3.118686664850965351e-01
-3.698697051519131418e-01
-4.205643322841177145e-01
-4.633525029504015347e-01
-4.977019076727519087e-01
-5.232859134811937984e-01
-5.399675095353697607e-01
-5.476873705901648126e-01
-5.466475256179827991e-01
-5.371182499585643866e-01
-5.195326415392615971e-01
-4.944781445787930219e-01
-4.625897948234459767e-01
-4.246612807841392279e-01
-3.815269717737812538e-01
-3.340823567754451773e-01
-2.832824960613378185e-01
-2.300864703025672364e-01
-1.754594704669547589e-01
-1.203661739161301786e-01
-6.572460347797506874e-02
-1.240602757963377850e-02
3.874992196242456333e-02
8.702420085929724047e-02
1.317329830239459820e-01
1.723019880267653015e-01
2.082698101378811784e-01
2.392196002527804954e-01
2.649001765444531920e-01
2.851081917582182212e-01
2.997497035470683135e-01
3.088466774219698063e-01
3.124575532794381938e-01
3.107749681293653365e-01
3.040306709997407375e-01
2.925288142986069984e-01
2.766524204348871363e-01
2.568050754577805850e-01
2.334647380942340977e-01
2.071312656522382167e-01
1.783346073952815358e-01
1.476384164995596382e-01
1.156114251412810323e-01
8.283763254840567636e-02
4.990515176660655083e-02
1.739298749187538629e-02
-1.413034624389437888e-02
-4.410606325764376834e-02
-7.201912213329644818e-02
-9.736912078654150204e-02
-1.197059087654943066e-01
-1.386388444855050084e-01
-1.538027602500347535e-01
-1.649412818815473858e-01
-1.718341886704078114e-01
-1.743499429393702560e-01
-1.724649935338000428e-01
-1.661915678268560681e-01
-1.556910597611867730e-01
-1.411748204620342506e-01
-1.229444880710498511e-01
-1.014147442583692993e-01
-7.702789363984779980e-02
-5.033413329992583729e-02
-2.191999974551296637e-02
7.592359063198689251e-03
3.753495873299971669e-02
6.723771901742539581e-02
9.603560974678247708e-02
1.232663052039277563e-01
1.483078882803289533e-01
1.705919618161303719e-01
1.895739507065533624e-01
2.048225277993028226e-01
2.159479768442909564e-01
2.226498479929172047e-01
2.247492395819938871e-01
2.221030060963989916e-01
2.147251078422596771e-01
2.026880810918715858e-01
1.861563489752598444e-01
1.654229785880975134e-01
1.408121699871091037e-01
1.127773567190299142e-01
8.182111745543418913e-02
4.850241351018312608e-02
1.346135501991163608e-02
-2.264797839329915630e-02
-5.912397794652166777e-02
-9.524690683166371630e-02
-1.303012518858220892e-01
-1.635778171243839341e-01
-1.943781091977397901e-01
-2.220690210061448122e-01
-2.460444851035123170e-01
-2.657683071124029572e-01
-2.808107757265377868e-01
-2.907756134026714956e-01
-2.954288851857292397e-01
-2.946044635446968263e-01
-2.882425047555631226e-01
-2.764496601134804887e-01
-2.593736310096981246e-01
-2.373438185689398516e-01
-2.107671498925414166e-01
-1.801364775663284734e-01
-1.460829843764901437e-01
-1.092641777636314537e-01
-7.043515490656965250e-02
-3.039343941502315599e-02
1.004716022462243119e-02
5.004605455860325347e-02
8.876601736519970642e-02
1.254130755830579202e-01
1.592132781300428235e-01
1.894521114598325118e-01
2.155165569553199323e-01
2.368242552326847716e-01
2.529502440648359052e-01
2.635429915306874982e-01
2.683525342252052193e-01
2.673070177534755398e-01
2.603773421133890320e-01
2.477282620750674569e-01
2.296172118851569077e-01
2.063967966861267045e-01
1.785910665326320701e-01
1.467590837011654714e-01
1.115978137253616359e-01
7.387179708964207447e-02
3.438743788623509212e-02
-5.971614898723748288e-03
-4.631256075176226616e-02
-8.573664774898728802e-02
-1.233424588620760931e-01
-1.582658370674005499e-01
-1.897142235504599983e-01
-2.169196908465952367e-01
-2.392586624464506373e-01
-2.561829245963338497e-01
-2.672464857246278358e-01
-2.722042637383254027e-01
-2.708596346338117966e-01
-2.632411987327170078e-01
-2.494981105162129287e-01
-2.298888168168044810e-01
-2.048920760518037620e-01
-1.750314949688833721e-01
-1.410001867757652294e-01
-1.035843837378827709e-01
-6.361868155038438721e-02
-2.203712855174604079e-02
2.021285834741236298e-02
6.217566186343573276e-02
1.028912481157278902e-01
1.414374687143203635e-01
1.769741455590993495e-01
2.086865075561461502e-01
2.359085112797124073e-01
2.580608542525695825e-01
2.746585070396630468e-01
2.854239321417561537e-01
2.901275600403649402e-01
2.887492344867500504e-01
2.813942308246714097e-01
2.682607314153723221e-01
2.497561702415594942e-01
2.263309720431421201e-01
1.985855494023185674e-01
1.672126301840317908e-01
1.329467004576088962e-01
9.661777540950106102e-02
5.907087347043352143e-02
2.116464053754392796e-02
-1.623374407463216984e-02
-5.228437137087060815e-02
-8.621409795377793506e-02
-1.172702299815108762e-01
-1.448232497615157266e-01
-1.683239697858134876e-01
-1.872992450252661256e-01
-2.014634588027061080e-01
-2.105747720106643239e-01
-2.145724220733278287e-01
-2.135170047854146880e-01
-2.075447853853378266e-01
-1.969821712117739709e-01
-1.821957113829334451e-01
-1.636763185994899450e-01
-1.420005871331225800e-01
-1.177750364876029021e-01
-9.168155880366246624e-02
-6.441441572032691187e-02
-3.666691203146843492e-02
-9.131637957466631761e-03
1.752485610495804758e-02
4.270766633141934165e-02
6.584164767661365714e-02
8.645558716414222800e-02
1.041540478216805288e-01
1.185954211414353976e-01
1.295860678685863410e-01
1.369667694644637335e-01
1.406981253391538234e-01
1.408305498699766733e-01
1.374567632978721532e-01
1.307870358112408482e-01
1.210573013338152037e-01
1.085672584978853994e-01
9.366575270326393809e-02
7.671476866820503560e-02
5.811216586010659046e-02
3.826258403609106296e-02
1.757114071740328853e-02
-3.556671297665570108e-03
-2.472265629465120185e-02
-4.555140232928162058e-02
-6.567357518182126430e-02
-8.474678259225551513e-02
-1.024505936625726699e-01
-1.184768083222128010e-01
-1.325545199138186137e-01
-1.444222130170879081e-01
-1.538508882795315280e-01
-1.606388006790507861e-01
-1.646010643015144437e-01
-1.656059792099002781e-01
-1.635360597273399774e-01
-1.583307260649539083e-01
-1.499784423811505452e-01
-1.384971524948009902e-01
-1.240003390611953416e-01
-1.066263785361529770e-01
-8.659660294260884683e-02
-6.420585581790261287e-02
-3.978077805567525882e-02
-1.375150988879830782e-02
1.342599750268935743e-02
4.123842774189573346e-02
6.912019602474447910e-02
9.649596295244243505e-02
1.227617377325781328e-01
1.473081561321212540e-01
1.695497710204720843e-01
1.889235422534232822e-01
2.048928209588183336e-01
2.170172193463075772e-01
2.248842004992120946e-01
2.281923890028892954e-01
2.267474879629716167e-01
2.204077223568544630e-01
2.092188704002819755e-01
1.932785826384416650e-01
1.728254693889378357e-01
1.482377508927027465e-01
1.199421504036612407e-01
8.853638052983958673e-02
5.466460758242758233e-02
1.905408969683122788e-02
-1.748329911601200631e-02
-5.412252924750016181e-02
-8.999974436040196479e-02
-1.242424637679183097e-01
-1.560144121041837084e-01
-1.845172228168783790e-01
-2.089869856158530492e-01
-2.287997807504101866e-01
-2.433747091828460940e-01
-2.522766912375792314e-01
-2.552276327063207617e-01
-2.520134449731359361e-01
-2.426688718262531852e-01
-2.273035107151341050e-01
-2.061954340787301443e-01
-1.798092058821453842e-01
-1.486635996174979213e-01
-1.134808729250697534e-01
-7.504428302444945964e-02
-3.422294338106166012e-02
8.016315073849505923e-03
5.069461224111869446e-02
9.280125759085119941e-02
1.333176332824836663e-01
1.712700437992348834e-01
2.057373713317730002e-01
2.358335052588920733e-01
2.608283350247490584e-01
2.800435999500713868e-01
2.929463784482084776e-01
2.991786503733995239e-01
2.984439348318499441e-01
2.907031162302814442e-01
2.760026471172259410e-01
2.545567552903045816e-01
2.267872701160045801e-01
1.931727548034732900e-01
1.544196604494690872e-01
1.113110679965180760e-01
6.473522542191126328e-02
1.571417943537958828e-02
-3.470712719195653828e-02
-8.540737522764904610e-02
-1.352401684829591388e-01
-1.830766025972692390e-01
-2.278106914417929729e-01
-2.683621580458359079e-01
-3.037847165863379328e-01
-3.331815908275480020e-01
-3.557961590570286048e-01
-3.710604110129707145e-01
-3.784699441614815529e-01
-3.778086765806973890e-01
-3.689672256943078987e-01
-3.520248646693788230e-01
-3.273219024260121679e-01
-2.952651077172044891e-01
-2.565412863972282853e-01
-2.119425040312928332e-01
-1.623848587281195299e-01
-1.089608700531767005e-01
-5.279245656577992440e-02
4.901100858804297022e-03
6.286398058832012858e-02
1.198546496285984586e-01
1.746526088283922029e-01
2.260605885914697133e-01
2.730176835259193191e-01
3.145184806029895919e-01
3.496871061849908813e-01
3.778427356916066460e-01
3.983616751649202148e-01
4.108882894743705605e-01
4.151773507494636584e-01
4.111436398622155264e-01
3.989495879326386829e-01
3.788160117907223290e-01
3.512144612592843496e-01
3.167221013781395533e-01
2.760288038668823329e-01
2.300037211261555248e-01
1.795498176659075240e-01
1.256944226134687481e-01
6.951828901973662600e-02
1.212480933262513605e-02
-4.534578398254990317e-02
-1.017563352455822523e-01
-1.560167225974750105e-01
-2.070584439793164422e-01
-2.538838410001796331e-01
-2.956147911291212571e-01
-3.314105925496225735e-01
-3.606244365731886559e-01
-3.826989606999269267e-01
-3.972059584497705798e-01
-4.039410404519063746e-01
-4.027541941281527205e-01
-3.937432356146467471e-01
-3.771230580157209911e-01
-3.532304801878685674e-01
-3.226193690541654391e-01
-2.858877441696740518e-01
-2.438070758972035457e-01
-1.972328080221144309e-01
-1.470737624429031276e-01
-9.433612501646057580e-02
-4.003873151894700444e-02
1.478158643099684866e-02
6.907935737539613874e-02
1.218398993325745527e-01
1.721070546322063799e-01
2.189453102430057863e-01
2.615406419438481844e-01
2.991416968717343638e-01
3.310814293866159996e-01
3.568564870947376066e-01
3.760030388816764102e-01
3.882408985745351426e-01
3.933870504841812110e-01
3.913530511124494460e-01
3.822389453195085274e-01
3.661859841707489904e-01
3.435075902180995122e-01
3.146107953034284477e-01
2.799767939460023336e-01
2.402385116403304988e-01
1.960593165805972760e-01
1.482139218025589067e-01
9.753922794521968642e-02
4.490475344710691263e-02
-8.751815700821445609e-03
-6.248309164659937576e-02
-1.153323127943439580e-01
-1.663374738024910870e-01
-2.145621392842226582e-01
-2.591262188158010016e-01
-2.991683990371015178e-01
-3.339438455431857911e-01
-3.627768003339918446e-01
-3.850741724275591471e-01
-4.004280790286744440e-01
-4.084756712017563740e-01
-4.090635532244814576e-01
-4.021658830511877225e-01
-3.878609020296953092e-01
-3.664655805392912913e-01
-3.383483363270898825e-01
-3.040718853247675324e-01
-2.643205372566381217e-01
-2.198440919303492058e-01
-1.715454090202190307e-01
-1.203551662495365715e-01
-6.726506214119284954e-02
-1.330599298092083327e-02
4.050027160361811124e-02
9.315619298335243992e-02
1.436757177919104900e-01
1.911665310509471916e-01
2.347984608735277090e-01
2.738067950438059506e-01
3.075912983813824386e-01
3.355911757004699791e-01
3.574149967016972407e-01
3.727867042398755326e-01
3.815070401253425336e-01
3.835733018529255967e-01
3.790264813892643692e-01
3.680598680196376926e-01
3.509734229817676465e-01
3.281220863910441210e-01
3.000042366045888587e-01
2.671487682740021352e-01
2.301711152718451392e-01
1.897490366609340395e-01
1.465821276466088841e-01
1.014273334135964294e-01
5.505222438690157011e-02
8.233616317477945867e-03
-3.824484126324072253e-02
-8.361172966162819242e-02
-1.271314511647108070e-01
-1.680793995098198435e-01
-2.057980573126669821e-01
-2.396810280384669700e-01
-2.691641478191221792e-01
-2.938053689841709226e-01
-3.131934072387467238e-01
-3.270413997345530954e-01
-3.351599587589213503e-01
-3.374172669126475066e-01
-3.338506238770705958e-01
-3.245380167527275872e-01
-3.096899844286504777e-01
-2.896238418652307134e-01
-2.647039323716646742e-01
-2.354342789269909253e-01
-2.023510006706621955e-01
-1.660645658889208509e-01
-1.272470246359838908e-01
-8.658341852677056694e-02
-4.479527273974287516e-02
-2.610600230936982458e-03
3.925961955145443327e-02
8.011891736789256147e-02
1.192920935271795102e-01
1.561743100600188616e-01
1.901799065526751931e-01
2.208023300435795755e-01
2.476043089255985929e-01
2.701850880819471890e-01
2.882632080831235566e-01
3.015880738269063333e-01
3.100021037496170639e-01
3.134314746207635394e-01
3.118380611769929200e-01
3.053015978160560917e-01
2.939323648801810407e-01
2.779211851177008086e-01
2.575334552103838437e-01
2.330626635400639135e-01
2.048963505402092711e-01
1.734465837438022850e-01
1.391815145452950098e-01
1.026226864675298112e-01
6.430739642316242455e-02
2.482530268206062374e-02
-1.522067710008076502e-02
-5.521235877072802611e-02
-9.451661466116384469e-02
-1.325042436439138327e-01
-1.685640946953713692e-01
-2.020914051034095049e-01
-2.325259572800504326e-01
-2.593523654296243097e-01
-2.820830507307273138e-01
-3.003362177090233009e-01
-3.137612209430152843e-01
-3.221072771460585793e-01
-3.252269409685588086e-01
-3.230156031505747594e-01
-3.155295629099957311e-01
-3.028719095077582191e-01
-2.852559796755981258e-01
-2.630124113917124973e-01
-2.365075177922821570e-01
-2.062385079451776460e-01
-1.727403851462955831e-01
-1.366049381990520062e-01
-9.848607821921673278e-02
-5.904599555714718645e-02
-1.896996080679125285e-02
2.105108380239881227e-02
6.034996825143376653e-02
9.828626375502474977e-02
1.342383739303738555e-01
1.676657214500248960e-01
1.980536888974155363e-01
2.249607586726846686e-01
2.480299615092042553e-01
2.669340798856127961e-01
2.814662333838752750e-01
2.914580634714122320e-01
2.968188223423284255e-01
2.975500615842543994e-01
2.936800856703434826e-01
2.853432753823456625e-01
2.727085691657009647e-01
2.560031372912354719e-01
2.355253580160041327e-01
2.115918177553944568e-01
1.845902029003291533e-01
1.549318420065730617e-01
1.230613933341543342e-01
8.946542206994392843e-02
5.463904123336800478e-02
1.910850663638931357e-02
-1.658955407141884941e-02
-5.191455305551598287e-02
-8.632078841104898204e-02
-1.192666614810382886e-01
-1.502348760186579257e-01
-1.787173039024115284e-01
-2.042427723974536424e-01
-2.263892594349642962e-01
-2.447547873209556246e-01
-2.590314236543908577e-01
-2.689459529284501382e-01
-2.743002509436395786e-01
-2.749988824550394506e-01
-2.709771981466921886e-01
-2.623070506542751756e-01
-2.491114129216946971e-01
-2.315935767223734065e-01
-2.100697679477419866e-01
-1.848826714697321405e-01
-1.564834196367328734e-01
-1.253644422138625036e-01
-9.205926284352469735e-02
-5.716079098394451219e-02
-2.126995438391331150e-02
1.499128971345031758e-02
5.099316346641097342e-02
8.612063998963023770e-02
1.197806839050967187e-01
1.513918014963239744e-01
1.804353824462719413e-01
2.064186691665126361e-01
2.289012726942338261e-01
2.475229372934040772e-01
2.619462869744886846e-01
2.719412699481108531e-01
2.773227975517598143e-01
2.779726030264818570e-01
2.738775410672637523e-01
2.650508436959915226e-01
2.516238515124289421e-01
2.337786288176231797e-01
2.117605765136900409e-01
1.859175386902269800e-01
1.566202654232229929e-01
1.243360989244669257e-01
8.957488336134789009e-02
5.288613179055438179e-02
1.488528118808274403e-02
-2.380128409357686048e-02
-6.251257140219558528e-02
-1.005721687734872638e-01
-1.373095851975095483e-01
-1.720646251401916071e-01
-2.041860921211786084e-01
-2.330837810033031254e-01
-2.581962814295711284e-01
-2.790207822098732526e-01
-2.951578091626388956e-01
-3.062366558862917865e-01
-3.120305507904210796e-01
-3.123819952914502762e-01
-3.072195824933836028e-01
-2.966278318627471045e-01
-2.807267237750901145e-01
-2.597912051472712758e-01
-2.341726805525501942e-01
-2.042893211460207192e-01
-1.706834222125942491e-01
-1.339203509195617814e-01
-9.464540786663075411e-02
-5.354428718425879863e-02
-1.131580293712261542e-02
3.131651508044222543e-02
7.362956397063710745e-02
1.149287418170293201e-01
1.545345128759173514e-01
1.918036388842862539e-01
2.261647344835122087e-01
2.570657208466077259e-01
2.840530935566455417e-01
3.067263995767108842e-01
3.247416273551547161e-01
3.378692162041307956e-01
3.459056502651630671e-01
3.487611882664161111e-01
3.464089984191204286e-01
3.388765581962605578e-01
3.263044118002756400e-01
3.088574867888808084e-01
2.867992973091295639e-01
2.604493980284531829e-01
2.301686796619384912e-01
1.964063757208531213e-01
1.596295519220765069e-01
1.203688067928564420e-01
7.919184881061935855e-02
3.668450951663562720e-02
-6.527883139370268747e-03
-4.981430104716716434e-02
-9.254010887165306509e-02
-1.340685739920681741e-01
-1.737792909224726845e-01
-2.110895437391655527e-01
-2.454286165490223159e-01
-2.762992940269350939e-01
-3.032498985649895173e-01
-3.258783427898930274e-01
-3.438987096441227242e-01
-3.570527936411543868e-01
-3.652058004183383888e-01
-3.683014806157366428e-01
-3.663404426941297976e-01
-3.594593922399076380e-01
-3.478239794507800298e-01
-3.317004947116029556e-01
-3.114210639641383227e-01
-2.873478569442470820e-01
-2.599159823402573122e-01
-2.295737228078814085e-01
-1.967921054946934478e-01
-1.620574356772130908e-01
-1.258504837955293221e-01
-8.863688446197715010e-02
-5.087716991590685023e-02
-1.299766287054970881e-02
2.459899936693599187e-02
6.152672268205727768e-02
9.744251783199509021e-02
1.320124844115251328e-01
1.649285344919559915e-01
1.959009485736746825e-01
2.246449676756352432e-01
2.508884671381343967e-01
2.743617188993316969e-01
2.947981914108965817e-01
3.119336970227977179e-01
3.255087844886126458e-01
3.352773625969962534e-01
3.409981705614458791e-01
3.424655803577424384e-01
3.395008035071779284e-01
3.319549109531040321e-01
3.197649218854096143e-01
3.028906001449815366e-01
2.813974927314055741e-01
2.554330506882154239e-01
2.251988928363624076e-01
1.910546357455260580e-01
1.533978722303666054e-01
1.127537195976657802e-01
6.974881450531067451e-02
2.505175813762461345e-02
-2.054618174960953780e-02
-6.622720522723701819e-02
-1.111311998764001885e-01
-1.543634235289048640e-01
-1.950400262228471071e-01
-2.323156666331076536e-01
-2.653588838023055452e-01
-2.934432327036373689e-01
-3.159306707338558340e-01
-3.322495827108504773e-01
-3.420408122066060930e-01
-3.450004797598389406e-01
-3.410226593575126364e-01
-3.301727594231016472e-01
-3.125958466178689887e-01
-2.886918667791243398e-01
-2.589240602506940325e-01
-2.239148329368942369e-01
-1.844282402366581586e-01
-1.412695340995302473e-01
-9.537285912994342141e-02
-4.770224679630641340e-02
7.535576690060885596e-04
4.898319486623736729e-02
9.599081362247208205e-02
1.408405434115940214e-01
1.826151121682648704e-01
2.204972548945927091e-01
2.537638004990063756e-01
2.817439102545817864e-01
3.039511998358239708e-01
3.199499590867256327e-01
3.294560351544146837e-01
3.323318915085486935e-01
3.284988082813120602e-01
3.180847049508561675e-01
3.012739331616226535e-01
2.783853182660057657e-01
2.498714423870052048e-01
2.162281948931116249e-01
1.781031398750469175e-01
1.361852613998467132e-01
9.123844445979525930e-02
4.410317569545946226e-02
-4.364616989375458278e-03
-5.325906240932454239e-02
-1.016616309629317927e-01
-1.486628802356999568e-01
-1.933629233806124503e-01
-2.348809644675871056e-01
-2.724164645172938437e-01
-3.051942695529512584e-01
-3.325398692073386897e-01
-3.538875681912154736e-01
-3.687218881757297062e-01
-3.767265243011670428e-01
-3.776461032340501234e-01
-3.713821609321970030e-01
-3.580106677801243587e-01
-3.376668620530491882e-01
-3.107162701985148323e-01
-2.775949455429032042e-01
-2.388716315877066898e-01
-1.952667435281254249e-01
-1.475376757900157265e-01
-9.657782172936443810e-02
-4.332204401557805673e-02
1.125698221095222662e-02
6.614214386190331307e-02
1.203190754354027114e-01
1.727993124216713472e-01
2.226042679003972791e-01
2.688206062608425873e-01
3.106138571306338303e-01
3.471850695797464859e-01
3.778910526902228284e-01
4.021412198608632083e-01
4.194679468499286079e-01
4.295564194957929294e-01
4.321407082432759394e-01
4.271603426959179606e-01
4.146251577565417401e-01
3.946743060539805170e-01
3.676121883634724252e-01
3.337885129571006027e-01
2.937392894288244349e-01
2.480655181038240453e-01
1.974657587330408137e-01
1.427667565064654198e-01
8.482380827421301395e-02
2.460274664783992232e-02
-3.689156278551657120e-02
-9.862233670168360500e-02
-1.595096897390384516e-01
-2.184741735965566589e-01
-2.744564622624515171e-01
-3.264057612591175772e-01
-3.733324215631207976e-01
-4.143318094310753374e-01
-4.485358635659657534e-01
-4.752567962004304314e-01
-4.938762883738370690e-01
-5.039247185808191087e-01
-5.051450085711713944e-01
-4.973428350704375278e-01
-4.806093013764918265e-01
-4.551471617530942204e-01
-4.213271911368432487e-01
-3.797670815026383817e-01
-3.311413568255865414e-01
-2.763602029264461413e-01
-2.164276732788410484e-01
-1.524353778294128547e-01
-8.560713540007003353e-02
-1.718373775310189089e-02
5.155482357042079355e-02
1.193134393203931776e-01
1.848402683574122962e-01
2.469509228316283111e-01
3.044923683506295387e-01
3.564850246975690973e-01
4.020235805228167258e-01
4.403388917072958986e-01
4.708796315560255241e-01
4.931516080257916657e-01
5.069246032733518703e-01
5.120835930229888922e-01
5.086530951315325622e-01
4.968870068534000373e-01
4.770884954641521070e-01
4.497632464504627281e-01
4.155074658142901001e-01
3.749950235524407427e-01
3.290309086730630606e-01
2.784426626781036918e-01
2.241318560048761732e-01
1.670338618752437165e-01
1.080914701134051414e-01
4.826012538836788046e-02
-1.150832418802871793e-02
-7.029998325265807146e-02
-1.272192219916992162e-01
-1.814130633532944348e-01
-2.321050251678521970e-01
-2.785405915817231737e-01
-3.200780236773594911e-01
-3.561308092896723343e-01
-3.861865760959092841e-01
-4.098695055534676834e-01
-4.268377349034436774e-01
-4.369095729629595137e-01
-4.399838388781086573e-01
-4.360485445657339421e-01
-4.252605412374846905e-01
-4.078146613846161950e-01
-3.840704640168635109e-01
-3.544725083020376921e-01
-3.195369319399634644e-01
-2.799189583485597321e-01
-2.363001883207116460e-01
-1.894537201260981796e-01
-1.402010519455956228e-01
-8.937943856445829116e-02
-3.785708940348858631e-02
1.349770819504464425e-02
6.385062670799115936e-02
1.123860739897537403e-01
1.583331293856278799e-01
2.010134462221019602e-01
2.397734264421551575e-01
2.740867419143848682e-01
3.034986472793659851e-01
3.276252068225110614e-01
3.462325905625486810e-01
3.591202489288092270e-01
3.662265840365318548e-01
3.675702859763030350e-01
3.632290491929800469e-01
3.534087414800954896e-01
3.383415375634660771e-01
3.183548108674314481e-01
2.938324862935881576e-01
2.651918292591006199e-01
2.329242806864962878e-01
1.975356264252434713e-01
1.595756572303609344e-01
1.196210343815318766e-01
7.825850851488638793e-02
3.609758916732053180e-02
-6.249166047708837324e-03
-4.817154612327267243e-02
-8.906085200442154237e-02
-1.283207914320178555e-01
-1.653849966751203271e-01
-1.996961393496845816e-01
-2.307505257066088666e-01
-2.580791892537747101e-01
-2.812504329486806842e-01
-2.999239479668030506e-01
-3.137822072483535396e-01
-3.226140426366455594e-01
-3.262790580531267359e-01
-3.246930816004863218e-01
-3.179130451493690224e-01
-3.060283002778212968e-01
-2.892551357185462191e-01
-2.678966718203176223e-01
-2.423066201793467878e-01
-2.129681872163407541e-01
-1.803917395267249091e-01
-1.451658888380788215e-01
-1.079342675445050803e-01
-6.935498869841651148e-02
-3.012257978398021063e-02
9.063801622976187800e-03
4.752583058341824235e-02
8.460027863661068182e-02
1.196526290136252085e-01
1.521282678952599055e-01
1.814935368251580361e-01
2.073141749823488866e-01
2.292298832138046916e-01
2.469292286147072857e-01
2.602376073565532688e-01
2.690125034993792741e-01
2.732208363274740148e-01
2.729132514112683205e-01
2.681802649811051986e-01
2.592255048119895822e-01
2.462781185531691119e-01
2.296356395451820409e-01
2.096494002180367411e-01
1.866894359713526796e-01
1.611791175558193734e-01
1.335532895573796341e-01
1.042661380045095953e-01
7.378749388386429686e-02
4.258719597724287820e-02
1.113367659368791861e-02
-2.010599647714981716e-02
-5.068304491905682718e-02
-8.016390661354581837e-02
-1.081281122213283985e-01
-1.341967762406477138e-01
-1.580020820638766699e-01
-1.792206940398404225e-01
-1.975673257553782203e-01
-2.127786594020794064e-01
-2.246618661019799679e-01
-2.330424327852427813e-01
-2.378077581085080716e-01
-2.388996947623970857e-01
-2.362865032835788637e-01
-2.300225671387994553e-01
-2.201844353526138942e-01
-2.069122470713502249e-01
-1.904036496562232506e-01
-1.708785922259559720e-01
-1.486302839104268192e-01
-1.239705049310952517e-01
-9.725139537302414372e-02
-6.886262456305604351e-02
-3.920319298276825348e-02
-8.701654679211884291e-03
2.220641489473663965e-02
5.308297067374209699e-02
8.348760643979688534e-02
1.129852301465378017e-01
1.411616269608426955e-01
1.676089456917637388e-01
1.919489403803995020e-01
2.138324681676806449e-01
2.329256185740449792e-01
2.489502974286746384e-01
2.616443447978681891e-01
2.707932376960601739e-01
2.762306021251375032e-01
2.778104269628892675e-01
2.754617083061708382e-01
2.691350826708752697e-01
2.588391941966896592e-01
2.446429709521385498e-01
2.266388531485250546e-01
2.050072487361373486e-01
1.799543134457985416e-01
1.517483551116697860e-01
1.207240937618544729e-01
8.723832049768695529e-02
5.173041316129511208e-02
1.466399569812958104e-02
-2.345323895525491809e-02
-6.206518031926808177e-02
-1.006059421298597933e-01
-1.384765898547816454e-01
-1.750690641613900089e-01
-2.097818929911622610e-01
-2.420210466404339178e-01
-2.712056614805155030e-01
-2.968145863336656420e-01
-3.183464915091139824e-01
-3.353728797145372753e-01
-3.475498552761822069e-01
-3.545689254297696991e-01
-3.562696534283191774e-01
-3.525396207109705582e-01
-3.433759318012873374e-01
-3.289065037868008634e-01
-3.092986730677137475e-01
-2.848781007259860720e-01
-2.560220558087031861e-01
-2.231883173343079951e-01
-1.869335363744497047e-01
-1.478341873192153544e-01
-1.065376276215015544e-01
-6.371416044958970459e-02
-2.004081587743009735e-02
2.379689233964503436e-02
6.712125776287607148e-02
1.092990131441568813e-01
1.497129770856615583e-01
1.877989122326225724e-01
2.230613450099811490e-01
2.550281526858156900e-01
2.833303199624807589e-01
3.076356328052597400e-01
3.276763940357815819e-01
3.432710606412101018e-01
3.542603203457173056e-01
3.605770274654125362e-01
3.621876083958462389e-01
3.591060261952607746e-01
3.514115142127411939e-01
3.391993627890339535e-01
3.226312827562780594e-01
3.018939327385852245e-01
2.772115173284838141e-01
2.488612593594851097e-01
2.171346887938422066e-01
1.823857937217800984e-01
1.449927247710294242e-01
1.053711580907428780e-01
6.399126725850723396e-02
2.133656772392369949e-02
-2.205267610253954999e-02
-6.561384295788848242e-02
-1.087617964398541748e-01
-1.508777962607283918e-01
-1.913397367804076377e-01
-2.295215398746840441e-01
-2.647959781491759923e-01
-2.965613834009240279e-01
-3.242554225384504663e-01
-3.473337521118970983e-01
-3.653501498400743563e-01
-3.779000295258919673e-01
-3.846623260317117987e-01
-3.854480078986108893e-01
-3.801049792749118250e-01
-3.686561649331225321e-01
-3.512000695272686213e-01
-3.279351582661892972e-01
-2.992223051378273269e-01
-2.654582931467038831e-01
-2.271903132863294927e-01
-1.850319580646444528e-01
-1.396532238742821674e-01
-9.181820605255258672e-02
-4.230536145285222760e-02
8.066959365582937469e-03
5.846260504520031653e-02
1.080568817249720481e-01
1.560450121343009422e-01
2.016336008080591990e-01
2.441014991592891925e-01
2.827616910796129646e-01
3.169860418984440931e-01
3.462506586770726646e-01
3.700588779949064988e-01
3.880452990644748246e-01
3.999079420575533672e-01
4.054207958050008442e-01
4.044960179854168447e-01
3.970780675347165278e-01
3.832560231071671653e-01
3.631907305697156252e-01
3.371163737620057055e-01
3.054042303370094191e-01
2.684554484041891120e-01
2.267966473333924149e-01
1.810184070265595802e-01
1.317645013756300054e-01
7.978082634609362511e-02
2.583269599443102291e-02
-2.924638959780832131e-02
-8.458729942579955308e-02
-1.393091844514856015e-01
-1.925084257991795389e-01
-2.432824167599654808e-01
-2.907625758284486661e-01
-3.340989070338320488e-01
-3.724900049556909565e-01
-4.052339616854874205e-01
-4.316576201005081215e-01
-4.512446735915326412e-01
-4.635660708608707603e-01
-4.682930281278021578e-01
-4.653070689735990806e-01
-4.545387977691096593e-01
-4.361385388187597467e-01
-4.103820996689400147e-01
-3.776453089283099418e-01
-3.385189469051313460e-01
-2.936371028271500538e-01
-2.437869936440831276e-01
-1.898456473061529981e-01
-1.327285691457212313e-01
-7.343516392872936893e-02
-1.297579243491334133e-02
4.764434138296030907e-02
1.074232872901278169e-01
1.653961942205609548e-01
2.206839939873725120e-01
2.724314175341410182e-01
3.199120592847011224e-01
3.624796389096855420e-01
3.995582842084806074e-01
4.307372490110332741e-01
4.556425812415562104e-01
4.740456464909669210e-01
4.858106737943299613e-01
4.908603754995107815e-01
4.892575880028555702e-01
4.810947151202082939e-01
4.665643267729094879e-01
4.459248179186038330e-01
4.194705705527128625e-01
3.875842808634086811e-01
3.506674321130773819e-01
3.091834416981985578e-01
2.636375910045670734e-01
2.145587922932683522e-01
1.625356628553596972e-01
1.081698533810625529e-01
5.210681085566887250e-02
-4.977575180033971813e-03
-6.239305305138972968e-02
-1.194123210538079322e-01
-1.753011457949635032e-01
-2.293151920601145810e-01
-2.807029207105025681e-01
-3.287228196072066178e-01
-3.726616774634738949e-01
-4.118160506095241979e-01
-4.455507996833086848e-01
-4.732810301296835886e-01
-4.944716342331568759e-01
-5.087268965311440017e-01
-5.156867056437136609e-01
-5.151479368978231221e-01
-5.070261759889866937e-01
-4.913139147801287576e-01
-4.682224096973116589e-01
-4.380147315677211939e-01
-4.011296287345221812e-01
-3.581424383932502176e-01
-3.096896185537222346e-01
-2.565831521745726151e-01
-1.996736976705870137e-01
-1.398962142976987733e-01
-7.825305175398741819e-02
-1.575403210808323795e-02
4.657342896564504314e-02
1.077017153612960798e-01
1.666570517258882667e-01
2.225099333800099333e-01
2.743740280926822983e-01
3.214989956088988299e-01
3.631701175221590527e-01
3.988119802669716218e-01
4.279669356458215557e-01
4.502387139519382631e-01
4.654244313201676420e-01
4.733696244140226939e-01
4.740633828384873127e-01
4.676195780988877115e-01
4.542033810227351642e-01
4.341431318187495281e-01
4.078077083933552838e-01
3.756656512931281777e-01
3.382745766884119321e-01
2.962217947092439241e-01
2.501895053902978283e-01
2.008832524435104627e-01
1.490514564088016858e-01
9.548194099957835190e-02
4.096886222915842313e-02
-1.367566738035062152e-02
-6.763624803886789105e-02
-1.201152094615228483e-01
-1.703316341184178129e-01
-2.175233230458633038e-01
-2.609968602953752770e-01
-3.000789994096235702e-01
-3.341794950448213064e-01
-3.627887411777529492e-01
-3.854394941335635427e-01
-4.018179885766673398e-01
-4.116538243685951559e-01
-4.148063115699161529e-01
-4.112643318363061740e-01
-4.010685176342856373e-01
-3.844467563597077642e-01
-3.616794215075113117e-01
-3.331670485966181650e-01
-2.994335903150366907e-01
-2.610390032408578809e-01
-2.186705609141583184e-01
-1.730507506394405315e-01
-1.249494160650394536e-01
-7.518641124736874515e-02
-2.458445399936935727e-02
2.603170457148876182e-02
7.583824878684622406e-02
1.240511752768111986e-01
1.699297101927093601e-01
2.127583078004438577e-01
2.519244549432809732e-01
2.868475483268598247e-01
3.170358943297731935e-01
3.420970634540800304e-01
3.616745978625725555e-01
3.755539218009498748e-01
3.835645002346074195e-01
3.856298981847057217e-01
3.817817040921680505e-01
3.720847166849364229e-01
3.567336256694397245e-01
3.359641563969464340e-01
3.100877428879116882e-01
2.795051830881830623e-01
2.446418742157697723e-01
2.060189238113909471e-01
1.641882553014138990e-01
1.197496720769254813e-01
7.336108847933400789e-02
2.569270129839669459e-02
-2.254065665324132828e-02
-7.060988839577192477e-02
-1.177816230333448289e-01
-1.633171616678564808e-01
-2.064852762846863810e-01
-2.465957131329467034e-01
-2.829731914116018210e-01
-3.150020764555721553e-01
-3.421432929528113176e-01
-3.638893183901312778e-01
-3.798764686054225126e-01
-3.897923771640641188e-01
-3.934373548980866220e-01
-3.907604232327798188e-01
-3.817551181989172759e-01
-3.666073031120361536e-01
-3.455722795449734375e-01
-3.190132462522848322e-01
-2.874398181021079468e-01
-2.513940977556446410e-01
-2.115457474155297835e-01
-1.686110064751250026e-01
-1.233424483077419365e-01
-7.654330833130656986e-02
-2.901823862428673517e-02
1.844216735203235702e-02
6.505345901923804963e-02
1.100774546870814524e-01
1.528424303905777382e-01
1.927008742345965031e-01
2.291231584641063024e-01
2.616261415973945570e-01
2.898054151794188793e-01
3.133727917971171895e-01
3.320691953576503930e-01
3.457617699015175794e-01
3.543684228982938444e-01
3.578690676223709177e-01
3.563377058364730621e-01
3.498686206418869515e-01
3.386380262444933509e-01
3.228559546467716368e-01
3.027679606115060151e-01
2.786750151440947065e-01
2.508901755867022909e-01
2.197761129119097379e-01
1.857166314515093508e-01
1.491212459690564873e-01
1.104407392669289889e-01
7.013566272045421157e-02
2.870922155723910907e-02
-1.331673714668515918e-02
-5.540159743179785129e-02
-9.697377738878330822e-02
-1.374572704260697831e-01
-1.762649938942162098e-01
-2.128051275753128635e-01
-2.465000919123264689e-01
-2.767966180391139286e-01
-3.031534088454609366e-01
-3.251018220235452061e-01
-3.422072129627417025e-01
-3.540999443926737267e-01
-3.605241201058063116e-01
-3.612551107089687075e-01
-3.562230243337941582e-01
-3.454318564716015172e-01
-3.289757487546091097e-01
-3.071108543283994630e-01
-2.801292165460378403e-01
-2.484759985690961903e-01
-2.126712721376304294e-01
-1.732946414396230317e-01
-1.310354658281830953e-01
-8.660142594447431397e-02
-4.075372057908611262e-02
5.719736588992885284e-03
5.203598665995107231e-02
9.742193385290146002e-02
1.411131893965115458e-01
1.824114587919621888e-01
2.206529068407859784e-01
2.552285846499672273e-01
2.856371593325122693e-01
3.114042047163719240e-01
3.321844732352960960e-01
3.477016752447855685e-01
3.577476754357074018e-01
3.622513898700715496e-01
3.611717628802522118e-01
3.545932839153738136e-01
3.426692992322393216e-01
3.256073930886127510e-01
3.037270792247428464e-01
2.773707759929482375e-01
2.469668560696752779e-01
2.129921517968199618e-01
1.759541788232591164e-01
1.364253667104136925e-01
9.499012428830533317e-02
5.226856510312237469e-02
8.901466446126118925e-03
-3.446694981998146834e-02
-7.718537780473944121e-02
-1.186040306792911225e-01
-1.580989290015624160e-01
-1.950615732292962368e-01
-2.289120672452860661e-01
-2.591354283976017303e-01
-2.852342405426872007e-01
-3.068036653991372820e-01
-3.234957694714249987e-01
-3.350187363882864977e-01
-3.412110039848767484e-01
-3.419416353342618065e-01
-3.372135498569209799e-01
-3.271142198394444978e-01
-3.117934448649208323e-01
-2.915491310883522869e-01
-2.667109913367465279e-01
-2.377230663593470905e-01
-2.051036276147377435e-01
-1.694076362603485764e-01
-1.312787315095025331e-01
-9.137683366456858525e-02
-5.039394039293376010e-02
-9.043433608364043197e-03
3.196827440872290760e-02
7.195375747501783770e-02
1.102332714551136073e-01
1.461860987061557315e-01
1.792321029687711231e-01
2.088310876472818656e-01
2.345469882097853120e-01
2.559689844095757727e-01
2.727932827201940968e-01
2.847917186491468744e-01
2.917856601221568424e-01
2.937279971691348912e-01
2.906017367381796279e-01
2.824964650640563457e-01
2.695792086892329631e-01
2.520585297495853694e-01
2.302555826501481717e-01
2.045167203561009117e-01
1.752659012182463116e-01
1.429850667773054640e-01
1.081813202173992627e-01
7.143113585927568510e-02
3.332577889667490828e-02
-5.510616142802481077e-03
-4.442866555966767939e-02
-8.277711840167362167e-02
-1.199010476994628871e-01
-1.551469048622382552e-01
-1.878933140586617201e-01
-2.175443283090239821e-01
-2.435326127201473123e-01
-2.653775679452237135e-01
-2.826217780921930767e-01
-2.949116491459289890e-01
-3.019779461319510583e-01
-3.036040979841982401e-01
-2.997345376774449011e-01
-2.903538290022348312e-01
-2.755812219662829854e-01
-2.556484916844013466e-01
-2.308380905590176890e-01
-2.015887102427932343e-01
-1.683764351500154632e-01
-1.317683259018138098e-01
-9.240959555225020106e-02
-5.096598911755137462e-02
-8.164689475838017574e-03
3.525403303205450201e-02
7.855020347486592336e-02
1.209841089312495843e-01
1.618322559685581585e-01
2.004282943929732719e-01
2.361223700163828099e-01
2.683407288493048215e-01
2.965787342155981610e-01
3.203694226015712521e-01
3.393737907294382961e-01
3.532869712948283336e-01
3.619068386563537576e-01
3.651272128803374484e-01
3.628810970733392094e-01
3.552348948183248756e-01
3.422903627245336700e-01
3.242355140145337100e-01
3.013411841792279500e-01
2.739062511544189116e-01
2.423253997235671198e-01
2.070188840392868379e-01
1.684596166273655271e-01
1.271724971089220613e-01
8.369729610840478951e-02
3.862449673993205435e-02
-7.441876101545535915e-03
-5.387775637465883061e-02
-1.000387346580429992e-01
-1.452792128746599742e-01
-1.889524345460443788e-01
-2.304122833801065529e-01
-2.690360120071810246e-01
-3.042252631226891602e-01
-3.354003237969505058e-01
-3.620561978154949179e-01
-3.837109605843556093e-01
-3.999648594417409830e-01
-4.105063225428418061e-01
-4.150633821078828500e-01
-4.135195281734986295e-01
-4.058054115771578263e-01
-3.919715910214235932e-01
-3.722009307135686895e-01
-3.467202417054532915e-01
-3.159253112818328213e-01
-2.802630789296130520e-01
-2.402710023351845026e-01
-1.965892335314029793e-01
-1.498797762204677753e-01
-1.008812692476038775e-01
-5.035506103335005146e-02
9.309007587781498172e-04
5.220097313038271625e-02
1.026894697587538985e-01
1.516811447294162118e-01
1.984778905240088820e-01
2.424423233289862423e-01
2.830099008810801897e-01
3.196426645397379973e-01
3.519143364244621819e-01
3.794356285145912278e-01
4.018890541328963839e-01
4.190456864831041406e-01
4.307010071597993095e-01
4.367485606023526756e-01
4.371149716593458190e-01
4.317799257162177606e-01
4.207904010993261390e-01
4.042116538541155046e-01
3.821834907138016435e-01
3.548717717529488169e-01
3.224907821441070355e-01
2.853179629303608800e-01
2.436509735122874554e-01
1.978757105337097255e-01
1.484098706024076786e-01
9.573367743471457303e-02
4.041121651861925151e-02
-1.696952780990453047e-02
-7.571771865498519438e-02
-1.351049233179279496e-01
-1.943509842100494267e-01
-2.526044183639291063e-01
-3.090017981801064795e-01
-3.626399846155999307e-01
-4.126017035416634227e-01
-4.579876478300498044e-01
-4.979240456311821994e-01
-5.315578967703543656e-01
-5.581509895454241921e-01
-5.770106726747208370e-01
-5.875627893663247781e-01
-5.894060960725341358e-01
-5.821946606379573286e-01
-5.658447983824236305e-01
-5.403777622369040357e-01
-5.059832562979171833e-01
-4.631036902187967708e-01
-4.122426357017690557e-01
-3.541664766457433000e-01
-2.897487460667867998e-01
-2.199751634395797351e-01
-1.460043972793777511e-01
-6.902370410365452069e-02
9.686890404793618847e-03
8.880922205767996513e-02
1.670355676412799695e-01
2.430749984784830731e-01
3.156552200971399214e-01
3.836233639469420753e-01
4.458789461350530225e-01
5.014308446642643524e-01
5.494665762325938729e-01
5.892228810457250665e-01
6.201722258251771702e-01
6.418922338742254485e-01
6.540966192318530270e-01
6.567275125830236426e-01
6.497795906632097829e-01
6.334758538534370764e-01
6.081437462035713670e-01
5.742173582779537266e-01
5.323147271232696598e-01
4.830916982587779573e-01
4.273544638841937360e-01
3.659797937359780540e-01
2.998988116301075646e-01
2.301389030318191642e-01
1.577431924971911537e-01
8.380104454193676444e-02
9.423935893745960524e-03
-6.428234801560572809e-02
-1.362227287855314328e-01
-2.053117306400044084e-01
-2.705338551909807210e-01
-3.309087674230070109e-01
-3.855230838121012082e-01
-4.335895293006900575e-01
-4.743557597889594968e-01
-5.072487277943322770e-01
-5.317874831294496785e-01
-5.476034905280924292e-01
-5.545456312932534049e-01
-5.525140447009746492e-01
-5.416417321215925007e-01
-5.221844508295743204e-01
-4.945102120986121230e-01
-4.592098923875255201e-01
-4.169200254604176759e-01
-3.684526490890790984e-01
-3.147147701541329612e-01
-2.566675278072704236e-01
-1.953819165854039364e-01
-1.319451368573388850e-01
-6.746946692343214202e-02
-3.080947147539869757e-03
6.012114042989302742e-02
1.210947289733587118e-01
1.788172219298631016e-01
2.323863516340928803e-01
2.809689993092753246e-01
3.238121012034532731e-01
3.603361941030479021e-01
3.900026610468658728e-01
4.124563450895793459e-01
4.274503500660531974e-01
4.348258110285861955e-01
4.346194283252721169e-01
4.269101851294561101e-01
4.119421678092337613e-01
3.900596207859205466e-01
3.616729315028197611e-01
3.273430762411793093e-01
2.876618301116194987e-01
2.433255894591730695e-01
1.950959971460390074e-01
1.437658836748027247e-01
9.020046946292580026e-02
3.527742607686665255e-02
-2.010449134871529833e-02
-7.503305454188835544e-02
-1.286082558211391336e-01
-1.799608238739733024e-01
-2.282325837099019317e-01
-2.726423750882313590e-01
-3.124599348409535793e-01
-3.470107770226291688e-01
-3.757601848616450302e-01
-3.982081389477390987e-01
-4.140136551189643743e-01
-4.229437521570513780e-01
-4.248458555308304296e-01
-4.197731420542132330e-01
-4.078256471802910177e-01
-3.892782576933948024e-01
-3.645279369912488021e-01
-3.340367444371177275e-01
-2.984362605413227731e-01
-2.583932309361653967e-01
-2.146655107375233240e-01
-1.680763444932721340e-01
-1.194601070080076044e-01
-6.967826515237099394e-02
-1.959377852223634364e-02
2.997536429688504866e-02
7.824440601088922254e-02
1.244699402188735871e-01
1.680254315947058708e-01
2.083137088062959053e-01
2.448613926525537721e-01
2.772891102092599480e-01
3.052703599111840638e-01
3.286287820396351922e-01
3.472223656250884583e-01
3.610098141218303081e-01
3.700284702206217968e-01
3.743449336598862476e-01
3.741090999045617038e-01
3.694889530352400420e-01
3.606872604219560907e-01
3.479347162385352799e-01
3.314677923992233044e-01
3.115387455959469087e-01
2.884032446917469406e-01
2.623219304727595347e-01
2.335595494679865713e-01
2.023849836367654087e-01
1.690802142373186712e-01
1.339311810821521009e-01
9.724628994427761408e-02
5.935302096152597628e-02
2.059230779262419264e-02
-1.865162449786166021e-02
-5.798346460192922019e-02
-9.697186161809902283e-02
-1.351540033602868784e-01
-1.720567354876914590e-01
-2.071746087099440581e-01
-2.399952643192700408e-01
-2.700083880185809027e-01
-2.967055011977705603e-01
-3.195932211929848332e-01
-3.382321314493193509e-01
-3.521990646314958062e-01
-3.611536638069275940e-01
-3.648320004902086966e-01
-3.630155967714217558e-01
-3.556438303978381454e-01
-3.426990238919508935e-01
-3.242972431371443642e-01
-3.006814705934695575e-01
-2.721447322244041622e-01
-2.391523836072531051e-01
-2.022153316615394880e-01
-1.619398992030071094e-01
-1.190255072063711173e-01
-7.419220660462899630e-02
-2.822626551531392039e-02
1.806994718060962735e-02
6.389987463222895903e-02
1.084727906901484518e-01
1.510169030532994561e-01
1.908366193179253378e-01
2.272594365658997528e-01
2.597019487964593587e-01
2.876726527568705394e-01
3.107202857958387687e-01
3.285452946701481469e-01
3.408922894910730861e-01
3.476142134920435223e-01
3.486789051001470963e-01
3.440925008178243316e-01
3.340035983361707705e-01
3.186025781377339605e-01
2.981626446997611701e-01
2.730473204471663973e-01
2.436456016733092866e-01
2.104403666422919872e-01
1.739423998260519744e-01
1.347071428134353765e-01
9.334010833437206278e-02
5.045734218543728583e-02
6.711430575456922565e-03
-3.723434227189794526e-02
-8.071323366999648419e-02
-1.230545147808887185e-01
-1.635934962483444888e-01
-2.016954660187062764e-01
-2.367361081929786892e-01
-2.681368981696836684e-01
-2.953735970052637771e-01
-3.179474044966010271e-01
-3.354697441094212085e-01
-3.475888594577941637e-01
-3.540481318900298713e-01
-3.547069139775598789e-01
-3.494645151624642399e-01
-3.383884084724572694e-01
-3.216026338564414999e-01
-2.993398255820665099e-01
-2.719687308581955065e-01
-2.398943584115005301e-01
-2.036675479641004149e-01
-1.638887327630542956e-01
-1.212225866869292290e-01
-7.641657023796724624e-02
-3.023151539181986869e-02
1.652868721008505376e-02
6.304585485880621898e-02
1.085141635368622320e-01
1.521441917528675858e-01
1.931615488026788841e-01
2.308701058983079757e-01
2.646028780948319614e-01
2.937701718258328709e-01
3.178876594550402723e-01
3.365056454385004781e-01
3.493318808116465113e-01
3.561331617512538683e-01
3.567813858609593658e-01
3.512957690020196422e-01
3.397351452648814107e-01
3.223302701473496068e-01
2.993777018688513758e-01
2.712665816563175070e-01
2.385194803822683340e-01
2.016887684097176670e-01
1.614474094314529429e-01
1.185154098247144239e-01
7.365518781178258256e-02
2.769197178871828091e-02
-1.854212444249028757e-02
-6.420345688936979212e-02
-1.084443607336299797e-01
-1.504482055052749345e-01
-1.894457674369832145e-01
-2.246890729567526113e-01
-2.555447580393394591e-01
-2.814276818436888816e-01
-3.018465431731019444e-01
-3.164572551219840268e-01
-3.249564704744959398e-01
-3.272321006202707494e-01
-3.232540282365363726e-01
-3.131013041320520052e-01
-2.970290095929254415e-01
-2.753316005000875921e-01
-2.484694645448791706e-01
-2.169757176378168673e-01
-1.814484048919728920e-01
-1.425931043967648693e-01
-1.011327010341873112e-01
-5.784258849101135691e-02
-1.352150161762931749e-02
3.103853305562896334e-02
7.505715911584145972e-02
1.177641018444902099e-01
1.584570798636546207e-01
1.964657301113310051e-01
2.311778161938075060e-01
2.620832370881990836e-01
2.886983926408042689e-01
3.106665033641919371e-01
3.276915551000911808e-01
3.395462998744250283e-01
3.461275701503184199e-01
3.473594800547006867e-01
3.432817724448009034e-01
3.339910565716628921e-01
3.196341895614657203e-01
3.004511480574321158e-01
2.767006378817814527e-01
2.487134438900734934e-01
2.168567823072924394e-01
1.815247085014539130e-01
1.431623533641786794e-01
1.022245591729014913e-01
5.920043035448254581e-02
1.459687180889064628e-02
-3.106874000270551384e-02
-7.725859251763222968e-02
-1.234316656274078161e-01
-1.690396421433706386e-01
-2.135303433804208173e-01
-2.563551046215079010e-01
-2.969724991718858398e-01
-3.348446497196717053e-01
-3.694587659888970421e-01
-4.003159562616642742e-01
-4.269411033279121304e-01
-4.489087180481438621e-01
-4.658071594477841137e-01
-4.772988005909842291e-01
-4.830880477423590280e-01
-4.829284155827091030e-01
-4.766786288443451425e-01
-4.642230180373261850e-01
-4.455660167181771381e-01
-4.207821182579347674e-01
-3.900088587091383729e-01
-3.535223517829403361e-01
-3.116294498719304196e-01
-2.647631791100073517e-01
-2.134322068494391988e-01
-1.581976335322499150e-01
-9.973863243540959100e-02
-3.875815760240897134e-02
2.396152192723499663e-02
8.758927810577143980e-02
1.512751062214950926e-01
2.141260188034264100e-01
2.752435679082682052e-01
3.337378741722563658e-01
3.887245648470410986e-01
4.393465616217768210e-01
4.848131474370867000e-01
5.243527647582408857e-01
5.573025852762857335e-01
5.830707701360330342e-01
6.011344366142193918e-01
6.111410243737124270e-01
6.127790423036479917e-01
6.059173179913481810e-01
5.905456860300721811e-01
5.667415545194092186e-01
5.348035543932947444e-01
4.950802396269236016e-01
4.481055224516261593e-01
3.945412028335864019e-01
3.351194642618362529e-01
2.707538413959487134e-01
2.023958451070402287e-01
1.311031148401291535e-01
5.800856506803386825e-02
-1.573633308892985472e-02
-8.893336509010429936e-02
-1.603790077620440568e-01
-2.289066963613916039e-01
-2.933768739648423551e-01
-3.526987502806728236e-01
-4.059184269955188329e-01
-4.521187618325527846e-01
-4.905639121841184336e-01
-5.206541106382612805e-01
-5.418860100357776322e-01
-5.540293392353833335e-01
-5.569193818845465938e-01
-5.506279695941787011e-01
-5.354094767748849293e-01
-5.116091847461219366e-01
-4.798331314166628392e-01
-4.407464385918986594e-01
-3.951702792932175745e-01
-3.440496486588564551e-01
-2.883650201712331107e-01
-2.291969895683493297e-01
-1.676456439366224016e-01
-1.048112168787345144e-01
-4.179405310926276318e-02
2.033270356156002823e-02
8.058354458428751421e-02
1.379974395343642746e-01
1.917307155815738406e-01
2.410381714022902244e-01
2.852317412767885196e-01
3.238031762906048439e-01
3.562894108328799048e-01
3.823679105406546652e-01
4.018373842202791479e-01
4.145482281316934525e-01
4.205145648757115939e-01
4.197912002428814127e-01
4.125375422656932245e-01
3.990057917295505296e-01
3.794823813383824129e-01
3.543636060422357126e-01
3.240733830691814865e-01
2.891004444298020948e-01
2.499926417223996833e-01
2.073178782135645104e-01
1.617094676568192335e-01
1.138172748577348931e-01
6.432409949759657075e-02
1.394362944282523387e-02
-3.660440448785640122e-02
-8.658196059485750995e-02
-1.352472460584389635e-01
-1.818707479891701340e-01
-2.257347950455558250e-01
-2.661380639659366443e-01
-3.024410790867417820e-01
-3.340230288363792988e-01
-3.603445573497378041e-01
-3.809470707381409360e-01
-3.954153256396492622e-01
-4.034946345117302879e-01
-4.049764662335132437e-01
-3.997897112066154945e-01
-3.880033516134304139e-01
-3.697407576836694854e-01
-3.453251086228346090e-01
-3.151363977134617467e-01
-2.796780075995607406e-01
-2.395826539333468785e-01
-1.955179031157590341e-01
-1.482746283235465423e-01
-9.867813017248194818e-02
-4.758975771200679716e-02
4.090289936689375794e-03
5.546531350798432347e-02
1.056626492574399834e-01
1.538185138767143023e-01
1.991312082795967109e-01
2.408678311379396364e-01
2.783293351263705917e-01
3.109551841659999871e-01
3.382281556103363673e-01
3.597409291991262581e-01
3.752114073206861411e-01
3.843997324442778862e-01
3.872333947922646513e-01
3.836925914906870738e-01
3.738616831446247568e-01
3.579470636240743575e-01
3.361902237046975328e-01
3.089699758460291990e-01
2.767091732603214060e-01
2.399043617920037785e-01
1.991408592711921277e-01
1.550258138532113472e-01
1.082497403229574079e-01
5.953025715978999682e-02
9.616841276048559983e-03
-4.070157200813358939e-02
-9.063189262196019724e-02
-1.393721751407437925e-01
-1.861182653032737166e-01
-2.300906685764979032e-01
-2.705413107512481541e-01
-3.067411927097628555e-01
-3.380528850721175593e-01
-3.638718718693609855e-01
-3.836840488041839969e-01
-3.970937488576776198e-01
-4.037468306980822597e-01
-4.034752162363011707e-01
-3.961780838129844717e-01
-3.818833294490970309e-01
-3.607922287022267693e-01
-3.331533497477421335e-01
-2.994163848538166639e-01
-2.601048535327203926e-01
-2.158431224280115135e-01
-1.673952186149119670e-01
-1.155530295293966392e-01
-6.121272716551322268e-02
-5.309137817933212711e-03
5.120510792368089537e-02
1.073520790863734808e-01
1.621595743925847710e-01
2.147023752768068006e-01
2.640743440191385405e-01
3.094365179962981216e-01
3.500484042273998564e-01
3.852025839954471564e-01
4.143514261549707256e-01
4.370115942895410610e-01
4.528071394150934292e-01
4.615239194970791048e-01
4.629894041835921348e-01
4.572157236075503062e-01
4.442909445163071847e-01
4.244011853846066940e-01
3.978844514504307206e-01
3.651130379568055528e-01
3.266028004664672801e-01
2.829301102112127264e-01
2.347344499954313324e-01
1.827557945273960427e-01
1.277534037647657938e-01
7.055857555208203125e-02
1.203362718500819786e-02
-4.694327236509031331e-02
-1.054680927912972910e-01
-1.626373116680023267e-01
-2.175685213327910594e-01
-2.693891482083599076e-01
-3.172675709240154185e-01
-3.604413630966528670e-01
-3.981716999802060730e-01
-4.298466191434627270e-01
-4.549128620591181282e-01
-4.729115467770358405e-01
-4.835475749345722329e-01
-4.865683553815379203e-01
-4.819237896211058803e-01
-4.696596755704173787e-01
-4.499336189371262451e-01
-4.231025949657366003e-01
-3.895670538438253949e-01
-3.499102010169078958e-01
-3.048039526256242637e-01
-2.549900951505167379e-01
-2.013382490043856277e-01
-1.447391946748704250e-01
-8.614508861061762057e-02
-2.653847245655005516e-02
3.310477196756837770e-02
9.182182582493347844e-02
1.486605417945740526e-01
2.027481821542339580e-01
2.532531026436384836e-01
2.994093398313066867e-01
3.405787200274528748e-01
3.761549817382865424e-01
4.056847090586177540e-01
4.287954593534362702e-01
4.451951152517210630e-01
4.547518561063388365e-01
4.573690047934587111e-01
4.530971971317345748e-01
4.420672600973935551e-01
4.244750491414973625e-01
4.006496463836878852e-01
3.709479203080062182e-01
3.358345731752311325e-01
2.958346619655586318e-01
2.515157094214689470e-01
2.035345587762888153e-01
1.525656250213546783e-01
9.934387976915579066e-02
4.463911899075981293e-02
-1.076353389251322873e-02
-6.604613391497689279e-02
-1.203869744603773273e-01
-1.729706514826394592e-01
-2.229855915801532418e-01
-2.696450115235610179e-01
-3.122182267198497230e-01
-3.499919414039392995e-01
-3.823565176678281885e-01
-4.087655910919302249e-01
-4.287452173552220303e-01
-4.419885801139947779e-01
-4.482295718217417235e-01
-4.473902686694530839e-01
-4.395107360302092925e-01
-4.247233925484424910e-01
-4.033787025777448854e-01
-3.758740934481940021e-01
-3.427785314586687671e-01
-3.047715119773797277e-01
-2.625856271793074459e-01
-2.170807218971836372e-01
-1.691387489616230644e-01
-1.196742018588787260e-01
-6.962306402141682504e-02
-1.989814147028345914e-02
2.864804876479317905e-02
7.518231719000367796e-02
1.189945172716903588e-01
1.594584427894613077e-01
1.960203822324463885e-01
2.283136323761801867e-01
2.560144389893453942e-01
2.789616181710680154e-01
2.971079756234460412e-01
3.104645718620010486e-01
3.191945616421800747e-01
3.234923764955097703e-01
3.236292368035400546e-01
3.199317141869872927e-01
3.127363858168232813e-01
3.024044742307145928e-01
2.892998640642114871e-01
2.737634118029487196e-01
2.561188864525300035e-01
2.366709845560331926e-01
2.156703702036667503e-01
1.933551136351421285e-01
1.699208793352663949e-01
1.455309970035949529e-01
1.203394544471244332e-01
9.447477687394675860e-02
6.806136526287240307e-02
4.123295881164540377e-02
1.413062565387945835e-02
-1.309021758208006592e-02
-4.023055811704234763e-02
-6.708018561934547819e-02
-9.338344595824676908e-02
-1.188480393317337125e-01
-1.431669906714860829e-01
-1.659899929767467697e-01
-1.869579133075396360e-01
-2.057076687517023217e-01
-2.218729048622194444e-01
-2.351016997467485492e-01
-2.450898023877836618e-01
-2.515471035197938132e-01
-2.542603368232081440e-01
-2.530817574802045611e-01
-2.479047315088007686e-01
-2.387547196985857489e-01
-2.256908684916517638e-01
-2.088779362165394948e-01
-1.885732728339881148e-01
-1.650699482068892499e-01
-1.387749120572406014e-01
-1.101226996093128963e-01
-7.960012808699912235e-02
-4.774114435012782875e-02
-1.508592452653878535e-02
1.780896651417507304e-02
5.038442051908420538e-02
8.210451799178297705e-02
1.124548329317088813e-01
1.409392187891126413e-01
1.671265935923288426e-01
1.906039383688584721e-01
2.110198488932940597e-01
2.280816412810791061e-01
2.415223060117925868e-01
2.511645805008919652e-01
2.568556607684441273e-01
2.585067901939043233e-01
2.560919715861067480e-01
2.496089663250039559e-01
2.391394290953610113e-01
2.247882892389843623e-01
2.067177203501753269e-01
1.851475702977100624e-01
1.603189367498620010e-01
1.325496136628600274e-01
1.021790998696538860e-01
6.959726519260936439e-02
3.524615941847841771e-02
-4.158267082509659041e-04
-3.687135854617201725e-02
-7.358656220728265751e-02
-1.100031157581350394e-01
-1.455366572084155763e-01
-1.796019261451247684e-01
-2.116152643166931968e-01
-2.409946690048305196e-01
-2.671913259934261542e-01
-2.896927680685646433e-01
-3.080101587834355170e-01
-3.217529462164001042e-01
-3.305616341109281486e-01
-3.341729486005211580e-01
-3.324319684139093178e-01
-3.252258579058039389e-01
-3.126109544262385409e-01
-2.946965942473109279e-01
-2.717065337942373704e-01
-2.439970097575123176e-01
-2.119618281962246109e-01
-1.761399801011833410e-01
-1.371160233753767055e-01
-9.553736614564092844e-02
-5.212623865355237029e-02
-7.615755997721324055e-03
3.722858954851648861e-02
8.163185920685170349e-02
1.248393358039704693e-01
1.661210644043798479e-01
2.047651259854515460e-01
2.401444179567639725e-01
2.716611492592964083e-01
2.987964035768549409e-01
3.211305587276294671e-01
3.382775782671859632e-01
3.499959376153487511e-01
3.560942864304824096e-01
3.564764387425233272e-01
3.511693925702358277e-01
3.402345544195947147e-01
3.238769128317886548e-01
3.023522760519649077e-01
2.759952665654396009e-01
2.452454078547461058e-01
2.105673802052935029e-01
1.725270460456822252e-01
1.317267839160812526e-01
8.881142252154625161e-02
4.448387931654365635e-02
-5.436174986643872720e-04
-4.552895001892595661e-02
-8.971937393550240281e-02
-1.323717731573765821e-01
-1.727566170050030825e-01
-2.101563484205924148e-01
-2.439195825953762720e-01
-2.734210390335342078e-01
-2.981047291464027360e-01
-3.175150165698240601e-01
-3.312294104068002065e-01
-3.389833197887189287e-01
-3.405750033537823795e-01
-3.359112932678531283e-01
-3.250606876247417731e-01
-3.081339103493618836e-01
-2.854292222478999608e-01
-2.573210287918771266e-01
-2.242795405493458738e-01
-1.869216135464620565e-01
-1.458941135420543933e-01
-1.019612518814473900e-01
-5.593577930343065358e-02
-8.661010063921375374e-03
3.897174118761496941e-02
8.606939179981540344e-02
1.317558608178748258e-01
1.751629239558244733e-01
2.154688071315959685e-01
2.519271165090279929e-01
2.838172477015364348e-01
3.105535116476472735e-01
3.316101865419446293e-01
3.465567906837526690e-01
3.551215768330357458e-01
3.570733874337113645e-01
3.523695147679374862e-01
3.410529846819173039e-01
3.232698368209723783e-01
2.993425715417041277e-01
2.696329792070837339e-01
2.346701794671950947e-01
1.950613517835943500e-01
1.514842411423239499e-01
1.047407551863517167e-01
5.565529057497292653e-02
5.129653046382250114e-03
-4.589745666561641235e-02
-9.647992779796005225e-02
-1.456585576580008701e-01
-1.924796660834553197e-01
-2.360462524647448102e-01
-2.754897008208759268e-01
-3.100074977360110506e-01
-3.389207616029613068e-01
-3.615858683975861632e-01
-3.775430263988180379e-01
-3.864261562738157685e-01
-3.879836628222620987e-01
-3.821836744345087356e-01
-3.690451754444052379e-01
-3.488140315900454258e-01
-3.218547572505931487e-01
-2.886348897435764838e-01
-2.498248453975359940e-01
-2.061349411597101777e-01
-1.584206425814857766e-01
-1.076152968007670074e-01
-5.468811295996289790e-02
-6.802454540790897619e-04
5.335957736051893940e-02
1.063943171693489953e-01
1.573936325725377727e-01
2.053703820775099331e-01
2.494284131511763092e-01
2.886981158060387131e-01
3.224570534012072276e-01
3.500666950928109644e-01
3.709795640667873373e-01
3.848439771646970375e-01
3.913537618716338984e-01
3.904043601926999729e-01
3.820092849300151250e-01
3.662778068728708702e-01
3.435302913057499685e-01
3.141323118593627450e-01
2.786240957202666957e-01
2.376510011190381966e-01
1.919237133911584903e-01
1.423003268444867353e-01
8.966718098069705045e-02
3.499318950035337772e-02
-2.070168088836868425e-02
-7.638821374963347677e-02
-1.310169967910367883e-01
-1.835401994464848641e-01
-2.329614838812608668e-01
-2.783174126739971221e-01
-3.186995415098277107e-01
-3.533328947984660240e-01
-3.814774979653583475e-01
-4.025702855819964232e-01
-4.161641587496159311e-01
-4.219101410712054467e-01
-4.197020529261098476e-01
-4.094896340517406030e-01
-3.914465096781845066e-01
-3.658971623760574055e-01
-3.332577723499512423e-01
-2.941760125669952153e-01
-2.493484513011556825e-01
-1.996215057937423820e-01
-1.459453932586656233e-01
-8.930628695633360814e-02
-3.078133856653608724e-02
2.853723100311145178e-02
8.755779009962433301e-02
1.451891689432577848e-01
2.003713768101426096e-01
2.521307430404679528e-01
2.995177274311716098e-01
3.417122206208044743e-01
3.779889929271768589e-01
4.076940697770503053e-01
4.303707932949985548e-01
4.456098235840674215e-01
4.531802483915844948e-01
4.529856350926064201e-01
4.450046178108234551e-01
4.294273158953055836e-01
4.064929401409039245e-01
3.765968156767860453e-01
3.402552561437145462e-01
2.980398679196226142e-01
2.506807485831034632e-01
1.989438989171173344e-01
1.436883050342180612e-01
8.584705221920099771e-02
2.637485836806782030e-02
-3.371215384156030226e-02
-9.338603578615013723e-02
-1.516218387272096069e-01
-2.073970789593850006e-01
-2.597132734709947099e-01
-3.076493954403511366e-01
-3.503070115170035526e-01
-3.869072905934625162e-01
-4.167721892709392306e-01
-4.392922207215836927e-01
-4.540764151400551452e-01
-4.607906081095895501e-01
-4.593027130906989219e-01
-4.496557354570601683e-01
-4.319766073400533868e-01
-4.066616999363995566e-01
-3.741748942518705046e-01
-3.351585765008283646e-01
-2.904141640853856177e-01
-2.407931431837309066e-01
-1.873054319393144262e-01
-1.309982886195982799e-01
-7.296046715309834063e-02
-1.431873275296183246e-02
4.381320975223454428e-02
1.003748098506948849e-01
1.543228837824303923e-01
2.047210431892793059e-01
2.507334881002595273e-01
2.915816894403678861e-01
3.266895489885094928e-01
3.555364620543277621e-01
3.777645924450548365e-01
3.931737344410403123e-01
4.016236452042694638e-01
4.031836496399960890e-01
3.979798223540599866e-01
3.862624344448576941e-01
3.684054235044688097e-01
3.448185861802420260e-01
3.160351718686211786e-01
2.826218131211851170e-01
2.451973882526498061e-01
2.044342648090220482e-01
1.610143612696533499e-01
1.156493521372144451e-01
6.905850952534350884e-02
2.195684912335640893e-02
-2.494509398825331403e-02
-7.094542694221350754e-02
-1.153785994657843678e-01
-1.575905349876856043e-01
-1.969719362868640467e-01
-2.329619730439574932e-01
-2.650232401704800123e-01
-2.927118469112653942e-01
-3.156128515648140564e-01
-3.333938289061433302e-01
-3.458141847841909033e-01
-3.526692119685013171e-01
-3.538970871964096099e-01
-3.494804644565822627e-01
-3.395043564527248092e-01
-3.241709034652449639e-01
-3.037187940406095299e-01
-2.785297524278224079e-01
-2.490302629660475775e-01
-2.157210435121765524e-01
-1.791901526836285896e-01
-1.400432908800193776e-01
-9.894810431586932575e-02
-5.659123385566772191e-02
-1.366075074941285744e-02
2.915354885677792079e-02
7.117248443876661446e-02
1.117711456522061941e-01
1.503434990667741056e-01
1.863451128354941810e-01
2.193081955583306430e-01
2.487917966080085974e-01
2.744702472105332580e-01
2.960573660634599480e-01
3.133394936673696840e-01
3.261957417363277600e-01
3.345293892697570048e-01
3.383415302070509889e-01
3.376673149947747588e-01
3.325890231760060822e-01
3.232509221568837243e-01
3.098112113830410741e-01
2.924822701354770627e-01
2.714958506773187397e-01
2.471087115376095489e-01
2.196114310078168541e-01
1.893030709350579655e-01
1.565177598430673445e-01
1.216026356240391126e-01
8.492615483712552538e-02
4.688642952334008684e-02
7.889481722653857165e-03
-3.162460898407566667e-02
-7.120287813785054765e-02
-1.103766209829258882e-01
-1.486546223059025673e-01
-1.855427904703851050e-01
-2.205400013263641157e-01
-2.531427283818586949e-01
-2.828617597060781863e-01
-3.092289763817580028e-01
-3.317880570448120681e-01
-3.501470231434733460e-01
-3.639402303813314976e-01
-3.728641994768567836e-01
-3.767095640078229057e-01
-3.752960190225496095e-01
-3.685828915332821643e-01
-3.565874131854347984e-01
-3.394153590302237955e-01
-3.173103031503949345e-01
-2.905484496265439143e-01
-2.595467917684839976e-01
-2.247818733125787893e-01
-1.867883321894809323e-01
-1.461936889370538950e-01
-1.036402715214882336e-01
-5.981574730904906656e-02
-1.542713005902313778e-02
2.882753760899550710e-02
7.226514608667856943e-02
1.142135264784307075e-01
1.540700294279501170e-01
1.912635196020092132e-01
2.252811664111384615e-01
2.557089560603904022e-01
2.821584306924390106e-01
3.043614172591033729e-01
3.221053284487440660e-01
3.352406243365291805e-01
3.437275130147605107e-01
3.475496759209636410e-01
3.467876256448995664e-01
3.415677734660332865e-01
3.320553185210270986e-01
3.184847950177166487e-01
3.011039314423470947e-01
2.802084751719918221e-01
2.561175596309570590e-01
2.291660807903037611e-01
1.997178576836018404e-01
1.681419805920470745e-01
1.348254032516919276e-01
1.001640323701070145e-01
6.455965712090240560e-02
2.842516331944042185e-02
-7.824618716525993251e-03
-4.376881497435466950e-02
-7.898345841671064460e-02
-1.130456083766225583e-01
-1.455343898649364698e-01
-1.760310690843946146e-01
-2.041339851464599175e-01
-2.294506427113621738e-01
-2.516089960551917137e-01
-2.702781976637382844e-01
-2.851397902132188911e-01
-2.959444089376105369e-01
-3.024805755083272985e-01
-3.045848921358056405e-01
-3.021933422331088415e-01
-2.952660057846372421e-01
-2.838757512159914009e-01
-2.681589142562034733e-01
-2.483076253075283124e-01
-2.246322547573816886e-01
-1.974678487711741814e-01
-1.672434346859221765e-01
-1.344423507270690044e-01
-9.957734575816271083e-02
-6.322474566904551230e-02
-2.597101806395053780e-02
1.158042584897173849e-02
4.881617626203983706e-02
8.513496873979536916e-02
1.199635047395812837e-01
1.527380236242060207e-01
1.829559073253060608e-01
2.101520092255570460e-01
2.339009758266908379e-01
2.538696071479250027e-01
2.697463616331107761e-01
2.813144648328430031e-01
2.884168123537670936e-01
2.909411868824002267e-01
2.888817301465317899e-01
2.822561628957090951e-01
2.711732539255526930e-01
2.558007200438305317e-01
2.363446009596779085e-01
2.131040426048977365e-01
1.863983157120888690e-01
1.566176078463756838e-01
1.241993183909567977e-01
8.960598201703692811e-02
5.336256148465380600e-02
1.600651915744651793e-02
-2.189183474314977673e-02
-5.973971542231681919e-02
-9.694173539648662241e-02
-1.328967650082062690e-01
-1.670048899681164933e-01
-1.986944800764522123e-01
-2.274138494765655105e-01
-2.526392901951730607e-01
-2.739224360730379559e-01
-2.908348029466323315e-01
-3.030452601593354722e-01
-3.102932032642655713e-01
-3.123707225268534393e-01
-3.092140318293588597e-01
-3.007936125746673017e-01
-2.872088117240579330e-01
-2.686549570538716014e-01
-2.453787587428346573e-01
-2.177696979707566538e-01
-1.862491697745717878e-01
-1.513291967451377285e-01
-1.135912060703081206e-01
-7.363953803309296331e-02
-3.214198261864879835e-02
1.022123348460073598e-02
5.276077945877249292e-02
9.478016175106335206e-02
1.355948218420372497e-01
1.745577449795627234e-01
2.110329334560604730e-01
2.444454184999376722e-01
2.742696612646347565e-01
3.000136362955377334e-01
3.212878283983259808e-01
3.377286074907162039e-01
3.490645908863670432e-01
3.551012187440434897e-01
3.556837077878527431e-01
3.507806763086454005e-01
3.403916087202912832e-01
3.246126723590117558e-01
3.036228249312877825e-01
2.776391836999250740e-01
2.469996036460895272e-01
2.120721741948057848e-01
1.733096026102769749e-01
1.312391003478647900e-01
8.641624889909374496e-02
3.948732952912950567e-02
-8.879162907907581920e-03
-5.796998596725451425e-02
-1.070313863703772073e-01
-1.553039172032283366e-01
-2.020127894794964130e-01
-2.463811775959013350e-01
-2.876614542148085985e-01
-3.251331717262092025e-01
-3.581033933605235475e-01
-3.859782866034211501e-01
-4.081925594312990069e-01
-4.242949152034984905e-01
-4.339431633363671215e-01
-4.368500816370306516e-01
-4.329239627610574903e-01
-4.221271085458797589e-01
-4.045734542852861271e-01
-3.805261563432497107e-01
-3.503024977759037761e-01
-3.144105899695708306e-01
-2.734104672203513386e-01
-2.279639645298813799e-01
-1.788359219085851604e-01
-1.268137164643400872e-01
-7.275873019336766279e-02
-1.755138484186882786e-02
3.792828052366292724e-02
9.280062497722874060e-02
1.462018250672234565e-01
1.973352608496777294e-01
2.454252667924591846e-01
2.897766364410907514e-01
3.297802294355912101e-01
3.648634523284778330e-01
3.945957279420430619e-01
4.185891468616596001e-01
4.365571918199448453e-01
4.483248623048376458e-01
4.537536983852518691e-01
4.528450076004477132e-01
4.456426084460270998e-01
4.322747631279217351e-01
4.129652298690877910e-01
3.879661339968227818e-01
3.576384120568225078e-01
3.223768562338185095e-01
2.826385926778591240e-01
2.389532294437419768e-01
1.918704885950681394e-01
1.420176514726860240e-01
9.004657179369132680e-02
3.664676529332397403e-02
-1.744722317689156865e-02
-7.149256996064889957e-02
-1.247183284561770300e-01
-1.763450347980127786e-01
-2.256016563019626053e-01
-2.717275310445164682e-01
-3.139753323625467663e-01
-3.516632344537278798e-01
-3.841326255266679923e-01
-4.108038243199157447e-01
-4.311969454880451580e-01
-4.448715123547282158e-01
-4.515629148957290839e-01
-4.510682813944693614e-01
-4.433171854001888845e-01
-4.284113873985327392e-01
-4.065032280934195441e-01
-3.779600177108913273e-01
-3.432254273774448805e-01
-3.028591018859629891e-01
-2.575757089600005378e-01
-2.081231950153104027e-01
-1.553772266465618390e-01
-1.002592474477003309e-01
-4.372127924664775955e-02
1.324266333367268844e-02
6.964105173708703966e-02
1.245149176209935371e-01
1.769184813453172911e-01
2.259692878652945769e-01
2.708744573501454256e-01
3.108736368086664204e-01
3.453628092427526997e-01
3.737988084773752329e-01
3.957480079284222407e-01
4.109360596846973190e-01
4.191311609617764389e-01
4.202897524347106728e-01
4.144430380269618630e-01
4.017254354957717766e-01
3.824256654573511827e-01
3.568682209226897162e-01
3.255276132985959747e-01
2.889393724691291521e-01
2.477064012353526468e-01
2.025351441530768015e-01
1.541521101192377119e-01
1.033591906778664193e-01
5.098955486743293741e-02
-2.106832603706997042e-03
-5.505353899922751232e-02
-1.069748841326819966e-01
-1.570166976734017339e-01
-2.043345425262635129e-01
-2.481262931249771653e-01
-2.876587745959278686e-01
-3.222229277054424745e-01
-3.512372592309243591e-01
-3.741772912177557808e-01
-3.906141370394840551e-01
-4.002789482395223142e-01
-4.029449343751043133e-01
-3.985840851164405563e-01
-3.872592299173870378e-01
-3.691430475926303911e-01
-3.445972119175565451e-01
-3.140245701459501992e-01
-2.780003413059857209e-01
-2.371804191712326981e-01
-1.922852621778769755e-01
-1.441493353126118149e-01
-9.362508257278545631e-02
-4.161462240333833190e-02
1.095631280982122674e-02
6.317390178141846224e-02
1.141463917293184527e-01
1.629947640845708368e-01
2.089255481675020287e-01
2.511880000852010908e-01
2.890995128756313481e-01
3.221053048838495858e-01
3.496825083681189827e-01
3.714599301337720982e-01
3.871439079729646626e-01
3.965205677099044035e-01
3.995296576245700448e-01
3.961445923872112251e-01
3.864807108966857863e-01
3.707278847218596907e-01
3.491389242636937507e-01
3.220910888745824319e-01
2.899873469278428928e-01
2.533307752332653040e-01
2.126784895212002202e-01
1.686254187644739277e-01
1.218432265853750390e-01
7.301777355439459383e-02
2.288008593243670563e-02
-2.781379618252097230e-02
-7.830247309816837364e-02
-1.278137469096568557e-01
-1.755770931930559220e-01
-2.208520721299390699e-01
-2.629155612558913280e-01
-3.010806840404297025e-01
-3.347392566187980534e-01
-3.633050019424619581e-01
-3.863095824164308745e-01
-4.033541100000204160e-01
-4.141135656372353369e-01
-4.184271038400665388e-01
-4.161723698299243934e-01
-4.073977725462202826e-01
-3.922550157084061517e-01
-3.709742420877664704e-01
-3.439640915911815755e-01
-3.116703133846094320e-01
-2.746698632390360828e-01
-2.336212493248898125e-01
-1.892199129836681648e-01
-1.422465958026039035e-01
-9.349565493933183202e-02
-4.377462846048691542e-02
6.100590920306944720e-03
5.533572943629952445e-02
1.031900714340363012e-01
1.489388747353028730e-01
1.919512993798243028e-01
2.316583291936386568e-01
2.675446426432163127e-01
2.992284457293178379e-01
3.263583378811459879e-01
3.487010143327818890e-01
3.661030840560164923e-01
3.784568905652516690e-01
3.857705084510240634e-01
3.880764545915326158e-01
3.854813694521885825e-01
3.781434682877823916e-01
3.662429716211141884e-01
3.500166581348773120e-01
3.297130061853217331e-01
3.056107939012879804e-01
2.780104833533868502e-01
2.472225232318521482e-01
2.135838429631373714e-01
1.774376014086873066e-01
1.391501829336733165e-01
9.910507008003176244e-02
5.769792148201818849e-02
1.535820479033371544e-02
-2.747651278303134270e-02
-7.033845304875045723e-02
-1.127369722298292437e-01
-1.541716594150659980e-01
-1.941148603473480394e-01
-2.320338743766831302e-01
-2.673955691475394802e-01
-2.996664843770083797e-01
-3.283270880217853405e-01
-3.529004207123403458e-01
-3.729223812545218175e-01
-3.880043913113471743e-01
-3.978183268964916586e-01
-4.020824412966024775e-01
-4.006558291016203421e-01
-3.934333944167607289e-01
-3.804448258080644352e-01
-3.618307431419622855e-01
-3.377879295672405746e-01
-3.086851220772989790e-01
-2.749324288712597930e-01
-2.370520475459580445e-01
-1.956610318829754558e-01
-1.514059177367519937e-01
-1.050221773443310580e-01
-5.726477120370747353e-02
-8.903985805505389498e-03
3.927655796101760244e-02
8.650690312325368114e-02
1.320659842692672448e-01
1.752474794756403442e-01
2.154240150088792549e-01
2.520388551432291013e-01
2.845760156687751619e-01
3.126563763957813658e-01
3.359369129476952875e-01
3.541840471933907497e-01
3.672648885862441204e-01
3.750867274584578359e-01
3.776913982610783371e-01
3.751556339232169912e-01
3.676363849988841803e-01
3.553664811833956438e-01
3.386016457652663014e-01
3.176735341192215012e-01
2.929333921153819409e-01
2.647652194759912425e-01
2.335848718075899111e-01
1.998150371822016991e-01
1.639001167523957969e-01
1.262901025851483339e-01
8.744070729129131692e-02
4.781336402543205633e-02
7.869876610955221785e-03
-3.192745547123773675e-02
-7.111640511028100020e-02
-1.092395422091486934e-01
-1.458443689051228120e-01
-1.804832858322933664e-01
-2.127283045916149862e-01
-2.421576997146577537e-01
-2.683782649402587372e-01
-2.910269438450141521e-01
-3.097580159054135751e-01
-3.242946109818272693e-01
-3.343810271757206021e-01
-3.398293758579224999e-01
-3.405254807545121665e-01
-3.363859853023670743e-01
-3.274488324796330785e-01
-3.137889760414525053e-01
-2.955693098089017257e-01
-2.730510140582956824e-01
-2.465257283628674856e-01
-2.164018789931949904e-01
-1.831234663031416909e-01
-1.471905965573381825e-01
-1.091678515261375049e-01
-6.963100255866933042e-02
-2.919223294667482732e-02
1.152572442398488994e-02
5.190953617134808074e-02
9.135697879657642129e-02
1.292781367623004052e-01
1.651405728502900461e-01
1.984311964121627525e-01
2.286932637374883281e-01
2.555384971697979846e-01
2.786022416361821907e-01
2.976190268194035538e-01
3.123566301286013203e-01
3.226463676582577711e-01
3.283989393391331668e-01
3.295472678590116167e-01
3.261147870547127514e-01
3.181559015337588892e-01
3.057758849142700464e-01
2.891453610673228591e-01
2.684524303740307150e-01
2.439567466312124733e-01
2.159431418440711514e-01
1.847373127962372574e-01
1.507189405845716923e-01
1.142818612169598513e-01
7.587853915680778383e-02
3.598253804836042125e-02
-4.903595666561975930e-03
-4.623794707131539949e-02
-8.747128198293269152e-02
-1.280282574511478200e-01
-1.673242208806979825e-01
-2.047778981227766359e-01
-2.398127557229529083e-01
-2.718603580250952834e-01
-3.003986548624787423e-01
-3.249238937130567995e-01
-3.449869926144185084e-01
-3.602174542713115213e-01
-3.702721026168154239e-01
-3.749391733218735978e-01
-3.740588763955793317e-01
-3.675644524235403554e-01
-3.555266255011854115e-01
-3.380521257411434055e-01
-3.154071182309391430e-01
-2.879219640300457739e-01
-2.560056054125213754e-01
-2.201863541337075736e-01
-1.810156139906912709e-01
-1.391313090490289839e-01
-9.520675146057722138e-02
-4.993036902581178549e-02
-4.014100969675887809e-03
4.183290312907012032e-02
8.693461459473918185e-02
1.306295455248323301e-01
1.723012357096471991e-01
2.114057002594915136e-01
2.474204526043748964e-01
2.799286820615661808e-01
3.085600282895258895e-01
3.330061521766037314e-01
3.530612504088040393e-01
3.685426905634514028e-01
3.793668508512823001e-01
3.854946769223374647e-01
3.869304314268022793e-01
3.837519497661504020e-01
3.760518641586345634e-01
3.639804673496725429e-01
3.477147388713619502e-01
3.274554126678241306e-01
3.034447003454213143e-01
2.759339162116398181e-01
2.452127941738700967e-01
2.115894231013044080e-01
1.753933053281833410e-01
1.369924611429311767e-01
9.676415324501261295e-02
5.512781464528823672e-02
1.252356870816273560e-02
-3.058817467921114142e-02
-7.370950471115068903e-02
-1.163357562479248736e-01
-1.579398423043523458e-01
-1.979834864130402827e-01
-2.359322955599227334e-01
-2.712594780592903487e-01
-3.034446998016180341e-01
-3.320164208205956258e-01
-3.565286212725910509e-01
-3.765826650470011083e-01
-3.918729938127124557e-01
-4.021189597766750001e-01
-4.071664651645100497e-01
-4.069290713085190747e-01
-4.013915728622161616e-01
-3.906822470274423642e-01
-3.749604448289715064e-01
-3.545135129690232256e-01
-3.296990161422269638e-01
-3.009202634797166764e-01
-2.686748105733008929e-01
-2.334759812713690930e-01
-1.958752584089656912e-01
-1.564455445686862012e-01
-1.157520140110072926e-01
-7.434266471318701219e-02
-3.275751244152877439e-02
8.521348494819946939e-03
4.904553356520469087e-02
8.840366427338774979e-02
1.262656398987221928e-01
1.623188936670201254e-01
1.963198215207292430e-01
2.280659950548828974e-01
2.573757369166361775e-01
2.841136036489968486e-01
3.081515490195287921e-01
3.293719327220734350e-01
3.476634717105437922e-01
3.629085215433873746e-01
3.749742187089482037e-01
3.837237978526106819e-01
3.890012129805657803e-01
3.906382509798800307e-01
3.884658197632719911e-01
3.823131546091524391e-01
3.720123232271687619e-01
3.574315212670056141e-01
3.384624955457463669e-01
3.150348805746708836e-01
2.871722367771363804e-01
2.549228360102677726e-01
2.184597722085109828e-01
1.780396452839722032e-01
1.339850343106074870e-01
8.678500234637220867e-02
3.696574405115971018e-02
-1.481196415509844488e-02
-6.779480950901461966e-02
-1.211884870238550960e-01
-1.740943559999759138e-01
-2.255952085883439207e-01
-2.747555133341859079e-01
-3.206268293404178626e-01
-3.622887713464894022e-01
-3.988987555441011468e-01
-4.296380311995113832e-01
-4.538334904077577781e-01
-4.709179985134540058e-01
-4.804123282808937523e-01
-4.820795019534844794e-01
-4.757408462006448846e-01
-4.614427278151969070e-01
-4.393998493075750300e-01
-4.099169454869597273e-01
-3.735499855320121854e-01
-3.309110182285545654e-01
-2.827680121558369120e-01
-2.300088563691230492e-01
-1.735587698021519021e-01
-1.144462268998251986e-01
-5.371963426235437655e-02
7.563976177879627727e-03
6.834076216782070112e-02
1.275694580540491785e-01
1.842795988015449860e-01
2.375208937097934569e-01
2.864480102020539043e-01
3.303009901003893800e-01
3.683751808329100985e-01
4.001354954946743092e-01
4.250894464364795011e-01
4.428916072176813934e-01
4.533195481996873943e-01
4.562115143961460451e-01
4.515942041809382079e-01
4.395410546826188924e-01
4.202636664123789445e-01
3.940924577429212317e-01
3.614082879531460013e-01
3.227512413491689935e-01
2.787008232787342998e-01
2.299374036900896368e-01
1.772305425142274848e-01
1.213796290246202947e-01
6.327848430656357603e-02
3.843469684928602081e-03
-5.597557582981754765e-02
-1.151983754406780136e-01
-1.728485090517759004e-01
-2.279676448746026374e-01
-2.796047973818680532e-01
-3.268749390322328585e-01
-3.689547034834201322e-01
-4.050652886512683959e-01
-4.345866217846183766e-01
-4.569433367173612037e-01
-4.717185376391346274e-01
-4.786476523412911410e-01
-4.775361587227294202e-01
-4.684376616697168427e-01
-4.514738382397193162e-01
-4.269430200944847043e-01
-3.953181281079766740e-01
-3.571297325545435553e-01
-3.131097713474201294e-01
-2.640444348944328001e-01
-2.108095729077619218e-01
-1.543721438831073822e-01
-9.571121353217840189e-02
-3.583909539330311367e-02
2.422487879060641891e-02
8.350087415057444451e-02
1.410503226900146345e-01
1.959658734603742236e-01
2.474653292763386303e-01
2.948042578905010203e-01
3.373519350588250476e-01
3.745997900579337569e-01
4.060842114715351725e-01
4.315134469121659766e-01
4.506469865342883074e-01
4.633507825888159015e-01
4.696083822988140200e-01
4.694371759320614124e-01
4.629810993120956342e-01
4.504223394350735932e-01
4.320080754068115203e-01
4.080592997564440605e-01
3.789166165416795740e-01
3.449941263216955711e-01
3.067288278376884003e-01
2.645978809113175845e-01
2.191253449401979192e-01
1.708488371005397188e-01
1.203589583712294103e-01
6.826325602821839422e-02
1.519792660625620198e-02
-3.816643245198755863e-02
-9.115226449726988867e-02
-1.430573057682409666e-01
-1.931717149832967440e-01
-2.407911294504604394e-01
-2.852179554640345005e-01
-3.257657734614984868e-01
-3.618039210790771065e-01
-3.927216753757909462e-01
-4.179795396395514229e-01
-4.371284608276465034e-01
-4.497560577463549647e-01
-4.556150488260480302e-01
-4.545164134859496774e-01
-4.463982041252134714e-01
-4.313643886149965412e-01
-4.095678029426507716e-01
-3.813697847452455214e-01
-3.472060086903710485e-01
-3.076228871678184373e-01
-2.633154925089410403e-01
-2.150095191392618066e-01
-1.635460005889889379e-01
-1.098073380934823234e-01
-5.469638578503460691e-02
8.558118855961013849e-04
5.592442105093028276e-02
1.096334782263675700e-01
1.611263328802435280e-01
2.096151903887644996e-01
2.544100679456219871e-01
2.948532681866589122e-01
3.304386622508350135e-01
3.607191440717647524e-01
3.853425370724143928e-01
4.040952800918490295e-01
4.167976057204896834e-01
4.234135910977739337e-01
4.239644973536537131e-01
4.185398414272761269e-01
4.073315970623569982e-01
3.905536769956655108e-01
3.685079541306355844e-01
3.415322208266318160e-01
3.100029247730370918e-01
2.743561739336310423e-01
2.350411312999931557e-01
1.925604935954851604e-01
1.474394753648673451e-01
1.002284706730194042e-01
5.151784529054290185e-02
1.906036512830500129e-03
-4.797707112168217436e-02
-9.748811504883614365e-02
-1.459780352601413311e-01
-1.927885202220569194e-01
-2.372634899195766589e-01
-2.787691569819875648e-01
-3.166819832348085617e-01
-3.504136618482587839e-01
-3.794352057253908006e-01
-4.032377564200487208e-01
-4.214201851428038825e-01
-4.336310516340186605e-01
-4.395987325271481505e-01
-4.391896668212909582e-01
-4.323058581900992015e-01
-4.190177137549966346e-01
-3.994751115835349364e-01
-3.739188062831541592e-01
-3.427510543489402650e-01
-3.064087274781588932e-01
-2.654718921587270741e-01
-2.205898645248718093e-01
-1.724637632549994859e-01
-1.218891372471599677e-01
-6.967624515022441400e-02
-1.667321769740122417e-02
3.625320320677721808e-02
8.824854716691024614e-02
1.384818205947179470e-01
1.861337565099587532e-01
2.304633305139353050e-01
2.707698518475291083e-01
3.064139836687479468e-01
3.368753349547579656e-01
3.616632823394347884e-01
3.804299545196793142e-01
3.929028783313122664e-01
3.988869935075322060e-01
3.983412643364632189e-01
3.912591796983500569e-01
3.777828528328159852e-01
3.581350596667349229e-01
3.326074576023249074e-01
3.016324500004647913e-01
2.656720570130666759e-01
2.253049192510157561e-01
1.811747260808390381e-01
1.339692282710344129e-01
8.446849674195311408e-02
3.346957354289503694e-02
-1.817951692370273209e-02
-6.960158110175912460e-02
-1.199169398966984379e-01
-1.682412149629824993e-01
-2.136942375510494374e-01
-2.554455899715974976e-01
-2.926943673507850230e-01
-3.246910917327435753e-01
-3.508016364789767749e-01
-3.704227370487275239e-01
-3.831117216377432078e-01
-3.885235633495013330e-01
-3.864079998396038329e-01
-3.767322475053491715e-01
-3.595136826510079708e-01
-3.349836010024446198e-01
-3.035069506254197136e-01
-2.655418916189453693e-01
-2.217654015979067528e-01
-1.728997558050564542e-01
-1.198189286339004789e-01
-6.349429989409866026e-02
-4.936210219640635444e-03
5.475258418861772558e-02
1.144551727212456127e-01
1.730532633662765774e-01
2.294277350022881912e-01
2.824945009776530513e-01
3.312588447653713741e-01
3.747517936456074006e-01
4.121503636740131427e-01
4.427308451525741040e-01
4.658559467175180657e-01
4.811105974342542169e-01
4.881323082379784850e-01
4.867727309392485546e-01
4.770332083786632538e-01
4.590087980749372187e-01
4.330403140207722545e-01
3.995233191181709054e-01
3.590358974402057535e-01
3.122873188152635038e-01
2.600473702836345047e-01
2.032470019304574438e-01
1.428504791628905923e-01
7.989761970405753755e-02
1.548406679132754982e-02
-4.928963156437929372e-02
-1.133125525851436111e-01
-1.754758447575321401e-01
-2.347283343237006048e-01
-2.900627125128633632e-01
-3.405205983708442519e-01
-3.852859104081682307e-01
-4.235795256457741687e-01
-4.547848436517537563e-01
-4.784123184800127548e-01
-4.940528483522985681e-01
-5.015338738254004891e-01
-5.007404957935296386e-01
-4.917564061324851687e-01
-4.748249296719652124e-01
-4.502662970043248003e-01
-4.186300203715773716e-01
-3.805194926097321129e-01
-3.366815694101344403e-01
-2.879816818570266612e-01
-2.353222103952674338e-01
-1.797146748985295750e-01
-1.221939084702901718e-01
-6.381306863991263734e-02
-5.640883151046646726e-03
5.127173376276111805e-02
1.059356339976396111e-01
1.573803401200527807e-01
2.047386755899484045e-01
2.472337408347669574e-01
2.841451575613933023e-01
3.149387880827604902e-01
3.391295090283851232e-01
3.563946642778205720e-01
3.665575862038561450e-01
3.695075251173151609e-01
3.653520245324132221e-01
3.542551439797535506e-01
3.365308087717344687e-01
3.126314078289135212e-01
2.830586629045662161e-01
2.484780888458791304e-01
2.095971320854413400e-01
1.672060722471541971e-01
1.221738780806908981e-01
7.538565441483117968e-02
2.777640241621104344e-02
-1.970756606743992445e-02
-6.613400863207313796e-02
-1.105844252446796239e-01
-1.521636459684362619e-01
-1.900665294897223301e-01
-2.235149786104106140e-01
-2.518417946994868650e-01
-2.744911529722660060e-01
-2.909620250860086577e-01
-3.009572670745808143e-01
-3.042384220670080186e-01
-3.007289324832072563e-01
-2.905194172031675404e-01
-2.737612509347803758e-01
-2.508295757517630675e-01
-2.221636136973015319e-01
-1.883336203269258269e-01
-1.500489704608827246e-01
-1.080547571424686493e-01
-6.322233615758821035e-02
-1.645866473122795104e-02
3.129562056787921209e-02
7.906311761774964531e-02
1.258716786762392181e-01
1.707811538893144743e-01
2.128628839692761621e-01
2.512597382292773851e-01
2.851948742053261876e-01
3.139309261473387513e-01
3.368940207299542244e-01
3.535621760181545947e-01
3.635488410183289609e-01
3.666237704987477253e-01
3.626114400802499249e-01
3.515570394251310016e-01
3.335763120566183626e-01
3.089286570382482888e-01
2.780439517743973354e-01
2.414007376048312170e-01
1.996694544019608775e-01
1.535825670916690644e-01
1.039656007514100367e-01
5.175763168341200593e-02
-2.081100569261737365e-03
-5.651739598194653602e-02
-1.104950081829493280e-01
-1.629653728427061798e-01
-2.128895792801087372e-01
-2.592486479607035155e-01
-3.011256404713294477e-01
-3.376402339572282529e-01
-3.680289508141007526e-01
-3.916790946924026962e-01
-4.080329526134544582e-01
-4.167783711915939993e-01
-4.176907012845076927e-01
-4.107154352516292350e-01
-3.960238173624166524e-01
-3.738483702910787576e-01
-3.446792178580183608e-01
-3.090995188988289177e-01
-2.678167335350165601e-01
-2.217078888989419960e-01
-1.716819665031436015e-01
-1.187630226151404345e-01
-6.401685548152719063e-02
-8.518113717990105638e-03
4.664620529444646335e-02
1.004016300277354168e-01
1.517546616311178376e-01
1.997438159245235878e-01
2.435006446756708132e-01
2.822910098474712415e-01
3.154232932550450896e-01
3.424052435692885310e-01
3.628234880051283695e-01
3.763895531878756473e-01
3.830003183113100951e-01
3.825983105205632562e-01
3.753229034886952364e-01
3.613930576095167879e-01
3.411237352196132555e-01
3.149763576945769916e-01
2.834433417393111831e-01
2.471410264377076338e-01
2.067370609013924332e-01
1.629452677893761248e-01
1.165518566758844687e-01
6.835459953614819728e-02
1.918711268307554674e-02
-3.010199121876777628e-02
-7.866950822087892536e-02
-1.256810722913172251e-01
-1.703111398403059640e-01
-2.117912066995995823e-01
-2.493782952992306678e-01
-2.823883520238025802e-01
-3.102352877396716835e-01
-3.323628551075267223e-01
-3.483662210158917638e-01
-3.579094637841204740e-01
-3.607594295080256419e-01
-3.568585626685055190e-01
-3.461929911664523574e-01
-3.289501915397552989e-01
-3.054114584681869582e-01
-2.759601851053934962e-01
-2.411590072883049718e-01
-2.016072016331482142e-01
-1.580488870897083786e-01
-1.112972847903178353e-01
-6.220831315495212177e-02
-1.171467442190790575e-02
3.924230063881586905e-02
8.971712717281615790e-02
1.387626235852936207e-01
1.854666794574235666e-01
2.289827726368100780e-01
2.684861444228304750e-01
3.032752903815738033e-01
3.327113919186934221e-01
3.562390450912054640e-01
3.734624945643837957e-01
3.840244286935367013e-01
3.877454420618466346e-01
3.845389459493033790e-01
3.744099954087115045e-01
3.575437398078531448e-01
3.341646653294785274e-01
3.046619379630830515e-01
2.695129987166786645e-01
2.292659328180330081e-01
1.846113445397532804e-01
1.362680946128800863e-01
8.505744565052189565e-02
3.185702711213649063e-02
-2.242823106235194985e-02
-7.683722205544604722e-02
-1.304022853105004653e-01
-1.821610437638175872e-01
-2.311542938808451852e-01
-2.764578834582496758e-01
-3.172234949771915447e-01
-3.526263564752737389e-01
-3.819798261974489684e-01
-4.046780232785565090e-01
-4.202083760185050254e-01
-4.282642801158914603e-01
-4.285883249257433913e-01
-4.211474028719414120e-01
-4.060430806589779840e-01
-3.834844000725106117e-01
-3.539233190587620648e-01
-3.178631377791236723e-01
-2.759964874806887236e-01
-2.291328081254777604e-01
-1.781410790699696212e-01
-1.240272883367866119e-01
-6.782096351998390116e-02
-1.059359210312127431e-02
4.655680638439899099e-02
1.025512695327073232e-01
1.563583997496827693e-01
2.069635990077249299e-01
2.534663795523938723e-01
2.950408416078926788e-01
3.309354865933102907e-01
3.605828798536184765e-01
3.834592740672534417e-01
3.992271079847328208e-01
4.076738880837328383e-01
4.086721284446086511e-01
4.023089563217635556e-01
3.887192131659539251e-01
3.682081257973540689e-01
3.411986028929268056e-01
3.081769352291960362e-01
2.697927675148282245e-01
2.267303734572069240e-01
1.797749155711043656e-01
1.297832023525531120e-01
7.763684971545842251e-02
2.428172336615039284e-02
-2.932509157954544740e-02
-8.222331477488739604e-02
-1.334503564593547131e-01
-1.820649842673947860e-01
-2.271869035949965199e-01
-2.679538479608271628e-01
-3.036082132278328793e-01
-3.334710420906922268e-01
-3.569282278316288637e-01
-3.735504527670370778e-01
-3.829544984126666551e-01
-3.849429845687118990e-01
-3.794621033240319075e-01
-3.665418327584778480e-01
-3.464546755784557730e-01
-3.195304001785188031e-01
-2.862795506829458603e-01
-2.473562736844389653e-01
-2.034735601488939505e-01
-1.555159443998286872e-01
-1.044058955652260312e-01
-5.113983336832218785e-02
3.225422825896856471e-03
5.763072563640364576e-02
1.110151222137031046e-01
1.623212701970671856e-01
2.105598686806653408e-01
2.547987728866869528e-01
2.941556429853668941e-01
3.279080197240680783e-01
3.553757304382235693e-01
3.760408672723664081e-01
3.895256676211649727e-01
3.955249951941027797e-01
3.939674177058556936e-01
3.848411336111252079e-01
3.683119803719159258e-01
3.447035483392287269e-01
3.144039785990762059e-01
2.780109093377466922e-01
2.361747431980487089e-01
1.896703716938349937e-01
1.393863579386136475e-01
8.624346265404156386e-02
3.126506249828424344e-02
-2.450110807006408015e-02
-7.998923584754938365e-02
-1.341165343398264820e-01
-1.858161065015223878e-01
-2.340836028160072357e-01
-2.779344640678683698e-01
-3.164924343226576675e-01
-3.489858062771071801e-01
-3.747034581749666970e-01
-3.931540896503446514e-01
-4.039084548770170424e-01
-4.067287044838348575e-01
-4.015669584940952941e-01
-3.884515167073867015e-01
-3.676848181015129335e-01
-3.396455470133560861e-01
-3.048842780734768998e-01
-2.641270036866246174e-01
-2.181488762432989559e-01
-1.678966753538793655e-01
-1.143639744592748614e-01
-5.859874990072510420e-02
-1.706062461113704021e-03
5.521141095070884741e-02
1.110728425046884349e-01
1.648061088865541701e-01
2.154142466498607522e-01
2.619813810604549875e-01
3.036342495078426240e-01
3.396707356579249382e-01
3.694411847817521966e-01
3.924363696422757397e-01
4.083028410940238717e-01
4.167421355019845786e-01
4.176704921407670135e-01
4.110702161409519606e-01
3.970604401010371931e-01
3.759163635775148449e-01
3.479591318744895134e-01
3.136869645769799209e-01
2.736533670290027809e-01
2.285051827062229701e-01
1.789987216547780091e-01
1.259162278252094480e-01
7.013612513017963845e-02
1.256703464658541491e-02
-4.585334252655212661e-02
-1.041522409487603273e-01
-1.613576799677263751e-01
-2.165121802637161585e-01
-2.686642675110502698e-01
-3.169131389958829703e-01
-3.604208356784721623e-01
-3.983806193546554075e-01
-4.301280240223294138e-01
-4.550481397168262276e-01
-4.726518977395409715e-01
-4.826107028703471302e-01
-4.846499129730578170e-01
-4.787291108921631899e-01
-4.648901556027233983e-01
-4.433269959601082721e-01
-4.144330042896968713e-01
-3.786536298647891208e-01
-3.366486765081086463e-01
-2.891542225153297951e-01
-2.370000421277106972e-01
-1.811422164764434073e-01
-1.225566697140842709e-01
-6.228202040088776786e-02
-1.378789466779262868e-03
5.911251475931499078e-02
1.181791909065675328e-01
1.748299442154954697e-01
2.281883992224651991e-01
2.774225154953484096e-01
3.218018497646716880e-01
3.607408718719817831e-01
3.936959774490211283e-01
4.203126020133373109e-01
4.403098958565374588e-01
4.535143799280372257e-01
4.599100163152848308e-01
4.595175652772149899e-01
4.525114659866664724e-01
4.391274646142391269e-01
4.196712664099635504e-01
3.945540346196385606e-01
3.642088630835381147e-01
3.291552350687104722e-01
2.899480052874408575e-01
2.471762858428800391e-01
2.014822747374180600e-01
1.535181832405149438e-01
1.039730490482005387e-01
5.355132557651615111e-02
2.965494519008571306e-03
-4.705920535783651715e-02
-9.579858830612267284e-02
-1.425438797504437749e-01
-1.865933337091489896e-01
-2.272758867668108473e-01
-2.639709163938935288e-01
-2.960764335862965946e-01
-3.230915548922356217e-01
-3.445610340609124855e-01
-3.601104294107241310e-01
-3.695017866076734103e-01
-3.725339517810018486e-01
-3.691829595544104392e-01
-3.595065502429338200e-01
-3.436628880938525366e-01
-3.219844381301955050e-01
-2.948417150598688363e-01
-2.627649672410602433e-01
-2.263598456767310640e-01
-1.862901391098903958e-01
-1.433231560269652149e-01
-9.824173102189863449e-02
-5.186688960124780090e-02
-5.037902959470125230e-03
4.142310881809181666e-02
8.672591508963374551e-02
1.300945187771597455e-01
1.708428371708923532e-01
2.083300187161699624e-01
2.419802300124145322e-01
2.713406310399480437e-01
2.959877370920094286e-01
3.156326272447935732e-01
3.300557201689873210e-01
3.391027545382141462e-01
3.427462478839187754e-01
3.409855171095040327e-01
3.339280648698911280e-01
3.217386858176465858e-01
3.046273750200260144e-01
2.828942165631778694e-01
2.568579135776812850e-01
2.269094419597878498e-01
1.934791521969686234e-01
1.570276461893896358e-01
1.180775283335140785e-01
7.716409699133455757e-02
3.487052195309875424e-02
-8.193228058514356871e-03
-5.140255800848742007e-02
-9.410221501375948261e-02
-1.356331490966445896e-01
-1.753378362241380106e-01
-2.125597395829125213e-01
-2.466644888859266249e-01
-2.770665267887353345e-01
-3.031963406444675435e-01
-3.245831367239276899e-01
-3.408147954516657085e-01
-3.515502944024906373e-01
-3.566082754721664472e-01
-3.558461435782044324e-01
-3.493011309824897714e-01
-3.371202071918357190e-01
-3.195365896174851006e-01
-2.969816188780950994e-01
-2.699281349430400212e-01
-2.389965131579230295e-01
-2.048996261625957438e-01
-1.683899820339030962e-01
-1.303122217891124479e-01
-9.152471562746949951e-02
-5.288727882202970410e-02
-1.526055884357302439e-02
2.053089514555328510e-02
5.375227407510529964e-02
8.369443643201168737e-02
1.097925571665646638e-01
1.315776477319993143e-01
1.486630211590836970e-01
1.608684385899042946e-01
1.680610745002241169e-01
1.702940571787108226e-01
1.677474399379900172e-01
1.606738995452364760e-01
1.495114831591732307e-01
1.347369059884510611e-01
1.169367890610056859e-01
9.677487053736233413e-02
7.493542727211105481e-02
5.215433786064513355e-02
2.917431191674621505e-02
6.712599500705710917e-03
-1.453196183247471712e-02
-3.389740815785705075e-02
-5.082421567163612763e-02
-6.477975469013000365e-02
-7.535946069799992486e-02
-8.225385776969285079e-02
-8.521637447067448301e-02
-8.417619713093327238e-02
-7.910353724696284061e-02
-7.010706243982489649e-02
-5.740114037185323204e-02
-4.124781139986422041e-02
-2.204365256668494588e-02
-2.146323013934026136e-04
2.374607243421839042e-02
4.929253000295646947e-02
7.586973443877004231e-02
1.028990623003933624e-01
1.297989254479409160e-01
1.560130565370302924e-01
1.810056343144250124e-01
2.042644980921580200e-01
2.253509324056258145e-01
2.438453361623726945e-01
2.594043335642537418e-01
2.717478247947398007e-01
2.806283995876204806e-01
2.858997223560822976e-01
2.874402174183063874e-01
2.851992803845686542e-01
2.791868845536358834e-01
2.694366322570614924e-01
2.560556395257530538e-01
2.391688891728736555e-01
2.189437120296472694e-01
1.955846058093139717e-01
1.693094060245071975e-01
1.403782060158700329e-01
1.090618154589210465e-01
7.565950112113359327e-02
4.049621020516638858e-02
3.908708864726218035e-03
-3.372686916396749890e-02
-7.202397276091943024e-02
-1.105651655421918123e-01
-1.489043533214678972e-01
-1.865847681254393098e-01
-2.231138797657932216e-01
-2.579902610058558698e-01
-2.907005949395629618e-01
-3.207202214143535235e-01
-3.475291244352472497e-01
-3.706269121470356365e-01
-3.895201521509065179e-01
-4.037651217091944855e-01
-4.129668602407246536e-01
-4.167631888693472675e-01
-4.149141125433721822e-01
-4.072151554818455588e-01
-3.935823813996346399e-01
-3.740534289187464889e-01
-3.487185288242597991e-01
-3.178617511355876779e-01
-2.818222998642042620e-01
-2.410722662397142002e-01
-1.962215483694667584e-01
-1.479215718362500431e-01
-9.697267036649631633e-02
-4.421681075608385747e-02
9.447277025273023709e-03
6.306033885351748636e-02
1.156605824168931984e-01
1.662879983454776944e-01
2.139852536424623752e-01
2.578547828936066932e-01
2.970645463584457024e-01
3.308216464145103397e-01
3.584949336698827205e-01
3.795039992657165406e-01
3.934148981384514299e-01
3.999587893008952344e-01
3.989280418996096200e-01
3.903594343109100251e-01
3.743662876513024207e-01
3.512241373800885635e-01
3.213965383221654148e-01
2.854015135089021382e-01
2.439688382595022187e-01
1.978951127810041344e-01
1.480781108261675083e-01
9.553618209412843842e-02
4.130948107929360846e-02
-1.348844115314631886e-02
-6.772165489450868159e-02
-1.202681120992294961e-01
-1.700227877780482177e-01
-2.159050523960956147e-01
-2.569542992617593336e-01
-2.922520481490532562e-01
-3.210135738534950489e-01
-3.426227185069444237e-01
-3.565255010187732276e-01
-3.624408736145432464e-01
-3.601829009378097468e-01
-3.497551814867796427e-01
-3.314069204827705950e-01
-3.054552770003416406e-01
-2.725003328704100336e-01
-2.332420119710726381e-01
-1.885189528638708256e-01
-1.393546087406760670e-01
-8.680780991328236607e-02
-3.206508275674382902e-02
2.364193739079732681e-02
7.907322778386086104e-02
1.329773335115823074e-01
1.841193187089804062e-01
2.313658023401806152e-01
2.736228269434137772e-01
3.099179253681886848e-01
3.394498981742337662e-01
3.614751529846639833e-01
3.755205041972943802e-01
3.812175330130823658e-01
3.783794292800655157e-01
3.670825910685854288e-01
3.474717510964946965e-01
3.199897934479829509e-01
2.851973855981079775e-01
2.438050815271936012e-01
1.967467591596776255e-01
1.450017270521665180e-01
8.972510830346683286e-02
3.214265770345613171e-02
-2.647864456778391273e-02
-8.480879658249404485e-02
-1.415197619488900993e-01
-1.953324215353277049e-01
-2.449892236263132017e-01
-2.893281521150616320e-01
-3.273380143802131492e-01
-3.580592397689878470e-01
-3.807971384688336181e-01
-3.949716375351267628e-01
-4.001866796105850166e-01
-3.963446765415107875e-01
-3.834224181076609783e-01
-3.617329337842528081e-01
-3.317378632051145582e-01
-2.940618006830204023e-01
-2.496009120041449703e-01
-1.993042140119806738e-01
-1.443204962588078011e-01
-8.588871146359119968e-02
-2.529052651791133255e-02
3.611958935048498187e-02
9.698659057354222512e-02
1.560061203302770538e-01
2.118982283592129034e-01
2.634694676545360492e-01
3.096794448515910458e-01
3.495331023172059126e-01
3.822704109697380725e-01
4.072447398729781565e-01
4.239538943552549899e-01
4.321578817969584652e-01
4.316773163947452696e-01
4.226014831871239830e-01
4.051526013175011931e-01
3.796779648442853983e-01
3.467580299857582760e-01
3.070205220710017224e-01
2.612765408737421913e-01
2.104303135350304443e-01
1.554464256900496555e-01
9.740478198479177174e-02
3.740303875665777766e-02
-2.342083802242136623e-02
-8.390805755106488240e-02
-1.429184099320998658e-01
-1.993490362703246033e-01
-2.521136524161574077e-01
-3.002369669268431518e-01
-3.428037209279493069e-01
-3.789872454989705597e-01
-4.081413601682399861e-01
-4.296656257876177443e-01
-4.431831751601468250e-01
-4.484411235222818259e-01
-4.453090142081906899e-01
-4.339122264692328867e-01
-4.144326560193173359e-01
-3.872882541548428592e-01
-3.530314287665832773e-01
-3.123099756670839056e-01
-2.659758686266899819e-01
-2.149200067425733329e-01
-1.601564992799480169e-01
-1.027715046448524905e-01
-4.386982195836114373e-02
1.540399129989780680e-02
7.390470920109906694e-02
1.305372460288417857e-01
1.842368915433608978e-01
2.339978922322784038e-01
2.789497088020394533e-01
3.182568532706726572e-01
3.512598645963843635e-01
3.774084914297661242e-01
3.962471336194666738e-01
4.075416298743764210e-01
4.111076823976451688e-01
4.069622011965226549e-01
3.952504086369393876e-01
3.762022712693731119e-01
3.502506051856038027e-01
3.178711844413250054e-01
2.796871268848188929e-01
2.364181565033306176e-01
1.888317681321221020e-01
1.378120320807618149e-01
8.426533446050632481e-02
2.914950132154054546e-02
-2.654298819049838443e-02
-8.182069230142022254e-02
-1.356965618574063615e-01
-1.871888915452530056e-01
-2.353755065386649026e-01
-2.793755719971457441e-01
-3.183576032167870218e-01
-3.516205673060766035e-01
-3.784968362899309713e-01
-3.984752475072765865e-01
-4.111562919386810289e-01
-4.162228412049961968e-01
-4.135795250457742767e-01
-4.031833864408760348e-01
-3.851904819483931153e-01
-3.599028826431976413e-01
-3.277040179071992743e-01
-2.892003829181479246e-01
-2.450482919000289694e-01
-1.960520625985461562e-01
-1.431276636468543639e-01
-8.723067919736200715e-02
-2.942547617871310583e-02
2.920236927333694221e-02
8.754840285152309942e-02
1.444935407252007642e-01
1.989401636723661104e-01
2.498571485449366802e-01
2.962335722386972292e-01
3.371784722795385658e-01
3.718966028224506837e-01
3.996638902068875843e-01
4.199714186916784220e-01
4.323648023056985701e-01
4.365942307891132468e-01
4.325777256194972553e-01
4.203218544510362031e-01
4.001040908626706250e-01
3.722681066412564244e-01
3.373543582544870079e-01
2.960692997687003336e-01
2.491839735321002003e-01
1.976680759583918090e-01
1.425377809279968211e-01
8.489924258952927238e-02
2.593665953392662593e-02
-3.315916056275566848e-02
-9.118352535996876451e-02
-1.469326044802663489e-01
-1.992753589971690831e-01
-2.471456715792781367e-01
-2.895344285123803152e-01
-3.256275726982003627e-01
-3.546646478807662373e-01
-3.760861845244996005e-01
-3.895170232516796394e-01
-3.946706116555862009e-01
-3.915613283947246837e-01
-3.802830423763631229e-01
-3.611430943102275637e-01
-3.346501045140634623e-01
-3.013816159645575365e-01
-2.621471597241653573e-01
-2.178161106197039065e-01
-1.693615810721275095e-01
-1.178572539392552798e-01
-6.439010152476823401e-02
-1.008301035257266887e-02
4.393443118159204297e-02
9.658069761689891397e-02
1.468221725165102520e-01
1.936640928318710819e-01
2.362606452403723800e-01
2.738096454031406224e-01
3.056515526785325565e-01
3.312730213259896250e-01
3.502202789322117482e-01
3.622608646105923147e-01
3.672260925468542325e-01
3.650977960646116793e-01
3.560164239661270380e-01
3.401738069448448920e-01
3.179509333485005529e-01
2.897837203330352329e-01
2.562120977475054184e-01
2.178886935533458913e-01
1.754951434992778059e-01
1.298172560226093508e-01
8.167112587428962400e-02
3.190867983916623879e-02
-1.857823661490941997e-02
-6.889627615662434479e-02
-1.181548093755966367e-01
-1.654653551787653165e-01
-2.099801280797376490e-01
-2.508979614492969912e-01
-2.874450890034366268e-01
-3.189658155942476370e-01
-3.448430473256252071e-01
-3.645718500769228321e-01
-3.777794001610267349e-01
-3.841424286003835009e-01
-3.835436709901722807e-01
-3.759332685973404420e-01
-3.614050769224056436e-01
-3.402270090379864165e-01
-3.127180304086845108e-01
-2.794029550208620982e-01
-2.408746387322027172e-01
-1.978312214288969195e-01
-1.511019535680280246e-01
-1.015429272906565594e-01
-5.010774520556363076e-02
2.217883760688668660e-03
5.443695775688309896e-02
1.055380316820785647e-01
1.545205607026571837e-01
2.004480686065097939e-01
2.424077711012844749e-01
2.795723670327231458e-01
3.112271478948949732e-01
3.366991914322275958e-01
3.555061320879536191e-01
3.672349648832730074e-01
3.716098630333206643e-01
3.685407756317718997e-01
3.579905785464593260e-01
3.401514172323165663e-01
3.153003795889149918e-01
2.838446108709685722e-01
2.463723585986304920e-01
2.035146635959247385e-01
1.560778021615457090e-01
1.049342032665225855e-01
5.102670823845223413e-02
-4.601054792895575840e-03
-6.089081231151871609e-02
-1.167419429296071842e-01
-1.710381771990794053e-01
-2.226884658005920115e-01
-2.706389957636943233e-01
-3.138591777452117704e-01
-3.514474059256806893e-01
-3.825548390527323539e-01
-4.064527840066675113e-01
-4.225946331396037703e-01
-4.304884550214692629e-01
-4.299024488961741275e-01
-4.207127599340690360e-01
-4.029578187151972579e-01
-3.769288844322344345e-01
-3.429776616021154578e-01
-3.017182154582343512e-01
-2.538758178700596946e-01
-2.002914347264175832e-01
-1.419912457386694471e-01
-8.003418615933882707e-02
-1.559230875649308956e-02
5.011363471437874084e-02
1.158584015380304810e-01
1.804096390161072927e-01
2.425472840604942781e-01
3.011457755219766330e-01
3.551226705752039692e-01
4.034931247860726877e-01
4.454379609328937839e-01
4.801842748882049761e-01
5.071867916463512760e-01
5.260056965016105535e-01
5.363336956378548237e-01
5.380945302867565783e-01
5.312642148719844970e-01
5.160449547266943160e-01
4.927463901736452989e-01
4.617782267902805216e-01
4.237293498845501882e-01
3.792238236573819976e-01
3.290185083319358550e-01
2.739349823665879757e-01
2.148356154572172994e-01
1.526576554505306160e-01
8.834922721120647138e-02
2.288146558052761570e-02
-4.276313267723760858e-02
-1.076153599000467670e-01
-1.707315474288179646e-01
-2.311789339929779252e-01
-2.880944829471874247e-01
-3.406514190220069072e-01
-3.880791317308114330e-01
-4.297168737484454715e-01
-4.649326670788985205e-01
-4.932380615109459576e-01
-5.142211351535763697e-01
-5.275564815566698984e-01
-5.330924895819375564e-01
-5.307184047343809219e-01
-5.205086659258910675e-01
-5.026391349544200304e-01
-4.773771365827491620e-01
-4.451786420545106315e-01
-4.065394497967731446e-01
-3.621122645363966663e-01
-3.126380491193940792e-01
-2.589119469658681116e-01
-2.018434156218256170e-01
-1.423611661418466845e-01
-8.143852048234132002e-02
-2.007448400594008531e-02
4.074353707716563133e-02
1.000544970521551891e-01
1.569092357657219383e-01
2.104455569878067311e-01
2.598531773914058429e-01
3.043852554610494976e-01
3.434380731198332093e-01
3.764422920547847440e-01
4.029856158370002106e-01
4.227520003914151392e-01
4.355018590990092919e-01
4.411720469704847325e-01
4.397380389055335348e-01
4.313246637633531000e-01
4.161508591607663288e-01
3.944956510893122825e-01
3.667800646403830411e-01
3.334549231889878396e-01
2.950728414737240901e-01
2.522523866937330661e-01
2.056465303036000281e-01
1.559913742200776388e-01
1.040393799561313559e-01
5.058669968709149367e-02
-3.541420125816388542e-03
-5.751486190216207467e-02
-1.104923263794181931e-01
-1.616330441209739566e-01
-2.101253323650750793e-01
-2.551774851148143064e-01
-2.960296132060148966e-01
-3.320052333842296033e-01
-3.624503155984707403e-01
-3.868260914953099427e-01
-4.046750864045439711e-01
-4.156071456008592624e-01
-4.194117041767600473e-01
-4.159215606900137918e-01
-4.051462873776223717e-01
-3.872236350180938702e-01
-3.623699741503790817e-01
-3.310154957106052342e-01
-2.936388013697712185e-01
-2.508746881636104709e-01
-2.034744017253601045e-01
-1.522371072403807535e-01
-9.809338901163447422e-02
-4.200062867614177270e-02
1.503901872081736535e-02
7.198908658500281776e-02
1.278221422778071381e-01
1.815405138324140411e-01
2.321577251319518198e-01
2.787746451193131580e-01
3.205610210914946467e-01
3.567431653775909872e-01
3.867169066223054563e-01
4.099211213687840583e-01
4.259616103008113663e-01
4.345795119976235688e-01
4.355900146674938078e-01
4.290326530846010344e-01
4.150017876200749467e-01
3.937621955814026298e-01
3.657207254992113632e-01
3.313454551569093853e-01
2.912922199588606209e-01
2.462617572214919892e-01
1.970648480700953886e-01
1.446066038309435642e-01
8.981904514805898188e-02
3.371545978624745921e-02
-2.267318768605602886e-02
-7.830876726837174284e-02
-1.321468347382765973e-01
-1.831625437797019251e-01
-2.304007238443102623e-01
-2.729272904219403051e-01
-3.099201977680847708e-01
-3.406589410689773723e-01
-3.644861958197831431e-01
-3.809606603953673565e-01
-3.896995824004944597e-01
-3.905141931466297178e-01
-3.833964893399455787e-01
-3.684177806675475453e-01
-3.459207751576915402e-01
-3.163201216528405135e-01
-2.802089902226601592e-01
-2.383515980515787391e-01
-1.915649035556347690e-01
-1.408433325971893413e-01
-8.722695607097741277e-02
-3.181690619948281118e-02
2.422553063102916501e-02
7.974162829705380706e-02
1.335930585630293876e-01
1.846501960222319549e-01
2.318683857354947586e-01
2.742890404032582996e-01
3.110050923258592115e-01
3.413061909348166778e-01
3.645396647661319767e-01
3.802253871818419562e-01
3.880629311913172952e-01
3.878216429404341969e-01
3.795322662081818121e-01
3.633017172160857844e-01
3.394090856523680477e-01
3.083178298815396623e-01
2.705478431183808707e-01
2.268274383843210396e-01
1.779458872212441034e-01
1.247939428510353305e-01
6.837409263748919774e-02
9.710627294670594670e-03
-5.009923618899075892e-02
-1.099378331123254948e-01
-1.686944816560400073e-01
-2.252664070882318681e-01
-2.785712987378464178e-01
-3.276208003233582744e-01
-3.714577401501798493e-01
-4.092378770375564301e-01
-4.402484304891826072e-01
-4.638310537040060688e-01
-4.795551079404424266e-01
-4.870640142183635390e-01
-4.861717408871528701e-01
-4.768963925481727317e-01
-4.593196709333098871e-01
-4.337811695600661821e-01
-4.007050799299629040e-01
-3.606590929491396702e-01
-3.143875083156683625e-01
-2.626756254025148785e-01
-2.064643591548238621e-01
-1.467459773747725738e-01
-8.455906138439328590e-02
-2.100078915234043775e-02
4.283050618694916878e-02
1.058504170611218598e-01
1.669806222841719867e-01
2.251998870238851591e-01
2.795612897651594819e-01
3.291499003710117721e-01
3.731996426660507682e-01
4.109982184242017555e-01
4.419488788375318111e-01
4.656095234860855303e-01
4.815846527276413380e-01
4.896825579777204784e-01
4.897864184028266621e-01
4.819066202040227509e-01
4.662286111127993404e-01
4.429845013482566207e-01
4.126059218050388000e-01
3.755995040018920705e-01
3.325799118501879814e-01
2.843146829798827158e-01
2.316059814376473791e-01
1.753960036279395562e-01
1.166805236927659917e-01
5.650317615643651870e-02
-4.022807485165924568e-03
-6.377869298884170091e-02
-1.216457062491866359e-01
-1.765060503471794773e-01
-2.272964331367366420e-01
-2.730352606163053419e-01
-3.127760782179479504e-01
-3.457571694193148915e-01
-3.712931715638486674e-01
-3.888486437237107518e-01
-3.981190408146203508e-01
-3.988637621860997573e-01
-3.911393593384741019e-01
-3.751273642215823267e-01
-3.511745181109504621e-01
-3.198890907639972414e-01
-2.819358788863280396e-01
-2.382111745788980106e-01
-1.897106496035248224e-01
-1.375065044559888872e-01
-8.279530145346261638e-02
-2.678778243869615189e-02
2.928582377372360157e-02
8.418745463175850152e-02
1.367311436282166448e-01
1.858185137840613899e-01
2.303845965666377893e-01
2.695505656414757811e-01
3.025231318743543674e-01
3.286431706799329278e-01
3.474828504546008667e-01
3.586717474011586471e-01
3.621044639862594505e-01
3.578001692516619703e-01
3.459124247660029239e-01
3.268327805678616915e-01
3.010024996532702501e-01
2.690635082082944995e-01
2.317544304815608580e-01
1.898841451931433943e-01
1.443891517678766168e-01
9.622573025820349568e-02
4.640078901242664089e-02
-4.053967728615173738e-03
-5.412294955192953338e-02
-1.028212905861128207e-01
-1.491798054458546019e-01
-1.923342625303310627e-01
-2.314743762398169258e-01
-2.658739831087508221e-01
-2.949694871078505365e-01
-3.182382059311060218e-01
-3.353544695521528118e-01
-3.460963079240056417e-01
-3.503459165903397565e-01
-3.481920243944763294e-01
-3.397677286808129526e-01
-3.253878230016934436e-01
-3.054652879168850421e-01
-2.804816496830317973e-01
-2.510576808487320344e-01
-2.178390227024976644e-01
-1.815446610896724322e-01
-1.429342194618113127e-01
-1.027713635113405855e-01
-6.182742079955910741e-02
-2.086958399718880086e-02
1.938545817643244629e-02
5.825003277957790937e-02
9.508073022613133807e-02
1.293301482064015406e-01
1.604742308773927650e-01
1.880981962342197500e-01
2.118516065502671353e-01
2.314366071597624419e-01
2.466719121388910585e-01
2.574012167162136322e-01
2.635644271501613733e-01
2.651596895250238894e-01
2.622239467149433123e-01
2.548822953704980021e-01
2.432785801318204655e-01
2.276260114857004413e-01
2.081809960864473563e-01
1.852296733508632942e-01
1.591277323170351976e-01
1.302461411913958811e-01
9.901444861616390258e-02
6.589971856054727128e-02
3.139227993314069876e-02
-3.961697990859658347e-03
-3.960501280576267380e-02
-7.494963292919498699e-02
-1.093872502962129900e-01
-1.423097472380971951e-01
-1.731103939359401878e-01
-2.011862119252173509e-01
-2.259780954125754082e-01
-2.469567044804726885e-01
-2.636327013898265292e-01
-2.756200692670995878e-01
-2.825594298564199081e-01
-2.842196354815978987e-01
-2.804589031077588945e-01
-2.712019197275352678e-01
-2.565480332561302923e-01
-2.366367951458500651e-01
-2.117557550554362289e-01
-1.822984997586121203e-01
-1.487138540540158260e-01
-1.115981099793104392e-01
-7.157908035541099556e-02
-2.936925839017767714e-02
1.425648383017508181e-02
5.850672740110329784e-02
1.025466712735103592e-01
1.455347990892607579e-01
1.866446197688899078e-01
2.250610435458170189e-01
2.599958827425773444e-01
2.907398575005010199e-01
3.166055033240451344e-01
3.370159956257245959e-01
3.514807309545013858e-01
3.595720101033981209e-01
3.610475523330233250e-01
3.557116164296487137e-01
3.435467875300667884e-01
3.246785377838394826e-01
2.993113157970787586e-01
2.678861396720241261e-01
2.309010501043661512e-01
1.890279877719996393e-01
1.430821665638396523e-01
9.393355504467779116e-02
4.261653226443137821e-02
-9.797831823275857110e-03
-6.218156938274067153e-02
-1.133585152340534780e-01
-1.621639623383893114e-01
-2.074768368957773668e-01
-2.481922277512030317e-01
-2.833324225393194506e-01
-3.120305154905184120e-01
-3.335005848730627220e-01
-3.472248285853508087e-01
-3.527567787246470021e-01
-3.499013731866644772e-01
-3.386887319786386907e-01
-3.192516302405317141e-01
-2.920620049350869385e-01
-2.576785683308273067e-01
-2.168766264547034028e-01
-1.706309586640633591e-01
-1.199751165123024432e-01
-6.613244705323220729e-02
-1.037226713924707666e-02
4.599196729943264006e-02
1.016050039055354237e-01
1.551303154296987674e-01
2.053091326317933452e-01
2.509079017501123499e-01
2.908391991720534753e-01
3.241578772332874836e-01
3.499985582908019532e-01
3.677870472028166859e-01
3.770314044042348822e-01
3.774822575390703316e-01
3.691330609368482785e-01
