BVP Green Neck Signal
2.153442128765789554e-02
7.290073179484021781e-02
1.225098206418709090e-01
1.691913989793145112e-01
2.117751779577355664e-01
2.490908687276986722e-01
2.800640824609004764e-01
3.040160002457246158e-01
3.203808704464423118e-01
3.288673877151200298e-01
3.294699158037103226e-01
3.222851115790013599e-01
3.077880207044448868e-01
2.865614342228564038e-01
2.593743443014261407e-01
2.271948077092294238e-01
1.910274683673225671e-01
1.519947675230479689e-01
1.112503837034880538e-01
6.991917193833696587e-02
2.909433635915912447e-02
-1.017116273323867906e-02
-4.699908814384626266e-02
-8.056658759413433402e-02
-1.102240745223685564e-01
-1.355173746148205238e-01
-1.560616219717131936e-01
-1.717465286807563496e-01
-1.825469599776196883e-01
-1.885944410386051207e-01
-1.902019686482884497e-01
-1.877243367558078246e-01
-1.816686542129348214e-01
-1.725888515631824327e-01
-1.610731980252124440e-01
-1.477508125123848104e-01
-1.332448624089743183e-01
-1.181371488507291928e-01
-1.029945853907873327e-01
-8.831333697834715946e-02
-7.450309826983680939e-02
-6.194094559740753736e-02
-5.086391333791469294e-02
-4.146194335480789250e-02
-3.383850818582510855e-02
-2.798853588550462290e-02
-2.388111447804990364e-02
-2.138524178911681631e-02
-2.033619198391354091e-02
-2.053851516651774428e-02
-2.175715826041296416e-02
-2.375553450499569286e-02
-2.630296813513121473e-02
-2.917155423373905820e-02
-3.216459551292828040e-02
-3.512674500005404099e-02
-3.791864366759201826e-02
-4.047481610017275577e-02
-4.275662604454303489e-02
-4.477039864664052182e-02
-4.658363081241157638e-02
-4.827640223863164520e-02
-4.997637042466746005e-02
-5.182835950742138015e-02
-5.397952355789591844e-02
-5.658024397896887353e-02
-5.977312792783559536e-02
-6.365278825146125641e-02
-6.829490637730492586e-02
-7.371859833120295025e-02
-7.986172811347928835e-02
-8.663629600794958696e-02
-9.383333135444742179e-02
-1.011963783796371169e-01
-1.083994618558535017e-01
-1.150140772918332444e-01
-1.205911718866584936e-01
-1.246032154479056187e-01
-1.264917551065183610e-01
-1.256938718511958208e-01
-1.216399805002049972e-01
-1.137727606790519957e-01
-1.016193855122084766e-01
-8.474291742060686972e-02
-6.280989662824898456e-02
-3.564810134035398259e-02
-3.136775078634876888e-03
3.458977006961850426e-02
7.728845685370504259e-02
1.245520272508278542e-01
1.757106060136635339e-01
2.300332449275606927e-01
2.865258097043947849e-01
3.440799117166138399e-01
4.014889959544593045e-01
4.573854730774589150e-01
5.103821760749972514e-01
5.590589166554633671e-01
6.019819030651148983e-01
6.377924522535545204e-01
6.652592057764512568e-01
6.832028216392497244e-01
6.907419291081228208e-01
6.871332246240733355e-01
6.718604585231556792e-01
6.448015659468852023e-01
6.059332607905939527e-01
5.556919868327736545e-01
4.947315410364178656e-01
4.239302303468751032e-01
3.445661250571576684e-01
2.579949954915397026e-01
1.658627994221446023e-01
6.995563911473962060e-02
-2.788240206113602737e-02
-1.257021402986199521e-01
-2.215542933579584262e-01
-3.135825660745068522e-01
-3.999779560445161919e-01
-4.790733970292654353e-01
-5.494699088096716144e-01
-6.098442264877054209e-01
-6.592666999120809779e-01
-6.970098756433243947e-01
-7.225741371625522547e-01
-7.359003918529857247e-01
-7.370262691245275111e-01
-7.263975242547904276e-01
-7.046747304527304356e-01
-6.726781264012782202e-01
-6.315439693181724712e-01
-5.824651080433502770e-01
-5.268082526607885674e-01
-4.660337937416140774e-01
-4.016149386335287619e-01
-3.350494380076092238e-01
-2.678262454807383564e-01
-2.013217640363805239e-01
-1.368494631899020153e-01
-7.561609440844688224e-02
-1.860360159892314458e-02
3.326246379382892526e-02
7.932992350855748442e-02
1.191029208532013162e-01
1.522242527699933790e-01
1.786351972199493321e-01
1.983404921905764506e-01
2.115912402965150763e-01
2.187831028567877589e-01
2.203975057400587301e-01
2.171042915766920323e-01
2.096070430043925625e-01
1.986948145470943117e-01
1.852080638510987531e-01
1.699840381720270632e-01
1.538509417673242785e-01
1.376274647551515851e-01
1.220417984438517539e-01
1.077659321037298112e-01
9.540185759563091228e-02
8.538709359868061621e-02
7.811963977822979077e-02
7.381976491694740294e-02
7.259454104612927949e-02
7.447017322665408501e-02
7.927932943523390008e-02
8.681384179454203209e-02
9.672641422235897513e-02
1.085787780316067042e-01
1.218941348083979748e-01
1.361025181784238092e-01
1.506183855230844304e-01
1.648423716647372805e-01
1.781658829942360245e-01
1.900039878541815164e-01
1.998336149752215907e-01
2.071501188196352428e-01
2.115575023091282869e-01
2.127348193935765241e-01
2.104235883501270055e-01
2.045283274513672866e-01
1.949912708146127882e-01
1.818974086495732390e-01
1.654329835601795751e-01
1.458363367993526782e-01
1.234833478079075536e-01
9.877840318142079579e-02
7.219535518894579229e-02
4.425864988632358804e-02
1.549974251352719684e-02
-1.353327821521353030e-02
-4.229187635265162920e-02
-7.026310366354768244e-02
-9.696066297635372311e-02
-1.219273261541611308e-01
-1.447889379674242860e-01
-1.651919524576715703e-01
-1.828651607406299451e-01
-1.976006635683034418e-01
-2.092253173123264365e-01
-2.176657491413062084e-01
-2.228719733348582532e-01
-2.248668377348511660e-01
-2.237307131100412516e-01
-2.195704053868288153e-01
-2.125698963946714426e-01
-2.029311514296125163e-01
-1.909056999618463923e-01
-1.767852792839769982e-01
-1.608759016044435664e-01
-1.435255256384773692e-01
-1.250911464923278316e-01
-1.059410529941777340e-01
-8.645294265215094920e-02
-6.699875609865448001e-02
-4.793050779681901769e-02
-2.959364500946908699e-02
-1.229008369429577044e-02
3.715520149118331332e-03
1.818513766043152249e-02
3.096714731915503269e-02
4.193256428886727588e-02
5.103161748731858266e-02
5.828417397813933504e-02
6.374126337882149440e-02
6.755479129113747816e-02
6.990175134026065107e-02
7.101707720267522173e-02
7.118801890877429761e-02
7.071262059612021256e-02
6.992113425481427669e-02
6.915015292045913198e-02
6.871753223442565728e-02
6.892375034857882443e-02
7.004650937744909267e-02
7.228111886100689609e-02
7.579940622680196582e-02
8.068241225822268825e-02
8.692470039754462974e-02
9.448265630697240403e-02
1.031792324986559178e-01
1.128018408544467499e-01
1.230602968407675246e-01
1.335885010638772907e-01
1.440048849772044282e-01
1.538791725447587466e-01
1.627698116043992671e-01
1.702533835718424149e-01
1.759246908578415980e-01
1.794025205523656352e-01
1.804003602059548461e-01
1.786599540433695399e-01
1.740224764076468700e-01
1.664317165222301831e-01
1.558720139830640783e-01
1.424786281430593382e-01
1.264299362441250740e-01
1.079911108841946077e-01
8.751932602633961944e-02
6.539222469503380708e-02
4.205710501273105667e-02
1.798025513810259240e-02
-6.369800292745179775e-03
-3.052210217511319018e-02
-5.401821735809802377e-02
-7.645636947176481790e-02
-9.745293347844677379e-02
-1.166893964953074070e-01
-1.339200545089976879e-01
-1.489263583072546471e-01
-1.615974610590249494e-01
-1.718557105000662888e-01
-1.796867907987053370e-01
-1.851491284049755770e-01
-1.883185943353875014e-01
-1.893350703427776061e-01
-1.883580510101187655e-01
-1.855650664444976616e-01
-1.811549204804474567e-01
-1.753264521384463870e-01
-1.682726568631069675e-01
-1.601841856706630596e-01
-1.512332253129953508e-01
-1.415695875777204793e-01
-1.313343896198626015e-01
-1.206314882943382849e-01
-1.095523440278271948e-01
-9.816650473271840149e-02
-8.651624685881058319e-02
-7.463790358784601342e-02
-6.254566146909439073e-02
-5.024638836437504696e-02
-3.774304010449634067e-02
-2.503357499698856750e-02
-1.211749158935266496e-02
9.956431971578421844e-04
1.429251608051697320e-02
2.774520171672889904e-02
4.130658237375393199e-02
5.492270226390928711e-02
6.850880462800890136e-02
8.196903413357273238e-02
9.518866114949316171e-02
1.080274965602077836e-01
1.203398549290113501e-01
1.319588256963933337e-01
1.427098838165742345e-01
1.524161995190748409e-01
1.608977600814280318e-01
1.679775500598555682e-01
1.734977101448237080e-01
1.773079473314918275e-01
1.792837856302153532e-01
1.793375161041080856e-01
1.773942522326616145e-01
1.734403537219130487e-01
1.674861225414883137e-01
1.595825048462559959e-01
1.498398854117580226e-01
1.383828378606611065e-01
1.253957143534341345e-01
1.110865196340939942e-01
9.568416881714947309e-02
7.944895562500572939e-02
6.264388554300572010e-02
4.553275142790128710e-02
2.837931848239404545e-02
1.142689313408421642e-02
-5.112849748184991432e-03
-2.104024136726374838e-02
-3.621821849961876644e-02
-5.053620833320672523e-02
-6.392525980679247821e-02
-7.638242864427599588e-02
-8.791962027182137485e-02
-9.861120544225598916e-02
-1.085583696071701632e-01
-1.178811317216285348e-01
-1.267301116353843626e-01
-1.352576480385127011e-01
-1.436081399123602664e-01
-1.519221372588827335e-01
-1.603118959987104297e-01
-1.688421948739859679e-01
-1.775619350697030530e-01
-1.864358194675916347e-01
-1.953899953595716332e-01
-2.042970911763024033e-01
-2.129376809129684134e-01
-2.210721613201555025e-01
-2.283760935559834282e-01
-2.344854630931409445e-01
-2.390113770665936166e-01
-2.415211773168064457e-01
-2.415795062233027923e-01
-2.387652614101253290e-01
-2.326645928728170165e-01
-2.229083498890293003e-01
-2.092088620050795711e-01
-1.913051749477845120e-01
-1.690844679087422087e-01
-1.425074864746246894e-01
-1.116349686189212487e-01
-7.671432600380646838e-02
-3.803645828650492611e-02
3.913078498023417166e-03
4.854986292630962541e-02
9.520855997867469500e-02
1.430691534065065829e-01
1.912855397340373631e-01
2.389373463622439520e-01
2.850657990309372614e-01
3.287288840973215387e-01
3.690185028604224260e-01
4.050464277635387744e-01
4.360687295170161404e-01
4.614192626286776067e-01
4.805479335456813161e-01
4.931401139338832396e-01
4.989381899551101895e-01
4.979508230562668114e-01
4.903335076567463258e-01
4.763626583407088999e-01
4.565655180223786025e-01
4.315173983261084145e-01
4.019537287437392470e-01
3.687003847008014645e-01
3.326047327380092788e-01
2.945583873909251027e-01
2.554506227622112546e-01
2.160887814323010636e-01
1.772322727760120564e-01
1.395544008815077508e-01
1.035382719028922205e-01
6.962034419483040248e-02
3.801716177090377208e-02
8.813747887651393609e-03
-1.799869135972771358e-02
-4.263967898879790497e-02
-6.536829067760573098e-02
-8.655428370061318821e-02
-1.066352484093895797e-01
-1.260469651172374528e-01
-1.452186389490738860e-01
-1.645681257251792595e-01
-1.843961602595497740e-01
-2.049294222457461179e-01
-2.263084294967762922e-01
-2.484675263136927603e-01
-2.712942757102999591e-01
-2.944877627462940128e-01
-3.176248777255231137e-01
-3.402233715219341037e-01
-3.616584507987372632e-01
-3.812815978373311765e-01
-3.984219587074537827e-01
-4.123939049243278143e-01
-4.225513053065551028e-01
-4.283502767093488872e-01
-4.292771232316598407e-01
-4.249942618792584281e-01
-4.152847135630383657e-01
-4.000281916350887368e-01
-3.793542618814668144e-01
-3.534488242890350684e-01
-3.227000186093171852e-01
-2.876381810357248603e-01
-2.488580298843547089e-01
-2.071218313248578136e-01
-1.632242015990023609e-01
-1.180148822969796646e-01
-7.238339323905715328e-02
-2.720392854130645327e-02
1.669485431941533302e-02
5.850042337097965256e-02
9.751617157542731562e-02
1.331315430242206166e-01
1.648056152174856570e-01
1.921931381429381747e-01
2.149956758300299031e-01
2.330859759677614829e-01
2.464672783896885155e-01
2.552059820208049112e-01
2.595470718762864504e-01
2.597750696958074368e-01
2.562725840973723024e-01
2.494990197960004208e-01
2.399322852962620656e-01
2.281008564868330368e-01
2.145420625045447172e-01
1.997799642584118796e-01
1.843279440326622276e-01
1.686770970909923228e-01
1.532488810731685025e-01
1.384461441846638052e-01
1.245907739686460680e-01
1.119377686597626403e-01
1.007056862391041141e-01
9.100065918519849306e-02
8.290136925758033459e-02
7.640741070445593308e-02
7.145126492674248875e-02
6.794138915708726467e-02
6.571254678561387619e-02
6.458245478371485437e-02
6.434048627085833805e-02
6.475131020742448673e-02
6.557896739734972447e-02
6.658818916379090347e-02
6.754509268846725645e-02
6.823927649331097689e-02
6.848136107823839247e-02
6.809639088251245864e-02
6.695835457267354518e-02
6.495421933302689133e-02
6.201144349566246189e-02
5.809471751467106676e-02
5.318333846415287253e-02
4.730537318450964146e-02
4.050146377437117279e-02
3.283997523544174291e-02
2.441545468675515931e-02
1.532983646318001117e-02
5.709254892887207292e-03
-4.314013346352725368e-03
-1.459920139159230287e-02
-2.499730689961697505e-02
-3.535876601439759404e-02
-4.553314115555564395e-02
-5.537003982917176881e-02
-6.472499265965037107e-02
-7.345943127597100164e-02
-8.143905164196649227e-02
-8.854576607817644940e-02
-9.466627305149873106e-02
-9.970374443853573243e-02
-1.035782084262917707e-01
-1.062172732673254405e-01
-1.075769768544499322e-01
-1.076216299558005046e-01
-1.063372685332498319e-01
-1.037327607400597845e-01
-9.982514272008477518e-02
-9.466191907207256728e-02
-8.829949929310462742e-02
-8.081325069752766377e-02
-7.229900407576696220e-02
-6.285872308237623607e-02
-5.261706170526896792e-02
-4.170537458520954394e-02
-3.026651451911647334e-02
-1.845608189860119958e-02
-6.432464317189794979e-03
5.636233325760431692e-03
1.757910636303692056e-02
2.922457316145548809e-02
4.040028143315066433e-02
5.093578735596004242e-02
6.066984777560152642e-02
6.944436319937995206e-02
7.711468547444468025e-02
8.355189971829454776e-02
8.863436261088912527e-02
9.227146572663610935e-02
9.438282944482462300e-02
9.491445429007412671e-02
9.384403306273311762e-02
9.116029126360543355e-02
8.689790080329824751e-02
8.110677823772849404e-02
7.386677714251049798e-02
6.529469210252854261e-02
5.551728730589786803e-02
4.470112237912544223e-02
3.302606382222508102e-02
2.068919576445170730e-02
7.909422760523011908e-03
-5.091103911651326079e-03
-1.808039876025905462e-02
-3.082334402892555197e-02
-4.309019746011191060e-02
-5.465822070785751607e-02
-6.530976874507400665e-02
-7.485267426396810531e-02
-8.310408575307404178e-02
-8.990556927934943710e-02
-9.513135163851857423e-02
-9.866653887120467592e-02
-1.004451279107982653e-01
-1.004191168458179323e-01
-9.857346511503799202e-02
-9.493841629824630035e-02
-8.955655811363871788e-02
-8.252360633736456619e-02
-7.395519418188629956e-02
-6.399529299753152489e-02
-5.282786052950561723e-02
-4.064557609164830276e-02
-2.767564382992065974e-02
-1.415839598949120842e-02
-3.441556879904507024e-04
1.350228725586184036e-02
2.711588253338037199e-02
4.023705506206555482e-02
5.260866110218410246e-02
6.399086818279682565e-02
7.416965394780376808e-02
8.294101331431368018e-02
9.015201672895499507e-02
9.567068104148759855e-02
9.940341749075930211e-02
1.013154010279024991e-01
1.013873344550745986e-01
9.967025417542596522e-02
9.624452915327025293e-02
9.122621662431561196e-02
8.478745080501756681e-02
7.711142504432295930e-02
6.842353686903031307e-02
5.896707180891537503e-02
4.899341614401135636e-02
3.876697028253475730e-02
2.855109940121578621e-02
1.859336252509420986e-02
9.134155904146590635e-03
3.909466155293380915e-04
-7.456908843918095935e-03
-1.424129302350704562e-02
-1.985020559710118718e-02
-2.419708057029848480e-02
-2.722756572107822015e-02
-2.894221932953467552e-02
-2.935346530048978109e-02
-2.852297529101072149e-02
-2.653523112462342209e-02
-2.349255751484393556e-02
-1.952845211187082680e-02
-1.478136082921570685e-02
-9.403724305510157561e-03
-3.554579964318357356e-03
2.608232270468312068e-03
8.929108744094188879e-03
1.525431599256217921e-02
2.144339596488304897e-02
2.736243337777211071e-02
3.288710582216870792e-02
3.791084951759930710e-02
4.233121949122972683e-02
4.606411622766613118e-02
4.903468675404341892e-02
5.117685521378537855e-02
5.244120087524151153e-02
5.278205255485555331e-02
5.217000191256090241e-02
5.058407528676196752e-02
4.801259471962750908e-02
4.446203083608973178e-02
3.994332752041616919e-02
3.448861274975147106e-02
2.814130047650855587e-02
2.095668375447618664e-02
1.301388404152850620e-02
4.397297687714775416e-03
-4.786347159928513832e-03
-1.441812401636718283e-02
-2.437047228758354792e-02
-3.449811267047461077e-02
-4.465268568042254221e-02
-5.467745894422468972e-02
-6.441102450838566418e-02
-7.369305195212728921e-02
-8.236562817539365422e-02
-9.027243866565055896e-02
-9.727001751626025705e-02
-1.032223373751320894e-01
-1.080038012910801704e-01
-1.115116028460870629e-01
-1.136485984224995249e-01
-1.143447857492617958e-01
-1.135462669497529081e-01
-1.112136040142999438e-01
-1.073396790209436708e-01
-1.019247059518017667e-01
-9.499975960824570687e-02
-8.661471936321395171e-02
-7.683392165289300302e-02
-6.575483209526813977e-02
-5.348218434564285667e-02
-4.014908021883116518e-02
-2.590637451580519307e-02
-1.091631028878367951e-02
4.632153968420027294e-03
2.054466843128517628e-02
3.661001821766143166e-02
5.260615521733594258e-02
6.830800799645479759e-02
8.348346617038288064e-02
9.789994861637472956e-02
1.113320499759211518e-01
1.235591220561466225e-01
1.343705705110961601e-01
1.435811970981746566e-01
1.510127797262649785e-01
1.565243262251050926e-01
1.600001246254861009e-01
1.613464840569386327e-01
1.605262216566001321e-01
1.575155324995959893e-01
1.523452376932848684e-01
1.450842456014347082e-01
1.358246806852548838e-01
1.247193007388089081e-01
1.119340417181940717e-01
9.767570081611140487e-02
8.218033379828901253e-02
6.569476793332136577e-02
4.849403953903046877e-02
3.085836732513640504e-02
1.307236415012040173e-02
-4.576131841427196791e-03
-2.180500651297770376e-02
-3.834877091881559036e-02
-5.394684464718316197e-02
-6.836698518026997073e-02
-8.139837136909809645e-02
-9.284628873342776201e-02
-1.025620422823560335e-01
-1.104081851825564897e-01
-1.162895643374688426e-01
-1.201438624781512865e-01
-1.219268873302519762e-01
-1.216470005396204090e-01
-1.193250524151956843e-01
-1.150217529756419332e-01
-1.088295984701676822e-01
-1.008558013700553840e-01
-9.125096853855464707e-02
-8.017584742386504870e-02
-6.781839832854073824e-02
-5.438887137610443762e-02
-4.010489272722783660e-02
-2.520581587300734297e-02
-9.935650934293598080e-03
5.456899375484420764e-03
2.071918516382075318e-02
3.560197586465789488e-02
4.986784743129832331e-02
6.328310724837313272e-02
7.563691034542345537e-02
8.673815700408703255e-02
9.640936069283816134e-02
1.045175775393213935e-01
1.109416208633179773e-01
1.156014619686447226e-01
1.184536049924877210e-01
1.194714070793837235e-01
1.186834343180250412e-01
1.161322865278989341e-01
1.118960865002451149e-01
1.060853425088381929e-01
9.882027875396544314e-02
9.025228003584181979e-02
8.054024831598176337e-02
6.985137598926195734e-02
5.836061840723586608e-02
4.624130143170476076e-02
3.365948780226867693e-02
2.077887676117367438e-02
7.749134273704089311e-03
-5.293570078456213794e-03
-1.821926466278465939e-02
-3.091992694170678929e-02
-4.329338521648420923e-02
-5.524923623025138758e-02
-6.670870141757234695e-02
-7.759486418330195645e-02
-8.783628529306784782e-02
-9.736273298875981752e-02
-1.061001143933479884e-01
-1.139704194005141807e-01
-1.208927567048130869e-01
-1.267750577511275456e-01
-1.315221390546877367e-01
-1.350331162613171987e-01
-1.372011646791132800e-01
-1.379202779055003214e-01
-1.370891176490821040e-01
-1.346082435135001754e-01
-1.303953041131596380e-01
-1.243862372616071632e-01
-1.165284702145196194e-01
-1.068159559284374005e-01
-9.525701833463699753e-02
-8.190395157595381503e-02
-6.685738306868072023e-02
-5.023619483769737465e-02
-3.223072803079803095e-02
-1.305304941352854187e-02
7.041257934273555640e-03
2.774748043972208311e-02
4.874937649929275696e-02
6.968915409425274765e-02
9.019676749667596138e-02
1.098981534323835718e-01
1.284145911834630449e-01
1.453744646748487412e-01
1.604416416190721228e-01
1.732921711225501316e-01
1.836507693634651939e-01
1.913001220736561536e-01
1.960465486840288485e-01
1.977969721251831570e-01
1.964916053191572975e-01
1.921423235865742374e-01
1.848486766690716487e-01
1.747353536333073332e-01
1.620285020426169842e-01
1.469880506456983371e-01
1.299231379033761180e-01
1.112047373861352606e-01
9.121545863570332258e-02
7.037865661779155180e-02
4.913109745850970100e-02
2.790929671837089066e-02
7.149435854684047485e-03
-1.271976013314540799e-02
-3.131012545517319196e-02
-4.824839361669285703e-02
-6.320761538754826603e-02
-7.592226682581039443e-02
-8.614829483858886527e-02
-9.373866967530859740e-02
-9.858179770232840256e-02
-1.006318204463819699e-01
-9.993241641969946576e-02
-9.655123855711032765e-02
-9.065789079606204059e-02
-8.245979144012337281e-02
-7.221499658416229150e-02
-6.025239800164515491e-02
-4.691489310342789043e-02
-3.259765821157629972e-02
-1.771542061441757493e-02
-2.690586951246136567e-03
1.204343359390255309e-02
2.605722258829562196e-02
3.895134426331878924e-02
5.033859693018053610e-02
5.987297837528304106e-02
6.726936123542476276e-02
7.226314915786774540e-02
7.468958593691089887e-02
7.442438571785502111e-02
7.141062029377961973e-02
6.569355107926494464e-02
5.734402490702681515e-02
4.654527211802608061e-02
3.352690939527657593e-02
1.857076652710184725e-02
2.039994380799473820e-03
-1.568746689619379339e-02
-3.418103880012821755e-02
-5.298814139379461052e-02
-7.165322330862376743e-02
-8.971608189969047797e-02
-1.067223394746575488e-01
-1.222615738680334907e-01
-1.359429150114733198e-01
-1.474239484849010906e-01
-1.564420672418548042e-01
-1.627580119291574812e-01
-1.662480746177246727e-01
-1.668405173386004192e-01
-1.645335919829112592e-01
-1.594438445297737261e-01
-1.517147492205758730e-01
-1.416060186103236529e-01
-1.294307834854704353e-01
-1.155487310385259481e-01
-1.004002422447291404e-01
-8.443843130737908875e-02
-6.815238347857420498e-02
-5.204787548172289807e-02
-3.661755310353637799e-02
-2.233035536095311427e-02
-9.641834229811088730e-03
1.080187462824804337e-03
9.510877764777065507e-03
1.540094290374121461e-02
1.863980592480057180e-02
1.915308976411613309e-02
1.704301736530723990e-02
1.250014103955143265e-02
5.809493742440878516e-03
-2.566011474347940254e-03
-1.212669419376210742e-02
-2.222736041598791235e-02
-3.214836380248745074e-02
-4.113211707848764970e-02
-4.834822607581959475e-02
-5.296134338404070302e-02
-5.416679590144228562e-02
-5.117653855303234273e-02
-4.327781317040690218e-02
-2.990852932304422646e-02
-1.055258170028268438e-02
1.504840229550148331e-02
4.701279020708289125e-02
8.529136325262477725e-02
1.294920170467460385e-01
1.791434909822048338e-01
2.334235951259159836e-01
2.913147929698076122e-01
3.516518695397168881e-01
4.129606125563598518e-01
4.737103403145992431e-01
5.322023686305403789e-01
5.866423193028866834e-01
6.352426552958287953e-01
6.762332070750560753e-01
7.078679895135289168e-01
7.286249939063863534e-01
7.371143258483386917e-01
7.321443178787708783e-01
7.129650031830411239e-01
6.789373905489343164e-01
6.299603982831070148e-01
5.662579686714671601e-01
4.883264191813335153e-01
3.972817096190964237e-01
2.943721985609432101e-01
1.813417820267058111e-01
6.024163788540855963e-02
-6.672254753563609808e-02
-1.969881179000089189e-01
-3.279328584159309501e-01
-4.568480661316527969e-01
-5.809702389429926006e-01
-6.976132409322652883e-01
-8.042827139252799462e-01
-8.985470566496009948e-01
-9.783762553467353351e-01
-1.042003532703172031e+00
-1.087918396608542393e+00
-1.115245629666350879e+00
-1.123259393550219087e+00
-1.111857464734288481e+00
-1.081357230362645527e+00
-1.032340683215064114e+00
-9.660572012388400909e-01
-8.838981749232779350e-01
-7.877020759082535850e-01
-6.796162907143291632e-01
-5.619023074454497779e-01
-4.371105490623371503e-01
-3.078410309678882295e-01
-1.767172450706596953e-01
-4.637922804318064807e-02
8.061309010266956565e-02
2.019215792804698040e-01
3.152715882480605636e-01
4.187416817412735193e-01
5.106681380324797903e-01
5.895827104462433299e-01
6.545556653885403753e-01
7.047851153042479222e-01
7.399417735942870333e-01
7.600504804875176657e-01
7.653203564125563574e-01
7.564746601210201593e-01
7.343516263101557140e-01
7.001101149692990910e-01
6.551557463069209719e-01
6.009746699765503575e-01
5.392767035354946170e-01
4.718157131260914960e-01
4.003777471215448358e-01
3.267742725074131438e-01
2.527746278942420988e-01
1.800151060664626768e-01
1.100929132286246753e-01
4.438892370260699022e-02
-1.589168908485834308e-02
-6.966032154830346934e-02
-1.161853856799841545e-01
-1.548243534153384560e-01
-1.852352454404549986e-01
-2.073267946245401783e-01
-2.211201868300443907e-01
-2.269824666180895734e-01
-2.253633450153099960e-01
-2.169141879875998158e-01
-2.024591394342712680e-01
-1.828694386152081852e-01
-1.591575623229148917e-01
-1.323665443668828046e-01
-1.035494553712344584e-01
-7.376819649836763304e-02
-4.405565947064308402e-02
-1.534191129053870395e-02
1.147291508287114938e-02
3.563150030292396020e-02
5.650561656488010259e-02
7.353646143407008284e-02
8.639954224873763744e-02
9.483205661506635686e-02
9.874753436515924798e-02
9.822321290428577545e-02
9.339616737352118836e-02
8.460350772253588669e-02
7.223371115580030921e-02
5.677554300935955256e-02
3.881339856483882744e-02
1.895078560147068353e-02
-2.149940737204214698e-03
-2.381289295856870228e-02
-4.537574699314768367e-02
-6.618946245798280892e-02
-8.562711008942242019e-02
-1.031472420499611742e-01
-1.182337329582309610e-01
-1.304665800237194417e-01
-1.395224697052912799e-01
-1.451215230993343208e-01
-1.471441121407641994e-01
-1.455162643158569857e-01
-1.402786446774218487e-01
-1.315903542181721397e-01
-1.196492756907565069e-01
-1.047938274927937841e-01
-8.740215800736769736e-02
-6.792143123546530437e-02
-4.687204458705913207e-02
-2.478780036357249722e-02
-2.245424749124606302e-03
2.016719950400941083e-02
4.187592718385796386e-02
6.232158544833135000e-02
8.096383540298866810e-02
9.734341192293056999e-02
1.110269033553749340e-01
1.216700531903146670e-01
1.290284055035284261e-01
1.328977024461254763e-01
1.332352215349401625e-01
1.300486018744395345e-01
1.234562318646319767e-01
1.137038332108706584e-01
1.010733243563428918e-01
8.598575470728811454e-02
6.890540438756374841e-02
5.035328682257194516e-02
3.091741023375341527e-02
1.119231255085533124e-02
-8.214344441798415719e-03
-2.669214944060043643e-02
-4.367356571139501681e-02
-5.864307029982231134e-02
-7.111483047236051569e-02
-8.073781468474000578e-02
-8.720689721725211063e-02
-9.033210777636485611e-02
-9.006695721893651085e-02
-8.640949210427259497e-02
-7.954380207988037688e-02
-6.971723705140948912e-02
-5.727429661117240667e-02
-4.268380257921441240e-02
-2.643837829719140192e-02
-9.115312761929728058e-03
8.679701471975437635e-03
2.634305922963816812e-02
4.327392831151689184e-02
5.888785822245758139e-02
7.269064366300774516e-02
8.422157872083256558e-02
9.311554221131845832e-02
9.913651543097901087e-02
1.020889437736158117e-01
1.019573770711965366e-01
9.879280480444975476e-02
9.274521717176670288e-02
8.410192042387194811e-02
7.317841025155820411e-02
6.039742901724465957e-02
4.622153907523927213e-02
3.113294662176300728e-02
1.564178887447804228e-02
2.535932644064983060e-04
-1.456746751130867656e-02
-2.837398070662721511e-02
-4.077586496253349929e-02
-5.146701869720943928e-02
-6.016742931920539272e-02
-6.671980179192338323e-02
-7.101593866301408875e-02
-7.301769802894232664e-02
-7.279228089005415625e-02
-7.042982697481554866e-02
-6.611338935781951864e-02
-6.006383686427317625e-02
-5.253317305306301477e-02
-4.382143437270550473e-02
-3.423458003410561473e-02
-2.409070312483932441e-02
-1.371270151887563418e-02
-3.409969287754479640e-03
6.529605508979257136e-03
1.582713845759328719e-02
2.425312242063606613e-02
3.159957173076650971e-02
3.769437366099828712e-02
4.242394237502144366e-02
4.568946475210178965e-02
4.745952960274509719e-02
4.773269734997678815e-02
4.654203694776924694e-02
4.397840619442703464e-02
4.014476864071386819e-02
3.519294860678202908e-02
2.929698795372434952e-02
2.264718874283365088e-02
1.546176391400620742e-02
7.962544489510484449e-03
3.778717469122856026e-04
-7.060995961342506934e-03
-1.413192020219615833e-02
-2.062899292787510191e-02
-2.635266910087791931e-02
-3.114070566574366622e-02
-3.484893856539861973e-02
-3.736067167896689467e-02
-3.860918094230877257e-02
-3.854003123311008222e-02
-3.715603420467264439e-02
-3.448836447699655389e-02
-3.059635169065128696e-02
-2.559184590119687949e-02
-1.959720670199589093e-02
-1.277489494657891439e-02
-5.307707110019090242e-03
2.611295752152322219e-03
1.076952454188056033e-02
1.895263142286979230e-02
2.695040625032385853e-02
3.455488863375858616e-02
4.157137841105059545e-02
4.783148681737055263e-02
5.317449669120860589e-02
5.748124444194935984e-02
6.065492731404146382e-02
6.262301593310320991e-02
6.336216829174071141e-02
6.285982401087106264e-02
6.114841112082915198e-02
5.828517350943759195e-02
5.434463160503573420e-02
4.943709887417293419e-02
4.367944319174190543e-02
3.720837713844906552e-02
3.017183501254750919e-02
2.272034822680810834e-02
1.500979342675299796e-02
7.196074123832074156e-03
-5.716955968622892958e-04
-8.148377163468091544e-03
-1.539580791182220201e-02
-2.219124906618717696e-02
-2.841579878047419822e-02
-3.396895282298049989e-02
-3.876122911761865214e-02
-4.271278129836347803e-02
-4.576550630879649278e-02
-4.786625319351928143e-02
-4.898273247909915723e-02
-4.909549182797252886e-02
-4.819518133346770844e-02
-4.629584150292020972e-02
-4.341678171233459560e-02
-3.959871357202303377e-02
-3.489587677558728812e-02
-2.937215420170734975e-02
-2.311433009546763270e-02
-1.621414589830415254e-02
-8.781460105543131139e-03
-9.378907577006941054e-04
7.188847473689330761e-03
1.545629419869067739e-02
2.371931389349755254e-02
3.182780867341310910e-02
3.962838056694229644e-02
4.697013388389671695e-02
5.370876882284215947e-02
5.970241054934816161e-02
6.482657165082061912e-02
6.896868943969873544e-02
7.202837423613116241e-02
7.393689433243391673e-02
7.463323738347063530e-02
7.408959289612566945e-02
7.230152662468719571e-02
6.927953454985016912e-02
6.507355370756887081e-02
5.974228538847672909e-02
5.337297598186636904e-02
4.607351232355937770e-02
3.796046600335124810e-02
2.917354769724255642e-02
1.985711296426001873e-02
1.016411399322025497e-02
2.538857718792988938e-04
-9.714725237906784994e-03
-1.958472653741328076e-02
-2.920008506611360133e-02
-3.841400105435455181e-02
-4.708672260344331367e-02
-5.508444747889797155e-02
-6.229060911494424535e-02
-6.859294475919397449e-02
-7.389611530068047884e-02
-7.811804860966796438e-02
-8.118464299832871267e-02
-8.304523025684193427e-02
-8.365493132548362798e-02
-8.298963825916878811e-02
-8.104196840768637666e-02
-7.781389746535720409e-02
-7.333557448618301111e-02
-6.764411108991241761e-02
-6.079985199401591323e-02
-5.288235726721660090e-02
-4.398048332104562141e-02
-3.421158734370606525e-02
-2.369993717136242850e-02
-1.258891626818013643e-02
-1.038146748729433695e-03
1.078731927052331216e-02
2.270587104152137561e-02
3.453222563557710456e-02
4.607767659355032491e-02
5.715053063192540583e-02
6.756210997446839006e-02
7.713456080287629801e-02
8.569344910574834551e-02
9.308471867689736834e-02
9.917257629935147256e-02
1.038331313345395995e-01
1.069828104962081278e-01
1.085488787013853262e-01
1.084947254828187990e-01
1.068169929777079696e-01
1.035267356869384869e-01
9.868365756151595281e-02
9.236016156279558409e-02
8.465929311036600458e-02
7.571306798913912672e-02
6.566206368333431243e-02
5.467513580030835402e-02
4.292827976288612207e-02
3.060642872892778768e-02
1.790319473091261243e-02
5.011794310180757786e-03
-7.877513670091554343e-03
-2.057565126551974891e-02
-3.290395551053155315e-02
-4.469415062930725407e-02
-5.578365701362202056e-02
-6.603114145707573990e-02
-7.530136238994125653e-02
-8.347624200869678546e-02
-9.045528400351553200e-02
-9.614479753266567952e-02
-1.004761783100471956e-01
-1.033880795432325500e-01
-1.048370859197498006e-01
-1.047986474520156419e-01
-1.032552371829009025e-01
-1.002157073913070018e-01
-9.569672240100457472e-02
-8.973387881150036993e-02
-8.238323100653877074e-02
-7.370815616070999776e-02
-6.380002699624466589e-02
-5.275864855540035592e-02
-4.070239027905664386e-02
-2.777022541709596448e-02
-1.410737045560841313e-02
1.172805079440158299e-04
1.472768688608215581e-02
2.953683269708135689e-02
4.434519084636926595e-02
5.895151223625479803e-02
7.314963148075845356e-02
8.673213197310908340e-02
9.949778739916231851e-02
1.112526200962570544e-01
1.218080368088926974e-01
1.309996669965638738e-01
1.386712469898654931e-01
1.446909114281608455e-01
1.489561381231056525e-01
1.513752737101417278e-01
1.519025293446269187e-01
1.505073922637242545e-01
1.471907379398418036e-01
1.419922154483339860e-01
1.349625229537658733e-01
1.261971914047161358e-01
1.158068592837647320e-01
1.039252560960438887e-01
9.071540840466586764e-02
7.634689995838787879e-02
6.101427229475724079e-02
4.492059293223164135e-02
2.827747018630104997e-02
1.130764055556345189e-02
-5.764872345156333948e-03
-2.271306936212360086e-02
-3.930903824762161519e-02
-5.532934959636024580e-02
-7.055657981753944707e-02
-8.477689158587828344e-02
-9.779447364621084160e-02
-1.094202969859567748e-01
-1.194836296005999943e-01
-1.278389090852941612e-01
-1.343495213246187203e-01
-1.389206659460787974e-01
-1.414734307085933895e-01
-1.419604786142582009e-01
-1.403790875662991045e-01
-1.367395676209412214e-01
-1.311107869031161166e-01
-1.235842608501722950e-01
-1.142864789814108384e-01
-1.033946871049977040e-01
-9.109812462188675297e-02
-7.763612443825558540e-02
-6.326771557424509806e-02
-4.827102194788015360e-02
-3.295261348028988291e-02
-1.762240367927868367e-02
-2.596895393565014885e-03
1.180502420767466989e-02
2.527824474156523463e-02
3.753880325600040396e-02
4.831252749165541177e-02
5.737862456591476257e-02
6.453885435880772625e-02
6.963883618093105743e-02
7.259324423244316316e-02
7.333557305522185599e-02
7.188715823992566922e-02
6.830706275693301799e-02
6.270204888941981192e-02
5.525597467932443635e-02
4.616893512969402064e-02
3.570652234407124120e-02
2.416301278594476173e-02
1.185235620734037196e-02
-8.789149410067019844e-04
-1.368125771634245633e-02
-2.620568257985503996e-02
-3.810368266265591608e-02
-4.904555084930178888e-02
-5.873377439775386011e-02
-6.688188445724092823e-02
-7.326337732570911698e-02
-7.767976996747190388e-02
-7.997307560387835468e-02
-8.005635424818750845e-02
-7.785972930415085980e-02
-7.339067611214959708e-02
-6.669363746473960797e-02
-5.785051518378880875e-02
-4.701063205866506250e-02
-3.433706481029127899e-02
-2.004697045672846831e-02
-4.383982637580525511e-03
1.239059123454367035e-02
2.998286868266648517e-02
4.809416603185373562e-02
6.641530447344190513e-02
8.463190358865177454e-02
1.024353612001832753e-01
1.195282124713597932e-01
1.356176605892576437e-01
1.504405831795980475e-01
1.637493077724727353e-01
1.753185590653909554e-01
1.849669163437241415e-01
1.925238795767528210e-01
1.978711494722438513e-01
2.009182590705941573e-01
2.016028760679341170e-01
1.999191453685049413e-01
1.958737437668029158e-01
1.895265412561857044e-01
1.809665125300297106e-01
1.703059141015773881e-01
1.577049118051905285e-01
1.433333202681863483e-01
1.273962938054082894e-01
1.101188271085891124e-01
9.173630329921306226e-02
7.250591221298288702e-02
5.268801345154449506e-02
3.254648513651410557e-02
1.234719557825827985e-02
-7.651004391028196246e-03
-2.720479935117866427e-02
-4.607589292154969096e-02
-6.405649887685185839e-02
-8.095696828360218755e-02
-9.660722793464088243e-02
-1.108811162542796408e-01
-1.236625434231586884e-01
-1.348785090398439690e-01
-1.444822882455490121e-01
-1.524450298397276859e-01
-1.587787860392233241e-01
-1.635037739692394021e-01
-1.666661915233901003e-01
-1.683284983228513776e-01
-1.685590400290997992e-01
-1.674397245976156079e-01
-1.650544691937067820e-01
-1.614873214862581619e-01
-1.568224038510195872e-01
-1.511405550093380956e-01
-1.445144776033076561e-01
-1.370149395244148471e-01
-1.287043445474690129e-01
-1.196395690093958186e-01
-1.098757149325902127e-01
-9.946360927028308208e-02
-8.845374019728793891e-02
-7.690074415141191777e-02
-6.486208297336210071e-02
-5.240052433651534725e-02
-3.959262953324795692e-02
-2.651847130353460896e-02
-1.327462464279645718e-02
3.081707745565629569e-05
1.328274525091453599e-02
2.634771017739119883e-02
3.908852781161744477e-02
5.135907864707354303e-02
6.300684243845376675e-02
7.388032729278409816e-02
8.383129488313348365e-02
9.271326614179538350e-02
1.003965237735711113e-01
1.067637022868248298e-01
1.117100213978865081e-01
1.151660032367262942e-01
1.170710000563865566e-01
1.174013090305328494e-01
1.161611810391112720e-01
1.133709039986571521e-01
1.090961532170888343e-01
1.034129839837947817e-01
9.642824487962088631e-02
8.827271470092958039e-02
7.908592058138740055e-02
6.903213636483492011e-02
5.828086615908573825e-02
4.701003854486413003e-02
3.540430595097976418e-02
2.364793069598569025e-02
1.192336138220857072e-02
4.121784927142071314e-04
-1.071249298596197927e-02
-2.128446219615890561e-02
-3.114282945547595938e-02
-4.014316178074449348e-02
-4.814530331447718775e-02
-5.502545312838837133e-02
-6.067358581304105325e-02
-6.498777161273609770e-02
-6.789166133871728237e-02
-6.931558416383085119e-02
-6.921408849814505992e-02
-6.756267543694623179e-02
-6.434838596364374219e-02
-5.959558360275675482e-02
-5.333833645817203511e-02
-4.564231985096163513e-02
-3.660129445398231651e-02
-2.632164258014001862e-02
-1.495104787560465678e-02
-2.647701298765616114e-03
1.040363239078373470e-02
2.399393577955628853e-02
3.790693861877772464e-02
5.190309814350878986e-02
6.573732816991513517e-02
7.915992770195275086e-02
9.191686994270664712e-02
1.037576283457809917e-01
1.144455051112226590e-01
1.237482204324649171e-01
1.314584134812250005e-01
1.373927146745446970e-01
1.413818471647370623e-01
1.433075495100710750e-01
1.430659421167531642e-01
1.405978570531126459e-01
1.358883391264570639e-01
1.289405322491045391e-01
1.198226016090550433e-01
1.086208407889703992e-01
9.546490369564226974e-02
8.052848171781518127e-02
6.399948104829930595e-02
4.611644591592577169e-02
2.713202866591216469e-02
7.324263571187788167e-03
-1.300233870080209561e-02
-3.353778696708847179e-02
-5.395401066594043143e-02
-7.391819157173745714e-02
-9.309934818606946383e-02
-1.111684668851961877e-01
-1.278023621660572540e-01
-1.427030516926632298e-01
-1.555806765084370991e-01
-1.661783241491082141e-01
-1.742753366874745802e-01
-1.796681319035195179e-01
-1.822221209507025597e-01
-1.818242427423172047e-01
-1.784188421520990775e-01
-1.720151460388266440e-01
-1.626455761775622844e-01
-1.504347438937208847e-01
-1.355361007422404285e-01
-1.181615684601179384e-01
-9.859094497680671865e-02
-7.712226705584503128e-02
-5.412318683005375164e-02
-2.998312284704283959e-02
-5.117460686752012787e-03
2.002745405583065269e-02
4.500320783996743929e-02
6.936011655114196484e-02
9.264883792971791154e-02
1.144452025570146109e-01
1.343558757344020804e-01
1.520038264285551721e-01
1.670860321643654611e-01
1.793248928138590215e-01
1.885060398147825611e-01
1.944946543799627448e-01
1.971814410914501381e-01
1.965654215966072815e-01
1.926829998298766056e-01
1.856347828525850840e-01
1.756043388953387741e-01
1.627953315003826118e-01
1.474911338141703387e-01
1.300029298404037637e-01
1.106717496579024268e-01
8.987822754467576780e-02
6.800788961472996330e-02
4.545841695955016304e-02
2.263145064553552174e-02
-8.419383166766332416e-05
-2.231720509693064375e-02
-4.370550934014877376e-02
-6.393344704813658241e-02
-8.270290853397299635e-02
-9.975349958017028229e-02
-1.148776617253446236e-01
-1.278830237332934383e-01
-1.386446808904431838e-01
-1.470635662494824414e-01
-1.530791977058432729e-01
-1.566866066177995120e-01
-1.578940808498459081e-01
-1.567653314887611782e-01
-1.533857601073526367e-01
-1.478666957568927909e-01
-1.403577767857565328e-01
-1.310166644991636875e-01
-1.200325666754652187e-01
-1.076073202309681398e-01
-9.395424819718296849e-02
-7.930409722327470823e-02
-6.389030253847234608e-02
-4.795441287457708618e-02
-3.174123654787906756e-02
-1.549364801986307175e-02
5.485156958473548505e-04
1.614790487237229705e-02
3.108233833418611730e-02
4.513620369319995551e-02
5.810940636019682609e-02
6.982674728200707892e-02
8.012082757211200224e-02
8.886338831903860258e-02
9.594337748058590076e-02
1.012770824386599877e-01
1.048258288741213129e-01
1.065624767834392472e-01
1.065131815365518292e-01
1.047280361082014166e-01
1.012849037347118147e-01
9.630860989608726330e-02
8.993366115719624021e-02
8.233312564945292900e-02
7.369776222601125137e-02
6.422954434889739661e-02
5.414986155037294219e-02
4.368202823240108917e-02
3.304914330422150520e-02
2.247409424464994268e-02
1.216956681937503282e-02
2.329942757368220433e-03
-6.856346652826700826e-03
-1.523339693525771477e-02
-2.266118809294189948e-02
-2.902044379209999664e-02
-3.422997446972746854e-02
-3.821736223819567624e-02
-4.094898244788890834e-02
-4.241060640112175734e-02
-4.260562536878072931e-02
-4.157060037008354636e-02
-3.934880377304525445e-02
-3.600938956577006550e-02
-3.163479040795536684e-02
-2.631685186001821858e-02
-2.016558252865524245e-02
-1.329437788451278898e-02
-5.828103235276401069e-03
2.102336531885919645e-03
1.036302653278757535e-02
1.881411671797189253e-02
2.731500399833080781e-02
3.572468467016231414e-02
4.390195737918146934e-02
5.170844377543915016e-02
5.901159919157999284e-02
6.568092339338876817e-02
7.159854595179493408e-02
7.665366148025132276e-02
8.074539591868457045e-02
8.379381548309580707e-02
8.572436850777671868e-02
8.648924752367931346e-02
8.605597921612258283e-02
8.440720913785466906e-02
8.155824457699183128e-02
7.753169083526796623e-02
7.238069731598913148e-02
6.617638151600335750e-02
5.900197740513586642e-02
5.096746522560908349e-02
4.218788926347100815e-02
3.279327604146502206e-02
2.292269123921068449e-02
1.271687388710535278e-02
2.320149243969705198e-03
-8.123292601517926453e-03
-1.847632458668764868e-02
-2.860621887125944229e-02
-3.838673763366861474e-02
-4.770695580016576925e-02
-5.645962016717638587e-02
-6.455392274264916408e-02
-7.190955116106075018e-02
-7.845334281326001025e-02
-8.412926473349337242e-02
-8.888488228744170772e-02
-9.267984349109463504e-02
-9.548171584431904002e-02
-9.726212662416840182e-02
-9.800261349318317716e-02
-9.768684705789731915e-02
-9.630578629405116275e-02
-9.385530141656987790e-02
-9.033523683514740887e-02
-8.575553890913810429e-02
-8.012878850625401728e-02
-7.348052075288365181e-02
-6.584523945058050332e-02
-5.726549424602589422e-02
-4.780491448517790870e-02
-3.753227822427927796e-02
-2.653837038909316604e-02
-1.492962105923362204e-02
-2.822433518020395736e-03
9.640183693614665789e-03
2.230934463332698639e-02
3.501782324775438299e-02
4.758500451884068588e-02
5.982620645539765691e-02
7.154604969344281751e-02
8.254759868814112722e-02
9.263869692297724279e-02
1.016307784837994360e-01
1.093438475812511385e-01
1.156227586791575279e-01
1.203192138868865724e-01
1.233196800079861821e-01
1.245374147165383694e-01
1.239043124590234468e-01
1.214064395644794264e-01
1.170430097517618229e-01
1.108595233891635501e-01
1.029381162521874477e-01
9.337839163799803444e-02
8.233117304833793837e-02
6.995906264117961182e-02
5.645471869541213161e-02
4.203523358781664082e-02
2.692446448227658884e-02
1.136568690015777802e-02
-4.393963562954170989e-03
-2.010775083392899593e-02
-3.552927370211837743e-02
-5.041795502227541803e-02
-6.455243101691478247e-02
-7.771680785409809666e-02
-8.972186739812167133e-02
-1.004012727421098594e-01
-1.096024743683988306e-01
-1.172173676507794332e-01
-1.231493262528907673e-01
-1.273391243505690162e-01
-1.297604859761017360e-01
-1.304017807339102331e-01
-1.292988598376487719e-01
-1.264995829421784457e-01
-1.220825445493445016e-01
-1.161541504189959051e-01
-1.088298325490294760e-01
-1.002540791027568545e-01
-9.057847115609887756e-02
-7.996506107525480633e-02
-6.858563317389268499e-02
-5.661177678561420124e-02
-4.421297349874327154e-02
-3.155763247149596940e-02
-1.880186452870033498e-02
-6.090040842218318214e-03
6.441030443459572381e-03
1.868185774256288928e-02
3.053057041725412701e-02
4.190854572398290678e-02
5.275995368723380291e-02
6.303738722407523087e-02
7.272308704929771050e-02
8.180726340451120737e-02
9.029438086593517820e-02
9.820325770772034280e-02
1.055543377749008915e-01
1.123721334823317292e-01
1.186817832058436883e-01
1.244982709200054549e-01
1.298260785235572368e-01
1.346621130994604398e-01
1.389733454077137220e-01
1.427178513129580273e-01
1.458281250895679393e-01
1.482094869716075458e-01
1.497589653061945358e-01
1.503432054520716099e-01
1.498203231622784182e-01
1.480413393741810413e-01
1.448495345182446159e-01
1.400923324380612678e-01
1.336375212203280427e-01
1.253599181531724893e-01
1.151718376389893606e-01
1.030276136423117633e-01
8.890230277825529603e-02
7.285662681964236165e-02
5.497837116210696484e-02
3.542397194196046650e-02
1.442888106142945284e-02
-7.746587957337086432e-03
-3.074425180053964174e-02
-5.417531247605439360e-02
-7.760560602911559247e-02
-1.005473389264692902e-01
-1.225060553654303275e-01
-1.429697367976856814e-01
-1.614218595609336337e-01
-1.773759061338761600e-01
-1.903818012679734384e-01
-2.000130204631222486e-01
-2.059515518649827626e-01
-2.079165822426985721e-01
-2.057274554599764493e-01
-1.993284442902134024e-01
-1.887051338873288742e-01
-1.740185199785889980e-01
-1.554896126205297102e-01
-1.334425732036123025e-01
-1.083337124235345672e-01
-8.064981115672725798e-02
-5.099564320876926599e-02
-2.001648859577576101e-02
1.161025059951086361e-02
4.316492219768001265e-02
7.392941132818409145e-02
1.032102567755659589e-01
1.303239247660533950e-01
1.546457090227415232e-01
1.756304590911665076e-01
1.927643756648556306e-01
2.056816789172288829e-01
2.140718205883598568e-01
2.177315158768360626e-01
2.166064458180303465e-01
2.106828529505891112e-01
2.001226838282046949e-01
1.851544020395337609e-01
1.660971442155233235e-01
1.433993692544262011e-01
1.175367397535971026e-01
8.909091453634293556e-02
5.868429366773326994e-02
2.696899218207104987e-02
-5.359390091331393303e-03
-3.760340056711197754e-02
-6.907581408214273633e-02
-9.909410946736370296e-02
-1.270154867225019302e-01
-1.522570190219296737e-01
-1.742586152640094588e-01
-1.925770836225723370e-01
-2.068176763807917096e-01
-2.166735609011782027e-01
-2.219739257122333442e-01
-2.225845243246896976e-01
-2.185390622468220689e-01
-2.099421597463785316e-01
-1.969905895819681618e-01
-1.800275218387744902e-01
-1.594279822961805759e-01
-1.356981012793359032e-01
-1.094004915103133080e-01
-8.114268319272041619e-02
-5.160539057281984809e-02
-2.147787880683837275e-02
8.537767200034103790e-03
3.773427579170487989e-02
6.543716481432247656e-02
9.102716297751146934e-02
1.139068963044143762e-01
1.336026190254716861e-01
1.496974741140121024e-01
1.618660482653547505e-01
1.699406335905219723e-01
1.737923917444809951e-01
1.734709837304989899e-01
1.691098786393273046e-01
1.609266099351264467e-01
1.492874004287148004e-01
1.345866745695562250e-01
1.173214015479140532e-01
9.803771961651445987e-02
7.729992492153639483e-02
5.570496208971822960e-02
3.384898144313341212e-02
1.229293241780478677e-02
-8.419966977330779756e-03
-2.779319874093392345e-02
-4.541783679643385946e-02
-6.090848078819431632e-02
-7.399765066310716455e-02
-8.447799868934044443e-02
-9.220429364058328747e-02
-9.715054492422674215e-02
-9.931555503637527760e-02
-9.879645822615176765e-02
-9.574176613932421087e-02
-9.033299162813844541e-02
-8.281642359002445997e-02
-7.344899380956740331e-02
-6.251482162434908452e-02
-5.031255170479241590e-02
-3.713894646254398135e-02
-2.328663580612567313e-02
-9.045054045979824403e-03
5.321757423693233152e-03
1.956382944295203055e-02
3.344920623856117992e-02
4.678354967497234257e-02
5.938116728611040479e-02
7.109436909803217020e-02
8.179704106604818170e-02
9.137970116056357006e-02
9.976836677577682888e-02
1.068963230731189568e-01
1.127234477413309455e-01
1.172251223272491316e-01
1.203863824889094825e-01
1.222133577173898367e-01
1.227164639574816196e-01
1.219211860196949410e-01
1.198620394446133913e-01
1.165797666360099960e-01
1.121291178329083676e-01
1.065679420728560534e-01
9.996652356726976052e-02
9.240280560741621907e-02
8.396042198797004641e-02
7.473618164904788364e-02
6.482969197410157203e-02
5.435069319441255403e-02
4.341533193004070562e-02
3.214257669123165434e-02
2.065801145910319339e-02
9.088176004548883732e-03
-2.440743342622750910e-03
-1.380279835136234701e-02
-2.487537425911837130e-02
-3.554418985997405411e-02
-4.569732740589006054e-02
-5.523601787768826071e-02
-6.407027678764545819e-02
-7.211739323844312821e-02
-7.931299118756772459e-02
-8.559685865042346298e-02
-9.092458356480466464e-02
-9.526259247101696859e-02
-9.858345070840603130e-02
-1.008754567500873833e-01
-1.021303334258935186e-01
-1.023508769682926756e-01
-1.015476873431409438e-01
-9.973563733918661134e-02
-9.694083603571582164e-02
-9.319198879729322094e-02
-8.852727096516314897e-02
-8.299171486090863026e-02
-7.663493435736122572e-02
-6.951901590762327166e-02
-6.170905430236807432e-02
-5.328191412535113886e-02
-4.432321375405836456e-02
-3.492383736889637103e-02
-2.518934460198825331e-02
-1.522863884487599823e-02
-5.160932330338247227e-03
4.886688465713990952e-03
1.478476895799783752e-02
2.439736951338282445e-02
3.358752208613449003e-02
4.222100329300208094e-02
5.016574567701881371e-02
5.729476536968019368e-02
6.349656212453089199e-02
6.866396538514291104e-02
7.271158922122246404e-02
7.557160863069636858e-02
7.718795818025017685e-02
7.754032533568133712e-02
7.661732309240366912e-02
7.443845392573732178e-02
7.104879527919280569e-02
6.650530542688236346e-02
6.090130539978659552e-02
5.433880085069392463e-02
4.694175619811358224e-02
3.885280961222842971e-02
3.022002788858867833e-02
2.120778648729279570e-02
1.198403163767440202e-02
2.719171320005975973e-03
-6.414236482051170925e-03
-1.524617775090492816e-02
-2.361573839898177887e-02
-3.136475958878651160e-02
-3.834991386597553370e-02
-4.444118015855320902e-02
-4.951681545071698332e-02
-5.348307085066916072e-02
-5.625376582825933336e-02
-5.776855000988695421e-02
-5.799087506142458492e-02
-5.689551240720819997e-02
-5.449580294470483810e-02
-5.081538974696201555e-02
-4.590691690001206388e-02
-3.985047631627859632e-02
-3.273658536026302635e-02
-2.469139987576108794e-02
-1.585048045850435267e-02
-6.369335570170030388e-03
3.577135489288761801e-03
1.380949340837920453e-02
2.413359690880534023e-02
3.435173517215773381e-02
4.426718927937884490e-02
5.368423062198698914e-02
6.241185706484447121e-02
7.027805562567326914e-02
7.711666285093264628e-02
8.278649522275254025e-02
8.717198447703776443e-02
9.016985525388407363e-02
9.172335885205930295e-02
9.178929311693087567e-02
9.035958905465535373e-02
8.746318005058446865e-02
8.314122393909550990e-02
7.747998331694695706e-02
7.057872281877719534e-02
6.255928977798007329e-02
5.356795992472566936e-02
4.375584218551571702e-02
3.329011726164642082e-02
2.234241590028664126e-02
1.108394379759785123e-02
-3.145658039224374578e-04
-1.168536497747905967e-02
-2.287428162033640008e-02
-3.373149444900146871e-02
-4.412083252784913812e-02
-5.392170235798143807e-02
-6.301868086399520230e-02
-7.131677881002869424e-02
-7.872738350920621686e-02
-8.517255100802055556e-02
-9.058684206591756383e-02
-9.490772008727442477e-02
-9.808333227040104407e-02
-1.000652324678329153e-01
-1.008100572567563746e-01
-1.002805621335133845e-01
-9.844173849196109771e-02
-9.526799679054126502e-02
-9.073699938474336091e-02
-8.483674821257559950e-02
-7.756803209090358531e-02
-6.893744824841729901e-02
-5.897762485975503732e-02
-4.773023989757053942e-02
-3.526032291479688774e-02
-2.166256688726575508e-02
-7.041730134699632042e-03
8.453799683640612558e-03
2.466040532925218090e-02
4.138741450599635330e-02
5.840885536641565040e-02
7.549060791011091842e-02
9.236666439676009810e-02
1.087599083833209745e-01
1.243866245302649165e-01
1.389542622657961857e-01
1.521727128179765354e-01
1.637693161693122568e-01
1.734782287015346480e-01
1.810622292319997162e-01
1.863235185154573925e-01
1.890792530244582714e-01
1.892176690608547984e-01
1.866539972686053761e-01
1.813551551994622979e-01
1.733611693027505007e-01
1.627318201101425887e-01
1.496131915042097638e-01
1.341846184814452780e-01
1.166687389429002658e-01
9.735108861056350482e-02
7.652947189394235239e-02
5.454754101186718579e-02
3.176679737257034897e-02
8.555456593017459269e-03
-1.470828790335518277e-02
-3.764905758224536964e-02
-5.991497732216444216e-02
-8.116403579783446065e-02
-1.010838806242076587e-01
-1.194076767245200454e-01
-1.358823822520598135e-01
-1.503212992559794792e-01
-1.625655465304774727e-01
-1.724954594987981038e-01
-1.800531491112658256e-01
-1.851948126855820220e-01
-1.879362905937822514e-01
-1.883189613238709093e-01
-1.864093726947185226e-01
-1.823147652175202971e-01
-1.761499666847837209e-01
-1.680573721003167653e-01
-1.581914522802422285e-01
-1.467141729495267111e-01
-1.337999183126103997e-01
-1.196248703288121940e-01
-1.043697798133929877e-01
-8.821744900687741864e-02
-7.135139586037202164e-02
-5.395634907358608234e-02
-3.621731479505998358e-02
-1.832050583002961877e-02
-4.526953254072717953e-04
1.719888728622558788e-02
3.444621347204229050e-02
5.110152199354929536e-02
6.697979703727885425e-02
8.189738222418560532e-02
9.567633317470164434e-02
1.081490438148725308e-01
1.191517088064623503e-01
1.285425876168622694e-01
1.361908582684820956e-01
1.419838168472887796e-01
1.458423918832423283e-01
1.476964388633106029e-01
1.475200520996025610e-01
1.453097108131483350e-01
1.410875544699715933e-01
1.349245872082647235e-01
1.269028277434491037e-01
1.171521267973800740e-01
1.058271457180379876e-01
9.310337865872600482e-02
7.919698572058564423e-02
6.433197277581620410e-02
4.876019293301316754e-02
3.274829901312972108e-02
1.656886683034064847e-02
5.062090310100578888e-04
-1.515473078381155900e-02
-3.013637806663353041e-02
-4.416525891257198910e-02
-5.698134361775947926e-02
-6.835256491796304346e-02
-7.805501962895049217e-02
-8.590989656022363086e-02
-9.176381621790957732e-02
-9.549247709704730691e-02
-9.703339367885921440e-02
-9.633868099121734030e-02
-9.342656957565712017e-02
-8.835354041069463926e-02
-8.120785861914765758e-02
-7.214697921446153184e-02
-6.134291792557222678e-02
-4.902276673827254266e-02
-3.544631795371534083e-02
-2.089115924747550132e-02
-5.674358473799464946e-03
9.880488204028311378e-03
2.543825459656587698e-02
4.065682317748377239e-02
5.520183287224100788e-02
6.875730291869042166e-02
8.101380899899626731e-02
9.170580336079672823e-02
1.005952970088173359e-01
1.074745447136456200e-01
1.122076273420312131e-01
1.146757607411608010e-01
1.148358906826648929e-01
1.126937716822408730e-01
1.082896037493569497e-01
1.017470005197136929e-01
9.320731922950424575e-02
8.287245547651235500e-02
7.098436549800782314e-02
5.780227090425926750e-02
4.362765789648317266e-02
2.876937720229561998e-02
1.354522182643349767e-02
-1.720955623800709579e-03
-1.671314903517385694e-02
-3.113628802797831913e-02
-4.470171352034790768e-02
-5.715982538761262000e-02
-6.828832509093610281e-02
-7.788749599976878268e-02
-8.581726634219428995e-02
-9.195154979399151884e-02
-9.621802158355864665e-02
-9.858294554274325827e-02
-9.903426622974591254e-02
-9.761805956416179375e-02
-9.439326346546814128e-02
-8.945815243774345171e-02
-8.294000161099918111e-02
-7.497816516317069857e-02
-6.574477142859816436e-02
-5.541883303808164962e-02
-4.419443952000300796e-02
-3.227709679859990660e-02
-1.987432833619994649e-02
-7.198794243653554477e-03
5.536220490797894196e-03
1.812231526106908644e-02
3.035489155101615127e-02
4.203459052190940126e-02
5.297773594811478609e-02
6.300489036303996704e-02
7.195654122914323103e-02
7.968910086840014229e-02
8.607004237827844961e-02
9.100022293316216426e-02
9.438899548166675146e-02
9.617791686002057083e-02
9.633498014326015435e-02
9.484273091021415414e-02
9.172834824675220322e-02
8.703003133342698816e-02
8.082031867579933526e-02
7.320070236922737728e-02
6.428473719037608447e-02
5.422325398490156212e-02
4.317594425452911389e-02
3.132201271820584526e-02
1.885756291719603919e-02
5.982073564669683485e-03
-7.095274951472835788e-03
-2.016347074486848912e-02
-3.301630850530926781e-02
-4.545185870167627040e-02
-5.727384784880090729e-02
-6.830555885046750431e-02
-7.837568749852083516e-02
-8.733403034177431024e-02
-9.504966228757488755e-02
-1.014010533385299728e-01
-1.062984810135445407e-01
-1.096606700981735266e-01
-1.114303906146554002e-01
-1.115729762509117401e-01
-1.100630600358767919e-01
-1.069070915633635321e-01
-1.021200909837697013e-01
-9.573997707681410063e-02
-8.782673830942493154e-02
-7.844920854169649960e-02
-6.770716682850351498e-02
-5.570888535407392261e-02
-4.258439052645195122e-02
-2.848524323102231970e-02
-1.357076235124312844e-02
1.972277240189379381e-03
1.794957062324689656e-02
3.415162801859750186e-02
5.035352115492165714e-02
6.632715701429463262e-02
8.183420289739046227e-02
9.663384482665690611e-02
1.104894576733944922e-01
1.231687904608546047e-01
1.344458029983093827e-01
1.441200941564398652e-01
1.519993089304056966e-01
1.579226437745440415e-01
1.617631347574582934e-01
1.634094018416302474e-01
1.628113518602716525e-01
1.599374780804829199e-01
1.548038175240518122e-01
1.474787804442813377e-01
1.380483478243400841e-01
1.266660471016659295e-01
1.135058560604232519e-01
9.877921287901825220e-02
8.273993947866813137e-02
6.565161313504616625e-02
4.781281885770379686e-02
2.953259594631403931e-02
1.112660690352281281e-02
-7.081789899147545274e-03
-2.477205413585664359e-02
-4.163934349435063909e-02
-5.738433351085872602e-02
-7.173312579375874798e-02
-8.444217331226262779e-02
-9.528118277728697683e-02
-1.040770173596080872e-01
-1.106756406948822130e-01
-1.149688603029341422e-01
-1.169046920416549756e-01
-1.164498267791450603e-01
-1.136492485791166518e-01
-1.085744139764649452e-01
-1.013474184408172385e-01
-9.215412973486074300e-02
-8.119789105095069626e-02
-6.875312452601792246e-02
-5.511858603869877055e-02
-4.062658727986788454e-02
-2.565284234687790349e-02
-1.058041089251279127e-02
4.183244283676934398e-03
1.822257139426161979e-02
3.113068963500858002e-02
4.251225434501286482e-02
5.198312140300599682e-02
5.921785356390090599e-02
6.391305428275971534e-02
6.582929931299072446e-02
6.481450623055738658e-02
6.074702808745462840e-02
5.364585757732815569e-02
4.358283307898901116e-02
3.072612395115418768e-02
1.537898042646296606e-02
-2.120557053505612612e-03
-2.128610889752252308e-02
-4.157486677710198891e-02
-6.238114836296453081e-02
-8.300874916441441931e-02
-1.027496513538456169e-01
-1.208662433687298088e-01
-1.366103227750286309e-01
-1.492733206871415808e-01
-1.582054238737087559e-01
-1.627876020711625793e-01
-1.625676004349307369e-01
-1.571614487974716812e-01
-1.463285548260755409e-01
-1.300463850384305509e-01
-1.083532310544626925e-01
-8.156865950942712717e-02
-5.012888661354280434e-02
-1.461926491712424447e-02
2.414200248614836383e-02
6.529043871250125863e-02
1.077840343869978373e-01
1.505061133448283850e-01
1.923106007436505005e-01
2.320045421002154273e-01
2.684040024843436512e-01
3.004186155612008080e-01
3.270000470607825060e-01
3.472266470296087593e-01
3.603859321404965788e-01
3.658286688512156215e-01
3.632238607192251889e-01
3.523839598954919827e-01
3.333151100330599137e-01
3.063515403450789432e-01
2.719013298324891581e-01
2.306888136231063646e-01
1.835839400974297320e-01
1.315795657430602061e-01
7.588199696400181604e-02
1.773123078730036439e-02
-4.153773697470573151e-02
-1.005456225836836581e-01
-1.579383796967997189e-01
-2.124077568010715733e-01
-2.626722775538765653e-01
-3.076276522086114906e-01
-3.462565223715150520e-01
-3.776859588531430445e-01
-4.013087873357678581e-01
-4.165847947630899606e-01
-4.232924353906126202e-01
-4.213698305815393730e-01
-4.109183117221281711e-01
-3.923470629352870387e-01
-3.661292022196347973e-01
-3.329921541647936079e-01
-2.937938872264634904e-01
-2.494759183596415297e-01
-2.011409541536089418e-01
-1.499157658265140580e-01
-9.697538700476160400e-02
-4.351996659889179053e-02
9.282429147376446144e-03
6.032865783934328319e-02
1.085404891623609758e-01
1.529979173257424996e-01
1.928671262455185220e-01
2.274255372663311348e-01
2.561788054339613208e-01
2.786865672362440205e-01
2.947543378645768875e-01
3.043248644002053416e-01
3.074554018675111910e-01
3.044436440839159430e-01
2.956362079509111118e-01
2.815593349287481284e-01
2.628421129726271621e-01
2.401655919876515277e-01
2.143219163371142821e-01
1.861198760909070216e-01
1.563881991169882579e-01
1.259671889006808432e-01
9.566833807830343872e-02
6.623791391079442148e-02
3.840156854408493386e-02
1.276057773667479620e-02
-1.015915288544452788e-02
-2.990865288938778649e-02
-4.621488896944919017e-02
-5.884496756738934187e-02
-6.773448802327385054e-02
-7.292381556723920299e-02
-7.452240937458848302e-02
-7.280086652835175698e-02
-6.806212284206737684e-02
-6.070997927016072437e-02
-5.121261208554363925e-02
-4.005864909111480493e-02
-2.778440747009976175e-02
-1.493193880605812526e-02
-2.026002210821306430e-03
1.042005142544019658e-02
2.192368683134899784e-02
3.207981477521586883e-02
4.050368201349893033e-02
4.691261884277952987e-02
5.109280950181988024e-02
5.288189768441121930e-02
5.224822065006830968e-02
4.918918050663659974e-02
4.380538863592984417e-02
3.626893717578864862e-02
2.678587515643435224e-02
1.564951288042797095e-02
3.170404764016986326e-03
-1.030408724434293127e-02
-2.440042934673420510e-02
-3.874552033035936344e-02
-5.296900010360628547e-02
-6.670350300868882476e-02
-7.961662943471978227e-02
-9.140155193825041935e-02
-1.017757374093115341e-01
-1.105241493229496552e-01
-1.174481988763727142e-01
-1.224143951510992534e-01
-1.253381323196623709e-01
-1.261617461325039435e-01
-1.249031063426044030e-01
-1.215972728791444302e-01
-1.163305260548449932e-01
-1.092286531638033825e-01
-1.004330985416478222e-01
-9.012954096739919652e-02
-7.851326872257749501e-02
-6.579966697138692200e-02
-5.222004215381724490e-02
-3.800839880605282051e-02
-2.340578548456358210e-02
-8.654205042382335372e-03
6.011069697936796859e-03
2.036024471702516797e-02
3.417045606692322574e-02
4.724057443748153756e-02
5.937534903487928784e-02
7.040546552553766935e-02
8.018329246630767626e-02
8.857451100635278796e-02
9.548664578584482865e-02
1.008379399047282104e-01
1.045834597038328567e-01
1.067098901965955193e-01
1.072191670239964895e-01
1.061617423912029762e-01
1.036002037016414828e-01
9.963048807972831045e-02
9.437794500331432579e-02
8.797797831730647111e-02
8.059780383651309055e-02
7.241218205271311714e-02
6.360663415115845598e-02
5.437642870167392478e-02
4.491557140063205666e-02
3.541221185373976538e-02
2.605229752272178456e-02
1.700403558939669185e-02
8.419127783819495628e-03
4.391873602513831493e-04
-6.829542691674424411e-03
-1.329041626052930233e-02
-1.887506605136333310e-02
-2.354214780987852126e-02
-2.726013581083196885e-02
-3.003118906758506929e-02
-3.186635973541520478e-02
-3.279397942227312013e-02
-3.285933902278295737e-02
-3.211164159437318588e-02
-3.061280932868239157e-02
-2.842805187736511391e-02
-2.562554612082412406e-02
-2.227646004691333920e-02
-1.845221098946514190e-02
-1.422469762477171842e-02
-9.665990964964985693e-03
-4.849362882736229889e-03
1.506714445509817549e-04
5.258308356000357398e-03
1.039254020102653442e-02
1.547079450905384373e-02
2.040560787273673626e-02
2.510431592974066151e-02
2.947312791642558993e-02
3.341444087945029395e-02
3.682974998767375718e-02
3.962425611036076573e-02
4.170720751862685288e-02
4.299222412612685451e-02
4.341165745686750149e-02
4.290388826767121966e-02
4.142921361169876054e-02
3.897251630195878308e-02
3.552892867783794678e-02
3.113506191910671989e-02
2.584048779879888000e-02
1.972332511279882572e-02
1.289458475668465477e-02
5.474262669075720747e-03
-2.383392954395832132e-03
-1.051353809477006615e-02
-1.873958670452166228e-02
-2.687105753684139453e-02
-3.471727784429117641e-02
-4.209059505961276065e-02
-4.880473751391911641e-02
-5.468862205496734935e-02
-5.958963049399707002e-02
-6.336391755846426665e-02
-6.590660174020870898e-02
-6.712602392192917877e-02
-6.696124451709863090e-02
-6.538968155118558834e-02
-6.240051971133037112e-02
-5.803203052807585915e-02
-5.233927019886844278e-02
-4.540513239511973637e-02
-3.734821181364216675e-02
-2.829564582328621125e-02
-1.840815129492156393e-02
-7.858074868885719932e-03
3.169514404396249572e-03
1.447279139560740668e-02
2.584778593103855687e-02
3.708493683745855973e-02
4.797288289858083615e-02
5.830627981482647965e-02
6.788793288041249097e-02
7.652562460781232867e-02
8.405249419619330309e-02
9.031128708100587266e-02
9.516927609992921477e-02
9.852783939231513077e-02
1.002995389315559510e-01
1.004484814927009834e-01
9.895844861925714997e-02
9.584664951265360611e-02
9.117803171205722534e-02
8.502922547297918354e-02
7.752608114064987732e-02
6.881349962660955610e-02
5.905595617442187251e-02
4.844662355277666588e-02
3.718263883047248641e-02
2.547174346926898980e-02
1.352570134481491382e-02
1.549507543952450238e-03
-1.026207356941137919e-02
-2.171937412896512293e-02
-3.266053948508697291e-02
-4.293523897775032572e-02
-5.241321220200814701e-02
-6.099528293772156495e-02
-6.858971621667485363e-02
-7.513699553970701328e-02
-8.059115654156687181e-02
-8.491962153399004731e-02
-8.811108589208944963e-02
-9.015804696848461752e-02
-9.106628204274910821e-02
-9.084728358115591595e-02
-8.951622471323678054e-02
-8.709427528864845114e-02
-8.360395444754978311e-02
-7.907350797319716296e-02
-7.353377122640185337e-02
-6.702136495188375231e-02
-5.958263683303874347e-02
-5.126723536032577744e-02
-4.214245457610921175e-02
-3.228371431162749966e-02
-2.177927296640238056e-02
-1.073955358563339138e-02
7.196539072936202278e-04
1.245820346791336880e-02
2.432451795404492675e-02
3.615707465758738470e-02
4.777675543665615282e-02
5.900196398658886371e-02
6.964581958660923111e-02
7.951898336048639215e-02
8.843892228822196333e-02
9.623559150395691320e-02
1.027441703663467265e-01
1.078318966393966571e-01
1.113820101314829808e-01
1.133026358218581914e-01
1.135485397928497203e-01
1.120860385047170588e-01
1.089359380656951259e-01
1.041468455347530769e-01
9.779420018354140209e-02
9.000497806168378245e-02
8.091656047874358493e-02
7.070607674388117159e-02
5.957143200278312151e-02
4.772189163971015530e-02
3.538899044436336072e-02
2.280714073575198023e-02
1.021294800682110912e-02
-2.155863233398391809e-03
-1.406971253287830556e-02
-2.531572621640433216e-02
-3.568636602703168653e-02
-4.500518294333749614e-02
-5.311296590585902477e-02
-5.987098235940706281e-02
-6.518328556673662344e-02
-6.896408174934544333e-02
-7.117391879386134046e-02
-7.179969899603516614e-02
-7.085147000797792360e-02
-6.838882551643821195e-02
-6.448209812551622400e-02
-5.924474060554092703e-02
-5.281537808407683193e-02
-4.534940284847173431e-02
-3.703893088218770252e-02
-2.808300053897411913e-02
-1.870117408824365293e-02
-9.125297373997049571e-03
4.115125210864883573e-04
9.673598772249948283e-03
1.842661478913467168e-02
2.645436955399452575e-02
3.355190033284230489e-02
3.953201395343190760e-02
4.424914179531499320e-02
4.756844028650223516e-02
4.940834084805733467e-02
4.972103527745941332e-02
4.848697778702255878e-02
4.575411538768612424e-02
4.158533025865452509e-02
3.610057522321741263e-02
2.945692770557661183e-02
2.183084405179795684e-02
1.344576299928173027e-02
4.533714134521653685e-03
-4.656819009474780745e-03
-1.386638051915923056e-02
-2.284110784381180453e-02
-3.134208817063321301e-02
-3.913591580245059237e-02
-4.602877550304031867e-02
-5.185405756776144404e-02
-5.647020436814846611e-02
-5.980081881360990725e-02
-6.178467149813630932e-02
-6.241924603713461250e-02
-6.174344493462942396e-02
-5.981719325024849321e-02
-5.675558576735494076e-02
-5.268487260435127106e-02
-4.775593782909275803e-02
-4.213750709629342228e-02
-3.599799871833814224e-02
-2.950384043281543273e-02
-2.281938780359857311e-02
-1.608447197408343840e-02
-9.420659673037512505e-03
-2.933402343933273239e-03
3.317399536728554785e-03
9.282643266994537734e-03
1.495132936193255616e-02
2.034159613853801091e-02
2.548309166539541523e-02
3.043770654275854831e-02
3.527375570257195586e-02
4.006599463403262562e-02
4.489423386876995742e-02
4.983213580465197662e-02
5.493397906582130064e-02
6.024823471175277251e-02
6.578990551744938464e-02
7.154698632029909966e-02
7.749018561320224208e-02
8.353770583857746124e-02
8.959510228551900712e-02
9.553042983994552984e-02
1.011806629078427500e-01
1.063736229756880730e-01
1.109102138701026224e-01
1.145860315913156957e-01
1.172001206098124693e-01
1.185544627517376576e-01
1.184625269363450278e-01
1.167762678947450172e-01
1.133585533759132735e-01
1.081233211466509497e-01
1.010291663164182563e-01
9.205954566310819986e-02
8.127925493641230403e-02
6.877396011445417734e-02
5.468996354781257424e-02
3.922802677496184387e-02
2.260834467329708719e-02
5.113939656694372130e-03
-1.295680400235559721e-02
-3.128020953411547733e-02
-4.950926880741444297e-02
-6.729646859922705504e-02
-8.429565847920109101e-02
-1.001622820389302670e-01
-1.145785218379594683e-01
-1.272518944619397685e-01
-1.379079607871241397e-01
-1.463373586086636480e-01
-1.523490463590600752e-01
-1.558131953438950668e-01
-1.566595440559205576e-01
-1.548433938273466315e-01
-1.504109744258918802e-01
-1.434335543889925513e-01
-1.340436836743352511e-01
-1.224351609228906401e-01
-1.088211122664255459e-01
-9.348232262471997678e-02
-7.671793237247577502e-02
-5.885577323360813295e-02
-4.025312945240604179e-02
-2.127042669718321247e-02
-2.275624385936504505e-03
1.636206460739388774e-02
3.429161633030524542e-02
5.118118398993609652e-02
6.671257562493253246e-02
8.062259322625185687e-02
9.266482769217637694e-02
1.026449385371349249e-01
1.104249699615431901e-01
1.158887591480940310e-01
1.190046165297868191e-01
1.197663204772077133e-01
1.182229722715248538e-01
1.144852051365768814e-01
1.086812469826436145e-01
1.010053372592022852e-01
9.167159019549038501e-02
8.092202758857057476e-02
6.903055170684450903e-02
5.627531036730584052e-02
4.294630674318408725e-02
2.933667765713827286e-02
1.572793897925673853e-02
2.387969416863175258e-03
-1.042456842492139879e-02
-2.249222032445083105e-02
-3.361118277578760416e-02
-4.361368265288911861e-02
-5.237537209855180204e-02
-5.978578130749490072e-02
-6.579132370186666079e-02
-7.035716477208382724e-02
-7.347928073958577555e-02
-7.519178807965717914e-02
-7.553714668789940356e-02
-7.458886382879306720e-02
-7.243071630398485727e-02
-6.915450401829074945e-02
-6.486222488945947440e-02
-5.965612723297890330e-02
-5.363626298255532582e-02
-4.690179708930787561e-02
-3.954582554237430492e-02
-3.165351516714551977e-02
-2.330784730447366115e-02
-1.458267154314526332e-02
-5.548657088636595701e-03
3.725229128776886764e-03
1.317230138873259210e-02
2.272501223365005693e-02
3.230998182392261914e-02
4.185159263659863488e-02
5.126656414595381211e-02
6.046105076377534387e-02
6.933806936362167661e-02
7.778669876955643381e-02
8.569082529613607224e-02
9.292926477208376945e-02
9.937365858234527283e-02
1.048957109652528807e-01
1.093708199247967333e-01
1.126760008367598959e-01
1.146999462351168397e-01
1.153483473364641104e-01
1.145338402999130228e-01
1.122042343859367131e-01
1.083214513551764013e-01
1.028746112050624856e-01
9.589348408451192629e-02
8.741882105905268707e-02
7.754094691800259009e-02
6.637038198508189712e-02
5.404324971515964832e-02
4.073496271082430176e-02
2.662884745300182418e-02
1.193882070616874083e-02
-3.108538197919720643e-03
-1.827976929164194103e-02
-3.333059971302832630e-02
-4.801695345727810538e-02
-6.210271522095735242e-02
-7.535534323865530903e-02
-8.755666329070130316e-02
-9.851181852136485506e-02
-1.080334215294648931e-01
-1.159721732663023946e-01
-1.221956794855191264e-01
-1.265968109792165175e-01
-1.291105082265150139e-01
-1.296821805412501361e-01
-1.283050027294246331e-01
-1.249938457702804706e-01
-1.197891534157756455e-01
-1.127750902281120793e-01
-1.040455964830643565e-01
-9.373634231668835637e-02
-8.200242631019208361e-02
-6.901724774659599715e-02
-5.498631940342957325e-02
-4.012124975142860456e-02
-2.465588225935371608e-02
-8.834642167169729637e-03
7.093766353063917993e-03
2.287299017716689850e-02
3.824691559684689074e-02
5.296796853958390255e-02
6.679286787970983852e-02
7.949193858034291071e-02
9.086083938019111350e-02
1.007029795239346714e-01
1.088637580183916126e-01
1.152098776774226341e-01
1.196363361641001738e-01
1.220921205853255781e-01
1.225391969490665922e-01
1.209994383952341795e-01
1.175258504542914112e-01
1.122006690008685026e-01
1.051633104819129499e-01
9.656480822317856094e-02
8.660060483932767450e-02
7.548979260256789836e-02
6.346401722187794414e-02
5.077996983378648549e-02
3.769742758061610938e-02
2.447664392746854573e-02
1.137806066858421117e-02
-1.349309653230955364e-03
-1.348033036562703776e-02
-2.479711223607954096e-02
-3.512296019376390938e-02
-4.430442758013201227e-02
-5.221285291776554816e-02
-5.877228577318657776e-02
-6.391847632285378722e-02
-6.763602555671958949e-02
-6.993780507026367554e-02
-7.085566174662644157e-02
-7.046264939790031212e-02
-6.883960312948260440e-02
-6.609087531044914587e-02
-6.233477969709155797e-02
-5.769335097393198108e-02
-5.229667495781970682e-02
-4.627540555243454812e-02
-3.975431164379877869e-02
-3.285454985989693516e-02
-2.569060278448385276e-02
-1.836143966461104352e-02
-1.096234000282268750e-02
-3.572137105258874935e-03
3.740660073800271268e-03
1.091374786887459869e-02
1.789940284935186490e-02
2.465260099460958240e-02
3.113464946435740358e-02
3.731093138334112824e-02
4.314645216832822122e-02
4.860511171172906403e-02
5.365016108368359654e-02
5.823907092262815832e-02
6.232547988008867862e-02
6.586021361126626061e-02
6.878708162878328924e-02
7.104863802654264038e-02
7.258555690120946369e-02
7.333723865262663233e-02
7.324560009479651190e-02
7.225924669839139947e-02
7.032899849021712058e-02
6.742031506088877468e-02
6.350890190447439076e-02
5.858025046846185302e-02
5.264581640375089189e-02
4.572337361786245336e-02
3.785717009269089217e-02
2.911047800350831730e-02
1.955830516958113885e-02
9.307273549696995843e-03
-1.528874416164742803e-03
-1.281330196278970823e-02
-2.439212752558283376e-02
-3.610405373189556899e-02
-4.776758983132584763e-02
-5.919705486719294141e-02
-7.019828205450712177e-02
-8.057067342776952357e-02
-9.011419958070017444e-02
-9.863099021167501257e-02
-1.059245007644210174e-01
-1.118123064558248642e-01
-1.161229832863488187e-01
-1.186967176814731489e-01
-1.194082791962267492e-01
-1.181416416806970876e-01
-1.148223921862192159e-01
-1.094094119001348536e-01
-1.018832966748207669e-01
-9.229007628855177836e-02
-8.069207525888874577e-02
-6.720867236101464581e-02
-5.200613158289015686e-02
-3.527311097164535780e-02
-1.726643013976567054e-02
1.740910730236652857e-03
2.143486925689653058e-02
4.146676182399407912e-02
6.147930870148035631e-02
8.109010848429269724e-02
9.991197410391799982e-02
1.175660284853635301e-01
1.336806002666008075e-01
1.478986097913282949e-01
1.599124756861678431e-01
1.694286663328771481e-01
1.762174240675294379e-01
1.801057808309386166e-01
1.809526013612917650e-01
1.787228784103375157e-01
1.734094349237911836e-01
1.650888341078428079e-01
1.539142287573452839e-01
1.400682109323719005e-01
1.238309621068707234e-01
1.055074272303531263e-01
8.545212061813733939e-02
6.406612137341487212e-02
4.175899993121713616e-02
1.896560606287663736e-02
-3.873862795097437160e-03
-2.633269260163845216e-02
-4.799717850862100094e-02
-6.846839051904798912e-02
-8.740292700624797961e-02
-1.044734601923741485e-01
-1.194102618542301625e-01
-1.320006824595010841e-01
-1.420566259843768775e-01
-1.494788811418068519e-01
-1.541930962684452122e-01
-1.561849737616642364e-01
-1.555013384513206365e-01
-1.522085749584465852e-01
-1.464427775359199713e-01
-1.383594967744812276e-01
-1.281491250996740772e-01
-1.160384769269220129e-01
-1.022626163261888960e-01
-8.708454891215360039e-02
-7.077495610646142299e-02
-5.361006448989149437e-02
-3.587205423937461779e-02
-1.784146769188234630e-02
2.096650903529451160e-04
1.801218654866453342e-02
3.531151340566065361e-02
5.186913439233471063e-02
6.745420693951478808e-02
8.186698539352121884e-02
9.491745660621460356e-02
1.064418213676608521e-01
1.163059717554734140e-01
1.243869106309059280e-01
1.306062335344681247e-01
1.348996290852976787e-01
1.372346040622592356e-01
1.376156813444087690e-01
1.360591922450059554e-01
1.326284953341071993e-01
1.274019845113505689e-01
1.204853146993679486e-01
1.120167152132114791e-01
1.021424880815756386e-01
9.103965497711816179e-02
7.889509543917835876e-02
6.590597437451214957e-02
5.228207873542679157e-02
3.823380950718146404e-02
2.397074733437643684e-02
9.701928391082106223e-03
-4.373853404603761548e-03
-1.807071938330125777e-02
-3.120862989373281854e-02
-4.363415813081888972e-02
-5.520318184053740057e-02
-6.579124740354103107e-02
-7.529937274453250839e-02
-8.363576252087122354e-02
-9.073869441628740207e-02
-9.655707686794277878e-02
-1.010558049511831313e-01
-1.042210374591481525e-01
-1.060439972234882150e-01
-1.065361968358807115e-01
-1.057164918770801543e-01
-1.036135265120246840e-01
-1.002693178629810583e-01
-9.572913718679962325e-02
-9.005160940103908163e-02
-8.330035159375140386e-02
-7.554669449118121827e-02
-6.687279553369211704e-02
-5.736382268255706129e-02
-4.711817743296808220e-02
-3.623935093910830157e-02
-2.483894068478608580e-02
-1.304023302457651967e-02
-9.693249396399263376e-04
1.123588412569782521e-02
2.343289490224831004e-02
3.547525012966449426e-02
4.721063570230853157e-02
5.848658575597626835e-02
6.915270280084434562e-02
7.905954178025584311e-02
8.806544223812530492e-02
9.604060621300368472e-02
1.028600101701214881e-01
1.084236491327482538e-01
1.126420098661941177e-01
1.154453221362866794e-01
1.167946967843053047e-01
1.166595817028578952e-01
1.150480241052188324e-01
1.119845369008772434e-01
1.075142234964423654e-01
1.017152509318349773e-01
9.467267801747847322e-02
8.649911358257865446e-02
7.731915433541981797e-02
6.726586756430506797e-02
5.648626203041171717e-02
4.512901828497695861e-02
3.334546658184480566e-02
2.128806732818545530e-02
9.105769308352683333e-03
-3.058461876215469270e-03
-1.506365115539946148e-02
-2.677945016977048565e-02
-3.808043026787880092e-02
-4.884712246052212020e-02
-5.897043800726921303e-02
-6.834355815768788922e-02
-7.686920535138459798e-02
-8.445463469784894595e-02
-9.101195350169558052e-02
-9.646194825034476450e-02
-1.007276999335105366e-01
-1.037434830739683150e-01
-1.054490672287941300e-01
-1.057930868338277236e-01
-1.047405040536491666e-01
-1.022610041736725928e-01
-9.834893793551198471e-02
-9.301106747971342459e-02
-8.627121641117799222e-02
-7.818548444705629430e-02
-6.881791145089888317e-02
-5.826986923094824855e-02
-4.666196574398787100e-02
-3.413344973329417165e-02
-2.085972798432721501e-02
-7.023464016395346114e-03
7.165290880528175921e-03
2.148203967607038856e-02
3.569612507461097928e-02
4.956475446639460603e-02
6.284455965831087232e-02
7.530030004770414676e-02
8.670122507318599181e-02
9.683122321444703751e-02
1.055043912361891545e-01
1.125435101262607374e-01
1.178186382245370312e-01
1.212262878227158558e-01
1.226916424718302034e-01
1.222003352488786748e-01
1.197516215975684278e-01
1.154029917820935253e-01
1.092453514143871401e-01
1.013934349854488798e-01
9.201333098500913410e-02
8.128098728191024414e-02
6.940373229532441346e-02
5.660736423160971087e-02
4.312333825376631763e-02
2.919533340411172018e-02
1.506802115739898362e-02
9.788125810143650032e-04
-1.283930801749662287e-02
-2.616354890825798446e-02
-3.879463185196643793e-02
-5.053935020993459426e-02
-6.123481073119207974e-02
-7.073700025563307847e-02
-7.891768680099588151e-02
-8.568566367767503633e-02
-9.095797971731778286e-02
-9.468426717460691477e-02
-9.683499714500888589e-02
-9.739429630045569330e-02
-9.637904783298141542e-02
-9.381321374381780542e-02
-8.974613223945974994e-02
-8.424381399295365058e-02
-7.738233423193242866e-02
-6.926252019877861266e-02
-5.999057015686252992e-02
-4.969136018069094524e-02
-3.850237288347615333e-02
-2.656808601155041805e-02
-1.405060429519550819e-02
-1.115724362440596862e-03
1.205978948916469617e-02
2.529157111585953258e-02
3.839304235487580458e-02
5.117209322474530059e-02
6.343598720008325476e-02
7.499588963939050890e-02
8.566575214022949247e-02
9.526593065668094440e-02
1.036343337977786438e-01
1.106138148597960724e-01
1.160740607027161003e-01
1.199044010302644236e-01
1.220103010997222043e-01
1.223419327204327833e-01
1.208603960264678090e-01
1.175703271450396908e-01
1.125090911764216189e-01
1.057327664320873439e-01
9.735004044761125241e-02
8.748162909302770185e-02
7.628463328063173066e-02
6.394424794541801738e-02
5.065610609457903840e-02
3.664522343968024815e-02
2.214267685014660592e-02
7.387766694127424413e-03
-7.373686651602608631e-03
-2.189882562929479359e-02
-3.595458998477474993e-02
-4.931116033045642583e-02
-6.176052900768311260e-02
-7.311246087499692625e-02
-8.318975499012591646e-02
-9.185543785506780634e-02
-9.898278902480162067e-02
-1.044823279761243062e-01
-1.082957394302998394e-01
-1.103805083279652544e-01
-1.107432823579617420e-01
-1.094029049922216751e-01
-1.064142713869948298e-01
-1.018632657426017246e-01
-9.584849681737030169e-02
-8.850858451404454430e-02
-7.999191460297731815e-02
-7.046973843773854385e-02
-6.013349486065827643e-02
-4.917992110583369048e-02
-3.782196795445893350e-02
-2.627613682981028154e-02
-1.475862021770429217e-02
-3.485330298128323269e-03
7.332996808395126492e-03
1.750437884373999900e-02
2.684244845182211930e-02
3.518846288816365048e-02
4.240940867015349780e-02
4.838744763275384941e-02
5.305787586875596734e-02
5.637062612848535437e-02
5.832254328635676915e-02
5.895534906487268773e-02
5.832954515693219988e-02
5.657117936381034912e-02
5.382390266387116623e-02
5.027126807139502968e-02
4.613603318052335311e-02
4.165038237431094303e-02
3.707745090011584782e-02
3.268792433067625042e-02
2.874899413654491767e-02
2.552432580113398602e-02
2.326595617674757921e-02
2.217883100054587192e-02
2.245331074716163874e-02
2.421825802818312889e-02
2.753879587719745489e-02
3.245004594644741031e-02
3.887264318947512148e-02
4.669371589515484977e-02
5.571725572724794961e-02
6.565875348408847789e-02
7.620750576367998907e-02
8.695722205184482079e-02
9.747442326639579879e-02
1.072953408139794840e-01
1.159230890392488056e-01
1.228649701834156061e-01
1.276547096773116285e-01
1.298358521423404466e-01
1.290202752483768922e-01
1.248965954835623421e-01
1.171922843554923654e-01
1.057962689027510950e-01
9.064858600097350227e-02
7.181886389365078893e-02
4.952620784962259715e-02
2.403732415527909047e-02
-4.192890647961537189e-03
-3.465029345109119779e-02
-6.672540375324741146e-02
-9.969579492219121652e-02
-1.328185148893037681e-01
-1.652815701978234963e-01
-1.962521586123693595e-01
-2.249132034180004458e-01
-2.504667738473773109e-01
-2.721392917958513347e-01
-2.892753362185332966e-01
-3.012605404987961366e-01
-3.076065064321789055e-01
-3.079823005569555794e-01
-3.021131586226255550e-01
-2.899673222382880278e-01
-2.715967759236431189e-01
-2.472126488165962421e-01
-2.172303980767265608e-01
-1.821188469590419301e-01
-1.425633813417480356e-01
-9.932469608035543462e-02
-5.325452317812311154e-02
-5.324631880154984294e-03
4.347632170759440501e-02
9.211114808011131028e-02
1.395266129648360665e-01
1.847047396059675051e-01
2.266753649506254298e-01
2.644982770520700743e-01
2.973865163484388785e-01
3.246109825630091872e-01
3.455791075235942200e-01
3.598883678639662742e-01
3.671936921524360797e-01
3.674084627717763563e-01
3.605445042547478773e-01
3.467659358134912995e-01
3.264545848042165188e-01
3.000432409402357115e-01
2.681750424752837869e-01
2.315746071767653957e-01
1.910488880630357988e-01
1.475256740991887638e-01
1.019502501718995147e-01
5.531761838985090052e-02
8.641788795863291142e-03
-3.708795491123712679e-02
-8.091975808923868030e-02
-1.219238390866510535e-01
-1.592947414094766923e-01
-1.922788638004414297e-01
-2.202297412942088306e-01
-2.426670595046507839e-01
-2.591570846750219093e-01
-2.694844550545865136e-01
-2.735262996394624002e-01
-2.712852889698150194e-01
-2.629639875704579688e-01
-2.488102337665088204e-01
-2.292634084923837745e-01
-2.048457687694417162e-01
-1.761573320833353662e-01
-1.439251749149037807e-01
-1.088975655917575197e-01
-7.189069580299063678e-02
-3.375054504021298557e-02
4.681297512810006327e-03
4.257086264194986230e-02
7.909556102708319159e-02
1.135123018025759045e-01
1.451148443689519729e-01
1.732715534837969418e-01
1.974798224719228612e-01
2.172720747426979404e-01
2.323517991254430703e-01
2.425031556933859300e-01
2.476069799508102964e-01
2.477156299138172924e-01
2.429191188585836381e-01
2.334665498049534882e-01
2.196838217672307247e-01
2.019589868490224704e-01
1.807931324282891217e-01
1.567066221987977459e-01
1.302791037469716029e-01
1.021194242360002752e-01
7.283635827878379154e-02
4.303815827901513041e-02
1.332688768762001902e-02
-1.574772675693086529e-02
-4.366285517179064463e-02
-6.994130276696651494e-02
-9.419392996881148505e-02
-1.160534758120985999e-01
-1.352567806195398292e-01
-1.515953219059600343e-01
-1.649122718692984380e-01
-1.751529340882039543e-01
-1.822837843829525628e-01
-1.863541348873893333e-01
-1.874578867701178486e-01
-1.857178171721076132e-01
-1.813150597065973646e-01
-1.744410686887399586e-01
-1.653172365136970912e-01
-1.541814783910032405e-01
-1.412756577464871210e-01
-1.268496052952636510e-01
-1.111534571273554567e-01
-9.443043571289684579e-02
-7.691981162467240174e-02
-5.885441975156728567e-02
-4.045321961551708034e-02
-2.193212137962090302e-02
-3.494540754242777582e-03
1.466340382854968566e-02
3.234947708091468616e-02
4.937991705565059064e-02
6.557242504206738098e-02
8.074801816380330899e-02
9.472970407833487816e-02
1.073416282069862560e-01
1.184104904582189421e-01
1.277640164612746654e-01
1.352372247353438861e-01
1.406696536835577160e-01
1.439093377226078052e-01
1.448242647697284557e-01
1.432882206464490271e-01
1.392079613255416959e-01
1.325111740096299173e-01
1.231481237579564042e-01
1.111232855701319439e-01
9.645452431498693913e-02
7.922187269702059276e-02
5.954587724693955614e-02
3.757965414483848549e-02
1.355630106389651285e-02
-1.227279944839330950e-02
-3.958374446277219266e-02
-6.800409898048025148e-02
-9.713161515449197925e-02
-1.264893196180110757e-01
-1.555845884939109636e-01
-1.838773284280068310e-01
-2.107948301064308805e-01
-2.357559495346243650e-01
-2.581588036172710598e-01
-2.773998730434206750e-01
-2.928990161555554139e-01
-3.040926353241329982e-01
-3.104491070011280440e-01
-3.115234784421618830e-01
-3.068947747700521145e-01
-2.962689096049620496e-01
-2.794438871699317373e-01
-2.562928126798658668e-01
-2.268949772815731791e-01
-1.913798238138817720e-01
-1.500766810613053392e-01
-1.034638590139445175e-01
-5.210482677942275542e-02
3.199609503983035386e-03
6.159523095532570824e-02
1.220720002495618295e-01
1.835006047663849116e-01
2.447166771624224024e-01
3.044598720041615803e-01
3.614536842015256823e-01
4.144485423196929141e-01
4.622160802208007957e-01
5.035858154681475130e-01
5.375642620786570403e-01
5.632071993535279208e-01
5.798152225037473961e-01
5.868866982936856713e-01
5.840476345292453519e-01
5.713123173323551018e-01
5.487908564527493871e-01
5.169081430171840186e-01
4.763502475794622049e-01
4.279111847597161788e-01
3.727131837284054505e-01
3.119540661006657278e-01
2.469786244703182920e-01
1.792568993983109371e-01
1.102662450173376996e-01
4.149520003422790121e-02
-2.557220929332469639e-02
-8.957778614007524953e-02
-1.492734833134210515e-01
-2.035003891339920434e-01
-2.513974118150160142e-01
-2.921827890062898003e-01
-3.253513856752817679e-01
-3.506467800787239075e-01
-3.679204695849068174e-01
-3.773800740240764728e-01
-3.793236900610286177e-01
-3.742591444580866122e-01
-3.628879397156803410e-01
-3.459620447528330978e-01
-3.243935711125724985e-01
-2.991326041170618288e-01
-2.711475913086903722e-01
-2.414243961295800545e-01
-2.109243563183234305e-01
-1.805124405705861024e-01
-1.510245852942893041e-01
-1.231647740505337763e-01
-9.750844774631770018e-02
-7.457045764473127503e-02
-5.464784834851722090e-02
-3.797756867912625844e-02
-2.464827517938684293e-02
-1.460025285231099021e-02
-7.728558889743968562e-03
-3.770670104528496373e-03
-2.421438499180487459e-03
-3.312991701104537647e-03
-6.013000054196347179e-03
-1.008216866546034901e-02
-1.506433988217136671e-02
-2.050013354754553346e-02
-2.596051249880647338e-02
-3.104846538432765729e-02
-3.538806343377311203e-02
-3.868788026813221870e-02
-4.068201102269834030e-02
-4.117660253854441704e-02
-4.005590931134257737e-02
-3.723152532300072481e-02
-3.271947382565187218e-02
-2.656699479641926737e-02
-1.888132750817842972e-02
-9.836515656123749618e-03
3.769546879604391415e-04
1.150909680423202811e-02
2.329230708555412449e-02
3.544322226908610401e-02
4.766045726802251720e-02
5.964476718574808489e-02
7.111172940623765315e-02
8.178235436352579435e-02
9.141039410889487127e-02
9.978806159641158413e-02
1.067249132792252170e-01
1.121045614172601762e-01
1.158348760881785927e-01
1.178786418250260815e-01
1.182648982434751223e-01
1.170418113296546464e-01
1.143340812265752765e-01
1.102914713056494245e-01
1.050984209314598239e-01
9.898233871891019831e-02
9.217731207660866122e-02
8.493826998256082117e-02
7.752665383556205103e-02
7.019482258131652663e-02
6.318356633245909848e-02
5.672467009281871586e-02
5.100560817778145017e-02
4.619802492009113942e-02
4.243303864854386376e-02
3.978877207124503074e-02
3.832663950330668368e-02
3.803533920051076211e-02
3.887750998598828167e-02
4.077262572186429040e-02
4.358218588227470713e-02
4.715373772550765508e-02
5.127838133331728138e-02
5.572671133087815643e-02
6.024756485135443485e-02
6.455977241681556955e-02
6.837844410370814974e-02
7.140968869179645240e-02
7.335658736138951641e-02
7.393469084664643087e-02
7.287724560131611518e-02
6.992721203415162845e-02
6.487849619353973363e-02
5.754509616942498490e-02
4.778810329131360363e-02
3.553720213354987639e-02
2.074359933502052319e-02
3.459697136197601667e-03
-1.622167047360123515e-02
-3.814108875108278979e-02
-6.203954370193652534e-02
-8.763284105009802594e-02
-1.145264386643980448e-01
-1.422808783214945527e-01
-1.704048029300089528e-01
-1.983271442014473696e-01
-2.254627175826957319e-01
-2.511772615934265707e-01
-2.748164222088125830e-01
-2.957303703501772407e-01
-3.132765333484350823e-01
-3.268238697106132795e-01
-3.358167086769162646e-01
-3.397324309466215331e-01
-3.381287447134192492e-01
-3.306937900673032615e-01
-3.171549927728308793e-01
-2.974351372171392671e-01
-2.715437254902461350e-01
-2.396138401376598781e-01
-2.019845380781177258e-01
-1.590431847622392481e-01
-1.113893303919565314e-01
-5.971872814514075922e-02
-4.818114805145104311e-03
5.237020647716051497e-02
1.108772524496823564e-01
1.696474115455638421e-01
2.275851889547220730e-01
2.836004186693075191e-01
3.366127260294907719e-01
3.855564564599358590e-01
4.294742703995397259e-01
4.674612756374057487e-01
4.987143380243312385e-01
5.226145974242842884e-01
5.385925164225140449e-01
5.463220652655558229e-01
5.455973821220325704e-01
5.363509061160849356e-01
5.187719043217208226e-01
4.931068241956402254e-01
4.598474069855611468e-01
4.196094480293942053e-01
3.731122801287291568e-01
3.212723459793407899e-01
2.650428395371549617e-01
2.055028029061597428e-01
1.437964173269894730e-01
8.108644153998662008e-02
1.857126647890743748e-02
-4.255358402602155143e-02
-1.011563040806222474e-01
-1.561394883041038184e-01
-2.064855369804906582e-01
-2.513384146639904282e-01
-2.898864765291177537e-01
-3.215500909785862227e-01
-3.458772004489529817e-01
-3.625514565312285553e-01
-3.715375794875548365e-01
-3.728631643905145898e-01
-3.668234074372953568e-01
-3.538644073207267149e-01
-3.345419544149270119e-01
-3.096442331260377823e-01
-2.800035327409250430e-01
-2.465922880153673391e-01
-2.104639525393369737e-01
-1.726909160518624031e-01
-1.343853187778276392e-01
-9.665780599320070166e-02
-6.054798043689714471e-02
-2.705292888244359428e-02
2.910217629878719594e-03
2.860522823170984566e-02
4.934281489438620966e-02
6.466973663212656487e-02
7.427726196616651899e-02
7.798182613404364139e-02
7.588856495506214606e-02
6.816586265977693515e-02
5.522738270736592819e-02
3.764091324394468197e-02
1.606052708891435310e-02
-8.657138580333813976e-03
-3.561798749760251848e-02
-6.384079374024079212e-02
-9.228818827754024789e-02
-1.199323314902736304e-01
-1.457713903779663256e-01
-1.688180090179840220e-01
-1.882114793745547909e-01
-2.031752123322321801e-01
-2.130248712738161687e-01
-2.173083703199324979e-01
-2.156295474035437865e-01
-2.078338631692905891e-01
-1.939314839151239922e-01
-1.740390968388919324e-01
-1.485458079744315374e-01
-1.178997255000176769e-01
-8.273955989844380965e-02
-4.383744620974670825e-02
-2.018373660554510785e-03
4.175663118490288706e-02
8.650172495274956186e-02
1.312046187336298186e-01
1.748340477574142349e-01
2.163853449713580290e-01
2.549293816244479483e-01
2.895600730869232753e-01
3.195112152690429697e-01
3.441199910855914368e-01
3.628055861505802837e-01
3.752164498615939703e-01
3.810563086447670278e-01
3.802374370940079795e-01
3.728304075022560449e-01
3.589888681659790803e-01
3.391013569579737763e-01
3.136094849288549313e-01
2.831026879691365128e-01
2.482856482905330953e-01
2.098999917375464763e-01
1.687910190730052828e-01
1.258245963731887962e-01
8.187949236571454015e-02
3.784479890544738961e-02
-5.411205523431476642e-03
-4.708676527079781737e-02
-8.639949597310681018e-02
-1.226713233694287364e-01
-1.553099874650188394e-01
-1.837783741130609161e-01
-2.077102588285600626e-01
-2.267822823290738810e-01
-2.408131500367026445e-01
-2.497416083344906335e-01
-2.535597654581712157e-01
-2.524258167757854054e-01
-2.465382748909278054e-01
-2.361964707847652167e-01
-2.217872343228270149e-01
-2.037245667157849827e-01
-1.825062584985769065e-01
-1.586495502066670171e-01
-1.326976854319217858e-01
-1.052170870121623691e-01
-7.677180361485938520e-02
-4.791454272116695001e-02
-1.919364473648866795e-02
8.878929071154752911e-03
3.582452591383265827e-02
6.118625508980186228e-02
8.458259472532635159e-02
1.056526130254232393e-01
1.241035360784015912e-01
1.397066851522852371e-01
1.522618782202831700e-01
1.616673717443391223e-01
1.678479284721329789e-01
1.707979603879710429e-01
1.705791510250091736e-01
1.672772400617476840e-01
1.610611410298178336e-01
1.521220862550362041e-01
1.406973363892910778e-01
1.270698129556967759e-01
1.115341137230414365e-01
9.442395415422731586e-02
7.608323464172822570e-02
5.686406961673688004e-02
3.712694261778266835e-02
1.722881771689901628e-02
-2.489509171849218876e-03
-2.169257453999510338e-02
-4.007337425994017543e-02
-5.735468611764149571e-02
-7.327417001034516875e-02
-8.762717280564194522e-02
-1.002261834380662187e-01
-1.109287035569201663e-01
-1.196406151975515364e-01
-1.262841799496707273e-01
-1.308434157568710565e-01
-1.333206198090145511e-01
-1.337526021259434206e-01
-1.322142726051536432e-01
-1.287901990635413885e-01
-1.235999562393354789e-01
-1.167735291742613424e-01
-1.084541960292912666e-01
-9.880030713884058180e-02
-8.797266041835269390e-02
-7.613972499526910909e-02
-6.347222793468398905e-02
-5.014117254026614207e-02
-3.631788350430824319e-02
-2.217318229171320529e-02
-7.875366251122544597e-03
6.408095740209333001e-03
2.051186971919633992e-02
3.427317556952692162e-02
4.753032273658091417e-02
6.012631129549147330e-02
7.190577756137980781e-02
8.271938190831126803e-02
9.242518690468479181e-02
1.008851563682302555e-01
1.079790103291912717e-01
1.135926742161650349e-01
1.176304686795628801e-01
1.200199322138408992e-01
1.206974927727406804e-01
1.196389249128829435e-01
1.168337775503736631e-01
1.123008316223501057e-01
1.060967652545516116e-01
9.828933028341414746e-02
8.899314517101949984e-02
7.833941372818606363e-02
6.648427373935730800e-02
5.361706312512927453e-02
3.993410756256372124e-02
2.565823177347722334e-02
1.102169583019010218e-02
-3.737697761234086945e-03
-1.837457430676060072e-02
-3.264456678222745628e-02
-4.631238430007925122e-02
-5.914634257570268450e-02
-7.092982280741887136e-02
-8.146738649739715399e-02
-9.057129952085077318e-02
-9.809067158330966874e-02
-1.038888858162153456e-01
-1.078563051391378952e-01
-1.099222443327547982e-01
-1.100270735387340326e-01
-1.081610231028349023e-01
-1.043340306531582856e-01
-9.858633489712935460e-02
-9.100310822980722802e-02
-8.168075495110600770e-02
-7.076441682171460967e-02
-5.841892469187032200e-02
-4.483335231514991998e-02
-3.023369309651924991e-02
-1.485347413819212981e-02
1.044429429112110792e-03
1.718508161533013542e-02
3.328644447785925747e-02
4.905539735425003267e-02
6.419909320541364317e-02
7.843319387879373050e-02
9.147718893422235320e-02
1.030680766896839018e-01
1.129710568255158087e-01
1.209611672006089961e-01
1.268649694875004230e-01
1.305317672688939279e-01
1.318482073123352638e-01
1.307626607682564890e-01
1.272393734359545114e-01
1.213162260144473870e-01
1.130642931602157536e-01
1.025940498239069354e-01
9.008282389325897310e-02
7.572243765161063012e-02
5.976500156297622629e-02
4.249044161949595139e-02
2.420177532985463148e-02
5.242204879276966649e-03
-1.403857704039150611e-02
-3.327188039897120003e-02
-5.208012752713742088e-02
-7.008981242340550644e-02
-8.693485278734197630e-02
-1.022543785139406469e-01
-1.157233428296253475e-01
-1.270343515121568623e-01
-1.359132794024685009e-01
-1.421473810520973158e-01
-1.455407744950942273e-01
-1.459828999829643481e-01
-1.434061132030453600e-01
-1.377946060677297524e-01
-1.292306675676539451e-01
-1.178190961662294312e-01
-1.037641518945135594e-01
-8.732134752665987598e-02
-6.878928005754515740e-02
-4.855010182423375592e-02
-2.700126014657584783e-02
-4.590277201337565789e-03
1.820894845107958251e-02
4.092024526549642438e-02
6.306333845635986313e-02
8.416251385364116600e-02
1.037888356368353165e-01
1.215389883937239290e-01
1.370555712395112591e-01
1.500758011465281039e-01
1.603611558156667061e-01
1.677930699351270760e-01
1.723201050121573319e-01
1.739518924962100699e-01
1.728267159589725599e-01
1.691091830019078868e-01
1.630613061374185657e-01
1.550009657632158144e-01
1.452693545409859954e-01
1.342573612740853573e-01
1.223608629250752949e-01
1.099592097421501491e-01
9.742186834141698670e-02
8.508271626848416813e-02
7.319557231310995504e-02
6.199316060659631339e-02
5.160030076380434094e-02
4.207634923297037116e-02
3.343087130072454338e-02
2.555985496050154279e-02
1.833741220624542090e-02
1.157367885728859125e-02
5.039009437716888452e-03
-1.497450572651710769e-03
-8.268014951171732269e-03
-1.549990844570000095e-02
-2.335950046673494415e-02
-3.197413826156518535e-02
-4.142488101122798749e-02
-5.168036806584514614e-02
-6.268348348801236480e-02
-7.427274804719564971e-02
-8.621805939146477693e-02
-9.825569973497810805e-02
-1.100397636289843495e-01
-1.212102099381817399e-01
-1.313908362013010145e-01
-1.401945734240269970e-01
-1.472545140776978789e-01
-1.522569228739407976e-01
-1.549041191107472237e-01
-1.549946161718266380e-01
-1.523937302613479206e-01
-1.470203290530654738e-01
-1.389336699906322803e-01
-1.282248985987246570e-01
-1.150991404356141168e-01
-9.984279275754064098e-02
-8.277833233369887023e-02
-6.432333262708976596e-02
-4.491386287644070358e-02
-2.501610156958216855e-02
-5.118261998897847935e-03
1.430088786412781962e-02
3.279097273312871208e-02
4.991136215485898059e-02
6.528956646433871358e-02
7.860438618888597462e-02
8.957481620470113259e-02
9.803433838760321206e-02
1.038439457681426120e-01
1.069636445341128339e-01
1.074299792033854423e-01
1.053158649398709262e-01
1.007983817274138022e-01
9.407790305959300159e-02
8.541193852883197102e-02
7.510336124344388353e-02
6.346576701647467511e-02
5.084232777174837320e-02
3.758142496095393664e-02
2.402251244806655195e-02
1.049775919938185018e-02
-2.674832112640543845e-03
-1.522215876321067821e-02
-2.688322072392738959e-02
-3.744969616249703426e-02
-4.675739605889438211e-02
-5.466635517093264285e-02
-6.111243537307073370e-02
-6.605032658411501278e-02
-6.949038858735687163e-02
-7.149088456257562951e-02
-7.212842082997772408e-02
-7.153698101039085433e-02
-6.986425879404702111e-02
-6.728503802315065341e-02
-6.399804521742316621e-02
-6.020530910425976601e-02
-5.611759375738881173e-02
-5.194680101828973162e-02
-4.788954894297031001e-02
-4.412858090604950684e-02
-4.083263009012587375e-02
-3.812133586114809652e-02
-3.610045845945430293e-02
-3.482026057597242125e-02
-3.427925983973618279e-02
-3.444963397983516473e-02
-3.521224952446574269e-02
-3.642344708563138161e-02
-3.787271898485077004e-02
-3.928554107725003297e-02
-4.036809798113518560e-02
-4.076195670292759310e-02
-4.009277604946660800e-02
-3.797950983858917884e-02
-3.403451705267730026e-02
-2.788626432889872858e-02
-1.922852073389862831e-02
-7.775525942789762203e-03
6.659972782253438355e-03
2.416571538076313364e-02
4.478004072778853095e-02
6.835637503632877032e-02
9.469513806782242638e-02
1.234611599380861097e-01
1.541785883405962509e-01
1.863280145660999310e-01
2.192331172229217695e-01
2.521737138182150728e-01
2.843701027038965101e-01
3.149791550803295315e-01
3.431571791380035874e-01
3.680715003011607589e-01
3.888954173953659277e-01
4.048829212778459197e-01
4.153763235773476059e-01
4.197699502267944749e-01
4.176722971240759419e-01
4.087587706205949578e-01
3.928941059037112660e-01
3.701558818817404783e-01
3.406962679231423929e-01
3.049614936719772795e-01
2.634886883957686665e-01
2.169821973700996331e-01
1.663394444860017696e-01
1.125002021668309038e-01
5.655579617932662145e-02
-3.567444841171647438e-04
-5.708941666404750148e-02
-1.124812106463066175e-01
-1.653962293599081645e-01
-2.148264799758914656e-01
-2.598082627039572934e-01
-2.995412062189292124e-01
-3.334239172380490390e-01
-3.609302714741611795e-01
-3.818565822546221011e-01
-3.961074976791164048e-01
-4.037953678817410852e-01
-4.052924352110116590e-01
-4.010346212491156526e-01
-3.917065532254816462e-01
-3.780762922418044458e-01
-3.609850908800217306e-01
-3.413682406977426309e-01
-3.201591799274557393e-01
-2.982476984290897692e-01
-2.765059640568967025e-01
-2.556898366665820710e-01
-2.364015726281203100e-01
-2.191842129147681117e-01
-2.043080703502507811e-01
-1.919445035466824656e-01
-1.820906046711361082e-01
-1.745071262776537180e-01
-1.689008136981165198e-01
-1.647636509533634830e-01
-1.615093980054194411e-01
-1.584950870996821026e-01
-1.549988004646489226e-01
-1.503008420614493634e-01
-1.437297002136070090e-01
-1.346337667783253367e-01
-1.224647758504468220e-01
-1.068224575129293058e-01
-8.735850066552199034e-02
-6.397428457211212782e-02
-3.666917082847341580e-02
-5.600887530972650970e-03
2.883999935745135482e-02
6.620914149629367196e-02
1.058388592884667578e-01
1.469726379695798224e-01
1.887770695772677254e-01
2.303027442641016331e-01
2.705889773160374823e-01
3.086644245442859980e-01
3.435545206699198162e-01
3.743498666930079599e-01
4.002423850467595190e-01
4.204643744431567076e-01
4.344625387312148757e-01
4.417749870721343064e-01
4.420955050486771176e-01
4.353661439317689785e-01
4.215909985836249207e-01
4.010528539365092460e-01
3.741554602347073599e-01
3.414333245108934212e-01
3.036349518465654707e-01
2.615488940956768871e-01
2.161095497012395228e-01
1.683157569110721175e-01
1.191878431241731456e-01
6.978194396413268941e-02
2.114843513248296225e-02
-2.573116985147494429e-02
-6.990756212680221404e-02
-1.105169718862242245e-01
-1.468438158113323788e-01
-1.782146406230050439e-01
-2.041672308075429820e-01
-2.243391322075412864e-01
-2.384907156388518523e-01
-2.466005340370309440e-01
-2.486956131687112770e-01
-2.450099510997294783e-01
-2.358776007357816507e-01
-2.217169745714655804e-01
-2.031001205123037778e-01
-1.806265851926539268e-01
-1.549871439254378591e-01
-1.269176496891830652e-01
-9.716402062180561072e-02
-6.649056864820665491e-02
-3.565793830383943985e-02
-5.377988845265291133e-03
2.366260341740053855e-02
5.082992856104583124e-02
7.559209457216875538e-02
9.744419007877939964e-02
1.160163781013901080e-01
1.310098461920142510e-01
1.422001167374681574e-01
1.495098638529255008e-01
1.528938059973879160e-01
1.524400530456704317e-01
1.483086355080805718e-01
1.407120848281252501e-01
1.299693271819893914e-01
1.164189389564501964e-01
1.004618914202962121e-01
8.253363598177852756e-02
6.307890801746268705e-02
4.256129247612771421e-02
2.144462397580345139e-02
1.716839065125808778e-04
-2.082681666504882650e-02
-4.114416986207659888e-02
-6.042554323322711640e-02
-7.832922977792518282e-02
-9.457775703472626194e-02
-1.089312703226066048e-01
-1.211830003516832510e-01
-1.311991359815993796e-01
-1.388619160502730099e-01
-1.441184219408560008e-01
-1.469547253236051232e-01
-1.473845935604103097e-01
-1.454843382672086904e-01
-1.413434803208165891e-01
-1.351000791720331495e-01
-1.269221722896954063e-01
-1.169957467584558791e-01
-1.055482824934189101e-01
-9.281544880182102109e-02
-7.905762802965093927e-02
-6.455087025196727668e-02
-4.957551382448571742e-02
-3.442175254973876830e-02
-1.938042757353470105e-02
-4.732643917268884899e-03
9.246866376466239545e-03
2.229673790589484575e-02
3.418890602343174767e-02
4.470431803928100883e-02
5.367117648926596207e-02
6.094935803964072335e-02
6.642551413305460006e-02
7.005404523389487104e-02
7.180505377286229562e-02
7.171077216227988993e-02
6.984619295906820124e-02
6.631123320098768203e-02
6.126996178713836616e-02
5.490005365878989491e-02
4.741930929215865120e-02
3.907388897932569799e-02
3.011902128412143748e-02
2.083317804440392579e-02
1.149860272577498538e-02
2.395080523225866665e-03
-6.199399266137636637e-03
-1.401681750018882872e-02
-2.081722021130711156e-02
-2.636845827493199818e-02
-3.047950888102352734e-02
-3.299003983201413692e-02
-3.376269864107330626e-02
-3.272490920249573193e-02
-2.981985091923199105e-02
-2.505057615697528842e-02
-1.846602614350406971e-02
-1.014055230080293524e-02
-2.212434469769713682e-04
1.112789361114435542e-02
2.369127227883059683e-02
3.721270144312108230e-02
5.142029153658519286e-02
6.599700588757324848e-02
8.061621849545461127e-02
9.493694164455959705e-02
1.086065775028112329e-01
1.212770134427653690e-01
1.326154901478763526e-01
1.422946516489282387e-01
1.500267009031051590e-01
1.555567015952191157e-01
1.586551911110924973e-01
1.591731089400878485e-01
1.569823156479994153e-01
1.520325715296655389e-01
1.443400981432265973e-01
1.339540883350864298e-01
1.210281661244642787e-01
1.057418666657561068e-01
8.834492431080985531e-02
6.914858827839057143e-02
4.848409142035183667e-02
2.674516102297531950e-02
4.340053698813847900e-03
-1.830571946473528652e-02
-4.075111789063230044e-02
-6.256019316969958777e-02
-8.331731988490155560e-02
-1.026136470980543308e-01
-1.200845020220435155e-01
-1.354060521453160360e-01
-1.482796077841190274e-01
-1.584940956561130820e-01
-1.658623732749323620e-01
-1.702730520434695971e-01
-1.716866704643080777e-01
-1.700936613092560723e-01
-1.655879793162131353e-01
-1.582913469023404796e-01
-1.483916278778278364e-01
-1.361411869853618173e-01
-1.218119616338851630e-01
-1.057425554643691562e-01
-8.828907214030787265e-02
-6.983200277748914664e-02
-5.077626506968423159e-02
-3.152707372508090772e-02
-1.248651782037641864e-02
5.945273999780776447e-03
2.339639631711157297e-02
3.952397769035077141e-02
5.400346817214101564e-02
6.658163116534815407e-02
7.702649080124786274e-02
8.517115378869197229e-02
9.091749224764925086e-02
9.419408490946135082e-02
9.503082517866175138e-02
9.348742282684491256e-02
8.968829353639920510e-02
8.382807235978101401e-02
7.612077388973062519e-02
6.685118153935246110e-02
5.632467893041592788e-02
4.487107725128720165e-02
3.284741455795939929e-02
2.061116695332862458e-02
8.515253059433840199e-03
-3.089688670025530874e-03
-1.388186169872985404e-02
-2.357248974281205348e-02
-3.188982525536655788e-02
-3.863435751075341984e-02
-4.362983573161312995e-02
-4.675806286037000742e-02
-4.796910697011790708e-02
-4.723468882494219478e-02
-4.461340059127784363e-02
-4.019178481513736162e-02
-3.410310300612169609e-02
-2.653704201408596530e-02
-1.769560887723554271e-02
-7.826001182561746067e-03
2.810094408607079989e-03
1.394196296508592656e-02
2.528769372943181354e-02
3.656780803943520536e-02
4.751913130016575948e-02
5.788447684326035458e-02
6.743259266014417497e-02
7.596528048796949428e-02
8.329689180590707509e-02
8.929768928399345329e-02
9.385759701848611636e-02
9.690452995049368690e-02
9.841613239585932094e-02
9.838328806127849546e-02
9.685164447392874409e-02
9.388633204448594560e-02
8.957810252317242872e-02
8.405215137056597230e-02
7.744021210834195479e-02
6.989755402098592196e-02
6.158787290867776681e-02
5.267798215530060391e-02
4.333899029806319303e-02
3.374041811333641783e-02
2.404055209969514079e-02
1.439327601796595163e-02
4.938410030631809437e-03
-4.204188749382622124e-03
-1.292100845390430769e-02
-2.112794824959302736e-02
-2.875232020557892676e-02
-3.573847957409568427e-02
-4.205562153738830189e-02
-4.767829300973536188e-02
-5.260234754468710167e-02
-5.683201294222049726e-02
-6.037742310094593168e-02
-6.325754067886125986e-02
-6.549185307531704692e-02
-6.709854179493414394e-02
-6.809518189765061125e-02
-6.849434481557804821e-02
-6.830089358254992637e-02
-6.751765291756210707e-02
-6.613818496540035952e-02
-6.415221745250911101e-02
-6.154792908980460941e-02
-5.831106395425190991e-02
-5.442848656336189000e-02
-4.989632085867364009e-02
-4.471479937095042267e-02
-3.889705225290731455e-02
-3.247718206923892043e-02
-2.549587826130452969e-02
-1.802719690553921533e-02
-1.016000911770695986e-02
-2.003406466592894640e-03
6.299785255824241585e-03
1.459963193329883932e-02
2.271738183015980031e-02
3.046128110761764027e-02
3.763352130994605110e-02
4.402598420796789702e-02
4.943142933707484615e-02
5.365711119020789149e-02
5.651723544441750180e-02
5.784893315631854660e-02
5.752981665118729604e-02
5.545004428184790307e-02
5.156622097157657902e-02
4.586695990854661870e-02
3.838405933053881669e-02
2.922750006941436662e-02
1.852543673428691529e-02
6.486881359671535507e-03
-6.639315489156802537e-03
-2.056968083813443329e-02
-3.495650071984616331e-02
-4.944071528537967442e-02
-6.362690882795307701e-02
-7.710139730649505363e-02
-8.945130031650919133e-02
-1.002655489482073836e-01
-1.091382331336692713e-01
-1.157067755754628280e-01
-1.196313298101170375e-01
-1.206142569583321944e-01
-1.184410341922447901e-01
-1.129194362558525455e-01
-1.039707268937503370e-01
-9.157697968400005384e-02
-7.578683975949686291e-02
-5.678326992103074206e-02
-3.477953704403872331e-02
-1.011998547758261036e-02
1.677902385612266983e-02
4.544622458020446121e-02
7.529694440994340321e-02
1.057254677249032521e-01
1.360601310898663652e-01
1.655921767700170577e-01
1.936102652150194225e-01
2.193983860487102866e-01
2.422465964205133826e-01
2.615120800076393137e-01
2.765911479150399144e-01
2.869464700313190120e-01
2.921867437274203172e-01
2.919586502215146262e-01
2.861004066910851629e-01
2.745645029709669616e-01
2.574076253431706873e-01
2.349206969306631143e-01
2.074459546484863914e-01
1.755289269488538861e-01
1.398395955003167435e-01
1.011185690683860522e-01
6.026809685725620369e-02
1.821862045632097540e-02
-2.404314951042602413e-02
-6.549524848793955578e-02
-1.051404722801010938e-01
-1.420427807668439568e-01
-1.752892109227003059e-01
-2.041298633249833128e-01
-2.279203748155408937e-01
-2.461270640744873950e-01
-2.584872907787096330e-01
-2.648019155488978149e-01
-2.651380533208692047e-01
-2.597396494514566112e-01
-2.489553730796166542e-01
-2.333940996916601396e-01
-2.137164723943152378e-01
-1.907170648633435828e-01
-1.652817431733607789e-01
-1.383018167908880158e-01
-1.106783237191077407e-01
-8.330529296711282339e-02
-5.696475936118543942e-02
-3.236019226150221167e-02
-1.011052492698895355e-02
9.390663058430143151e-03
2.580337860402440869e-02
3.899986627742769302e-02
4.900519035426653680e-02
5.592079568024112268e-02
6.005254936530537296e-02
6.174827371013099503e-02
6.144674671212080330e-02
5.965399266415061241e-02
5.687635545789653663e-02
5.361655210797918597e-02
5.037106167501608639e-02
4.755440962824199203e-02
4.551883231633389870e-02
4.456306696924402372e-02
4.483148333110387185e-02
4.643140054098034847e-02
4.934021086424981301e-02
5.343389945654408724e-02
5.854637478169456150e-02
6.439092482191674516e-02
7.065512421205553950e-02
7.698353198193146063e-02
8.298622844077133132e-02
8.827909009288698039e-02
9.249934715488240811e-02
9.529251347842028486e-02
9.637183345146149716e-02
9.550633320120445469e-02
9.250526517209579913e-02
8.730333570032730583e-02
7.986680653516821382e-02
7.026737356959739111e-02
5.866591679871512033e-02
4.526026156613096457e-02
3.036270355466513110e-02
1.431254481805455808e-02
-2.495962499833592925e-03
-1.962082560417989507e-02
-3.661386091201841719e-02
-5.301097342593179967e-02
-6.834625267365938839e-02
-8.218440504782019429e-02
-9.411745964295878397e-02
-1.037630479725656363e-01
-1.108266382132084421e-01
-1.150378349320824445e-01
-1.162166392523607539e-01
-1.142659069796498061e-01
-1.091280313820562065e-01
-1.008794521907365738e-01
-8.963195612049387750e-02
-7.559165914468055081e-02
-5.905347861881482530e-02
-4.034251642289429091e-02
-1.988516881224499863e-02
1.866166146263362798e-03
2.441551320419301299e-02
4.722476256504186398e-02
6.975198548576209967e-02
9.144706241513134160e-02
1.117593244085248461e-01
1.301710629279416442e-01
1.461973016738107867e-01
1.593778635166533675e-01
1.693468389423913034e-01
1.757659439684322589e-01
1.783894927529453278e-01
1.770662465956371334e-01
1.716846894586382122e-01
1.622806898671876885e-01
1.489324086306691441e-01
1.318185770108703803e-01
1.112232828337462037e-01
8.746326463132397810e-02
6.097386036990981584e-02
3.222422563925003008e-02
1.737687246502527504e-03
-2.990414178239044624e-02
-6.211026402962484261e-02
-9.426094404651186309e-02
-1.257290635703845749e-01
-1.559028329337451557e-01
-1.841874028969544552e-01
-2.100039063464647637e-01
-2.328423176896525781e-01
-2.522146505081835355e-01
-2.677042291907835159e-01
-2.789753219310333043e-01
-2.857242325281618145e-01
-2.877772651569076023e-01
-2.850019188642685108e-01
-2.773593708568627414e-01
-2.649200138008948602e-01
-2.477888427285116213e-01
-2.262086915384882435e-01
-2.004665622130070990e-01
-1.709296426012807957e-01
-1.380611406950552345e-01
-1.023486972339751749e-01
-6.437381792785097645e-02
-2.474830679048976856e-02
1.588078771155079782e-02
5.682307161312970256e-02
9.738437838283715842e-02
1.368648295142155802e-01
1.745635486655857938e-01
2.098103196872793952e-01
2.419736730711830874e-01
2.704435269932314867e-01
2.947103894567394411e-01
3.143004513821284207e-01
3.288314568651843905e-01
3.380399758954058531e-01
3.417021507337518749e-01
3.397678173893101117e-01
3.322488279501591979e-01
3.192693907424682398e-01
3.011034942143284709e-01
2.780640762526347398e-01
2.506257390779216276e-01
2.193216090220594938e-01
1.847579940297474077e-01
1.476413907558810634e-01
1.086955440008256502e-01
6.870267081262125541e-02
2.846603979629601724e-02
-1.121737752743911035e-02
-4.955951632608747437e-02
-8.578579731068373959e-02
-1.191989704894128171e-01
-1.491322330408239583e-01
-1.749984060149233911e-01
-1.963254199653075849e-01
-2.126776309318527958e-01
-2.237902314699536932e-01
-2.294661251904741850e-01
-2.296182730889645141e-01
-2.243230293195546676e-01
-2.136976692927941568e-01
-1.980372959576880421e-01
-1.777088747379958755e-01
-1.531646711284323226e-01
-1.249869849745359751e-01
-9.378346487918214069e-02
-6.025727672677577695e-02
-2.515080733772464411e-02
1.077522795088824148e-02
4.673151868224340727e-02
8.193162733825927468e-02
1.156259872846670256e-01
1.470813531151649867e-01
1.756216104510545661e-01
2.006627454726135906e-01
2.216503379088387571e-01
2.381803981226159050e-01
2.499152698146398788e-01
2.566165421904448296e-01
2.582099868996402536e-01
2.546609891078830401e-01
2.461117694279183754e-01
2.327841971982157199e-01
2.149826801708750734e-01
1.931517480036176737e-01
1.677628652323924496e-01
1.393878128166210484e-01
1.086445086790924636e-01
7.617235136142889995e-02
4.264797756659426814e-02
8.748790938351003882e-03
-2.487126245640860003e-02
-5.756972032680257589e-02
-8.874563028857390679e-02
-1.178727380775372868e-01
-1.444468775621464141e-01
-1.680792289380055315e-01
-1.884375158720086596e-01
-2.052601244930129798e-01
-2.184157219548037709e-01
-2.278028028512338876e-01
-2.334511415107526078e-01
-2.354564303668829628e-01
-2.339732768593615342e-01
-2.292676649728509208e-01
-2.216274599191166150e-01
-2.114216539559116703e-01
-1.990609844718351784e-01
-1.849781372663252266e-01
-1.696481610798227790e-01
-1.535510139102046756e-01
-1.371665365767510136e-01
-1.209743567252621887e-01
-1.054330399398284990e-01
-9.095868371964678512e-02
-7.795379372107581750e-02
-6.674220034524738776e-02
-5.760474953775043816e-02
-5.076855887836097952e-02
-4.635016878992009176e-02
-4.443953552310667826e-02
-4.500338296546783218e-02
-4.793940926726305424e-02
-5.308408442857782961e-02
-6.014479129553899905e-02
-6.880179656247797926e-02
-7.863072181061155075e-02
-8.914706434457482509e-02
-9.983380372721577245e-02
-1.101040646620441710e-01
-1.193608197556641909e-01
-1.269980702949724816e-01
-1.324046588879265740e-01
-1.349977728364580576e-01
-1.342588133910309622e-01
-1.296901125570416591e-01
-1.209233991785259588e-01
-1.076690995621118890e-01
-8.972585769289891100e-02
-6.709498022193263744e-02
-3.982590350166782117e-02
-8.182728381834366432e-03
2.743650871619687445e-02
6.653776855734533369e-02
1.084019653996595306e-01
1.522641575491890664e-01
1.972114304288117292e-01
2.422361331501631798e-01
2.863053637196730783e-01
3.283277738384183797e-01
3.672088632047328938e-01
4.019220649067374307e-01
4.314856811575358275e-01
4.550026681800163897e-01
4.717888699081995152e-01
4.812158355438324042e-01
4.829330064283902657e-01
4.767778682618925012e-01
4.627297859444460260e-01
4.411297444877269602e-01
4.123991248317227520e-01
3.772430206616586568e-01
3.365636450499219778e-01
2.913493280425413223e-01
2.428095468535135804e-01
1.921944438796660548e-01
1.408053821340167211e-01
8.998020774238674191e-02
4.101458094660419967e-02
-4.915003493338948072e-03
-4.666919861115489260e-02
-8.334047552906340139e-02
-1.141913613674041678e-01
-1.386190408582192168e-01
-1.563942260705570575e-01
-1.673761375796204709e-01
-1.717459814834898235e-01
-1.699275224142498264e-01
-1.624579814705854885e-01
-1.501910601964055458e-01
-1.340477947925566848e-01
-1.150908935340520384e-01
-9.449266447295731619e-02
-7.342552231756568903e-02
-5.305355874496922586e-02
-3.452976521077606720e-02
-1.885748437907080674e-02
-6.921082651974229220e-03
4.993231014107273394e-04
2.939209839357827519e-03
1.339373166107937774e-05
-8.371104952679550570e-03
-2.206868363635008587e-02
-4.082449543402523473e-02
-6.405422417375687683e-02
-9.109740912333329221e-02
-1.211240847253504116e-01
-1.531621364996910983e-01
-1.862171332806755730e-01
-2.192351404315586727e-01
-2.511541392864934386e-01
-2.809879268560780408e-01
-3.078156136787979502e-01
-3.307822683359766258e-01
-3.492514554800427717e-01
-3.626448740502159485e-01
-3.705968750246171894e-01
-3.729299594093205550e-01
-3.695497856288822991e-01
-3.606326109244112343e-01
-3.464223284588960339e-01
-3.273179440828264952e-01
-3.038594230616323832e-01
-2.766208778635154131e-01
-2.462820378883482653e-01
-2.135465659663966786e-01
-1.791163854015751511e-01
-1.436917956378838956e-01
-1.079483095880125060e-01
-7.246866212439848076e-02
-3.780873982367304736e-02
-4.415794953553969955e-03
2.736706384497895883e-02
5.724249613576246759e-02
8.507404125898047897e-02
1.107685173025460129e-01
1.343305395730493845e-01
1.558610167822828130e-01
1.754855172096029536e-01
1.934117618917844672e-01
2.098685213314320508e-01
2.250977498101683627e-01
2.393547341622852820e-01
2.528856307764664746e-01
2.658965934633449324e-01
2.785811672544973860e-01
2.910756730280511517e-01
3.034569946531553986e-01
3.157758520101277000e-01
3.279836768363052490e-01
3.400030188317999524e-01
3.516902823618212603e-01
3.628313078475737252e-01
3.731918040466326025e-01
3.824644306337148802e-01
3.903208939716966697e-01
3.964062061876152954e-01
4.003361306969623334e-01
4.017256691978163818e-01
4.001931142743141434e-01
3.953588824200443552e-01
3.868777659365064125e-01
3.744432444757526124e-01
3.577723680426896924e-01
3.366822813816747750e-01
3.110224201917301534e-01
2.807391127705505252e-01
2.458906883922652997e-01
2.065781626765321177e-01
1.630774972607230422e-01
1.157207608419434514e-01
6.495795806392340443e-02
1.137911547782085447e-02
-4.438777384663440684e-02
-1.015670638768019357e-01
-1.593359495312156315e-01
-2.168191273121977403e-01
-2.730772795170489098e-01
-3.271698414841438529e-01
-3.781697124762271045e-01
-4.251561582773451531e-01
-4.672830921851463537e-01
-5.037979495139478514e-01
-5.339928006196370536e-01
-5.573636975036746488e-01
-5.734778674530589537e-01
-5.820641742796869300e-01
-5.830594657888145127e-01
-5.764614264207539307e-01
-5.625239016544900661e-01
-5.415905799313802671e-01
-5.141358806288344185e-01
-4.808069877760153821e-01
-4.422857517521436854e-01
-3.993819482375554619e-01
-3.529504200098313449e-01
