BVP Green Neck Signal
2.085919972336460620e-02
6.216942964144499956e-02
1.175919249749749207e-01
1.719019245709669519e-01
2.154894888590811186e-01
2.486354393955481634e-01
2.770171848156718353e-01
3.022432313508797153e-01
3.210727906779236585e-01
3.300852114514950530e-01
3.290351267469638907e-01
3.207751106451311451e-01
3.067529349677327599e-01
2.864963307389881142e-01
2.595125997156804698e-01
2.266144597447099229e-01
1.899821415365755828e-01
1.511179448945463577e-01
1.107025399548735856e-01
6.941035866150488398e-02
2.832961327640540553e-02
-1.110192214022278495e-02
-4.787791397664320492e-02
-8.137100534512839434e-02
-1.110329085580688269e-01
-1.363705993033165476e-01
-1.569415603160126682e-01
-1.725963197831300033e-01
-1.834581502255725194e-01
-1.894859313298759007e-01
-1.910178132377129967e-01
-1.886594434226535333e-01
-1.824842461102307856e-01
-1.734743834345238989e-01
-1.619309301002981594e-01
-1.484780560635919067e-01
-1.341144000172610207e-01
-1.188755323371818440e-01
-1.037833492607607988e-01
-8.907970907778120506e-02
-7.517481405303567954e-02
-6.269285650641957808e-02
-5.154156088765199373e-02
-4.215910325015535809e-02
-3.451039095760510128e-02
-2.866263763710637236e-02
-2.452645026325229322e-02
-2.202932640127494915e-02
-2.098404048721020515e-02
-2.114010231910338697e-02
-2.245712244323540274e-02
-2.433999482878932905e-02
-2.692895116213267492e-02
-2.981031396958496588e-02
-3.273976474990920871e-02
-3.583946571910213985e-02
-3.850610594773520162e-02
-4.111113391584072380e-02
-4.341854971233147231e-02
-4.539552995276276842e-02
-4.730522840513674138e-02
-4.894590038040891322e-02
-5.069620773240653827e-02
-5.255163341555647155e-02
-5.475874227576670722e-02
-5.734988096978789474e-02
-6.060014154848749474e-02
-6.455220652553728122e-02
-6.911571232447608071e-02
-7.472454980546151815e-02
-8.072899191414842357e-02
-8.763467793476789613e-02
-9.493704408464354039e-02
-1.020963947613575812e-01
-1.095731965796125779e-01
-1.159477745697775758e-01
-1.216393395101514896e-01
-1.257599398953833936e-01
-1.273380808572111555e-01
-1.267851952727306886e-01
-1.224626089266270257e-01
-1.146030009825660945e-01
-1.025020079524579797e-01
-8.530374859525251263e-02
-6.345676646213618821e-02
-3.609688951148021241e-02
-3.457632410682895223e-03
3.431042972379551997e-02
7.720238445905201752e-02
1.245934800289524580e-01
1.757818223441031946e-01
2.303104655643928300e-01
2.869072919724844350e-01
3.444094881652259299e-01
4.020946349706160383e-01
4.577944115511812240e-01
5.109650886352691268e-01
5.597190978669566164e-01
6.023211542860413825e-01
6.384126836331538435e-01
6.654812689965542427e-01
6.834752197828521947e-01
6.909888592618554926e-01
6.868902465296691240e-01
6.717780082957034438e-01
6.442499298454847922e-01
6.052905778835616646e-01
5.549344274525009890e-01
4.935037886433754628e-01
4.227099109314590430e-01
3.430065298194536760e-01
2.562559297347943854e-01
1.640267254881473125e-01
6.785333958115677411e-02
-3.007396093134953596e-02
-1.279284491490375597e-01
-2.239779292827162316e-01
-3.159625469412451482e-01
-4.023391669705229101e-01
-4.815407755139647916e-01
-5.516239780174487795e-01
-6.121750488695475445e-01
-6.613735107865288398e-01
-6.988715406149870191e-01
-7.245173180577704208e-01
-7.373064028222986455e-01
-7.385830777839477168e-01
-7.276325992953399657e-01
-7.055868153672759657e-01
-6.736522746798824235e-01
-6.319882053923671084e-01
-5.830256710247084806e-01
-5.271060483841641942e-01
-4.660763643530921319e-01
-4.017176020682965976e-01
-3.348472456285505605e-01
-2.676717073234931021e-01
-2.010968231151759600e-01
-1.365089553402951128e-01
-7.533087405408273041e-02
-1.833554093203750707e-02
3.359236598886406605e-02
7.950702077217197683e-02
1.192727353715191951e-01
1.523684788984017158e-01
1.785013258324214258e-01
1.983871258046364383e-01
2.113465372090166938e-01
2.184807983370718465e-01
2.201244304180917100e-01
2.164611995239003883e-01
2.092222344543598900e-01
1.980236129410198886e-01
1.845013292692476436e-01
1.693646923302063734e-01
1.529422841214357065e-01
1.369779735203342230e-01
1.212276012634502659e-01
1.069641631177619123e-01
9.472003812396624645e-02
8.458186610935676530e-02
7.749523048976110495e-02
7.318308792388589223e-02
7.198788609616270373e-02
7.397232870404253646e-02
7.879590941804384685e-02
8.638475422600062903e-02
9.638208636404214935e-02
1.082235701167311853e-01
1.215980706997170924e-01
1.358619583530407404e-01
1.503061339640675287e-01
1.646225903419514802e-01
1.778530816169141548e-01
1.896893237214632988e-01
1.995289790681634146e-01
2.066923944339677799e-01
2.111410260874492517e-01
2.121543100707243001e-01
2.098001606806309538e-01
2.038526945158097292e-01
1.941471020711771356e-01
1.810453289390432097e-01
1.644116418961458770e-01
1.447636742215993588e-01
1.223502259511616980e-01
9.751786773323332935e-02
7.092095693083726171e-02
4.289118896570316003e-02
1.409243662062024255e-02
-1.493903232072502432e-02
-4.376185324344158967e-02
-7.171309733347767945e-02
-9.838576096721210473e-02
-1.233832276581275089e-01
-1.461516501733034490e-01
-1.665702903858752859e-01
-1.841802379065043405e-01
-1.987913391163664278e-01
-2.104493258586392079e-01
-2.187277655882562399e-01
-2.239269892009501939e-01
-2.258348701224679456e-01
-2.245286127430170253e-01
-2.204079802506663244e-01
-2.132332479473251219e-01
-2.035785284024745900e-01
-1.914812264583288515e-01
-1.772045276566036054e-01
-1.613381763242752176e-01
-1.438691686039276496e-01
-1.254126360362415871e-01
-1.062497656734448515e-01
-8.666315370704966159e-02
-6.725475432975680512e-02
-4.817062534974073801e-02
-2.980341335934468677e-02
-1.256778446556421416e-02
3.470178105559283514e-03
1.789617184759535740e-02
3.059574631907106476e-02
4.160953126372859967e-02
5.058578193390860650e-02
5.783229481453525805e-02
6.327104285941700934e-02
6.696031306657831972e-02
6.938699252192757905e-02
7.039115520703558004e-02
7.055493853763167289e-02
7.011840424472377820e-02
6.923263004437789359e-02
6.856958936440245289e-02
6.809948344579597190e-02
6.831086436370698012e-02
6.953478141980611038e-02
7.174033577994172461e-02
7.535743079939695444e-02
8.028287444051099286e-02
8.651481097535376752e-02
9.419147643501228628e-02
1.028956119947801728e-01
1.125465411632070450e-01
1.228719477756163858e-01
1.333247463361975915e-01
1.438096571967762694e-01
1.536679424999755073e-01
1.624773566489154109e-01
1.699893410966091534e-01
1.755021003530060630e-01
1.789674104528938547e-01
1.798999027211766188e-01
1.779954091640622016e-01
1.733373524213326911e-01
1.655519809164105183e-01
1.549325631417982352e-01
1.414623598806855898e-01
1.252465811161789511e-01
1.067833792204692239e-01
8.616755342061060974e-02
6.399276075887361248e-02
4.063488518525511933e-02
1.645852662695959992e-02
-7.872025532545557508e-03
-3.205234234703912416e-02
-5.556310409863069594e-02
-7.793672136180251897e-02
-9.895300997831268930e-02
-1.181250771449553066e-01
-1.352636507142905564e-01
-1.502830615050860519e-01
-1.628256134535646382e-01
-1.730579055900993146e-01
-1.808223888272802726e-01
-1.861173810699840170e-01
-1.893372696467784666e-01
-1.902167903401767446e-01
-1.891987829066447691e-01
-1.863809016151214693e-01
-1.817843042607873716e-01
-1.760405808341621581e-01
-1.688903166608215767e-01
-1.607458357906368651e-01
-1.518212785969417500e-01
-1.419952073520688307e-01
-1.318323577420069392e-01
-1.210931969037130351e-01
-1.099289215116673185e-01
-9.859500418408191635e-02
-8.683277503137977471e-02
-7.496450264461353152e-02
-6.288816568100159821e-02
-5.047755682581383380e-02
-3.801556648092615370e-02
-2.525919440433237531e-02
-1.227735119019771406e-02
7.879119041877373497e-04
1.419222037826399843e-02
2.763322203199153337e-02
4.117044868352417314e-02
5.489779819181433290e-02
6.841846592837326491e-02
8.194044846723926023e-02
9.516909277805077338e-02
1.079134184195637836e-01
1.203304393605450356e-01
1.318673777729312269e-01
1.426043549832999024e-01
1.523158827869597332e-01
1.606418144773705814e-01
1.677796247327200674e-01
1.732007273519561297e-01
1.769194675419018814e-01
1.788851919722389550e-01
1.787471769407087963e-01
1.768118507865307498e-01
1.727612977421208451e-01
1.666674748168406883e-01
1.587593688742490461e-01
1.488323349937927809e-01
1.373637026352959312e-01
1.243249611033060004e-01
1.098716723602407713e-01
9.450901837022836205e-02
7.814338191421710267e-02
6.133841276338850707e-02
4.425618306228292637e-02
2.698306296336115684e-02
1.012618241624607153e-02
-6.468123010780104341e-03
-2.239030382136227709e-02
-3.746991206105184519e-02
-5.188351289377197972e-02
-6.516735730738619503e-02
-7.761486200299977378e-02
-8.918669313394232689e-02
-9.977049241761495879e-02
-1.097953866197617645e-01
-1.190840873715285908e-01
-1.278789355061934196e-01
-1.365150184650517351e-01
-1.448119992141314316e-01
-1.531589275223858571e-01
-1.616337468956095536e-01
-1.700614488481118902e-01
-1.789316035817304085e-01
-1.878173635346047643e-01
-1.966935055058740278e-01
-2.057657285623332999e-01
-2.142251362330961084e-01
-2.224525018184727587e-01
-2.297774251336986429e-01
-2.356395962231836172e-01
-2.403002191147634858e-01
-2.425311820070319146e-01
-2.425276501867450751e-01
-2.396699325822300997e-01
-2.331709958322706888e-01
-2.234244450704956364e-01
-2.093907340466324429e-01
-1.912653226529665018e-01
-1.689284752302487869e-01
-1.419263915291763822e-01
-1.109510471158601658e-01
-7.576421298296284745e-02
-3.682102577023575046e-02
5.219902192654680625e-03
5.012374010058497781e-02
9.687412825467574262e-02
1.447758230243179067e-01
1.931377340399089149e-01
2.407169019324139903e-01
2.868172725311272098e-01
3.304367652659911392e-01
3.704609864239971628e-01
4.064366369933408718e-01
4.371784822779509749e-01
4.622177152651831267e-01
4.811775547456482172e-01
4.932842361623725469e-01
4.989109243790019743e-01
4.975677708836515056e-01
4.895187821320205468e-01
4.754108573267811777e-01
4.551340444398306873e-01
4.299539732580776596e-01
4.001835498659064849e-01
3.665703747825661551e-01
3.305231551360486297e-01
2.922128809321910548e-01
2.530852947251115981e-01
2.137894250154095399e-01
1.747226422199832929e-01
1.372585981659459609e-01
1.012377098183487867e-01
6.731806842032113380e-02
3.596532753122108628e-02
6.636998293195991647e-03
-1.999024375777389700e-02
-4.449929037127448722e-02
-6.736630880187897963e-02
-8.832275601004327403e-02
-1.085284381801297077e-01
-1.279591026474909410e-01
-1.469926944407185521e-01
-1.666368684091704411e-01
-1.863674966115961840e-01
-2.069882816270131320e-01
-2.285592782736433903e-01
-2.505692009291786149e-01
-2.736643318126631974e-01
-2.968143275465769948e-01
-3.198568912547071763e-01
-3.426129695592396995e-01
-3.637923429579298373e-01
-3.834369400709184972e-01
-4.004472480587970562e-01
-4.140701401649619084e-01
-4.241865677994727246e-01
-4.296088232055059186e-01
-4.302765172268457894e-01
-4.257591230876712762e-01
-4.155719651194985098e-01
-4.001141576601337513e-01
-3.790803043735034294e-01
-3.528185757221398156e-01
-3.218659073093262379e-01
-2.864388886050909799e-01
-2.474765722493234288e-01
-2.055878767877292457e-01
-1.614579325237355256e-01
-1.162347982018246129e-01
-7.051970527148862522e-02
-2.531316747263993167e-02
1.843751474858860290e-02
6.027579428235439046e-02
9.907420431423430429e-02
1.345047171155343002e-01
1.660703151773048891e-01
1.930819653007053438e-01
2.158101006974161018e-01
2.335596899562880913e-01
2.466437604783118520e-01
2.552657353858512335e-01
2.591853036298699675e-01
2.593706020545492041e-01
2.555714473438354117e-01
2.485589920826603016e-01
2.389719518455713232e-01
2.268445302245395978e-01
2.133343919470329364e-01
1.984317489504197618e-01
1.828837994592195648e-01
1.673118201192979604e-01
1.517866117209459575e-01
1.370810214409772798e-01
1.232463428502478392e-01
1.106219001556938003e-01
9.949091338130296169e-02
8.985060070760819695e-02
8.181242694990140119e-02
7.542419590787355355e-02
7.054115584178748122e-02
6.707314551845375283e-02
6.497061273274240545e-02
6.381013794284412510e-02
6.366852270189723995e-02
6.411807700477240024e-02
6.490138194491490431e-02
6.600894693789982615e-02
6.685037277393594823e-02
6.759237389993232037e-02
6.780923592128637600e-02
6.732647461570544223e-02
6.622721073321066743e-02
6.407498794021730670e-02
6.113381455344542997e-02
5.715236442862979549e-02
5.214269900479211878e-02
4.626474514355958384e-02
3.933636003929676800e-02
3.166145944202133217e-02
2.318155286119225056e-02
1.402916930844610652e-02
4.410120248188069067e-03
-5.682698163353798286e-03
-1.596936890086971331e-02
-2.636955359236167404e-02
-3.676385287306573046e-02
-4.690229449944102041e-02
-5.674674456147192625e-02
-6.607885412150510396e-02
-7.473965642110422247e-02
-8.272835801311774484e-02
-8.975343896068031790e-02
-9.582577888146864842e-02
-1.008171939644546961e-01
-1.045519081446924375e-01
-1.071830376383349492e-01
-1.084310452043348444e-01
-1.083887980657088357e-01
-1.070465944205889197e-01
-1.042797515433064592e-01
-1.003481399859133122e-01
-9.507895472634213252e-02
-8.861946678480558948e-02
-8.107979578298650514e-02
-7.244196408375455642e-02
-6.296220655743418881e-02
-5.265871082367358513e-02
-4.167399066865081630e-02
-3.020179336489010880e-02
-1.835970099309693765e-02
-6.287843736304923707e-03
5.772327663910140245e-03
1.773429292930700507e-02
2.937998906276174244e-02
4.047116990040039441e-02
5.104843349820835374e-02
6.069806254578152815e-02
6.942372976688632180e-02
7.705494370612059329e-02
8.330893054033029765e-02
8.840992790217756803e-02
9.190751323621081104e-02
9.391507006673635582e-02
9.437620675997425435e-02
9.308584442651350599e-02
9.038936988509500836e-02
8.597853531307550479e-02
8.007049678746865073e-02
7.275426647058257090e-02
6.401002848459193262e-02
5.420115975183451007e-02
4.328553709440877140e-02
3.153667196800316597e-02
1.915256913527779020e-02
6.320016226923802147e-03
-6.704284333693025059e-03
-1.970113712714529480e-02
-3.243374638696974038e-02
-4.469371743861083601e-02
-5.617262573744908477e-02
-6.681855746932538476e-02
-7.627223695124066283e-02
-8.442772673549800433e-02
-9.116671994474938312e-02
-9.620036549487857858e-02
-9.969620259743601498e-02
-1.013249050588227035e-01
-1.011567103640326482e-01
-9.921724605067228087e-02
-9.536934740351148132e-02
-8.993057070818304133e-02
-8.275080718075757125e-02
-7.405636137799917473e-02
-6.401462208231077644e-02
-5.270485283192580250e-02
-4.047964936735203023e-02
-2.743386168288209498e-02
-1.386482510737207727e-02
-2.652000994023736430e-05
1.383010253404339668e-02
2.744178464357811473e-02
4.052632124268066433e-02
5.285086103932718632e-02
6.417722723397231710e-02
7.423268582472115906e-02
8.295085127663977265e-02
9.002537020257993239e-02
9.542588541348777376e-02
9.904630503795132379e-02
1.007680375065210104e-01
1.007664620415965745e-01
9.888267834221904640e-02
9.533885320617478676e-02
9.021386341722005542e-02
8.362130866152159281e-02
7.590198299855890895e-02
6.710604294795205482e-02
5.760324112755502851e-02
4.758801164498349667e-02
3.732354831982083454e-02
2.712373628305844372e-02
1.716665185615478748e-02
7.755464015288932554e-03
-9.516123614658755780e-04
-8.716042369128148420e-03
-1.544299603870064388e-02
-2.096227283321626736e-02
-2.520741245557873642e-02
-2.816285336037224751e-02
-2.973723065109827590e-02
-3.009647468396056680e-02
-2.915254584550631967e-02
-2.707739227443688862e-02
-2.397176306722515957e-02
-1.989368700906305951e-02
-1.513247127485191357e-02
-9.676351524746162891e-03
-3.800938199881794509e-03
2.389127300883758017e-03
8.745742951576526703e-03
1.504945015067805231e-02
2.125953217661099084e-02
2.713542643216684466e-02
3.265865972652984978e-02
3.763259972442424550e-02
4.201500988317288798e-02
4.571869587492347065e-02
4.859250621662866004e-02
5.071842268873064802e-02
5.187048017831382557e-02
5.216689311882397734e-02
5.149375232596830471e-02
4.978148696737787898e-02
4.718417066169106056e-02
4.349904146606730498e-02
3.892926207760370044e-02
3.340588534027709444e-02
2.693775567302338428e-02
1.972202168790921847e-02
1.167587715553970729e-02
3.010392305769539218e-03
-6.217932007465822898e-03
-1.591641556106640140e-02
-2.589230742305763042e-02
-3.604031976196010040e-02
-4.621833447974821318e-02
-5.623682847891256498e-02
-6.594148636288087173e-02
-7.522459874380107991e-02
-8.381192810775356383e-02
-9.169533503318107182e-02
-9.863002816078966783e-02
-1.044506306992174643e-01
-1.092049884455224412e-01
-1.125432924659306583e-01
-1.146065425732634147e-01
-1.152022270304701862e-01
-1.142043044972856775e-01
-1.118215166647694853e-01
-1.077499120888310846e-01
-1.022271593282668839e-01
-9.519744298636832747e-02
-8.660906021907817387e-02
-7.676762088904919012e-02
-6.553182867502481412e-02
-5.314839137279447900e-02
-3.974425311468183369e-02
-2.536644817374024766e-02
-1.032575400372750390e-02
5.275518088372506235e-03
2.126097715138662234e-02
3.732761996894621431e-02
5.333131902414873365e-02
6.904664643511596034e-02
8.413468013628011555e-02
9.854859369846261097e-02
1.118922312685421278e-01
1.239790932225504350e-01
1.347472089475915402e-01
1.437421219479620149e-01
1.510842253307456695e-01
1.564324725193091958e-01
1.596595201982416168e-01
1.609132994205839384e-01
1.598187625480213814e-01
1.566635527033458097e-01
1.513122045252623948e-01
1.437892900640913851e-01
1.344274962617360569e-01
1.230972865647502884e-01
1.101779166184303493e-01
9.579756206156440912e-02
8.013847534954557372e-02
6.358937262649261291e-02
4.630756041560449288e-02
2.860875273044706860e-02
1.081245859641039031e-02
-6.832789124706718613e-03
-2.406196268592623519e-02
-4.051173898070509899e-02
-5.608070554161653787e-02
-7.039843847177823521e-02
-8.326483988365385169e-02
-9.465895519761392818e-02
-1.041468029603136863e-01
-1.118922699961952816e-01
-1.176026312624770254e-01
-1.211981400026619082e-01
-1.229019360341561673e-01
-1.223480393919810505e-01
-1.198978480391173496e-01
-1.154196273537171774e-01
-1.089722288859863303e-01
-1.009258134556292597e-01
-9.109968218431264975e-02
-7.991836585958955741e-02
-6.744516688448025377e-02
-5.385732496763312449e-02
-3.953528491777152237e-02
-2.454620192332447257e-02
-9.234563032349797640e-03
6.172351782371598462e-03
2.143634385604418005e-02
3.630712731908661978e-02
5.050140208197430314e-02
6.387396528844847821e-02
7.613940370429778115e-02
8.708424913697275505e-02
9.670311911391979431e-02
1.046125833388816123e-01
1.109272236585282512e-01
1.154428330008565456e-01
1.180410493239578834e-01
1.190019981116593462e-01
1.179753310503545427e-01
1.152956684740970988e-01
1.109323097883883613e-01
1.048657365659486362e-01
9.757637519467965426e-02
8.882520128226902012e-02
7.901236924025835384e-02
6.826541429686776297e-02
5.659915517856418249e-02
4.449117470701370591e-02
3.183325958457193516e-02
1.889572535576324389e-02
5.875120598794513274e-03
-7.226308096599070620e-03
-2.014000978831451474e-02
-3.281495848261337112e-02
-4.520851153130539535e-02
-5.712508981900697724e-02
-6.852465199656952721e-02
-7.942887969455485198e-02
-8.957068592938303986e-02
-9.907512017002143012e-02
-1.077655153970697305e-01
-1.154632614962325110e-01
-1.224162115361825121e-01
-1.281406769908194632e-01
-1.327935754369037880e-01
-1.362341338452699446e-01
-1.381314612631928673e-01
-1.388366590175418580e-01
-1.377988971297765819e-01
-1.351332369418589974e-01
-1.308041013821719944e-01
-1.244798791453653186e-01
-1.165277652555772037e-01
-1.066004417952688965e-01
-9.481027661836434473e-02
-8.131882410402198336e-02
-6.602274186260721767e-02
-4.926434789711260642e-02
-3.112441890141481177e-02
-1.177935195832432655e-02
8.394177935396892817e-03
2.915537094311165464e-02
5.024070258782591808e-02
7.113757500126449695e-02
9.163762312354560569e-02
1.112736317944749975e-01
1.295859293178343030e-01
1.464966322528362674e-01
1.613159475862326053e-01
1.739620583030362100e-01
1.841003712447865648e-01
1.913552577910167529e-01
1.959310548376965999e-01
1.973186071608193926e-01
1.957141449254224674e-01
1.910830537246609451e-01
1.833898163223423861e-01
1.730832969467818172e-01
1.600679863940608072e-01
1.447988011732797564e-01
1.275342655041860340e-01
1.086087158276485415e-01
8.851830399274095151e-02
6.757874178562532641e-02
4.629434928339380001e-02
2.506078703095409449e-02
4.382589532531263980e-03
-1.544068414038945319e-02
-3.388005667361322637e-02
-5.065649214954077995e-02
-6.543248096878220843e-02
-7.783621991509739879e-02
-8.790022030665296804e-02
-9.516656921302667216e-02
-9.975668191546341323e-02
-1.015232954258592502e-01
-1.004627817925616423e-01
-9.690212898165723177e-02
-9.068021915531550292e-02
-8.229810167540647925e-02
-7.181796805301472741e-02
-5.964775444930976028e-02
-4.622648450936459735e-02
-3.174731173082530333e-02
-1.687575876765909366e-02
-1.787968799795871047e-03
1.287989674046153762e-02
2.681856501184877797e-02
3.962699516280025758e-02
5.079180900726681241e-02
6.018913551882298235e-02
6.727898833041839888e-02
7.207169169360923278e-02
7.422590249698970966e-02
7.363824816100436599e-02
7.038211421318905925e-02
6.429228199114513098e-02
5.573895452279429424e-02
4.465715913959301259e-02
3.139951366752403994e-02
1.626523107999584133e-02
-4.894045469700809142e-04
-1.827826302779151854e-02
-3.687803210387814723e-02
-5.569938174895296135e-02
-7.433782970513896915e-02
-9.235384012179417845e-02
-1.092102453710893373e-01
-1.245995387300322388e-01
-1.380678294889127189e-01
-1.493036019479012655e-01
-1.580539643055743071e-01
-1.640768907473736660e-01
-1.672470527646703897e-01
-1.675441084047295803e-01
-1.649120282480786848e-01
-1.595196954240993836e-01
-1.515349778771005185e-01
-1.411447610766765337e-01
-1.287892767851556985e-01
-1.147267497852970802e-01
-9.943748519682182874e-02
-8.344603398947660067e-02
-6.712347046940053685e-02
-5.106098331810995233e-02
-3.576888989653165263e-02
-2.156630728089747179e-02
-9.132748519283549749e-03
1.322725623259376690e-03
9.577771702074079976e-03
1.502959575668460709e-02
1.810013767726533288e-02
1.823463227305247708e-02
1.572674563002644105e-02
1.114218758630198050e-02
3.975145952924144348e-03
-4.371504358266243943e-03
-1.410304943960974042e-02
-2.439804315724513478e-02
-3.395120792943782245e-02
-4.306899885099957359e-02
-4.984369446770818557e-02
-5.413336321937987916e-02
-5.506252932756102586e-02
-5.126886020904104779e-02
-4.294276914733897305e-02
-2.881021458904359234e-02
-8.674299631326796295e-03
1.760247394166880586e-02
5.041817329509615947e-02
8.948880855709391569e-02
1.342929535904518745e-01
1.847067717310025281e-01
2.395731312501317989e-01
2.976841039642365572e-01
3.585872028197236161e-01
4.196920361351447193e-01
4.805135345411781223e-01
5.388706850052389363e-01
5.923665702595328764e-01
6.407141366474246036e-01
6.803663860078950076e-01
7.110229613251527470e-01
7.306696195752880874e-01
7.371708624279293964e-01
7.310555429653601278e-01
7.098131095479354169e-01
6.741139810607489347e-01
6.235262977673800000e-01
5.576982701740079706e-01
4.783655331591181725e-01
3.856099172703379985e-01
2.812931421093607942e-01
1.671616828890967466e-01
4.502024236169969301e-02
-8.264003039443118537e-02
-2.131518983136606038e-01
-3.443168382735159461e-01
-4.729589678054746393e-01
-5.963089849842077017e-01
-7.123636610983783424e-01
-8.174434246491898426e-01
-9.105310480186110667e-01
-9.886495968996938943e-01
-1.049993191520635971e+00
-1.094292940311967888e+00
-1.118887216392391970e+00
-1.124999215910085226e+00
-1.111291811108281680e+00
-1.078172898928466017e+00
-1.027443959822111452e+00
-9.586524813472895312e-01
-8.749533955469011026e-01
-7.770798221184832544e-01
-6.673618836262358300e-01
-5.488015078729101548e-01
-4.229507413997679044e-01
-2.932839440012726118e-01
-1.619517282887657506e-01
-3.165813009310449594e-02
9.493354988506441661e-02
2.154612140751866467e-01
3.280356998949539582e-01
4.302540934251495308e-01
5.207188496628651908e-01
5.983568117813219400e-01
6.612854687582973012e-01
7.101950236026124408e-01
7.434053950745294070e-01
7.615683442061992325e-01
7.654868121652922408e-01
7.544509360870119696e-01
7.312766448818632803e-01
6.954062209496115754e-01
6.490307424868861919e-01
5.941342822873154628e-01
5.311098905919749980e-01
4.633770864649947585e-01
3.913217366872602243e-01
3.173771759435691231e-01
2.435422295440252682e-01
1.707318517414754822e-01
1.013009961369564366e-01
3.605915243041273033e-02
-2.358235079416635266e-02
-7.658445000349363430e-02
-1.221777969937963282e-01
-1.600048774105680416e-01
-1.893643308495292221e-01
-2.104215132713218028e-01
-2.234074916070604433e-01
-2.280762424556760370e-01
-2.258754393560004070e-01
-2.164749155365064959e-01
-2.012564202642052880e-01
-1.812976596694306219e-01
-1.568122645351895383e-01
-1.299919601672150649e-01
-1.007965942506566931e-01
-7.088191579722173674e-02
-4.137151569925712202e-02
-1.258209850799157231e-02
1.377223018428561443e-02
3.769774863598382431e-02
5.816720663854754725e-02
7.465370803413083622e-02
8.708278317328685403e-02
9.491264925510180250e-02
9.830360068848946475e-02
9.723112918561060969e-02
9.190451754962122854e-02
8.260363570038492531e-02
6.986724985882092342e-02
5.400541714160348589e-02
3.575244576500183347e-02
1.572458623981494788e-02
-5.585192811073441156e-03
-2.719468793977589810e-02
-4.879046679379791390e-02
-6.946743484693593262e-02
-8.868559291888900020e-02
-1.060038639260709598e-01
-1.206949623426807061e-01
-1.326069170832311905e-01
-1.412154605368276250e-01
-1.463794001697956981e-01
-1.479526687280102171e-01
-1.458445850993908832e-01
-1.401616234269545402e-01
-1.310140727012796824e-01
-1.186907620400094315e-01
-1.034469059643048222e-01
-8.577264740502088536e-02
-6.601422969020775966e-02
-4.478753376609081321e-02
-2.259568776511988383e-02
1.250145785627702899e-05
2.235320561193683900e-02
4.398752054385050847e-02
6.421333274903856525e-02
8.263123977142629306e-02
9.869726777292887887e-02
1.120105692265504355e-01
1.222639709734371638e-01
1.291412988060779976e-01
1.326022376272678049e-01
1.324376430622824230e-01
1.288288492618767933e-01
1.217809348966684690e-01
1.115981819491513038e-01
9.865440822811864796e-02
8.320441906134690147e-02
6.594242574106348731e-02
4.717995083653501315e-02
2.765365157113674338e-02
7.941431074226318332e-03
-1.144160571146318056e-02
-2.972311880924544125e-02
-4.651910855850849985e-02
-6.117987416748674884e-02
-7.331078889231792961e-02
-8.254902297699642788e-02
-8.858150797431867118e-02
-9.126743751769358926e-02
-9.052704765800095865e-02
-8.645750740931479328e-02
-7.914400892898941497e-02
-6.897280829619902021e-02
-5.618085923686687300e-02
-4.131279766616124255e-02
-2.491158013576926650e-02
-7.425497884911540399e-03
1.035091587329885904e-02
2.800164424727953974e-02
4.480366118863039065e-02
6.019494827295929218e-02
7.376481619129893197e-02
8.493572576818021747e-02
9.348805107514303325e-02
9.909556444941934605e-02
1.016424197518812356e-01
1.010969969926241718e-01
9.753035733466065837e-02
9.111085640421305587e-02
8.210917641291094748e-02
7.093170128466659563e-02
5.789346572924888856e-02
4.358175991849520120e-02
2.837956252351809747e-02
1.284177843516653636e-02
-2.475834304377482094e-03
-1.723106533572221766e-02
-3.084980292417170006e-02
-4.306431169896048072e-02
-5.351018103232122597e-02
-6.192428495878312539e-02
-6.819034069145614441e-02
-7.217088150161882210e-02
-7.387016510407179437e-02
-7.332978206374587971e-02
-7.070963176002852124e-02
-6.611706158732846839e-02
-5.986482008506515545e-02
-5.213744663321963346e-02
-4.325634212591081273e-02
-3.360446888826928991e-02
-2.336299979667360097e-02
-1.299993258687159176e-02
-2.704835138229538111e-03
7.185191395613833854e-03
1.635833718771734224e-02
2.468089752467412384e-02
3.185062136142630118e-02
3.777964805937045895e-02
4.231117323305116223e-02
4.537778399368925381e-02
4.693930097382620348e-02
4.700998735042093146e-02
4.562079405007957861e-02
4.285355339887710058e-02
3.887716678125199138e-02
3.375235936651995589e-02
2.775578545958646767e-02
2.099881714436073465e-02
1.373492800787628337e-02
6.228565339269325450e-03
-1.387716336926968740e-03
-8.767564459031425977e-03
-1.579615606037619926e-02
-2.220047266628097718e-02
-2.779958091972252465e-02
-3.246648382582228293e-02
-3.599517596556964932e-02
-3.835194548797016267e-02
-3.940085807714555771e-02
-3.915630626827082406e-02
-3.758579949402326981e-02
-3.473061688990425333e-02
-3.067756367142263768e-02
-2.550000438341982339e-02
-1.938927585169109361e-02
-1.244326801013442840e-02
-4.898960594517789112e-03
3.080817678136080727e-03
1.126985526871722605e-02
1.943977941349098529e-02
2.741663843701795319e-02
3.494043008255044019e-02
4.188382618153205922e-02
4.801265817827669175e-02
5.323025113683908793e-02
5.739056754907988223e-02
6.037982493017067520e-02
6.219782038396730328e-02
6.272762732594568125e-02
6.207280638530078554e-02
6.018535619299765493e-02
5.714459521375660905e-02
5.307170073080892669e-02
4.799757966824227950e-02
4.214514037148573561e-02
3.556549394725556229e-02
2.844745462684437204e-02
2.094397424440461522e-02
1.318869507536733765e-02
5.369611292008471051e-03
-2.397543782305238194e-03
-9.935093697517775185e-03
-1.714878194906036685e-02
-2.385835175396674307e-02
-3.001629397852859094e-02
-3.547363766105455368e-02
-4.013364042925784275e-02
-4.399378923105937839e-02
-4.687211818591247026e-02
-4.886730869289718920e-02
-4.983549870657129344e-02
-4.977441646250490431e-02
-4.876024485310611473e-02
-4.666583044385622797e-02
-4.367564563120895915e-02
-3.971163723142247942e-02
-3.485654068895856911e-02
-2.923444430161434987e-02
-2.283768088426390425e-02
-1.585931984726421037e-02
-8.341409670603233684e-03
-4.321642127603948780e-04
7.736514251839065118e-03
1.602171262145166142e-02
2.428930149767795019e-02
3.237731721515527128e-02
4.011302454794659494e-02
4.741172078416334285e-02
5.402372699997200906e-02
5.992974201702883780e-02
6.492466043924702279e-02
6.888111130989861552e-02
7.182339370072518547e-02
7.350534500437543028e-02
7.405156020216199786e-02
7.332459519965965622e-02
7.130471639425202401e-02
6.814602522654324146e-02
6.371343245273686229e-02
5.823846406372961554e-02
5.171817441714109814e-02
4.424409655793228036e-02
3.604068315775069836e-02
2.712821372816522081e-02
1.773896045513151040e-02
7.993556108981132030e-03
-1.959921854751082299e-03
-1.193792778689093531e-02
-2.178306068157980294e-02
-3.137553750651942558e-02
-4.052835256652981277e-02
-4.909860505985665785e-02
-5.703010709385061133e-02
-6.407463051928705133e-02
-7.027068745143984219e-02
-7.542594207214427249e-02
-7.943494026885333792e-02
-8.238437069109860733e-02
-8.400194122049663148e-02
-8.445207134285787065e-02
-8.359876532954640949e-02
-8.139366424736044214e-02
-7.802845961421771281e-02
-7.330458895937670694e-02
-6.744449989500006515e-02
-6.043141109035745501e-02
-5.229871527631935885e-02
-4.328141403804671578e-02
-3.335307782933209786e-02
-2.272408394087229236e-02
-1.152866605130698635e-02
1.066390583115538887e-04
1.197592467466694621e-02
2.389467512848394287e-02
3.572752527981499365e-02
4.722419205939592385e-02
5.819685245946256552e-02
6.854680008640713640e-02
7.793925699503224946e-02
8.637150271812314706e-02
9.358294389720586692e-02
9.940535177422077373e-02
1.039138762005809985e-01
1.067623094790474125e-01
1.081123944722607727e-01
1.078167920036917637e-01
1.058092559777293051e-01
1.023445941673899601e-01
9.720151752706190917e-02
9.066663816695125222e-02
8.276793885907068882e-02
7.356344373958056959e-02
6.339524270202041845e-02
5.223242054393553019e-02
4.036674912009528826e-02
2.796982354573715121e-02
1.517934319854933461e-02
2.267543474995618695e-03
-1.061369647490164464e-02
-2.330276651602450691e-02
-3.556928169715870003e-02
-4.725264702169677811e-02
-5.827808796940472241e-02
-6.835035027823735398e-02
-7.749917253964978825e-02
-8.551249186679087122e-02
-9.223069826977282892e-02
-9.780516998253811767e-02
-1.018569847649368615e-01
-1.045716661324836011e-01
-1.058126456002712601e-01
-1.054336613140137019e-01
-1.037528872334447239e-01
-1.004103433128557682e-01
-9.566398416505131341e-02
-8.950128987289092397e-02
-8.182551581737754209e-02
-7.301861812749979586e-02
-6.287157182920168064e-02
-5.163390365247159941e-02
-3.944315111275324692e-02
-2.630535228898465971e-02
-1.255571567641017988e-02
1.761893055693671082e-03
1.646437582459071500e-02
3.128867960232841611e-02
4.609705282826050826e-02
6.070056730180212884e-02
7.479573139124787162e-02
8.831023815344993255e-02
1.009460473421141674e-01
1.124692315044109048e-01
1.229129145402481221e-01
1.318216784009587361e-01
1.392672610499895436e-01
1.450426596423232684e-01
1.489088041641247750e-01
1.511378039017593489e-01
1.512942859575411025e-01
1.495885944675556800e-01
1.459979450522777000e-01
1.403720951022549845e-01
1.331435861287440792e-01
1.240529260006219409e-01
1.133802580190860221e-01
1.012944837103788576e-01
8.778281293436962507e-02
7.327753060142180863e-02
5.777937474026033360e-02
4.153015942780834135e-02
2.482283258181774283e-02
7.780736615093543709e-03
-9.322023675369509044e-03
-2.622008572699361523e-02
-4.279210045826293413e-02
-5.871001856226597954e-02
-7.375398358096103835e-02
-8.787955853921780580e-02
-1.006396497666258716e-01
-1.120624985827597120e-01
-1.218725811996752006e-01
-1.298472522415182184e-01
-1.361499559272313087e-01
-1.403308152614464732e-01
-1.425661719949454231e-01
-1.427178958573425416e-01
-1.406989212531524758e-01
-1.368008477259542721e-01
-1.307874880680897633e-01
-1.229588629272339029e-01
-1.133680046961327154e-01
-1.021696556908813780e-01
-8.967719373815728756e-02
-7.600233157832686492e-02
-6.149955184750516973e-02
-4.639210859455047964e-02
-3.105425667221570901e-02
-1.570376447463590203e-02
-7.514252928386734587e-04
1.352825274720035817e-02
2.685662374462068069e-02
3.882260212772213614e-02
4.941272324975227309e-02
5.814210609240978017e-02
6.497717842029346325e-02
6.974100051814589862e-02
7.223794710476941217e-02
7.269339426422814776e-02
7.082114341292278237e-02
6.690482417275182836e-02
6.095925263085092555e-02
5.315400303327134923e-02
4.385911617765004406e-02
3.312438743054069851e-02
2.145246392793722853e-02
8.992813146099230479e-03
-3.783016311047114437e-03
-1.657548628995350951e-02
-2.907069295947250359e-02
-4.078961947496977797e-02
-5.161492265802294227e-02
-6.099744870395740898e-02
-6.892072189346072630e-02
-7.500178042916033627e-02
-7.901278739620258562e-02
-8.101042138779331048e-02
-8.059426241698455784e-02
-7.808725506676073014e-02
-7.322199737386066165e-02
-6.609109736013714376e-02
-5.694858242402075360e-02
-4.566105006243010439e-02
-3.275396708605466528e-02
-1.818139669545422790e-02
-2.254371644738100387e-03
1.466494348052041832e-02
3.244649641537197815e-02
5.060663237773586898e-02
6.895796047148658459e-02
8.715942089747535926e-02
1.048842826508660925e-01
1.218273844945986228e-01
1.377650477870448753e-01
1.523507137917992083e-01
1.653760357754966159e-01
1.766794313449898124e-01
1.859025114482241725e-01
1.931706717386708350e-01
1.981120180265304176e-01
2.007164931542348429e-01
2.010584875683598394e-01
1.988400963792029130e-01
1.944756822208880964e-01
1.877159441129859219e-01
1.787103999655218489e-01
1.677654695412355290e-01
1.547168889574943862e-01
1.401054654534674704e-01
1.239084696731412444e-01
1.063279608408547461e-01
8.782715566678976626e-02
6.838894333393831515e-02
4.848397288413785339e-02
2.832960519199014329e-02
8.052593063637970144e-03
-1.186221419773128907e-02
-3.133278474945472986e-02
-5.013306645911416726e-02
-6.789269302364581149e-02
-8.465907513171551380e-02
-1.000823859359294965e-01
-1.140521774802252114e-01
-1.266725031338569729e-01
-1.375467952506222169e-01
-1.468986863306003809e-01
-1.546065078471753063e-01
-1.605563924065148695e-01
-1.651179676588097611e-01
-1.679543865920847534e-01
-1.693488038253371242e-01
-1.693865469147867731e-01
-1.679237551330270140e-01
-1.654112885196945826e-01
-1.616098180150008501e-01
-1.567089157251950748e-01
-1.509085056391428481e-01
-1.440287172816268890e-01
-1.364148303419402131e-01
-1.279623103449661348e-01
-1.186961363459881624e-01
-1.088497315313774888e-01
-9.827883974285575586e-02
-8.713937046387752738e-02
-7.551698995052384678e-02
-6.332604734731976659e-02
-5.080062223874920457e-02
-3.794539903721450003e-02
-2.475344604021795930e-02
-1.152582277944021877e-02
1.826418125584622788e-03
1.508693199448558203e-02
2.804809616324894714e-02
4.082074815378328864e-02
5.295269460890397045e-02
6.448199901756082597e-02
7.525822236831680723e-02
8.493827084482363787e-02
9.371483872592854814e-02
1.011351490812490983e-01
1.072254011335290885e-01
1.119718252310411000e-01
1.150519960571993461e-01
1.167473075774813490e-01
1.167643891886429031e-01
1.151914332763640386e-01
1.121757135712027897e-01
1.075550488672204624e-01
1.016611173773757926e-01
9.443035378036762628e-02
8.602939135596819609e-02
7.668701359262268535e-02
6.644710414679934340e-02
5.558007030246269603e-02
4.421467594977141619e-02
3.254748074849082851e-02
2.075418752987524124e-02
9.059639868513142888e-03
-2.434855623321598855e-03
-1.348674393886352754e-02
-2.391887450157812248e-02
-3.369875602381186552e-02
-4.247295045428829685e-02
-5.033574277988625556e-02
-5.700806686679280033e-02
-6.235763473964862219e-02
-6.650446031649313861e-02
-6.905648994945996766e-02
-7.025371402519943465e-02
-6.986939391796855026e-02
-6.784851280335951751e-02
-6.442145012236474844e-02
-5.930160040583413311e-02
-5.279812433672856353e-02
-4.483484809262679172e-02
-3.548513834090873120e-02
-2.502136920869954539e-02
-1.340830100573617290e-02
-9.440601625548038570e-04
1.224784579359334408e-02
2.594133500375576593e-02
3.991827707306129513e-02
5.391117896321438729e-02
6.771885918505994584e-02
8.107145844368508769e-02
9.363922692653654789e-02
1.053645967865336347e-01
1.157689231234728805e-01
1.248234141523323348e-01
1.322520283419001130e-01
1.377395320967213233e-01
1.414539336237915224e-01
1.429061503487199236e-01
1.422666056499070075e-01
1.394057546503034428e-01
1.341547512799085018e-01
1.268748332601923878e-01
1.172819748736319695e-01
1.056874778742648568e-01
9.218922957597941448e-02
7.684097165395874229e-02
6.005963476126726514e-02
4.190442858136717713e-02
2.270026172879008666e-02
2.753230817955564132e-03
-1.766684811590944759e-02
-3.825926356193282141e-02
-5.860769527484033931e-02
-7.850479230387860663e-02
-9.753531161859722853e-02
-1.153015219249505091e-01
-1.317436694564085020e-01
-1.462204209063539817e-01
-1.587313316022385123e-01
-1.689061453298724980e-01
-1.763795689205681083e-01
-1.813733893963599964e-01
-1.832774595148393693e-01
-1.823292020148175596e-01
-1.783703184391083052e-01
-1.712510552866606806e-01
-1.614246956430786251e-01
-1.485931174810967148e-01
-1.331877616311073487e-01
-1.153650669507872706e-01
-9.529777496241029211e-02
-7.352836203447256358e-02
-5.022396495907933966e-02
-2.586776134149661524e-02
-8.863119551928214102e-04
2.428785687098419105e-02
4.924239761981359653e-02
7.342173134316132277e-02
9.651078585579862812e-02
1.180095061910364784e-01
1.374434736688758818e-01
1.547447532373440460e-01
1.692293923712878123e-01
1.809392101197666858e-01
1.895413886643182722e-01
1.947577775533260724e-01
1.969487003782813550e-01
1.955894283533718414e-01
1.911058564573859531e-01
1.834767298638724509e-01
1.727295707318796114e-01
1.595267100788350101e-01
1.436706116459008364e-01
1.257868323388296461e-01
1.061373821990348743e-01
8.498317746887205926e-02
6.299289779558084335e-02
4.029945661392166090e-02
1.742626122489160032e-02
-5.238438327146425176e-03
-2.737138608778268145e-02
-4.859832407029687773e-02
-6.855746463637053811e-02
-8.706200927879419182e-02
-1.037692221009768462e-01
-1.184358701388297797e-01
-1.311193313977717656e-01
-1.413642007775989529e-01
-1.493612411123035055e-01
-1.549191390011660507e-01
-1.579306860461719975e-01
-1.588054193376254031e-01
-1.571344218032094675e-01
-1.533465558377015980e-01
-1.474310626594959317e-01
-1.394121626753143106e-01
-1.298338330502679938e-01
-1.184675144643628913e-01
-1.057739896419164494e-01
-9.190298638846827739e-02
-7.698903283735424041e-02
-6.148599480991471383e-02
-4.543459220406993737e-02
-2.916226787389954167e-02
-1.292518743299030451e-02
3.067367899256562974e-03
1.859497183533831768e-02
3.336145283084811924e-02
4.725790683767665257e-02
6.000916325226689912e-02
7.140169953620746635e-02
8.149098268880658469e-02
8.985865120955566221e-02
9.663084723535336762e-02
1.016203315469813157e-01
1.047104841159064853e-01
1.061920815441810551e-01
1.057199988854152090e-01
1.036144343972837528e-01
9.985214965531492848e-02
9.448776729302214850e-02
8.792684349453490367e-02
8.003929979414700635e-02
7.122384253067741422e-02
6.159961447654090094e-02
5.137120677275104630e-02
4.087085297656378735e-02
3.019527397605139413e-02
1.965492700660508019e-02
9.402254345955070661e-03
-3.113260336152015584e-04
-9.382503966050108335e-03
-1.758097297484945837e-02
-2.480308964967571292e-02
-3.096717309396597451e-02
-3.587227507026726631e-02
-3.967797786605697236e-02
-4.212703701575679777e-02
-4.332598688689050931e-02
-4.329513598393263524e-02
-4.192816848387298512e-02
-3.954683943220450859e-02
-3.595050754189144104e-02
-3.136523920613779048e-02
-2.588241995857083061e-02
-1.949930019314186774e-02
-1.254330580348506086e-02
-4.935036504032285810e-03
3.085766290572083091e-03
1.140177758768992980e-02
1.991026046217678896e-02
2.839972412267777191e-02
3.679495752700508854e-02
4.491197604999994791e-02
5.265002626086327797e-02
5.981802841441506008e-02
6.637677882508033478e-02
7.212950391561495644e-02
7.698330383507277774e-02
8.090400360300289972e-02
8.366961254425261951e-02
8.541655595526999323e-02
8.592723494933897366e-02
8.521381936065287876e-02
8.335657412272512445e-02
8.018421398520629573e-02
7.596682783318872700e-02
7.057943859814048981e-02
6.412223996785974822e-02
5.679355946884444284e-02
4.852701522685146096e-02
3.962822465314506243e-02
3.011746462651584272e-02
2.011859950258455820e-02
9.876056813453016128e-03
-5.749810381417861868e-04
-1.102838178808562136e-02
-2.134114552721174882e-02
-3.144214039044189446e-02
-4.114645107598874363e-02
-5.034191414343850562e-02
-5.901557041905462070e-02
-6.694950172327179816e-02
-7.414844970949163727e-02
-8.055216391919063634e-02
-8.598060284776078144e-02
-9.060680800021310433e-02
-9.418221977049898164e-02
-9.674694629357685760e-02
-9.836428152942204572e-02
-9.880054742550455071e-02
-9.832245098100718395e-02
-9.670723029670427739e-02
-9.397956112384242555e-02
-9.028684561929481434e-02
-8.540583226223658064e-02
-7.958973525871057553e-02
-7.272726725438978523e-02
-6.482708661097381919e-02
-5.608289893937254411e-02
-4.639738121149526717e-02
-3.594710251225086139e-02
-2.481605849762517219e-02
-1.304398854752561107e-02
-8.377202596991156422e-04
1.167903018955446584e-02
2.442835158455496786e-02
3.711752945786900293e-02
4.964432544626579819e-02
6.184089733240123038e-02
7.337116749430928897e-02
8.427283538179772271e-02
9.413955419045315354e-02
1.028446097505097412e-01
1.103371849760258483e-01
1.162009474689497529e-01
1.206168063222651660e-01
1.232354216270853259e-01
1.239989143809251543e-01
1.230393450487645424e-01
1.200421779025774155e-01
1.153300255223202592e-01
1.087574217276419397e-01
1.003989915089228691e-01
9.055558777460949449e-02
7.913042925035505826e-02
6.650581036364686116e-02
5.277847041954857044e-02
3.812660175708333654e-02
2.291106298094995955e-02
7.252748268935830037e-03
-8.548512101505055527e-03
-2.422146934085041975e-02
-3.958103803115465419e-02
-5.435090845392891168e-02
-6.827510527891075820e-02
-8.126287731864678676e-02
-9.298756499863143621e-02
-1.033515889780971253e-01
-1.122731492242020068e-01
-1.194654533197667678e-01
-1.250919786154333913e-01
-1.288872244055843386e-01
-1.308752773725601337e-01
-1.312056424864496140e-01
-1.296385226415407710e-01
-1.265358450362626952e-01
-1.217727410703521584e-01
-1.154525757259921570e-01
-1.079164425128827098e-01
-9.899990728617738545e-02
-8.913010063253264115e-02
-7.834354209720333084e-02
-6.672638037244604803e-02
-5.470670188238747900e-02
-4.217838234843634265e-02
-2.947065014470994643e-02
-1.674201587863876836e-02
-3.969041808725172309e-03
8.472999070557069023e-03
2.065132557936134178e-02
3.246032381005924811e-02
4.368616281418119529e-02
5.447629854302985658e-02
6.463338627935867609e-02
7.415650956999457477e-02
8.319076587153738378e-02
9.151771242242470739e-02
9.931024527735383967e-02
1.066028225456501916e-01
1.132408848767511855e-01
1.195213581151469834e-01
1.252289962998025807e-01
1.303912760426421680e-01
1.352193992540944301e-01
1.393292086543304886e-01
1.429894881321251143e-01
1.459800907935821512e-01
1.480735995913802783e-01
1.495352437750222252e-01
1.498142082002725251e-01
1.490234521013572289e-01
1.469917952896619140e-01
1.433351277198549323e-01
1.382848557067190010e-01
1.313893937991967853e-01
1.226386371135626402e-01
1.120478238163117035e-01
9.937005537626547591e-02
8.480107693517890954e-02
6.833070264556995177e-02
4.997805265827499899e-02
3.007019264729363095e-02
8.775903494958912227e-03
-1.371344248977780095e-02
-3.680707673655410350e-02
-6.035825464145274516e-02
-8.376605515180936268e-02
-1.064488892460056235e-01
-1.282670665969457835e-01
-1.482487502492665643e-01
-1.662314099510736887e-01
-1.816073261450024678e-01
-1.937462175723275726e-01
-2.027130989531182037e-01
-2.076796812991531793e-01
-2.087320547066404131e-01
-2.056078274309714737e-01
-1.981122007886079173e-01
-1.866271249762870565e-01
-1.709541318906340757e-01
-1.515802710621917959e-01
-1.287581045965193183e-01
-1.029486347690626719e-01
-7.473797544952839877e-02
-4.466751854628953078e-02
-1.345265184100745415e-02
1.829914417020073528e-02
4.970255763837530538e-02
8.030371327643819057e-02
1.091428484166073326e-01
1.356993931452622759e-01
1.593842343282017848e-01
1.794026462223990703e-01
1.957604631983707322e-01
2.075918058179863079e-01
2.149336126731548058e-01
2.175375087785523798e-01
2.151416772212826622e-01
2.082749421852214122e-01
1.965632974910098696e-01
1.806365058541071489e-01
1.606787310576808514e-01
1.370757820723775000e-01
1.106259715023417134e-01
8.156301540434297837e-02
5.079796856128410143e-02
1.881059833678181206e-02
-1.359947217264053168e-02
-4.576503045959887106e-02
-7.701342228138523260e-02
-1.066119473451609262e-01
-1.340397762761916245e-01
-1.585124523211095537e-01
-1.798128405666230556e-01
-1.971900860832933866e-01
-2.104558857679884598e-01
-2.193092084978296441e-01
-2.233955031286452841e-01
-2.230496656383479936e-01
-2.178401447049721773e-01
-2.082279435032271253e-01
-1.942981544385319614e-01
-1.763187726938755251e-01
-1.550270895798288029e-01
-1.305369282448063661e-01
-1.037352053394669654e-01
-7.506485474470271646e-02
-4.525793536503509851e-02
-1.509497828482345844e-02
1.485985061707621041e-02
4.377308361329003417e-02
7.109426231710276600e-02
9.607681107259827269e-02
1.183291314546510847e-01
1.372062524444200293e-01
1.524279310753968164e-01
1.636803487172216465e-01
1.706687836185755702e-01
1.736525233883142172e-01
1.722864932250530445e-01
1.670332528389503191e-01
1.579937615146906060e-01
1.454683156043100611e-01
1.302246860561730168e-01
1.123256604687652288e-01
9.267484478116545799e-02
7.164102992378293400e-02
4.984451950890878003e-02
2.805697365736943907e-02
6.571466737962945726e-03
-1.385081537547577096e-02
-3.289762850170790259e-02
-5.004922602672142590e-02
-6.502896664418418571e-02
-7.753554957351414811e-02
-8.736914617588127652e-02
-9.448304133802495897e-02
-9.867930928348500608e-02
-1.002984531509824445e-01
-9.912057058662694653e-02
-9.548893330536020740e-02
-8.958824391227875050e-02
-8.147326170936453060e-02
-7.182521721830331662e-02
-6.049234746851322314e-02
-4.802468955548012258e-02
-3.467909551948167302e-02
-2.058866036648222472e-02
-6.371361043846733400e-03
8.043871036338695255e-03
2.224081525016453897e-02
3.601313745749996909e-02
4.924217565579497302e-02
6.163762960312098305e-02
7.313767647702247576e-02
8.360451791709129499e-02
9.292758738226275517e-02
1.009939180171642997e-01
1.078760389389337299e-01
1.133688198028745125e-01
1.175586150951880987e-01
1.204343552744905760e-01
1.218572192998873538e-01
1.221352798435721004e-01
1.209992779497630899e-01
1.186236924774662915e-01
1.150976671195709095e-01
1.102711228282080569e-01
1.045241911434949406e-01
9.765791243604018956e-02
8.982944385787475228e-02
8.122726146654402068e-02
7.174704255909525319e-02
6.171714989163703396e-02
5.111259222001677399e-02
4.002600345210693966e-02
2.871271121436897930e-02
1.715910833640233932e-02
5.561225800653800573e-03
-5.921552235997892301e-03
-1.727784713572727907e-02
-2.826259493931896488e-02
-3.880184131231729366e-02
-4.887928398875836938e-02
-5.822417964363370974e-02
-6.690602361038006096e-02
-7.477320482963557835e-02
-8.169629481663231996e-02
-8.783135491763409408e-02
-9.288779910603303658e-02
-9.698251368143331885e-02
-1.000890212968919835e-01
-1.020517591225856974e-01
-1.031245241445623018e-01
-1.030675735847751684e-01
-1.019918977901027729e-01
-9.997349907322423956e-02
-9.686976911216832464e-02
-9.293325366434593282e-02
-8.803620656073168904e-02
-8.225486375634429026e-02
-7.572820397749502330e-02
-6.838994894979007200e-02
-6.041907955688869541e-02
-5.185076835511027993e-02
-4.273641987900823197e-02
-3.324181019493964440e-02
-2.343622080495880861e-02
-1.339584407547456807e-02
-3.328910944530556228e-03
6.716338826018097320e-03
1.658548247257593533e-02
2.607028322206069240e-02
3.520215365862094242e-02
4.366237549600020251e-02
5.141512140336902681e-02
5.836958952621812413e-02
6.425964785042927174e-02
6.922651930562934153e-02
7.296530791543709427e-02
7.549872636002384618e-02
7.684598517924473571e-02
7.680939237399925235e-02
7.562328268670617804e-02
7.311508726986180873e-02
6.940221567612589459e-02
6.460930548130823514e-02
5.870013476331574498e-02
5.193873824906575926e-02
4.433125793582668589e-02
3.607206251221500154e-02
2.732253026540491792e-02
1.821930217870347535e-02
8.958972564379170944e-03
-3.100581355166371830e-04
-9.381845086304883147e-03
-1.814812897338044864e-02
-2.635967912709060584e-02
-3.396286706386869580e-02
-4.074824704004998549e-02
-4.656940692012545568e-02
-5.142518858147600291e-02
-5.505110608665094579e-02
-5.754991735864130320e-02
-5.874288045324545932e-02
-5.859428061730589249e-02
-5.721363061395533939e-02
-5.443047269448331171e-02
-5.046265036593024916e-02
-4.524463014909154562e-02
-3.887301423965775632e-02
-3.153218551045298967e-02
-2.322802857089561676e-02
-1.421568564919688249e-02
-4.580281341483693168e-03
5.475645149903616768e-03
1.576308963686417347e-02
2.609243819697598318e-02
3.627000205890911627e-02
4.609818151359922761e-02
5.534729500734821006e-02
6.391647172018334599e-02
7.151319412858507529e-02
7.809885631116424143e-02
8.346860256610103002e-02
8.746744771122574869e-02
9.016366056251150229e-02
9.128982336336434467e-02
9.100412969014104458e-02
8.920642872919912203e-02
8.587805115445840132e-02
8.126316461197866103e-02
7.521630768062662065e-02
6.802982069814697552e-02
5.975072919979310115e-02
5.047143299233464858e-02
4.050776522446461470e-02
2.986116209034398589e-02
1.880421398565903374e-02
7.490352839578039504e-03
-3.953816272432725439e-03
-1.530459094673099554e-02
-2.642659214114014693e-02
-3.721371165533327030e-02
-4.747516710844865845e-02
-5.709446483820097840e-02
-6.605707525676166036e-02
-7.409789346373643615e-02
-8.131459607821718560e-02
-8.752380641232257452e-02
-9.259520331070895949e-02
-9.672545172038135575e-02
-9.953146979680758955e-02
-1.012338705628249708e-01
-1.016859831733763070e-01
-1.007132323046362882e-01
-9.863702323840815855e-02
-9.504280055110576886e-02
-9.016312938447698655e-02
-8.394075011503208950e-02
-7.620339863687523863e-02
-6.729496294710271553e-02
-5.694527755756918774e-02
-4.534194191991639672e-02
-3.258735814367524214e-02
-1.863405711923959984e-02
-3.775116343134152404e-03
1.193659053981514784e-02
2.835447851747184556e-02
4.518787849447494787e-02
6.225920778481419671e-02
7.938126679606716252e-02
9.613271590351339657e-02
1.124123050750659852e-01
1.278227115299784555e-01
1.420005361766115415e-01
1.549391531595499805e-01
1.660089902577679688e-01
1.752221178086927345e-01
1.822609098403585037e-01
1.867596481373008932e-01
1.889680922473236657e-01
1.883311761471958001e-01
1.850553314408822092e-01
1.790851304181375336e-01
1.702488647791664533e-01
1.590485280416095992e-01
1.452374234228874517e-01
1.292038530771896232e-01
1.112117383447266961e-01
9.134951203602958980e-02
7.022530387047168365e-02
4.796172728652179501e-02
2.496913215609647754e-02
1.715643623911288721e-03
-2.155529599822058467e-02
-4.438959027820609665e-02
-6.640759334565096705e-02
-8.741059272568542371e-02
-1.069409896477379468e-01
-1.247726767625005062e-01
-1.408303368574369552e-01
-1.546431423140009476e-01
-1.663529670890215306e-01
-1.756778039857141427e-01
-1.824961108297870893e-01
-1.871396790221231676e-01
-1.891629635059631220e-01
-1.889688466481297957e-01
-1.864931277245437391e-01
-1.816938389527241737e-01
-1.751330783193461027e-01
-1.664701225149416430e-01
-1.561548934834637581e-01
-1.443021821782780878e-01
-1.309028443773653794e-01
-1.164949389435325777e-01
-1.009337954084335576e-01
-8.452577233188009187e-02
-6.751446189727174085e-02
-4.993726456349476678e-02
-3.212279942535251759e-02
-1.421630458788122886e-02
3.684490686703700314e-03
2.125024136964467902e-02
3.834337344450106100e-02
5.490792281707430889e-02
7.050009304818043165e-02
8.519936831948145273e-02
9.866591531704264895e-02
1.106664725766499519e-01
1.213966905392041412e-01
1.302582828459675768e-01
1.374613917352202896e-01
1.427700106007284142e-01
1.459609631824482778e-01
1.474101831967854492e-01
1.466087818264120712e-01
1.438616788983743122e-01
1.391263819185946937e-01
1.323314860779980784e-01
1.239132972198785515e-01
1.136616720381154882e-01
1.019237217032585296e-01
8.885106038800770489e-02
7.460133999071888455e-02
5.952165475887953583e-02
4.377389538552750592e-02
2.766440572090791278e-02
1.145435227229393838e-02
-4.506912397828387491e-03
-2.008534353151339089e-02
-3.483067806165394964e-02
-4.857365184876023811e-02
-6.106680607690461587e-02
-7.191711030328286347e-02
-8.124899432282470246e-02
-8.853771166521341718e-02
-9.382936001245460733e-02
-9.700527463159777652e-02
-9.782452213189796186e-02
-9.662883440894724785e-02
-9.306480506695050114e-02
-8.741126419331565756e-02
-7.973575157890552823e-02
-7.008537947026052817e-02
-5.890192540469944144e-02
-4.615487886329602829e-02
-3.227598250890990894e-02
-1.748421746745540753e-02
-2.103902261118238519e-03
1.349031727687478172e-02
2.902687701345602750e-02
4.409349360485144420e-02
5.844383467322511461e-02
7.164414910668764902e-02
8.355315223877188280e-02
9.377840489955573122e-02
1.021241525674020656e-01
1.084730148983499010e-01
1.125150110447568907e-01
1.144270569938765358e-01
1.139256159806395774e-01
1.111358180503574100e-01
1.061577635622302507e-01
9.895852106052893671e-02
8.996159181370920466e-02
7.913083471677138936e-02
6.683840230617271727e-02
5.335124424214096606e-02
3.889563721979204247e-02
2.391951997607737537e-02
8.614807835705420164e-03
-6.619671429789275065e-03
-2.151166216357135175e-02
-3.572864263614080466e-02
-4.904680812435357334e-02
-6.117112309979504808e-02
-7.189330947845176678e-02
-8.108667210273208525e-02
-8.847416314944288318e-02
-9.416548634666170592e-02
-9.789134444641835187e-02
-9.970843454547431706e-02
-9.967755477234957473e-02
-9.766376753177455350e-02
-9.402319843766179797e-02
-8.860030840728315427e-02
-8.163984219259043384e-02
-7.332893159309564202e-02
-6.369412073192325108e-02
-5.313561932993834253e-02
-4.166148063010605140e-02
-2.956405153748766640e-02
-1.705542683768147133e-02
-4.309408367820386811e-03
8.418619213738817025e-03
2.094869795651781857e-02
3.305468256284693762e-02
4.458649702986994950e-02
5.526201887722631545e-02
6.506253630789197995e-02
7.368942758793581294e-02
8.103949630767291745e-02
8.708304488904090868e-02
9.151054911271948311e-02
9.453228680275993501e-02
9.585197737200301660e-02
9.550623988524868657e-02
9.361408443846490346e-02
8.995309298514855834e-02
8.488233421094201758e-02
7.824378980298461739e-02
7.019548792041294116e-02
6.097744833010584203e-02
5.054536988352985316e-02
3.927204179867849199e-02
2.720565887922243853e-02
1.456381383269231625e-02
1.606985372511397607e-03
-1.151500746089073601e-02
-2.457028646582894507e-02
-3.733987413192287053e-02
-4.963077337727608146e-02
-6.129291293480868680e-02
-7.203513014200677023e-02
-8.186630902319995406e-02
-9.049375868920168930e-02
-9.780165549360098076e-02
-1.038264820152045576e-01
-1.082149062996488886e-01
-1.111990720231976482e-01
-1.125136778015235761e-01
-1.121198966821015525e-01
-1.102235557924186177e-01
-1.065043032428940051e-01
-1.013061955238934858e-01
-9.448387524313429930e-02
-8.606270058863400851e-02
-7.634293641312844825e-02
-6.515402311888587872e-02
-5.282420156441235137e-02
-3.940355215655038518e-02
-2.498694530795887020e-02
-9.881753263626096712e-03
5.834563859646279584e-03
2.193999470089153317e-02
3.816999012280800074e-02
5.435678960649899943e-02
7.026638749280754437e-02
8.556693891887015568e-02
1.001905645468713080e-01
1.137375540847048172e-01
1.260127045124827261e-01
1.369300117991386623e-01
1.460344088194283352e-01
1.534374498379374729e-01
1.587752910642951376e-01
1.619305949835907199e-01
1.630165556493840262e-01
1.616759061239362028e-01
1.581910852890038299e-01
1.524102476036680309e-01
1.443929626508894948e-01
1.344298196746902541e-01
1.224442713635868901e-01
1.088104687033278062e-01
9.366120708208298951e-02
7.723850989901201447e-02
5.989534378313313145e-02
4.187010326248192388e-02
2.348383880471105120e-02
5.083768518555476998e-03
-1.301739569211777733e-02
-3.055277073817926070e-02
-4.709954080953501071e-02
-6.252570636639503965e-02
-7.642691677330441802e-02
-8.859050264215440063e-02
-9.891724604716582714e-02
-1.070264748284615736e-01
-1.130238261175912085e-01
-1.166089323105169023e-01
-1.178216216549836520e-01
-1.167108388278992603e-01
-1.131683587019012005e-01
-1.074962016138316795e-01
-9.961371662419556128e-02
-8.988557756306279900e-02
-7.844221303754089769e-02
-6.556941829727214177e-02
-5.167385097402086430e-02
-3.692291400450754824e-02
-2.192474157451355238e-02
-6.836719955287597940e-03
7.769142917657807096e-03
2.150835391866749713e-02
3.406425949961560534e-02
4.486578833618324463e-02
5.376368873403282456e-02
6.026123247730766352e-02
6.416301953904200717e-02
6.521919789443834936e-02
6.329968958601805973e-02
5.831677359791299919e-02
5.029768374439548551e-02
3.940607013203470399e-02
2.568655777725230641e-02
9.732794535853555445e-03
-8.413332524631954995e-03
-2.799743113270671685e-02
-4.846735060430483466e-02
-6.943740308558510321e-02
-8.973660288448703781e-02
-1.092135617111194834e-01
-1.267098102413309058e-01
-1.415566073543468029e-01
-1.532977522169251816e-01
-1.608485753102795179e-01
-1.641434760009840566e-01
-1.623965308562347887e-01
-1.553370108998586019e-01
-1.429046137526203408e-01
-1.249220163450772692e-01
-1.016525890233857532e-01
-7.339276968227891051e-02
-4.063176926337491723e-02
-3.967315604704470429e-03
3.555366617167406845e-02
7.736760431712325081e-02
1.200738924000870345e-01
1.626501651269938731e-01
2.041179009768741281e-01
2.427772527341879039e-01
2.782026025696655025e-01
3.086785400339324692e-01
3.334231911846934904e-01
3.517538331904084270e-01
3.624275220516598450e-01
3.656879769091536114e-01
3.605484138366771285e-01
3.471885857948585619e-01
3.257603469559546272e-01
2.962959851010426582e-01
2.598219470439885326e-01
2.166301133299451120e-01
1.678998530106585174e-01
1.145873401383540602e-01
5.793356305711407778e-02
-7.592414573604254827e-04
-6.017955371449015128e-02
-1.188815294272046047e-01
-1.756644126649354876e-01
-2.289247214999839408e-01
-2.778971757877249926e-01
-3.210398476125578826e-01
-3.576206738393521434e-01
-3.868717686669104205e-01
-4.078157265980209556e-01
-4.207768685424929100e-01
-4.247584390019654155e-01
-4.202746117602645937e-01
-4.073633743319071687e-01
-3.861603409939988185e-01
-3.579857135055506401e-01
-3.227375777109937061e-01
-2.819005243887973133e-01
-2.362122090382768602e-01
-1.866700183894949572e-01
-1.348970544560565699e-01
-8.152318524891970231e-02
-2.811886357760878807e-02
2.433460686882671711e-02
7.470718808013573908e-02
1.219308724866422639e-01
1.651149719800941440e-01
2.035118675322891146e-01
2.364011589743259811e-01
2.632179941398649636e-01
2.839625780816458223e-01
2.979544471123923288e-01
3.056503121661355848e-01
3.068706690201420395e-01
3.018715994354305709e-01
2.916191390558016128e-01
2.758752453680073380e-01
2.559647751286669992e-01
2.321908858242824059e-01
2.053506722032289455e-01
1.767620527215454374e-01
1.465599619694135936e-01
1.161373657595682063e-01
8.597609209986878387e-02
5.684259563257616082e-02
2.967555066737327316e-02
4.735270919490209424e-03
-1.727177682486450566e-02
-3.601136266261631413e-02
-5.122305287749654573e-02
-6.276046363630964631e-02
-7.047082025216228063e-02
-7.460856566338466833e-02
-7.513124223610020969e-02
-7.238427011836023883e-02
-6.690703585424619126e-02
-5.872856450265442202e-02
-4.875746917590254720e-02
-3.714497966297052728e-02
-2.455560062210230404e-02
-1.173539526688951659e-02
1.208437383435984926e-03
1.333278835848016389e-02
2.452217477380901067e-02
3.422611700093747267e-02
4.199978764842020318e-02
4.781906987271012516e-02
5.122178259246401577e-02
5.230123287076646199e-02
5.090693237540067084e-02
4.711085787968250643e-02
4.105212673655313921e-02
3.286745683488892511e-02
2.284409766339152992e-02
1.122040634322417699e-02
-1.587430939315889744e-03
-1.532913521837739323e-02
-2.953911929339536613e-02
-4.391175746012648123e-02
-5.804631583092657171e-02
-7.155521687041262180e-02
-8.419075733120683080e-02
-9.554655535001352340e-02
-1.054795808113317829e-01
-1.136627631026811691e-01
-1.200136710083571229e-01
-1.243708186104191260e-01
-1.266158234207882816e-01
-1.268296674876189245e-01
-1.248711315974994074e-01
-1.209825687536915106e-01
-1.151212363418028795e-01
-1.074395602032149899e-01
-9.817960755050580968e-02
-8.737882478353740934e-02
-7.542073975334782909e-02
-6.239245527893890614e-02
-4.855338707944396176e-02
-3.419732658558806426e-02
-1.948468501939894931e-02
-4.719986118857095840e-03
9.879532158065956055e-03
2.411427673887063874e-02
3.773192746172471246e-02
5.051687292565174708e-02
6.237982573819588622e-02
7.301854926805326218e-02
8.239231582680001109e-02
9.035911072680728739e-02
9.673103216440999408e-02
1.016598941528614741e-01
1.048631400625120308e-01
1.064801334776482034e-01
1.065203677719740033e-01
1.049039577880169216e-01
1.019566064134101169e-01
9.752795957522712722e-02
9.188478214812201283e-02
8.517468970819977447e-02
7.745570097220312589e-02
6.908901676984186002e-02
6.009647977102285793e-02
5.075435051285746846e-02
4.125777066565185225e-02
3.175180732521711013e-02
2.246533096886556627e-02
1.353481035991587270e-02
5.115100127916810853e-03
-2.671437654033201325e-03
-9.677818901524790074e-03
-1.590866526894176361e-02
-2.119908172522757400e-02
-2.556725613220730414e-02
-2.901498557693536068e-02
-3.143891397241155988e-02
-3.303679286994452846e-02
-3.366329408793279632e-02
-3.345450724380500535e-02
-3.248790764321168173e-02
-3.070767735979579999e-02
-2.836395862530195766e-02
-2.535096952419088265e-02
-2.183267292116173111e-02
-1.788078917539653173e-02
-1.350068857136186087e-02
-8.872040249307381471e-03
-3.960648966390592322e-03
1.081582129184515285e-03
6.222406688430528500e-03
1.135672884992798906e-02
1.640463579981740055e-02
2.129605969369737298e-02
2.588295676090957356e-02
3.015968802175689190e-02
3.392378544927967393e-02
3.717021097912899530e-02
3.975819004929925793e-02
4.156526603008687398e-02
4.261480824505221171e-02
4.270934431669057285e-02
4.191138803562557275e-02
4.012139407917143102e-02
3.731837621545474465e-02
3.358105699357109841e-02
2.886237797929529572e-02
2.329600994423857221e-02
1.692298224809047139e-02
9.877492804853666222e-03
2.285109360744167189e-03
-5.688465192359433258e-03
-1.388124014934758940e-02
-2.212101725094605884e-02
-3.016647858608709210e-02
-3.792119411254712968e-02
-4.508686850464774243e-02
-5.156919793491919479e-02
-5.717545230436849035e-02
-6.168726495276704441e-02
-6.512489668730792047e-02
-6.721487733439966694e-02
-6.800627063645255099e-02
-6.740168953123180928e-02
-6.532112942361838204e-02
-6.191894091778726156e-02
-5.707546991547265275e-02
-5.097310639248688047e-02
-4.365930733502484951e-02
-3.522500216928850514e-02
-2.589279142276147694e-02
-1.574395728495180113e-02
-5.006103653939191454e-03
6.148812234771425418e-03
1.751062625229194564e-02
2.888951597465237373e-02
4.003715910498555769e-02
5.079216725670483018e-02
6.092245607819946063e-02
7.019605971577309866e-02
7.854364863948910813e-02
8.564445248114348208e-02
9.149087332505399794e-02
9.588629647399943279e-02
9.868398823483610915e-02
9.999445366306311533e-02
9.955754178320708192e-02
9.755764170570062344e-02
9.393773012224423957e-02
8.870803192705098428e-02
8.215638990231430294e-02
7.418744322531316271e-02
6.511750540966342038e-02
5.506079538588921213e-02
4.415492596228182132e-02
3.274505741836957612e-02
2.090134304219828237e-02
8.903289169998605465e-03
-3.044382544539688505e-03
-1.478819579291367967e-02
-2.611268494109089330e-02
-3.684824959060391258e-02
-4.691161999515715969e-02
-5.611502017611506854e-02
-6.436384556960293712e-02
-7.167974710250209214e-02
-7.783525201640446867e-02
-8.296173316810234732e-02
-8.693116832144186235e-02
-8.968535280008867183e-02
-9.143828864540427814e-02
-9.191813962472229760e-02
-9.135617835087533889e-02
-8.967962070255870721e-02
-8.681953711278518615e-02
-8.305634993483133888e-02
-7.813688400309126703e-02
-7.227030035982777434e-02
-6.545963773870465408e-02
-5.765112564967353470e-02
-4.909525615206190158e-02
-3.968891156124560587e-02
-2.957787957120525807e-02
-1.888648006359630940e-02
-7.657816789515014579e-03
3.928280916598813483e-03
1.572559919459302208e-02
2.764135667826415205e-02
3.943319490390476134e-02
5.092833884735827044e-02
6.204421758997426956e-02
7.242446129917222419e-02
8.203905428855295945e-02
9.062157616193880494e-02
9.795085029551296729e-02
1.040813676919331715e-01
1.086241884532238577e-01
1.116618141503877421e-01
1.130432360488028282e-01
1.126477092912704786e-01
1.106854843048568765e-01
1.069348618750554092e-01
1.016154016533665494e-01
9.477003114899112957e-02
8.646935591913107455e-02
7.701383385801147119e-02
6.643703284123460284e-02
5.502576650215772885e-02
4.297547255244830305e-02
3.050882474399444627e-02
1.787929881009320959e-02
5.323406304711945057e-03
-6.939311120608201468e-03
-1.867233881742284135e-02
-2.962843841472709988e-02
-3.971703121883326387e-02
-4.862894870308076545e-02
-5.632110282653501193e-02
-6.261585496235624881e-02
-6.737436669849493354e-02
-7.069251945925640601e-02
-7.232971555581624301e-02
-7.244530068968318970e-02
-7.097386454116806631e-02
-6.796627425836246350e-02
-6.364255550119560234e-02
-5.793853708877142600e-02
-5.115916298446888943e-02
-4.336121697974947703e-02
-3.478368232901619256e-02
-2.566898746515182059e-02
-1.615742958083902017e-02
-6.580369570660362689e-03
2.923489666132328153e-03
1.203037905270146375e-02
2.058678743543430195e-02
2.833485331239048860e-02
3.506919463015756994e-02
4.066394688722586859e-02
4.488202499713855181e-02
4.775291013139579960e-02
4.906327362147081678e-02
4.885289666931759422e-02
4.711380136875077673e-02
4.383229317347744208e-02
3.924693017017141100e-02
3.331547885292779343e-02
2.632089303644868927e-02
1.840429321315808359e-02
9.769536950504430911e-03
7.615497948214580357e-04
-8.498753020742089853e-03
-1.765257583821728052e-02
-2.650947593055098805e-02
-3.481027985992739965e-02
-4.231935275196613971e-02
-4.888330208872132543e-02
-5.430625434644092975e-02
-5.851362044691819225e-02
-6.136626573538896817e-02
-6.292023666331167386e-02
-6.309801804818300497e-02
-6.197765213158223235e-02
-5.967796274238681281e-02
-5.619625367035305241e-02
-5.186831971433720351e-02
-4.666935778353213660e-02
-4.083183753338628930e-02
-3.458903721208311799e-02
-2.793315267828465343e-02
-2.127113915557410709e-02
-1.453786125456460118e-02
-7.884918448807454183e-03
-1.512677747306130638e-03
4.713021691722715095e-03
1.054859517910344130e-02
1.611339631025779720e-02
2.146378181105075209e-02
2.650667746727855198e-02
3.144314232218788085e-02
3.627336261769321946e-02
4.105184877857454701e-02
4.595177137427471775e-02
5.094513774538690642e-02
5.609499986536688881e-02
6.154771385618811042e-02
6.715018399001312921e-02
7.298769498689552937e-02
7.902044095654256473e-02
8.501834054114119910e-02
9.112870139137280168e-02
9.698173561921946684e-02
1.024640792318561727e-01
1.075221987681827529e-01
1.116974080242846973e-01
1.150931318057770020e-01
1.173029930187099862e-01
1.181127025400256075e-01
1.175509241354278922e-01
1.151979981868045122e-01
1.111836219863186620e-01
1.053197383897676032e-01
9.750094780582223286e-02
8.792819790921732603e-02
7.648824831655341716e-02
6.339371259716101992e-02
4.881297602618826087e-02
3.286657145430009475e-02
1.589657407104951362e-02
-1.834040350231499507e-03
-2.009268697197628614e-02
-3.842317065906573209e-02
-5.655713144076014720e-02
-7.416172082831495871e-02
-9.075444991574244114e-02
-1.062349033949012977e-01
-1.200722530317233638e-01
-1.320538003007765415e-01
-1.420230524470944555e-01
-1.495403192030388684e-01
-1.547571045165906656e-01
-1.572957448115296919e-01
-1.571731428981945067e-01
-1.544886823849429547e-01
-1.490589848569121301e-01
-1.412753501606664741e-01
-1.310542329206643153e-01
-1.186721278208215380e-01
-1.044386340292512982e-01
-8.849455169242843866e-02
-7.131611578531875384e-02
-5.312082128240719348e-02
-3.431176870771184689e-02
-1.526007021030343497e-02
3.666805186844190705e-03
2.213633270628511188e-02
3.975331398527239685e-02
5.620815082453171907e-02
7.125081510464571777e-02
8.448362695901806552e-02
9.589815548603240758e-02
1.051065977123056550e-01
1.120647751959192723e-01
1.167652741312691922e-01
1.189585681404383144e-01
1.189863537408840100e-01
1.166202323232250204e-01
1.121023440259068943e-01
1.056643055687701838e-01
9.727649883424653587e-02
8.747795951209087761e-02
7.625080544891293943e-02
6.398366581357727012e-02
5.101414495153813039e-02
3.748186491341980869e-02
2.386052257610573463e-02
1.028473914170096974e-02
-2.921344150055565393e-03
-1.550846810570467860e-02
-2.727612304355343104e-02
-3.804497937416594783e-02
-4.763374778849215757e-02
-5.592293094178653334e-02
-6.288862703257985798e-02
-6.834150549059775370e-02
-7.245254618967196525e-02
-7.506698732177723155e-02
-7.624999986194275214e-02
-7.619620242107520702e-02
-7.472757031217729107e-02
-7.222088383450860072e-02
-6.856413416912791881e-02
-6.387246855929501477e-02
-5.843256239745892727e-02
-5.206654969141619876e-02
-4.513312959382591999e-02
-3.757227510005876209e-02
-2.944382685381009834e-02
-2.099329943595184059e-02
-1.210064404679700792e-02
-2.964995023241436337e-03
6.379588748685608574e-03
1.591387827314496087e-02
2.549445243171850548e-02
3.507608318420191856e-02
4.462448620391677029e-02
5.397599868068787832e-02
6.306671279861085500e-02
7.185773748420512530e-02
8.008682910419452627e-02
8.781988177889470115e-02
9.480115492144609857e-02
1.008812496793614483e-01
1.061236427705992968e-01
1.101314964337938573e-01
1.130278883315054411e-01
1.145874372033589411e-01
1.146396081533520434e-01
1.133644039790224628e-01
1.104177846089390014e-01
1.059808915522387346e-01
9.999555118695280242e-02
9.238730559146451915e-02
8.344207848770845981e-02
7.304179098537592896e-02
6.141364389791970774e-02
4.871952515898992503e-02
3.504479095356054924e-02
2.069863537490998842e-02
5.842657563887427435e-03
-9.323338343467310607e-03
-2.448560425723694811e-02
-3.944093485747362376e-02
-5.399203406754005813e-02
-6.777639231938906161e-02
-8.072696508995441667e-02
-9.251557453479165860e-02
-1.029279678796675146e-01
-1.119805536056220491e-01
-1.192556481213639247e-01
-1.248741082142721115e-01
-1.286147508287514007e-01
-1.303481743272837945e-01
-1.303024993855126656e-01
-1.281517612101884807e-01
-1.241683567302039048e-01
-1.183046130137718893e-01
-1.105684599660123474e-01
-1.013067480097774586e-01
-9.040330003341728871e-02
-7.818475967151687633e-02
-6.479067331511260963e-02
-5.037176126747256594e-02
-3.526511604318410126e-02
-1.961645427559846611e-02
-3.692509748910916857e-03
1.222518813814585555e-02
2.789576001974606104e-02
4.311058183452044779e-02
5.751579556671379545e-02
7.100363815660577782e-02
8.325560365639590732e-02
9.404701716868177352e-02
1.033768293385755044e-01
1.108364598442095061e-01
1.165359710942023563e-01
1.202549574344401739e-01
1.219038676898785561e-01
1.217072221039787322e-01
1.193832237248645262e-01
1.152475404561720401e-01
1.092755290165857290e-01
1.015683579941998038e-01
9.250516771821482020e-02
8.203398089296685958e-02
7.056293261349194657e-02
5.825476530289040722e-02
4.534018575039403670e-02
3.219072947736053431e-02
1.895457022358625065e-02
5.944932370223227069e-03
-6.602185700148729790e-03
-1.846765299823474940e-02
-2.947354458929572762e-02
-3.938598280129166490e-02
-4.814440855477361558e-02
-5.557597104431723223e-02
-6.158250782356721603e-02
-6.627321312631102856e-02
-6.942474492806539887e-02
-7.124265721157542475e-02
-7.167818501272496534e-02
-7.074806101162747773e-02
-6.878011897724825574e-02
-6.559068677058203789e-02
-6.150996355061429804e-02
-5.658400579520932172e-02
-5.085997705170700739e-02
-4.470642650089211995e-02
-3.798681959088775345e-02
-3.097120914461818503e-02
-2.374185736278686815e-02
-1.631774558085040752e-02
-8.937571212119372471e-03
-1.549344088785039458e-03
5.741828141997364424e-03
1.285311883125919361e-02
1.976866338353348851e-02
2.645527992165373765e-02
3.281974344395995058e-02
3.890058211355129636e-02
4.461911365290911063e-02
4.988454524608730567e-02
5.484007110163396925e-02
5.922251825623169041e-02
6.312255969849558945e-02
6.647389420383675862e-02
6.907273635188675154e-02
7.116508888926588450e-02
7.238811080174882562e-02
7.281980853365488393e-02
7.244450229579958711e-02
7.100944545210738368e-02
6.879562559333887717e-02
6.549362438261271957e-02
6.116842977264286274e-02
5.589564259707370530e-02
4.950925473186944953e-02
4.225929282807323190e-02
3.404486138783188037e-02
2.494568490085869242e-02
1.512202033568472645e-02
4.614134341839536482e-03
-6.438330031884897421e-03
-1.785317278891747697e-02
-2.952793608162974925e-02
-4.127970791251884403e-02
-5.283148369914889009e-02
-6.420898709386380077e-02
-7.499224383033259445e-02
-8.507318119172546655e-02
-9.432079910230438402e-02
-1.022973406316360773e-01
-1.091922787039155684e-01
-1.144945937678517045e-01
-1.181342915384761827e-01
-1.200920232082755140e-01
-1.199469438378801267e-01
-1.180040049098740190e-01
-1.138815599177066956e-01
-1.076184610192823660e-01
-9.934956429335817241e-02
-8.889273691875219929e-02
-7.659976279410952993e-02
-6.242583331534696384e-02
-4.657009060151696273e-02
-2.931916441482378122e-02
-1.086707845424268043e-02
8.477750014915214072e-03
2.835679355859926920e-02
4.845195737492270088e-02
6.841077097921845207e-02
8.772330536345500362e-02
1.062444258384251244e-01
1.233588317978196180e-01
1.387894457028363560e-01
1.522850273476533123e-01
1.632754795627573419e-01
1.718997554904792002e-01
1.775857219210711102e-01
1.802966540768061732e-01
1.800478365941679260e-01
1.765108492354293679e-01
1.701375245128496638e-01
1.606745296339391060e-01
1.484073259334793282e-01
1.336527894877601597e-01
1.164742291277166691e-01
9.748493865539112346e-02
7.683590259103327547e-02
5.500131556397534066e-02
3.244657908922868317e-02
9.540986235496949630e-03
-1.323809476906083471e-02
-3.546304871351509819e-02
-5.674491877924580513e-02
-7.672046572599965086e-02
-9.493802454611550978e-02
-1.113185753584649135e-01
-1.253735412779907465e-01
-1.370109929396243487e-01
-1.461431935386054148e-01
-1.524244311172097133e-01
-1.562176076625206578e-01
-1.571427889371619369e-01
-1.554162766543548124e-01
-1.512287508594844787e-01
-1.444171358770092728e-01
-1.355952960231524840e-01
-1.245830071370326586e-01
-1.117523950603773186e-01
-9.744955733905372175e-02
-8.169458207139961015e-02
-6.506447707522822199e-02
-4.761103982551307540e-02
-2.967574490146639155e-02
-1.160594871782859305e-02
6.422567125072704483e-03
2.409372338399043759e-02
4.114614637829866473e-02
5.738650060322794677e-02
7.258467388561734568e-02
8.645645512613431283e-02
9.902548833368975123e-02
1.099111257124702062e-01
1.190968554357589027e-01
1.265373662939398847e-01
1.319233755350181503e-01
1.355682492864484501e-01
1.371196035670248226e-01
1.367095554080491049e-01
1.344941418715413506e-01
1.302433074032285087e-01
1.244299559118734327e-01
1.168689879018280642e-01
1.077767600758370026e-01
9.745970281835537874e-02
8.583788083271443048e-02
7.337155727335409328e-02
6.009632471852129759e-02
4.622160950488041903e-02
3.208318187488175266e-02
1.775217879292635345e-02
3.508306219952597033e-03
-1.044214409650127615e-02
-2.398112352634679950e-02
-3.688401208262333947e-02
-4.897392360734414279e-02
-6.024351269617229249e-02
-7.041224011593529009e-02
-7.947569133361398475e-02
-8.739791030349558509e-02
-9.393874943826090174e-02
-9.932877078075039168e-02
-1.032963162004329749e-01
-1.059009868432714274e-01
-1.072795245068077635e-01
-1.071682121305106428e-01
-1.059102869476563485e-01
-1.033097630967062946e-01
-9.942816286580039020e-02
-9.450504735902695574e-02
-8.832016453114369114e-02
-8.119636865178633811e-02
-7.307285546020463041e-02
-6.399262374416074539e-02
-5.422123148442917900e-02
-4.366893909508281352e-02
-3.255530224817741042e-02
-2.098946428887107224e-02
-9.018850091851861317e-03
3.126941724714660080e-03
1.534777934318914960e-02
2.755398329675931915e-02
3.948795531932552949e-02
5.107481968262245209e-02
6.217635099640662910e-02
7.252273562121606953e-02
8.215910214283039803e-02
9.077263745587324517e-02
9.827977329166556753e-02
1.046909930168030689e-01
1.096696936220194901e-01
1.133974166129312761e-01
1.156356332026887840e-01
1.163408676149625814e-01
1.157018573040904108e-01
1.134422815307215143e-01
1.098505149723629920e-01
1.048543658410323459e-01
9.847630294620458857e-02
9.103409307748416834e-02
8.239095732833034980e-02
7.284758962327533838e-02
6.249867248389239655e-02
5.140592554168717243e-02
3.988352103549035882e-02
2.794886297933711627e-02
1.578948106135217785e-02
3.602105201150667714e-03
-8.547483539054812757e-03
-2.048156801659057821e-02
-3.203305098007171170e-02
-4.319166062481542140e-02
-5.372017081560281904e-02
-6.354114086736831202e-02
-7.266188450464748649e-02
-8.077704709237046310e-02
-8.802076066315037139e-02
-9.416081348389444827e-02
-9.908678840155452083e-02
-1.029568436786971880e-01
-1.053941014031763851e-01
-1.066004875992784401e-01
-1.064097537872356336e-01
-1.047071120068452377e-01
-1.017376641236719531e-01
-9.719734426827432439e-02
-9.130194538135406879e-02
-8.403002175049374689e-02
-7.534904731693418956e-02
-6.553393241172822403e-02
-5.451262312350958761e-02
-4.249370111874027633e-02
-2.964457696919233637e-02
-1.608633645252470143e-02
-2.061949512263979052e-03
1.220750002350195693e-02
2.655509907632815428e-02
4.067595009172764869e-02
5.432310041373498294e-02
6.737209127347557058e-02
7.940289616199446010e-02
9.036465298346001151e-02
9.995607478004241153e-02
1.079324664106914300e-01
1.143739988244952405e-01
1.188589788139790548e-01
1.215253781870851840e-01
1.222267293595199755e-01
1.208608288255171442e-01
1.177272657879256529e-01
1.125812642195092722e-01
1.057356640044389839e-01
9.725723456866636196e-02
8.723058721809216765e-02
7.605960322851183786e-02
6.373993204018026104e-02
5.062370044271245761e-02
3.692392840070893995e-02
2.284404933950487729e-02
8.693862652660502149e-03
-5.328939312067613489e-03
-1.900497502856136195e-02
-3.209543697832671627e-02
-4.437524863946805398e-02
-5.578298585533652404e-02
-6.599309917085542654e-02
-7.500968208896645339e-02
-8.266130052031298026e-02
-8.876065154537861324e-02
-9.351737352316781549e-02
-9.656247321885647050e-02
-9.809161915089770201e-02
-9.804260158087226007e-02
-9.629080671819539861e-02
-9.321297550249130204e-02
-8.850187211413550192e-02
-8.243746668870817473e-02
-7.507413194373978305e-02
-6.637726008421949986e-02
-5.673340301335710878e-02
-4.601569623726277369e-02
-3.448305868436116195e-02
-2.229302182517088962e-02
-9.536700171017622324e-03
3.523992142716249071e-03
1.675856386413493090e-02
2.999302054975846663e-02
4.300855375376295975e-02
5.558291948906696200e-02
6.765345954608778523e-02
7.885890953506329015e-02
8.914068516739720449e-02
9.829691350106596615e-02
1.060389797106140314e-01
1.125206765902470457e-01
1.172947398839231381e-01
1.204387736519937357e-01
1.218676295993850328e-01
1.213532089478573106e-01
1.192332232680668735e-01
1.151738215052493380e-01
1.093877666458877851e-01
1.019702644327004915e-01
9.286445877026075491e-02
8.249260312014591867e-02
7.077252143893057734e-02
5.798784149793672488e-02
4.438329509670049106e-02
3.008806176687008060e-02
1.545116646415386000e-02
6.510550203939705766e-04
-1.407874915720918815e-02
-2.845411531232765190e-02
-4.224416749554545103e-02
-5.531119560912849120e-02
-6.732084144872539644e-02
-7.819884516973414634e-02
-8.773839571421965244e-02
-9.572964289233908131e-02
-1.022846726362071912e-01
-1.070643290247981633e-01
-1.101863739377090118e-01
-1.115841803433251789e-01
-1.111639465280282041e-01
-1.092176476539186009e-01
-1.055317815145972171e-01
-1.003659689428622465e-01
-9.379806278298988276e-02
-8.588505279095752509e-02
-7.697910676756447579e-02
-6.706145870786180130e-02
-5.643393938059107495e-02
-4.528753542926016590e-02
-3.378403397575766715e-02
-2.223089711501870236e-02
-1.077465025966736420e-02
3.616778781085584413e-04
1.093099588157138077e-02
2.079601232153262605e-02
2.976055854117182556e-02
3.763848056416384952e-02
4.439998064633084163e-02
4.981909184699738480e-02
5.393748932593588064e-02
5.671072120269807920e-02
5.806344611068307848e-02
5.822224069874772784e-02
5.706643105313198572e-02
5.488280900182865296e-02
5.180304584973927789e-02
4.792360445949976622e-02
4.367181841973195866e-02
3.907907283791955261e-02
3.454392211428333748e-02
3.034258795793419103e-02
2.662843290860534770e-02
2.380874108087095709e-02
2.201911845487412173e-02
2.144528090969085449e-02
2.237861722574233450e-02
2.478554352879890066e-02
2.874700627492888030e-02
3.437366148900095064e-02
4.132663982763375848e-02
4.974327949843712626e-02
5.923256144706233461e-02
6.938502305934504677e-02
8.019711163629496264e-02
9.080729232523901406e-02
1.011509463946674431e-01
1.106041209502541811e-01
1.184627954694452562e-01
1.246888732712027881e-01
1.283472334963911554e-01
1.293390373018555861e-01
1.272282852862180180e-01
1.215180438915449135e-01
1.123354432206593451e-01
9.931789548391301015e-02
8.257223411226909116e-02
6.226389469374933594e-02
3.853781999224018678e-02
1.178356005112058194e-02
-1.742942631470555115e-02
-4.874189107108809621e-02
-8.133367090530585486e-02
-1.144260387012145525e-01
-1.475284904448434520e-01
-1.793706088996968318e-01
-2.095937282102776356e-01
-2.371150686682849951e-01
-2.610152457406710313e-01
-2.810454724644083080e-01
-2.959346577860355043e-01
-3.057075203492164439e-01
-3.096166365348595462e-01
-3.072467281125219607e-01
-2.988655440000088093e-01
-2.839279190066827385e-01
-2.630384850163896004e-01
-2.362181501920228299e-01
-2.038959805637909628e-01
-1.668377452119163273e-01
-1.255299615614979269e-01
-8.095343484277392476e-02
-3.390754192128175165e-02
1.455285856251701399e-02
6.351824352181366373e-02
1.117612440269841190e-01
1.584676673656258139e-01
2.024767410122597366e-01
2.427606683458768122e-01
2.787675031022633920e-01
3.092214923861846265e-01
3.340207194450570127e-01
3.522322723405211242e-01
3.635094330603438340e-01
3.679832032840088529e-01
3.649941454853188327e-01
3.553136402042092468e-01
3.386580455903081543e-01
3.155927400166228525e-01
2.868638733135417396e-01
2.527066981413017555e-01
2.144069067911785198e-01
1.723869012280043467e-01
1.278115259740374710e-01
8.162443992818901872e-02
3.475564989897859253e-02
-1.166962392768681675e-02
-5.680858089740158101e-02
-9.953672579787745112e-02
-1.392303441383928586e-01
-1.747771031903574968e-01
-2.058107318729484325e-01
-2.315121381634850928e-01
-2.513817946356599053e-01
-2.654435828840446820e-01
-2.729368970181748066e-01
-2.744452084273379944e-01
-2.695474258559096281e-01
-2.585876481527613069e-01
-2.422115355321961816e-01
-2.203098436144120542e-01
-1.941098276405500700e-01
-1.637245981865931288e-01
-1.301084582400044154e-01
-9.417713076137644579e-02
-5.642458823811685731e-02
-1.809497416404486081e-02
2.030809070518665299e-02
5.774576137571037215e-02
9.351932284863721800e-02
1.268550989395242634e-01
1.571041644458648634e-01
1.836941208745035692e-01
2.060157315514428156e-01
2.239564990497298347e-01
2.368603980792127750e-01
2.449566133637678111e-01
2.479184729002522347e-01
2.457951596616160528e-01
2.391174980011208928e-01
2.276031655847668700e-01
2.121709497861368199e-01
1.928715491278139571e-01
1.702530750803794013e-01
1.451938552425756923e-01
1.177941175770153698e-01
8.911640817522925584e-02
5.949021331004396979e-02
2.955915634868200303e-02
7.505221338575777945e-05
-2.863695682709688217e-02
-5.593626836299251531e-02
-8.142317518364756979e-02
-1.047085468984678136e-01
-1.255272045612873810e-01
-1.434877704993433312e-01
-1.586254749044715417e-01
-1.706339070133295333e-01
-1.794699498952213035e-01
-1.854088928233262323e-01
-1.880749623426561934e-01
-1.880264508751083585e-01
-1.851105593831239016e-01
-1.794930828193359307e-01
-1.717596150984398995e-01
-1.616061957539641492e-01
-1.497268543477442426e-01
-1.361216891266113782e-01
-1.209930262936981804e-01
-1.049005276783829960e-01
-8.771904342957441425e-02
-6.992825992450639461e-02
-5.166938795321050076e-02
-3.313312065862183270e-02
-1.459112912301355203e-02
3.760921654898647434e-03
2.179927333015931057e-02
3.926555132888272237e-02
5.590136757419560121e-02
7.182232397368396026e-02
8.643930035113300825e-02
9.991892139898744807e-02
1.119505810443076899e-01
1.221300502881823152e-01
1.309056141848859989e-01
1.374062560825669854e-01
1.419405994636466772e-01
1.442660335762677715e-01
1.439029752076741719e-01
1.414771878513766401e-01
1.361593553489177655e-01
1.282883543926018055e-01
1.178190921652755851e-01
1.044436266359043408e-01
8.874609468234220810e-02
7.035825640367249223e-02
4.960431620557863297e-02
2.669146574912599490e-02
1.785393302401652466e-03
-2.480384822653570326e-02
-5.266935600741951690e-02
-8.150543048445922645e-02
-1.109118720810972764e-01
-1.400849098698361272e-01
-1.691376214719861326e-01
-1.968717642360234832e-01
-2.230114429945873888e-01
-2.471207630776516007e-01
-2.679084615928555846e-01
-2.859080701425321114e-01
-2.995225940994336589e-01
-3.085945282932133771e-01
-3.128835202066641563e-01
-3.111338368219208061e-01
-3.041846731466240072e-01
-2.907751684116312019e-01
-2.710632179462552638e-01
-2.452652776907905119e-01
-2.128655866627945370e-01
-1.748670925499402062e-01
-1.310896983879740740e-01
-8.218209543358899472e-02
-2.896201564228610692e-02
2.791352013171016777e-02
8.746661467259400635e-02
1.485425774949175048e-01
2.101232876577848185e-01
2.709793576084315592e-01
3.295458529779660140e-01
3.852116454029319015e-01
4.360218670191338131e-01
4.811490780076763674e-01
5.195396913597625232e-01
5.496588756082786409e-01
5.717268204927075104e-01
5.840734469469625045e-01
5.867845110833580513e-01
5.796767173086554426e-01
5.622445925170600489e-01
5.357861109744336270e-01
4.998249379740236087e-01
4.556054753690828574e-01
4.040599869648473508e-01
3.459628366026115120e-01
2.832742249738762208e-01
2.167745228631477727e-01
1.482017227331179909e-01
7.909428206198315658e-02
1.077138016489966044e-02
-5.517811250814828872e-02
-1.174431190660131102e-01
-1.749827825738491660e-01
-2.265366092378019724e-01
-2.713065435980220874e-01
-3.089894595177548609e-01
-3.385677136089677575e-01
-3.604568385437965095e-01
-3.742277539122833563e-01
-3.801003495201115689e-01
-3.791557834626082535e-01
-3.709744079058157618e-01
-3.571656755744309075e-01
-3.380281415282882507e-01
-3.144447150990554163e-01
-2.881170402636109018e-01
-2.590096720260065544e-01
-2.288972753619129552e-01
-1.982979467608211310e-01
-1.680009451047418112e-01
-1.393015078408426921e-01
-1.122250043699518918e-01
-8.771503290743941361e-02
-6.608006297339127921e-02
-4.750978555235092771e-02
-3.231356976270136766e-02
-2.046897104603765880e-02
-1.177719885231310118e-02
-6.262473113863021613e-03
-3.557330435387913263e-03
-3.124659295767362975e-03
-4.997849218965001901e-03
-8.252977957087910543e-03
-1.282179344215651773e-02
-1.817469272822751225e-02
-2.349928206163387143e-02
-2.899236840526762254e-02
-3.368873251340610830e-02
-3.762625115077061766e-02
-4.047819041628449716e-02
-4.168007787071985326e-02
-4.157746906551401667e-02
-3.963529501121040161e-02
-3.606365721247996314e-02
-3.086655544257151107e-02
-2.393317062942222975e-02
-1.566640021428114538e-02
-6.038308331568449823e-03
4.618132326150533283e-03
1.606668531006046063e-02
2.807574398277149288e-02
4.028549192730027095e-02
5.245276495406547140e-02
6.423766356771506980e-02
7.539393638453364965e-02
8.562636019261148090e-02
9.471499465353733216e-02
1.024837926874780647e-01
1.087196239089292110e-01
1.133788460667872894e-01
1.163514729218844412e-01
1.176255867728319277e-01
1.173024577982009070e-01
1.153673841003521466e-01
1.120408794377742712e-01
1.074593441976700869e-01
1.017897487995027273e-01
9.535842893927973241e-02
8.829955524403722278e-02
8.094690427212283823e-02
7.354806967399805939e-02
6.630980030864797037e-02
5.953176669399971171e-02
5.338309739340946214e-02
4.804746251644841093e-02
4.370609656516284691e-02
4.045268015647372067e-02
3.831227890657930291e-02
3.742920143588739090e-02
3.763549012970784924e-02
3.897646233664094073e-02
4.136370683422507105e-02
4.445883092793848079e-02
4.840940827056931794e-02
5.266498060372028223e-02
5.718589505418060492e-02
6.174153683008778287e-02
6.573126778045788876e-02
6.936212463664323535e-02
7.186997989717786028e-02
7.322387435334604122e-02
7.318704703365795650e-02
7.114208100004397461e-02
6.737320311571717846e-02
6.123957186916288015e-02
5.278204749767686360e-02
4.195407950749920067e-02
2.842404536593980124e-02
1.251156407332234752e-02
-5.906477979559554385e-03
-2.670891841767297076e-02
-4.957498120671952058e-02
-7.431421389407211198e-02
-1.006562330223804008e-01
-1.279527821943024224e-01
-1.560500163501886695e-01
-1.842315357430797662e-01
-2.117665701267944789e-01
-2.385517384525943640e-01
-2.632696713690860779e-01
-2.858525133664020501e-01
-3.054177944791416355e-01
-3.209914486211525864e-01
-3.327831648822796584e-01
-3.393305786526307766e-01
-3.408313183681264680e-01
-3.366896956545696873e-01
-3.262157622835904491e-01
-3.100491080972176405e-01
-2.873161952015880205e-01
-2.586102094151761510e-01
-2.240602655179710911e-01
-1.837121658189571349e-01
-1.385802436264984006e-01
-8.888948648615721537e-02
-3.552006495908011097e-02
2.057659411870256527e-02
7.859336384561622924e-02
1.374766098662211222e-01
1.959767277962131127e-01
2.533394148795601319e-01
3.081686246227194892e-01
3.593761460527080120e-01
4.063682695153345015e-01
4.475085457410852285e-01
4.826698102639733201e-01
5.106563401448706019e-01
5.307804832331081135e-01
5.432561440467000846e-01
5.468688780171977459e-01
5.423462474111063747e-01
5.292222993444863910e-01
5.076418420990740366e-01
4.785826630176758800e-01
4.417849901163938275e-01
3.985998680661412830e-01
3.494614182206029485e-01
2.952849106456709727e-01
2.374200239862287176e-01
1.765948506019202613e-01
1.142087291498952439e-01
5.137890708815874563e-02
-1.072560529468768314e-02
-7.092492220611258669e-02
-1.279733923836597342e-01
-1.810913265494489000e-01
-2.289997922444383660e-01
-2.710124583610027393e-01
-3.066014462267593887e-01
-3.347559911058760052e-01
-3.557691441952555156e-01
-3.687871227047834766e-01
-3.741441232724280752e-01
-3.721470342242296225e-01
-3.625983704678370501e-01
-3.467992192634463677e-01
-3.246211687159981096e-01
-2.973593384247529836e-01
-2.658990034911867806e-01
-2.308770726168977994e-01
-1.939793315898546699e-01
-1.556514759439170115e-01
-1.174707946585191315e-01
-8.034585784089509630e-02
-4.522155757109266178e-02
-1.330398358118181981e-02
1.484776248914023572e-02
3.828428572618396142e-02
5.660700309059240459e-02
6.927624226172894584e-02
7.619308280857667315e-02
7.713463535710154972e-02
7.236448272373531554e-02
6.218391412382360400e-02
4.687570837738509050e-02
2.744898149394217265e-02
4.140050628621381665e-03
-2.171222580440342401e-02
-4.940646096017537597e-02
-7.801034819801240527e-02
-1.060721826035282978e-01
-1.331887181497054262e-01
-1.577462474806096138e-01
-1.792494289793029882e-01
-1.967532775189306526e-01
-2.092770955586934212e-01
-2.167157321179907781e-01
-2.181124497731233014e-01
-2.136421311107041809e-01
-2.029811545262243944e-01
-1.861608248764097806e-01
-1.636289599594744071e-01
-1.355391920393418936e-01
-1.027007127164711320e-01
-6.562930734390728937e-02
-2.520201227348585482e-02
1.771582991419481598e-02
6.210641677936491051e-02
1.070322012087416147e-01
1.514064088065271707e-01
1.942068959697000330e-01
2.345632382966015284e-01
2.712957343723526038e-01
3.039682365147653442e-01
3.314651877741718322e-01
3.533647467598500791e-01
3.692236134787907353e-01
3.783924217112509258e-01
3.812812037408942478e-01
3.772485476506252655e-01
3.667830159504436027e-01
3.500697880023844744e-01
3.272734283452821136e-01
2.994720654295093265e-01
2.667147880731601250e-01
2.300947351100719740e-01
1.902886015142059017e-01
1.480531194771559644e-01
1.045329493507279189e-01
6.035226371852307758e-02
1.652574263945985958e-02
-2.614271589247216254e-02
-6.679960289294520348e-02
-1.048776447733326123e-01
-1.394873140014909474e-01
-1.702892418790978024e-01
-1.967129213546278399e-01
-2.182364109294179788e-01
-2.351654237594607288e-01
-2.466700134564632496e-01
-2.532450601335692331e-01
-2.547273422882099791e-01
-2.510798614150379082e-01
-2.432833592848926418e-01
-2.307985795030364218e-01
-2.146447525362755737e-01
-1.950192051769923107e-01
-1.722632768728809272e-01
-1.475072613236054764e-01
-1.206163906519318596e-01
-9.260869857462565580e-02
-6.386609079049869464e-02
-3.489206122686552836e-02
-6.439553787564291330e-03
2.122157180042945346e-02
4.750024755310647273e-02
7.202394307785078831e-02
9.432278130137858319e-02
1.142963532345803168e-01
1.313937579641400455e-01
1.456071699237961314e-01
1.567256707495599255e-01
1.644501740748501861e-01
1.692783464418991246e-01
1.706206801878621948e-01
1.689407227081811125e-01
1.642667280835375110e-01
1.565317157487529642e-01
1.465494781859728868e-01
1.339345684671210956e-01
1.193503288919366273e-01
1.030387649885928236e-01
8.514107011902806443e-02
6.642916622999663068e-02
4.684487076568039088e-02
2.695523528565113916e-02
7.093222331197342710e-03
-1.248359120579278780e-02
-3.134231293794108308e-02
-4.925093789368545361e-02
-6.594694805336721866e-02
-8.117244074693734379e-02
-9.466690027206697833e-02
-1.064685911052772604e-01
-1.162000737180249044e-01
-1.239468325885828559e-01
-1.296387934134839992e-01
-1.330827104116611148e-01
-1.347012031245082286e-01
-1.341248504545825004e-01
-1.316594454763270750e-01
-1.274193261039915093e-01
-1.212906216051025110e-01
-1.138332898552491673e-01
-1.048023308511679547e-01
-9.452799440616652116e-02
-8.322628702298406900e-02
-7.086974021374684019e-02
-5.790087818666830172e-02
-4.428308519545437472e-02
-3.023832118908045818e-02
-1.599821844197175588e-02
-1.656731238265754177e-03
1.259860703381388350e-02
2.655845723453030549e-02
4.013049691697048033e-02
5.312342687354466853e-02
6.529789467346386322e-02
7.672409341175408237e-02
8.699955138391228526e-02
9.612608608027704837e-02
1.039992755177941014e-01
1.102913326188773580e-01
1.152642337763844227e-01
1.184821425372104414e-01
1.200247548635531153e-01
1.199239425156493483e-01
1.179068530735043752e-01
1.143441055302838183e-01
1.089625451070975193e-01
1.019275006187414373e-01
9.341872454458942376e-02
8.336188533560716374e-02
7.213285874946605281e-02
5.973777067427652604e-02
4.640867910390358841e-02
3.240414939761360191e-02
1.789584723091991458e-02
3.138546212138200973e-03
-1.160668826764952102e-02
-2.611162233576966654e-02
-4.016490371354653616e-02
-5.341930370089035401e-02
-6.584182077721859039e-02
-7.704555862650640241e-02
-8.689019050107012199e-02
-9.531162700889014849e-02
-1.019246911406791745e-01
-1.069277950318621578e-01
-1.099660460693489827e-01
-1.110382857139502882e-01
-1.102477804942515599e-01
-1.073252184581301311e-01
-1.026161559706544463e-01
-9.593860522963337800e-02
-8.744339989211002973e-02
-7.735331110228185758e-02
-6.564566440420216420e-02
-5.268363105571342159e-02
-3.854385017537328983e-02
-2.350247118759316370e-02
-7.812268286664075974e-03
8.255304256096059057e-03
2.444946927381401458e-02
4.045350068781488478e-02
5.594485425680592594e-02
7.074948721718811451e-02
8.438923595412411993e-02
9.682270675989783359e-02
1.076327196459085228e-01
1.165774668472624870e-01
1.236545619444750499e-01
1.283904871651825319e-01
1.309851083612710576e-01
1.311261485496644785e-01
1.287797352520680116e-01
1.241381229252543628e-01
1.169689346647610484e-01
1.076486819425556962e-01
9.612760723032792720e-02
8.262891373650922688e-02
6.746013206037429488e-02
5.076303882830030673e-02
3.294249709329730852e-02
1.423941465764794190e-02
-4.933051289110728342e-03
-2.429163450792590564e-02
-4.335959771029276877e-02
-6.186741892818724969e-02
-7.938967193456038240e-02
-9.548715664192777841e-02
-1.100305236359186423e-01
-1.224120740912180982e-01
-1.326187239953754426e-01
-1.402407410764564544e-01
-1.450196453962344645e-01
-1.470664545155663250e-01
-1.459297741796072578e-01
-1.419061991206498063e-01
-1.348198196493368972e-01
-1.247477352691387931e-01
-1.120684666744803659e-01
-9.670441823998783548e-02
-7.921161902855877734e-02
-5.976434771350318947e-02
-3.875382225699390559e-02
-1.674317974713055227e-02
5.981345737050466557e-03
2.881253231391636346e-02
5.131980437324115685e-02
7.304867847813092951e-02
9.348906341029973588e-02
1.122401187273565637e-01
1.289761884834629002e-01
1.432838437089318240e-01
1.549795088162256862e-01
1.639128917971868216e-01
1.698529886986812898e-01
1.730084279939677339e-01
1.732358498010036219e-01
1.707562165276870492e-01
1.659251060641004083e-01
1.587431915387383929e-01
1.498700336718190584e-01
1.394446243233595784e-01
1.278544652319133501e-01
1.157518117942785696e-01
1.031471573815431475e-01
9.069274791112427736e-02
7.856701109477755296e-02
6.688641205124504219e-02
5.614919282102414505e-02
4.613619149058338642e-02
3.702044206505594737e-02
2.881733479913882109e-02
2.119928508381033541e-02
1.425295317863237501e-02
7.642896429371266558e-03
1.055419556309240576e-03
-5.527872994592205984e-03
-1.253800064280544482e-02
-2.011236722314914058e-02
-2.828079354385335670e-02
-3.740471806737905719e-02
-4.724666282815205565e-02
-5.786083219373985148e-02
-6.927887733450327490e-02
-8.100785392340952018e-02
-9.310890533600189867e-02
-1.050759959989676362e-01
-1.165298160293801594e-01
-1.273535453826541153e-01
-1.368338130997797386e-01
-1.448339733648684458e-01
-1.509229218100776315e-01
-1.547021652824032700e-01
-1.561492991345122816e-01
-1.548653382580821025e-01
-1.508640385454491917e-01
-1.441261297485619264e-01
-1.346557239788266636e-01
-1.227057779801893345e-01
-1.084510309624631547e-01
-9.221022873854196888e-02
-7.437518148047667088e-02
-5.537288555557904474e-02
-3.561221532926067690e-02
-1.565170381835295429e-02
4.099081888116175298e-03
2.313706589078299777e-02
4.096130148750426470e-02
5.732489375373506224e-02
7.167568413343461398e-02
8.387711074543070799e-02
9.362247564716594250e-02
1.006979910760254920e-01
1.052425676291452172e-01
1.069582202343533489e-01
1.061493507564085365e-01
1.027993800183009815e-01
9.706124100068513894e-02
8.941198348126615236e-02
7.979928826202886682e-02
6.881207071542923270e-02
5.662113150254747401e-02
4.354930686626966307e-02
3.016435129261672496e-02
1.651390452258593919e-02
3.139580858026402854e-03
-9.755727764143476421e-03
-2.195094365171075534e-02
-3.304639780827867135e-02
-4.302409976618078863e-02
-5.165948017622713773e-02
-5.882246702255713305e-02
-6.454155622009669080e-02
-6.872229028911071291e-02
-7.140773171969586053e-02
-7.275022433999323024e-02
-7.272933679770710036e-02
-7.155766214914367762e-02
-6.945368995285357283e-02
-6.644519890670629036e-02
-6.291704334602285509e-02
-5.895833181363122760e-02
-5.472801634222747985e-02
-5.069273631208091185e-02
-4.672112175802576456e-02
-4.317961126177873726e-02
-4.023807185859519520e-02
-3.771992971767995639e-02
-3.621720776238585016e-02
-3.529956008637256254e-02
-3.506734429469300640e-02
-3.569146523740691218e-02
-3.649909390581414920e-02
-3.802035392656212542e-02
-3.950432957309580467e-02
-4.066994892447311355e-02
-4.160704728926430118e-02
-4.129429049918265787e-02
-4.005743216663687489e-02
-3.709045069599280903e-02
-3.192281657615600454e-02
-2.464438889825562237e-02
-1.444226683286218074e-02
-1.508841912255138099e-03
1.446493414486705112e-02
3.367745274793541854e-02
5.582035553848122694e-02
8.086314689657897459e-02
1.085913501583487956e-01
1.384214319910785085e-01
1.699857690674433375e-01
2.027186297362927603e-01
2.356186250048132869e-01
2.684673280852651889e-01
2.999776012291391347e-01
3.294014489691514669e-01
3.561847748710829098e-01
3.788890333054197312e-01
3.975255438573534472e-01
4.107877205273349763e-01
4.181082922471545671e-01
4.193775030831313200e-01
4.135703301317676384e-01
4.012429282542607223e-01
3.818203226662732486e-01
3.554563275037523895e-01
3.228108569031874486e-01
2.838384350056363248e-01
2.397368110899802396e-01
1.909615430937318115e-01
1.383977642776151040e-01
8.337880428926490450e-02
2.664960590223030071e-02
-3.035493284956466281e-02
-8.653485252968083630e-02
-1.409488778592483393e-01
-1.921693186474772996e-01
-2.394665014290344174e-01
-2.819595248119116104e-01
-3.186653787356098499e-01
-3.494725362374172528e-01
-3.735782917669381864e-01
-3.909955037739482608e-01
-4.020243672815328462e-01
-4.063142421282869843e-01
-4.049004003927494932e-01
-3.979235740939287003e-01
-3.861043968982613706e-01
-3.707963495106266771e-01
-3.521255335377596607e-01
-3.316110797344715144e-01
-3.099759781187512164e-01
-2.878274015749353043e-01
-2.666685653291697156e-01
-2.464943158001539902e-01
-2.281412188781178074e-01
-2.122324483819928720e-01
-1.984429938775137681e-01
-1.874875656144678049e-01
-1.788929196524621790e-01
-1.721866034736852791e-01
-1.675770717047556368e-01
-1.638529171813442875e-01
-1.607671072170264448e-01
-1.577420935788119982e-01
-1.534637830275445425e-01
-1.480097594034950892e-01
-1.401875915253594784e-01
-1.293911447522205771e-01
-1.156327072231765063e-01
-9.782480742336678581e-02
-7.636153763056097166e-02
-5.100376780276744820e-02
-2.147767999567466030e-02
1.128609054397795158e-02
4.742883179852375175e-02
8.614782839798736103e-02
1.265301780899670547e-01
1.683551195007904344e-01
2.100994484444432819e-01
2.511012181395174681e-01
2.905127030917631359e-01
3.268880240401416115e-01
3.599390797186622359e-01
3.882783847555862922e-01
4.112229362531900079e-01
4.284128260918328990e-01
4.388017882638622913e-01
4.426119753255821632e-01
4.392387670538022149e-01
4.287129349117672072e-01
4.114445308901324427e-01
3.873740556854874950e-01
3.573967086121516701e-01
3.218716352695754623e-01
2.816377435531495221e-01
2.376627156750288905e-01
1.907792642924216464e-01
1.421063725561517443e-01
9.264263850608411843e-02
4.346385327013341238e-02
-4.468217431411922701e-03
-5.002023271396632831e-02
-9.257258519739201830e-02
-1.310361737114959790e-01
-1.648445919946207594e-01
-1.935604667710195126e-01
-2.163734750149638175e-01
-2.336108768343097275e-01
-2.445269766291135460e-01
-2.494380332472724005e-01
-2.485827741033810045e-01
-2.417705555218624403e-01
-2.301393011097760677e-01
-2.134394975029622332e-01
-1.926741414359874338e-01
-1.685107781291365070e-01
-1.412941969639054662e-01
-1.123762003143435884e-01
-8.191075900591511527e-02
-5.103003955359220606e-02
-2.038934776161725054e-02
9.432381130264184954e-03
3.753785399671619866e-02
6.359056146079848648e-02
8.687294985714695550e-02
1.071143961546187906e-01
1.238145661244935414e-01
1.368951598312674878e-01
1.460646087568444051e-01
1.512581114754943945e-01
1.527064246965632310e-01
1.501693173107279122e-01
1.442871193565365695e-01
1.349490894335788616e-01
1.226072024324193627e-01
1.078208559669266015e-01
9.062010464148334554e-02
7.191422344231275521e-02
5.177789504016230837e-02
3.082060773886718605e-02
9.602662757718712083e-03
-1.167909967687327105e-02
-3.234132527018035441e-02
-5.220335656061598356e-02
-7.082701750047705469e-02
-8.790941260781522104e-02
-1.032017648516265207e-01
-1.164989928828383259e-01
-1.275992446653441970e-01
-1.363685777434675284e-01
-1.428192826133760918e-01
-1.467408421421065312e-01
-1.483573087710058358e-01
-1.475255644649575426e-01
-1.443825423224388282e-01
-1.391643023651356614e-01
-1.317919379360477095e-01
-1.227077884273548580e-01
-1.119108837125859235e-01
-9.970728376067615473e-02
-8.641927381538726249e-02
-7.216806775915243777e-02
-5.738530991851345520e-02
-4.224643690867442569e-02
-2.709487251010103681e-02
-1.220699409862714691e-02
2.131527650924109132e-03
1.567799503697862862e-02
2.815228852722336667e-02
3.933135944705960785e-02
4.908881794830170092e-02
5.713688782893466822e-02
6.351816040270702457e-02
6.799641622206646641e-02
7.060755256292887416e-02
7.140801599358771734e-02
7.029805729162798278e-02
6.758030219952701478e-02
6.317130595278146188e-02
5.739307719504774252e-02
5.040628051731664561e-02
4.237631236216164027e-02
3.371427566244999952e-02
2.447991767172286864e-02
1.516140181159851205e-02
5.879789184130616853e-03
-3.014709091521571536e-03
-1.119889637571302998e-02
-1.856555430988634028e-02
-2.466625039476387851e-02
-2.952593456140367723e-02
-3.279354702230611457e-02
-3.437350262599414563e-02
-3.421991050784906063e-02
-3.212196950781254917e-02
-2.825947548972931184e-02
-2.247943958614892143e-02
-1.494359742538656222e-02
-5.735946785868234650e-03
5.009461154244092100e-03
1.703760295997771082e-02
3.018283316469036123e-02
4.410763413976033498e-02
5.860171085570777677e-02
7.322653495578947125e-02
8.777883081142770494e-02
1.018118811866377538e-01
1.149796813326051936e-01
1.270424636919429140e-01
1.374574571602099060e-01
1.462065435466191610e-01
1.527752443107965874e-01
1.570049283054490152e-01
1.587892817482454144e-01
1.577612241045993346e-01
1.541644580334574910e-01
1.477020914868456269e-01
1.385194010296942335e-01
1.267695095947736217e-01
1.124564470860133086e-01
9.602959218451773138e-02
7.758802389067115390e-02
5.751789363965233159e-02
3.621264514223122843e-02
1.402262127291243124e-02
-8.599254714310486380e-03
-3.120460968400125962e-02
-5.340132745681639564e-02
-7.472683205462135603e-02
-9.471699155750365473e-02
-1.131578918077532359e-01
-1.294819599576135238e-01
-1.435512985504461547e-01
-1.550422558430013531e-01
-1.636572910417257998e-01
-1.695431870286454867e-01
-1.722764098651577147e-01
-1.720869153454175904e-01
-1.689109934637531840e-01
-1.627802869171086353e-01
-1.541305546987427333e-01
-1.428523102773281983e-01
-1.294501890663625476e-01
-1.141146463835772951e-01
-9.718114617947774814e-02
-7.916126286300760595e-02
-6.027449165372806422e-02
-4.105564459870480326e-02
-2.183622701080996029e-02
-3.064246098187125601e-03
1.491775670932342715e-02
3.170245109900600433e-02
4.699827532909531258e-02
6.049990157589785200e-02
7.190317775710661219e-02
8.119580726943519122e-02
8.800752840888172168e-02
9.245328398687044369e-02
9.439633805366545727e-02
9.385760974138336599e-02
9.115315057980444280e-02
8.613381462833376301e-02
7.927846171475319559e-02
7.065456520227446358e-02
6.060070244785190074e-02
4.958101040530034365e-02
3.769812302610346666e-02
2.554789276780710175e-02
1.329955472058721652e-02
1.409380800916207495e-03
-9.785293373197844619e-03
-2.005642408726143744e-02
-2.900642465751692572e-02
-3.652993228788262159e-02
-4.231092936313216729e-02
-4.633347852702192349e-02
-4.842180745232689543e-02
-4.855979361025812568e-02
-4.680790711718726960e-02
-4.313180684812482901e-02
-3.782987882054439366e-02
-3.087752540654222638e-02
-2.258514330865075623e-02
-1.314910404069745756e-02
-2.770635263127044050e-03
8.134888325383088370e-03
1.945991567497099353e-02
3.080166786229392509e-02
4.195253951562412376e-02
5.263926015885034282e-02
6.258149553908048945e-02
7.162354606842062654e-02
7.951410498865961463e-02
8.615853811954458930e-02
9.136224382308458236e-02
9.513058078127592521e-02
9.733855155270627890e-02
9.799139104955796598e-02
9.715818630414030377e-02
9.477525418442593608e-02
9.110753082631832533e-02
8.609824721742020959e-02
7.993767918882370427e-02
7.282014150903756700e-02
6.477015677208539102e-02
5.614623173326079714e-02
4.696293834632182806e-02
3.742846763698318147e-02
2.777162587076524580e-02
1.803729141012853920e-02
8.481861078293035511e-03
-8.172804913811771571e-04
-9.774164562470530337e-03
-1.821817761951247117e-02
-2.611581419771540416e-02
-3.343224820371365480e-02
-4.003774687403577337e-02
-4.599999185925931350e-02
-5.125423826413442324e-02
-5.575531500043488797e-02
-5.966961170360530337e-02
-6.282153133149255553e-02
-6.534756828015521324e-02
-6.726285104647702906e-02
-6.846882917324546847e-02
-6.919540842750020182e-02
-6.924470676199395713e-02
-6.871020810037382909e-02
-6.762415377149771922e-02
-6.585713366878825914e-02
-6.356065421592897724e-02
-6.059249315298500388e-02
-5.697907294938261286e-02
-5.273749594944652369e-02
-4.782720302496054621e-02
-4.227514634888517031e-02
-3.610725674941692859e-02
-2.936417905842939047e-02
-2.206546499311826462e-02
-1.439186318405493228e-02
-6.296134705399420405e-03
1.971333431238920034e-03
1.027133036505594246e-02
1.855804724578797790e-02
2.642988986679313881e-02
3.394514600401152965e-02
4.071692870995604480e-02
4.654538746540422267e-02
5.137878412305931647e-02
5.479892711391574911e-02
5.687108127203949898e-02
5.728950857327733126e-02
5.596835741437138079e-02
5.290209322955107679e-02
4.796593189930354467e-02
4.127003821742127737e-02
3.280266200972720841e-02
2.277337580241572262e-02
1.124041400172717808e-02
-1.427640694513432860e-03
-1.507354163689476542e-02
-2.936673234627903278e-02
-4.378688883996648823e-02
-5.827386222863031179e-02
-7.205318920547060246e-02
-8.499903253326343555e-02
-9.661229676472207761e-02
-1.062778662449575529e-01
-1.140368662122673987e-01
-1.190790298638488010e-01
-1.214250216118209491e-01
-1.207106099353054685e-01
-1.165708982395303878e-01
-1.092131235267583683e-01
-9.825755503709696081e-02
-8.394623922059619991e-02
-6.632055797058472590e-02
-4.554525637149606232e-02
-2.198241697528451402e-02
4.017884613233542283e-03
3.201534605039149661e-02
6.148242400449682038e-02
9.171287368222957870e-02
1.222904237453219800e-01
1.522319744135722241e-01
1.810693947346439792e-01
2.080007998487323206e-01
2.321335316888457068e-01
2.531974115681697168e-01
2.700985557785194335e-01
2.826467564750441697e-01
2.902161123863188363e-01
2.923044606636232001e-01
2.890373247685966152e-01
2.798769037501551704e-01
2.651977024761113522e-01
2.449874234187901512e-01
2.195467267921554499e-01
1.895319551242530542e-01
1.553068983874926479e-01
1.178040939021487016e-01
7.771873848584859301e-02
3.601552947953646361e-02
-6.315123022259218517e-03
-4.829050833798912562e-02
-8.890289784439585341e-02
-1.271526493974564076e-01
-1.621203624910220187e-01
-1.930474812113817662e-01
-2.190734733556980729e-01
-2.398691891202473503e-01
-2.547887707846086536e-01
-2.637286363417777890e-01
-2.667420249705098056e-01
-2.636814762198007589e-01
-2.553050376336966631e-01
-2.416825200390919914e-01
-2.236432658628133563e-01
-2.020753355670128482e-01
-1.774311704651969357e-01
-1.511049968523245912e-01
-1.235902520712979513e-01
-9.590907794909743489e-02
-6.910223995262076979e-02
-4.354211629682043505e-02
-2.023016384839980419e-02
5.226070336005030417e-04
1.839806922523015351e-02
3.296197584811050990e-02
4.436981792213791354e-02
5.266188140076202145e-02
5.791971090169843739e-02
6.067335244924731280e-02
6.120930759046380037e-02
5.992969014681288203e-02
5.763633080126260438e-02
5.446502370251211922e-02
5.114085912653821425e-02
4.818729830627341282e-02
4.565490408579991888e-02
4.432378638570296653e-02
4.401639254165021220e-02
4.496035587963635727e-02
4.743664086402922531e-02
5.093304944645166837e-02
5.569599187009618285e-02
6.127513739442202317e-02
6.730278482101131887e-02
7.374548242484559035e-02
7.988577301449797941e-02
8.552330967113956628e-02
9.028486567144194952e-02
9.366037841005300790e-02
9.553904897473027014e-02
9.553383881048525816e-02
9.342113564361471945e-02
8.918666896144715472e-02
8.269170171206680076e-02
7.396579123828549152e-02
6.321979339432355627e-02
5.051387820682437524e-02
3.618709871290614472e-02
2.062908200980763732e-02
4.002774866020254382e-03
-1.302183053662597789e-02
-3.014754297400532718e-02
-4.691898229299561879e-02
-6.267971234258840063e-02
-7.731817800219470405e-02
-9.009150863828724320e-02
-1.007579453837165739e-01
-1.090149027309163937e-01
-1.143792049439233405e-01
-1.169549198066008461e-01
-1.163133766631357369e-01
-1.125307995180771653e-01
-1.056052525872696046e-01
-9.555588650109214655e-02
-8.269878764752047751e-02
-6.714025325863613725e-02
-4.930942402732547275e-02
-2.948486813524917732e-02
-8.234368870355987524e-03
1.410024411596298710e-02
3.690217195932650462e-02
5.960864669402943239e-02
8.183033052630508952e-02
1.027010332579583879e-01
1.221190255839453287e-01
1.392195456666445452e-01
1.536430988685707766e-01
1.651309577828034558e-01
1.729296908534875277e-01
1.773528772202659920e-01
1.776799885288576075e-01
1.739973936992901538e-01
1.663638897987516352e-01
1.544983998313024798e-01
1.390713885634728975e-01
1.198474507479471290e-01
9.734610477465867329e-02
7.195671212127754957e-02
4.399762901752854449e-02
1.418775689097300299e-02
-1.709646565821075492e-02
-4.917190454544579509e-02
-8.149835814659278643e-02
-1.133057796571306369e-01
-1.442238414127685886e-01
-1.733978089742677364e-01
-2.003384676071410242e-01
-2.246197276180525171e-01
-2.453448515382615491e-01
-2.627369036676121539e-01
-2.757936273419304141e-01
-2.844607724474451094e-01
-2.886366539749806170e-01
-2.876575877302348094e-01
-2.822872658526420775e-01
-2.717866290461084522e-01
-2.565562177514394970e-01
-2.368908944103781389e-01
-2.126309414278748366e-01
-1.847661132961362362e-01
-1.531660979420237934e-01
-1.185083311253776889e-01
-8.140659422662836764e-02
-4.229060174784239623e-02
-1.964533885345912112e-03
3.897075684530611206e-02
7.985070748556925835e-02
1.199480899759266805e-01
1.584160950373015575e-01
1.949613327016487541e-01
2.284740952408490788e-01
2.586082022177019768e-01
2.848058052776614169e-01
3.062104677229272043e-01
3.231580976918139725e-01
3.345462826273220003e-01
3.405569261576040230e-01
3.410501088496595279e-01
3.356199756288942293e-01
3.251107165014011646e-01
3.089653660759040799e-01
2.878939548836149109e-01
2.622433807464708555e-01
2.323122409511732545e-01
1.991025020684944746e-01
1.628615948560231119e-01
1.245553413778807683e-01
8.483104479556097255e-02
4.456924411083772880e-02
4.467176564669575640e-03
-3.458043345707016714e-02
-7.180014142002590083e-02
-1.065919602895942231e-01
-1.379262336175273718e-01
-1.657604552382336005e-01
-1.890069245499499950e-01
-2.074736513508989577e-01
-2.209130419222239960e-01
-2.286444844230021423e-01
-2.313309219376617487e-01
-2.281924406317978882e-01
-2.197421314378902868e-01
-2.061939984495642919e-01
-1.875286019416676497e-01
-1.648399428764542873e-01
-1.379687482808163168e-01
-1.079234834375304430e-01
-7.525108829372662012e-02
-4.057187200462273463e-02
-4.932015019732094961e-03
3.121786433567315389e-02
6.682921965329667591e-02
1.013289165424792748e-01
1.337943920141073662e-01
1.637044945382793715e-01
1.903116800601805936e-01
2.130143296291285293e-01
2.315541601492036305e-01
2.451747272446701820e-01
2.541351424770799672e-01
2.578221462806717379e-01
2.563426673772828401e-01
2.499416238112885102e-01
2.383559340573007668e-01
2.225094508635127866e-01
2.022152612602164667e-01
1.781608809654542658e-01
1.510058410097160908e-01
1.209797897645582404e-01
8.922368392414210814e-02
5.598284282895430591e-02
2.207863935763570637e-02
-1.171918381088339275e-02
-4.497477239785421105e-02
-7.685682000474937381e-02
-1.069084532121959558e-01
-1.346628657459161826e-01
-1.595540847068041557e-01
-1.812986931352082165e-01
-1.996819021725930732e-01
-2.143085901947995586e-01
-2.253163360729014131e-01
-2.324883434574814278e-01
-2.359113603741757048e-01
-2.359404703005207882e-01
-2.324220352360312214e-01
-2.260053397927399843e-01
-2.167754111349592672e-01
-2.051714082772385095e-01
-1.918192554938919492e-01
-1.768363608534562481e-01
-1.610391877128302396e-01
-1.446753245135762589e-01
-1.283005211204854834e-01
-1.124706784766643514e-01
-9.745590175893616147e-02
-8.381361330892293793e-02
-7.182484107063347167e-02
-6.179669471789823315e-02
-5.398741710080019740e-02
-4.860523161351407856e-02
-4.560923175968883969e-02
-4.523644032058084935e-02
-4.721995046397887974e-02
-5.145516500015041850e-02
-5.789875570823940082e-02
-6.581060454898385315e-02
-7.535901115817335294e-02
-8.564016447461882120e-02
-9.627551998095389141e-02
-1.069609836530287100e-01
-1.165030459369628540e-01
-1.250423292201332803e-01
-1.313904474224671104e-01
-1.351315069544568037e-01
-1.359590612585533931e-01
-1.327971125290581811e-01
-1.258928243082768350e-01
-1.144457177326243108e-01
-9.833795491199949501e-02
-7.767616966764409603e-02
-5.213188162403908921e-02
-2.223132006172071420e-02
1.185667489052349977e-02
4.971235941734632874e-02
9.056483704841127025e-02
1.337611591225527086e-01
1.784773780937564391e-01
2.235825507244904309e-01
2.682574570065899278e-01
3.112961400889758257e-01
3.515390443206264925e-01
3.881858284073355092e-01
4.198853669633271224e-01
4.460147075956554241e-01
4.656238086247287411e-01
4.780101640126437346e-01
4.829588473775228152e-01
4.798932317747418574e-01
4.690547961942359567e-01
4.504166326654469032e-01
4.244203702615448881e-01
3.917778770068838790e-01
3.531022742717308538e-01
3.095857597695143570e-01
2.621736813267999677e-01
2.121688889135828759e-01
1.609134936649153080e-01
1.096343879157604950e-01
5.971758652764549286e-02
1.242042047917983616e-02
-3.122200396435083347e-02
-7.004537602601221269e-02
-1.032986402745939697e-01
-1.304815702886127915e-01
-1.508429733604084166e-01
-1.646579530414785941e-01
-1.716251112442534199e-01
-1.721207071261657839e-01
-1.670196659662741834e-01
-1.563650474262276990e-01
-1.417723377787908634e-01
-1.237742486070642078e-01
-1.035346029332560175e-01
-8.271536058670385383e-02
-6.171029629867434002e-02
-4.241821712089818147e-02
-2.546885215771237804e-02
-1.181322715014392760e-02
-2.666017516566943427e-03
1.949024960848467786e-03
1.122994790607160457e-03
-5.082750435761712766e-03
-1.664825235301747863e-02
-3.350253742406122948e-02
-5.500802071836775886e-02
-8.066067864613753191e-02
-1.096199982633280501e-01
-1.410225962955692636e-01
-1.737833651886111219e-01
-2.070172286239636283e-01
-2.394987303777302012e-01
-2.703056190497147848e-01
-2.985040343185061951e-01
-3.230475732869459993e-01
-3.434780028237220395e-01
-3.588908747810080069e-01
-3.690944683376283231e-01
-3.736967871664373386e-01
-3.725328224345684225e-01
-3.658747771314173058e-01
-3.535971951417307135e-01
-3.364754075298438396e-01
-3.146330911619961146e-01
-2.887688065354319100e-01
-2.596542102546787745e-01
-2.275846438310396569e-01
-1.938658518943714715e-01
-1.586878996923153096e-01
-1.229080214757517497e-01
-8.735651847096759237e-02
-5.208118697348874948e-02
-1.824682503589636698e-02
1.422959950178650027e-02
4.504126952005278739e-02
7.355766442716162035e-02
1.003037838027951989e-01
1.246629262670061605e-01
1.469184061163864297e-01
1.674900736319648864e-01
1.859161930519111772e-01
2.030403403300046761e-01
2.187841467012907049e-01
2.332674063945915643e-01
2.472753829849652085e-01
2.603749122745633859e-01
2.731605928291731544e-01
2.858754874514253808e-01
2.981563594975176201e-01
3.106480886875180869e-01
3.229202219738774859e-01
3.348838073408944571e-01
3.469501831228168354e-01
3.582340276586104544e-01
3.689590483681882693e-01
3.788270141826762250e-01
3.870216938062606693e-01
3.940917643922691171e-01
3.988730634580449075e-01
4.011976373860356437e-01
4.010605047432276860e-01
3.972454946795571096e-01
3.904317350172979428e-01
3.795896586234981385e-01
3.643987314084840001e-01
3.452606126553522947e-01
3.211054699066780982e-01
2.927199727499775195e-01
2.596858161060140446e-01
2.218443047289123393e-01
1.800757276987724476e-01
1.339890804883997755e-01
8.443149549967926548e-02
3.194067056033551150e-02
-2.329884480287357229e-02
-7.998895485835330610e-02
-1.376549042568416537e-01
-1.955725867116923644e-01
-2.523271868727813838e-01
-3.075666240710226984e-01
-3.599269460425071343e-01
-4.084309088011155442e-01
-4.528610482257630077e-01
-4.915128684555514216e-01
-5.243505255994991288e-01
-5.505105389590302378e-01
-5.692025983377482223e-01
-5.810664072714462058e-01
-5.848534644518297299e-01
-5.812092560510414563e-01
-5.701593550739437744e-01
-5.515591326215788515e-01
-5.268254814709828482e-01
-4.955505382317159646e-01
-4.588836751236675116e-01
-4.176338517153824204e-01
-3.721869600463416083e-01
