BVP Signal
-3.888840491321293724e-03
1.908735140731479540e-02
5.353425120465010734e-02
8.809025698329053800e-02
1.154349376567039287e-01
1.358369943328704421e-01
1.542101612827747603e-01
1.718578997751868398e-01
1.862007567456245294e-01
1.945031656507879569e-01
1.962494339835791912e-01
1.936719004297637881e-01
1.875248963524230872e-01
1.770422402388422967e-01
1.615057713726829602e-01
1.410925876508406507e-01
1.171600887352816089e-01
9.055249784548824454e-02
6.145612008761019984e-02
3.011052207834129246e-02
-2.653555712665390393e-03
-3.603082711445124153e-02
-6.902392832128356748e-02
-1.010362403529998510e-01
-1.316318139955458544e-01
-1.597433350448112521e-01
-1.851120696501037388e-01
-2.068829440049240187e-01
-2.245855340356317509e-01
-2.380457295885621827e-01
-2.464871405403068483e-01
-2.503508433355599028e-01
-2.489806142975596881e-01
-2.425588756251731981e-01
-2.313764009620472573e-01
-2.151979557995377101e-01
-1.949830532272811556e-01
-1.705770703239788411e-01
-1.426732043176324183e-01
-1.119012311863274989e-01
-7.860750488524137491e-02
-4.376662631453920316e-02
-7.768215606394207606e-03
2.859755160068105928e-02
6.470415461790307576e-02
9.982329275819562531e-02
1.335089240893617135e-01
1.650039670028448646e-01
1.938202398748202215e-01
2.196631388074796187e-01
2.416837832862241409e-01
2.602053124399259509e-01
2.743618540501328029e-01
2.841098338923442324e-01
2.896044232784607542e-01
2.900930603387182338e-01
2.864885791945931404e-01
2.780884511666136816e-01
2.651900746223905259e-01
2.483060521446017743e-01
2.269793950633117730e-01
2.022888909956319647e-01
1.739623928501197736e-01
1.424637837441848076e-01
1.084809172418531031e-01
7.204641968617805925e-02
3.400513436251410837e-02
-5.303865811867494728e-03
-4.537458857697831971e-02
-8.553398997233438439e-02
-1.251799398136810848e-01
-1.639393875753745178e-01
-2.009176085210517826e-01
-2.356761923140543447e-01
-2.677658703245624494e-01
-2.961970793179976580e-01
-3.211667587658758594e-01
-3.415848734428751365e-01
-3.572432280889389355e-01
-3.681347083661010711e-01
-3.733064196154405323e-01
-3.735065578187570789e-01
-3.679570733196237953e-01
-3.568288187981029647e-01
-3.406606131973388685e-01
-3.189639947936783182e-01
-2.928419541987090091e-01
-2.621809649550483901e-01
-2.275035036287021972e-01
-1.897364293144717939e-01
-1.490204212698613695e-01
-1.064055714928469065e-01
-6.243775754373481757e-02
-1.772947411899217229e-02
2.680418818038654560e-02
7.054939496855894276e-02
1.129732689251294886e-01
1.531660129489296196e-01
1.907514964551009218e-01
2.252240980167541373e-01
2.557961819384257929e-01
2.826832954620093208e-01
3.049650506901027125e-01
3.226575002682938731e-01
3.358119727733430704e-01
3.437321680810447866e-01
3.472368033858903580e-01
3.456647841934927801e-01
3.393616114894479896e-01
3.288098211825609685e-01
3.136106551207119564e-01
2.947941708567990426e-01
2.721403777670748925e-01
2.461705638856471201e-01
2.175433673550948022e-01
1.863227570767844732e-01
1.533489989910008511e-01
1.189251054452715728e-01
8.361284757532061462e-02
4.798711617904394267e-02
1.262632883993708433e-02
-2.208705563270974004e-02
-5.542587993427061654e-02
-8.691626755086612199e-02
-1.162891961088923232e-01
-1.426255217113086005e-01
-1.661070140720319888e-01
-1.858858402051228875e-01
-2.017271554286865776e-01
-2.137884357060375606e-01
-2.211829004643692809e-01
-2.245766559336157542e-01
-2.233626496021270391e-01
-2.176649267948917998e-01
-2.079849517733276532e-01
-1.938682243379872272e-01
-1.761977587029996961e-01
-1.548332161279587504e-01
-1.302823128385963147e-01
-1.031067382449012138e-01
-7.354262420340633433e-02
-4.234018988428740055e-02
-9.836279704834083315e-03
2.315427954956522649e-02
5.633991763990015000e-02
8.877339595871758249e-02
1.200999563093301248e-01
1.496764994071710930e-01
1.765478862108558200e-01
2.008787041130355444e-01
2.212806441958690140e-01
2.378705735037387470e-01
2.499932417742611879e-01
2.568335339594287614e-01
2.589794306538601987e-01
2.551614987504486898e-01
2.458964938896845975e-01
2.308698299560411060e-01
2.097877470394389210e-01
1.834641761792308312e-01
1.514283791859660777e-01
1.144563932783393412e-01
7.284692225552391598e-02
2.714417496734550239e-02
-2.188517649736421156e-02
-7.347050328849369372e-02
-1.267689793683111910e-01
-1.808618780419563588e-01
-2.343822613945363009e-01
-2.869020316219779154e-01
-3.365582563750095790e-01
-3.827364880950392401e-01
-4.242803485790452855e-01
-4.595248973610965848e-01
-4.886705026681900654e-01
-5.095869486277813110e-01
-5.222801186463813528e-01
-5.260284850401423240e-01
-5.197382506949257408e-01
-5.044109571132548986e-01
-4.787595475314250226e-01
-4.436596374856260905e-01
-3.993872676074894379e-01
-3.460905643522694808e-01
-2.853844833036057738e-01
-2.175373584294865159e-01
-1.440619933889817073e-01
-6.624704636542667890e-02
1.456201303574009009e-02
9.679447072664626450e-02
1.787674486501654170e-01
2.590953364188639529e-01
3.360857693658669820e-01
4.079698084382291645e-01
4.740708353037789147e-01
5.321462758505108859e-01
5.818030198581215506e-01
6.217864122559495499e-01
6.508729015446284016e-01
6.697766432307820095e-01
6.766989239321041794e-01
6.726025689431167631e-01
6.572316075849367056e-01
6.304622582723097279e-01
5.941794805880290520e-01
5.476777874249997291e-01
4.928652275274245653e-01
4.305121209157671269e-01
3.614874698537363651e-01
2.879953574183004572e-01
2.105249149636360673e-01
1.309717763121607814e-01
5.069787256848255069e-02
-2.902522338550463446e-02
-1.066983045321324985e-01
-1.809861450930461413e-01
-2.509447039210316865e-01
-3.152255322035427132e-01
-3.728057815998038760e-01
-4.235307531514995727e-01
-4.657722739440038895e-01
-4.999382673193927262e-01
-5.251770703342135693e-01
-5.410961579070757699e-01
-5.488592888059418140e-01
-5.471053540288586259e-01
-5.373231714766012468e-01
-5.193818357407773423e-01
-4.935543873334169440e-01
-4.617242671273360521e-01
-4.232152813297102578e-01
-3.798709356365599921e-01
-3.322083295730877683e-01
-2.809314701723455987e-01
-2.277847897908392705e-01
-1.729230599170271943e-01
-1.177386026781461065e-01
-6.308179629219140550e-02
-9.736551899076933969e-03
4.141265731616006196e-02
8.953449393814608137e-02
1.342002842176651667e-01
1.746132723267129483e-01
2.102043970749820634e-01
2.412050507410875566e-01
2.664642195827054971e-01
2.865346157814718797e-01
3.009356332371742604e-01
3.094536456291487880e-01
3.131480125930755087e-01
3.109694523476140837e-01
3.040594699838500281e-01
2.923196164699968236e-01
2.759134270499959407e-01
2.561288448236145876e-01
2.323995486465724181e-01
2.059424572471049708e-01
1.769730647362845743e-01
1.460003019019927850e-01
1.139781416698534278e-01
8.104019450001959113e-02
4.808713881869010331e-02
1.551058482854157650e-02
-1.594384338054735673e-02
-4.595682821987012723e-02
-7.377385025600449731e-02
-9.900867696966703102e-02
-1.212776649360044201e-01
-1.398470614165155113e-01
-1.550292154633626796e-01
-1.658646475654557140e-01
-1.725324700207994666e-01
-1.748655240403479416e-01
-1.724951760830125136e-01
-1.661819644428233211e-01
-1.553087387734918001e-01
-1.405596778553187542e-01
-1.221084073893856370e-01
-1.002067974224541136e-01
-7.574891886862196444e-02
-4.878837548089470788e-02
-2.027314165276915964e-02
9.390486335571775200e-03
3.940330250493058462e-02
6.914019580348507166e-02
9.797349400587873625e-02
1.250867250115792195e-01
1.501331445399741171e-01
1.721483162154738566e-01
1.910771668610600216e-01
2.061205513098745001e-01
2.169390271513961799e-01
2.234962773636360867e-01
2.251199798421731901e-01
2.223364574703978191e-01
2.146194049195975784e-01
2.022192234797557386e-01
1.854630981026549330e-01
1.642801348855316146e-01
1.395028289090180229e-01
1.111653298617235053e-01
7.996194805893294677e-02
4.645154146133105566e-02
1.121311095978057282e-02
-2.500799505696082656e-02
-6.158764380875103583e-02
-9.770821501774447360e-02
-1.328120918616446100e-01
-1.659153404816797461e-01
-1.966975842991322831e-01
-2.242140932823288579e-01
-2.479111540786840817e-01
-2.674929603945618850e-01
-2.820483002939052630e-01
-2.918488165895084530e-01
-2.961093015052508326e-01
-2.948460595260058992e-01
-2.882032154754354814e-01
-2.758365570053036286e-01
-2.585219694932361367e-01
-2.360688288874345508e-01
-2.091136301190111013e-01
-1.782041721228473374e-01
-1.437849067508447654e-01
-1.067849012295138539e-01
-6.772550381577183143e-02
-2.757697402292004496e-02
1.298730125767152965e-02
5.294157699102823578e-02
9.167463036398032505e-02
1.282259711194196350e-01
1.617870337061006192e-01
1.919191168825482574e-01
2.175356978732406743e-01
2.386706844663642746e-01
2.544070257598591844e-01
2.645270173182820983e-01
2.690444599596348851e-01
2.673619946856792273e-01
2.601627198923767148e-01
2.470132612705768227e-01
2.284381812676094248e-01
2.048864984401966849e-01
1.765704288419074341e-01
1.445249401698065483e-01
1.090032855694983149e-01
7.107478953167296887e-02
3.139986856163137774e-02
-9.077462458714269378e-03
-4.943609563099107818e-02
-8.888461883012210851e-02
-1.262989255943750277e-01
-1.611540518147858703e-01
-1.922522364881938117e-01
-2.192382995244615274e-01
-2.412378959332978912e-01
-2.576498302122507411e-01
-2.684104259332688036e-01
-2.727206321867756689e-01
-2.710221597466303534e-01
-2.628783219401832905e-01
-2.485648416746139011e-01
-2.285894558615888250e-01
-2.029930070922356666e-01
-1.728474380948773204e-01
-1.384003467681481359e-01
-1.006699452477372858e-01
-6.049514898888237041e-02
-1.868753046636840998e-02
2.360284077446425655e-02
6.563587137016574369e-02
1.062371675590914333e-01
1.447097632798932665e-01
1.799853540403540397e-01
2.114654123965652999e-01
2.383772488973890380e-01
2.600579501332901944e-01
2.763453773994940521e-01
2.865178849269020001e-01
2.908514661672020329e-01
2.889607469131194595e-01
2.810402364204888648e-01
2.675412437222350892e-01
2.484356484155331168e-01
2.247104313753272575e-01
1.965314810376512789e-01
1.647968105171546405e-01
1.303126324001909753e-01
9.368383470368046861e-02
5.606218910113117126e-02
1.802636333592325460e-02
-1.935975957372974843e-02
-5.537481268164445858e-02
-8.916998267206954765e-02
-1.200569056682546654e-01
-1.473875475489934139e-01
-1.705409061650053348e-01
-1.892721856311481154e-01
-2.029728309828107147e-01
-2.117915197048603204e-01
-2.153632174212323225e-01
-2.138414701927451311e-01
-2.075770752543617537e-01
-1.964948601924323413e-01
-1.814720341659195046e-01
-1.625671457795629937e-01
-1.405662836871258703e-01
-1.161638212500825107e-01
-8.976600466756567975e-02
-6.244103015097196563e-02
-3.453272973180177008e-02
-6.965634844423196359e-03
1.969069463869696501e-02
4.484592558051919697e-02
6.786168556497382265e-02
8.838443507155663292e-02
1.058468482302398761e-01
1.201667874438330230e-01
1.308734503617944855e-01
1.380575331280532447e-01
1.415510139342872620e-01
1.413340120770886221e-01
1.378139594819075553e-01
1.307847469833072207e-01
1.208826012087734769e-01
1.081420340891926513e-01
9.295054419200943219e-02
7.588145925543943182e-02
5.701031090945241075e-02
3.706178340561028239e-02
1.619420923285275205e-02
-5.049900677742913402e-03
-2.630077237107864008e-02
-4.721388646921192978e-02
-6.734666778780590279e-02
-8.647804636852324256e-02
-1.040800060624912510e-01
-1.201408234387520840e-01
-1.340904874560466531e-01
-1.458562681948819550e-01
-1.551912378765593625e-01
-1.616730573855760245e-01
-1.655627465653558561e-01
-1.662538105087210116e-01
-1.639510965659514152e-01
-1.584961008415043393e-01
-1.497288643207941305e-01
-1.380393444704783867e-01
-1.231585093392674191e-01
-1.054881568241795575e-01
-8.514581429234990839e-02
-6.243169483029753497e-02
-3.775034118587339282e-02
-1.147255985620260210e-02
1.588995578014978927e-02
4.389146645593475227e-02
7.178284314146954337e-02
9.928495896685578248e-02
1.254760956338436817e-01
1.499269211107322752e-01
1.720706745332474252e-01
1.910587494228441763e-01
2.068915961021798866e-01
2.185914250760142563e-01
2.260707005649786883e-01
2.289882241834619858e-01
2.269202480735482697e-01
2.202167288985849014e-01
2.084453023558263673e-01
1.920223310081754509e-01
1.710787507343376479e-01
1.459722295274512582e-01
1.172938860748076184e-01
8.547505598717747288e-02
5.132810168292717412e-02
1.542262177932371414e-02
-2.119471973382814484e-02
-5.798155790432903134e-02
-9.382668935292848289e-02
-1.279237911730279342e-01
-1.595809979050863969e-01
-1.876121527358393104e-01
-2.118685664221819365e-01
-2.311652537553894327e-01
-2.452080865335918292e-01
-2.536080943373525409e-01
-2.557519502333708283e-01
-2.520669785039809652e-01
-2.419805729088614354e-01
-2.259897799212868819e-01
-2.042641234122367089e-01
-1.771888545628758083e-01
-1.455944922578343848e-01
-1.098666273321641240e-01
-7.109570801009909569e-02
-2.990304910927138460e-02
1.248051039922826178e-02
5.530840357775931859e-02
9.743082893070791062e-02
1.377566508363267384e-01
1.756035596870365867e-01
2.095350832321981049e-01
2.393782673720729059e-01
2.638171192151532174e-01
2.823812862458854878e-01
2.947374230071187484e-01
3.000010125277492445e-01
2.987367295267624456e-01
2.901449710426831086e-01
2.746648485369636017e-01
2.525160054116988850e-01
2.238522446765451313e-01
1.897173131619172559e-01
1.502759159905354691e-01
1.066881947667850383e-01
5.964476811581020943e-02
1.031424252859244883e-02
-4.031786025870030127e-02
-9.113748681182304301e-02
-1.408449397351666521e-01
-1.886215233536608360e-01
-2.328419469862517133e-01
-2.731450139489252082e-01
-3.079948137122973106e-01
-3.366655273728677011e-01
-3.586823807642013362e-01
-3.728150951763157805e-01
-3.796207523986621646e-01
-3.779608282225293547e-01
-3.681422778629920844e-01
-3.503749432708692102e-01
-3.244987545661482953e-01
-2.918129453592112621e-01
-2.522027715405802395e-01
-2.069046384258095006e-01
-1.567611592608128546e-01
-1.027615473897346421e-01
-4.630731530749827851e-02
1.165915648746072841e-02
6.964437972703826918e-02
1.266470351460299848e-01
1.810946558263206996e-01
2.322798286976087145e-01
2.787376463888154299e-01
3.195605396301052226e-01
3.541659996482048878e-01
3.812176245320580970e-01
4.011353377945393595e-01
4.126499723247952223e-01
4.159100740208605540e-01
4.110412927643312120e-01
3.975398443534677306e-01
3.767440498531625659e-01
3.481229737838318350e-01
3.127561865279404052e-01
2.713728820918376861e-01
2.244647291830415281e-01
1.736094234252516522e-01
1.192161824980679519e-01
6.273259433144223740e-02
5.119695819563341299e-03
-5.239582998258274227e-02
-1.087622952641039142e-01
-1.628263852106802134e-01
-2.134635472307840343e-01
-2.599432914353764223e-01
-3.008600631239359835e-01
-3.361896510084970702e-01
-3.645692924218308928e-01
-3.857103844063929365e-01
-3.994824754386719912e-01
-4.049274378336478186e-01
-4.030753293168697349e-01
-3.929958519077462187e-01
-3.753500590110352420e-01
-3.506948369357100193e-01
-3.189285136295650913e-01
-2.816526070569503881e-01
-2.387791527833371119e-01
-1.915698464918574873e-01
-1.409782053048891926e-01
-8.775319857051341876e-02
-3.328219730254169950e-02
2.170301808057467641e-02
7.596048621560211322e-02
1.286525433777271910e-01
1.785439100993583272e-01
2.251265056031970246e-01
2.672218762658636337e-01
3.041436344721564766e-01
3.355829610543328290e-01
3.603198748884746117e-01
3.789092557412875317e-01
3.902318569447538188e-01
3.943640050352724691e-01
3.916295765208959168e-01
3.812778357766791748e-01
3.645944128476208412e-01
3.409788247371116632e-01
3.111560397931620869e-01
2.759058006980319999e-01
2.352501607457219146e-01
1.906159485134065745e-01
1.421993405464146709e-01
9.107581980413587130e-02
3.816301071234699804e-02
-1.570033565487033433e-02
-6.950470376518627647e-02
-1.223040142515349621e-01
-1.730611983017367184e-01
-2.210837377656525438e-01
-2.650320570351947791e-01
-3.046877094134032293e-01
-3.387833665076468992e-01
-3.667357906558225134e-01
-3.884086957602497781e-01
-4.025701216252768888e-01
-4.099087659572545617e-01
-4.094756528282587626e-01
-4.014391683788386400e-01
-3.863715585298919120e-01
-3.637458227655684384e-01
-3.349331098105326476e-01
-2.997799189496325734e-01
-2.591693759159574006e-01
-2.141756807718236955e-01
-1.651887579588329213e-01
-1.136718615175515701e-01
-6.027151807844541298e-02
-6.141221157308238143e-03
4.768869777300138724e-02
1.001898619488474640e-01
1.505203061699292855e-01
1.976398153583059647e-01
2.407069993540912889e-01
2.792764552502175479e-01
3.121855142859323307e-01
3.396100990441224821e-01
3.606006670785601997e-01
3.749673431373227173e-01
3.830314610759170679e-01
3.839269514523078741e-01
3.787001965999989839e-01
3.668256787654811113e-01
3.487366693144015595e-01
3.253008812572366626e-01
2.962094131897305971e-01
2.628417006419146995e-01
2.252440040799157939e-01
1.842137267012585455e-01
1.407455646659105941e-01
9.518261092399908641e-02
4.864213772993215834e-02
1.712952761871514018e-03
-4.475573520786649273e-02
-9.004667415500777761e-02
-1.332698212242433566e-01
-1.739768331116703926e-01
-2.112688339117230474e-01
-2.445288214848937436e-01
-2.735956554788920858e-01
-2.973664136363508015e-01
-3.161910252419204981e-01
-3.292549776972076847e-01
-3.363835082045865676e-01
-3.380547747595030184e-01
-3.334082208851347762e-01
-3.234348092422319465e-01
-3.077786687133864385e-01
-2.867675588109506735e-01
-2.613444446707315350e-01
-2.312424697142445584e-01
-1.976861738834364557e-01
-1.609111471432391194e-01
-1.215943056568298541e-01
-8.072223728288482891e-02
-3.868547466168506532e-02
3.586686859287563367e-03
4.544570851632925845e-02
8.616770934317574682e-02
1.251983118747362345e-01
1.616866276509369427e-01
1.953823922327187490e-01
2.255465794476683161e-01
2.516619202710442260e-01
2.738463526484221644e-01
2.910885088517143893e-01
3.038456149537172024e-01
3.115638513040108193e-01
3.140358790011941181e-01
3.119515938897008955e-01
3.044663741178063043e-01
2.924716080064077017e-01
2.757808183600454210e-01
2.545119072009190964e-01
2.296118894871290450e-01
2.007221828404633368e-01
1.687973379161343268e-01
1.341001789878113470e-01
9.705583396192279944e-02
5.851407436836046638e-02
1.879673647799812164e-02
-2.138971257740979182e-02
-6.140016893074090598e-02
-1.005905286250394215e-01
-1.384957531261523656e-01
-1.741934614096559142e-01
-2.074302166446889140e-01
-2.374321438865376610e-01
-2.635499887857125079e-01
-2.858829111509642584e-01
-3.032909716276345202e-01
-3.160692961762017195e-01
-3.236799679565597332e-01
-3.257560924092757770e-01
-3.229798722623039020e-01
-3.145023393204534057e-01
-3.011045854080677264e-01
-2.827613996545498276e-01
-2.595768701305694037e-01
-2.325984046553774554e-01
-2.016188329727869322e-01
-1.676217646407459072e-01
-1.310922352512615963e-01
-9.254236775821865491e-02
-5.293667887948488165e-02
-1.272736920125554227e-02
2.733908906130869121e-02
6.654694203199593150e-02
1.042438059030255937e-01
1.400136658690894764e-01
1.729823592746251859e-01
2.029805342352415942e-01
2.293958374011199619e-01
2.516936199880991931e-01
2.701909627375724265e-01
2.839001299966401048e-01
2.932553723018646030e-01
2.979489148456860859e-01
2.976978745607523624e-01
2.933684175792841131e-01
2.841678061428207225e-01
2.708868528194942615e-01
2.535787558016749932e-01
2.322659346382062173e-01
2.079613797549280385e-01
1.803516448496636781e-01
1.502500093096770517e-01
1.180301620210864183e-01
8.403863866222086032e-02
4.903424956175077287e-02
1.335481143072393684e-02
-2.242384191396572246e-02
-5.772635414641771878e-02
-9.192979950198792993e-02
-1.247849075171496569e-01
-1.553744626096652537e-01
-1.835072434301863176e-01
-2.086207183883829197e-01
-2.300054263624629614e-01
-2.480068907693909197e-01
-2.614938700449875864e-01
-2.707221241226070996e-01
-2.754078834231952766e-01
-2.750607040521653723e-01
-2.705257592328024763e-01
-2.609599553291642726e-01
-2.470129182404813550e-01
-2.288407045436829101e-01
-2.064222005743572286e-01
-1.807981065941993148e-01
-1.517775568427154609e-01
-1.201803745218648078e-01
-8.652033002945914986e-02
-5.127321500019005329e-02
-1.522207792238866597e-02
2.112243165307051140e-02
5.710870217637706303e-02
9.214642958928934147e-02
1.254559868386764809e-01
1.568891126094402733e-01
1.854560269623144464e-01
2.109331029295169468e-01
2.329305646208552627e-01
2.506444563189094143e-01
2.646298925321004525e-01
2.737848011528025705e-01
2.783643585798440956e-01
2.783227567797434410e-01
2.731222059358653365e-01
2.637496028384637703e-01
2.494398262751021389e-01
2.307997849165267512e-01
2.081414152051198063e-01
1.814270106740072108e-01
1.516796735010232655e-01
1.188167526240555966e-01
8.359181806574142448e-02
4.657321699843970653e-02
8.303345641924711473e-03
-3.053215814221861557e-02
-6.925695409893359300e-02
-1.072152893923893902e-01
-1.438021077516635771e-01
-1.780661306024885482e-01
-2.099210948935744669e-01
-2.382158075645753881e-01
-2.626448738694313612e-01
-2.828639683076187294e-01
-2.979101548708958935e-01
-3.083840877913648360e-01
-3.131888058947217002e-01
-3.125351947298234956e-01
-3.065683842978242923e-01
-2.947374133704915300e-01
-2.781625605146719193e-01
-2.562869722439078402e-01
-2.297822342334866486e-01
-1.992676616175615423e-01
-1.648147129691617807e-01
-1.276274484648052265e-01
-8.788168070211252458e-02
-4.640475742873506615e-02
-3.997816000031267913e-03
3.873416536682884603e-02
8.104311959830037826e-02
1.221604179234865029e-01
1.614909364804650027e-01
1.984429880156536319e-01
2.321462527700449141e-01
2.626507779410887089e-01
2.889152658970006726e-01
3.107996155529528792e-01
3.281677453011681567e-01
3.401622582720691956e-01
3.475826169055632464e-01
3.494696313857295067e-01
3.461105739177596785e-01
3.378492284927994138e-01
3.240818074363789325e-01
3.060050747479020061e-01
2.830746225339711430e-01
2.558351084458636571e-01
2.249870541696634141e-01
1.903744010240852602e-01
1.531528062468731910e-01
1.134162738873156218e-01
7.176631093471663725e-02
2.905065027268412259e-02
-1.436907612232410716e-02
-5.774952454774832933e-02
-1.003708467720666742e-01
-1.417707958919476596e-01
-1.812352974404256023e-01
-2.180187174405746053e-01
-2.520372601937699297e-01
-2.822407230695571645e-01
-3.084832978519405078e-01
-3.304907375932769620e-01
-3.474346315927986373e-01
-3.599642313599792365e-01
-3.671414776962643733e-01
-3.692096549433248054e-01
-3.665062948447312952e-01
-3.584086133856780876e-01
-3.460943415416652957e-01
-3.290683235285528641e-01
-3.078223383759909337e-01
-2.831700473116758321e-01
-2.548146467727254727e-01
-2.239687468113307767e-01
-1.906527794904099848e-01
-1.553099758253623786e-01
-1.188272541847604780e-01
-8.123097205586349290e-02
-4.322833405465853485e-02
-5.263638181944418903e-03
3.246891755731384777e-02
6.939067390137521052e-02
1.051168183763493413e-01
1.396708722287727245e-01
1.722723548698272822e-01
2.028966879414431101e-01
2.313814069230912818e-01
2.569186185855114601e-01
2.800662167600376229e-01
2.998205084330429759e-01
3.161267813469099686e-01
3.291354313450252089e-01
3.377717102363373414e-01
3.427819522170215683e-01
3.432464043647401875e-01
3.390855181301360433e-01
3.306735907502287852e-01
3.171725638663207003e-01
2.993202144710468970e-01
2.767427076204048708e-01
2.495982899054114412e-01
2.184676824484366175e-01
1.833216684613143688e-01
1.448474359443752135e-01
1.035146996232676475e-01
5.993405649260807877e-02
1.480038427488938879e-02
-3.093721498614643295e-02
-7.674316726308338943e-02
-1.214745473930705089e-01
-1.642383879640840760e-01
-2.045174150231368060e-01
-2.408383859669407379e-01
-2.730953582517083866e-01
-3.000777382043811059e-01
-3.211472429351400759e-01
-3.363293884531557421e-01
-3.444338381633869073e-01
-3.460428623577760376e-01
-3.405232920576591882e-01
-3.279865590369800410e-01
-3.091149496621841131e-01
-2.836173728763444202e-01
-2.526671659050402918e-01
-2.164632809504218325e-01
-1.759000065897373677e-01
-1.319827235169162005e-01
-8.538564718459218383e-02
-3.733582644323818478e-02
1.137759053404918674e-02
5.953698286571462717e-02
1.064087136026428126e-01
1.507603541968829397e-01
1.919550484929588574e-01
2.290900699554241360e-01
2.612184756276672015e-01
2.883041833506567730e-01
3.091126465555851244e-01
3.239050537561518617e-01
3.320695097182988498e-01
3.333095145878333110e-01
3.282875277887267185e-01
3.162475273549177901e-01
2.981768279778669317e-01
2.739767674997767299e-01
2.440738232088576209e-01
2.094782595553753568e-01
1.702238899630400260e-01
1.275428216834187389e-01
8.188495457099836949e-02
3.422391586405443276e-02
-1.455602990804394370e-02
-6.358314966543221480e-02
-1.119073495726597978e-01
-1.587002046953066570e-01
-2.027946875195785204e-01
-2.438331067495261850e-01
-2.804143438348127848e-01
-3.122586133504912098e-01
-3.385394782164428129e-01
-3.583623789710022045e-01
-3.721095175307963521e-01
-3.784699814176325505e-01
-3.779783676022447914e-01
-3.702623380818209631e-01
-3.551136909216167092e-01
-3.335678929574660279e-01
-3.050408092684553374e-01
-2.706812539988762700e-01
-2.308062438010789197e-01
-1.860134398788220456e-01
-1.375427903803409513e-01
-8.582936468700695654e-02
-3.210855844676512028e-02
2.277193839324950786e-02
7.767237740045657146e-02
1.317867338977141700e-01
1.838395141359588369e-01
2.331084450806357178e-01
2.786463446964495549e-01
3.192513302963736477e-01
3.550036500693454222e-01
3.842925927501709138e-01
4.072352931312748225e-01
4.232099287318728531e-01
4.314028732015467438e-01
4.327681746768844984e-01
4.259775844557298075e-01
4.118964752725550182e-01
3.904743045216401698e-01
3.615833499232414261e-01
3.266213079876096881e-01
2.851034077832430014e-01
2.382643694862268124e-01
1.866659921440636805e-01
1.309681061402671043e-01
7.242702171175047221e-02
1.170382547349146929e-02
-5.006066452231815178e-02
-1.118654263927748721e-01
-1.724330351416070439e-01
-2.311467260550565672e-01
-2.863700812514785587e-01
-3.374771712226289355e-01
-3.834220217252183871e-01
-4.227947573076981658e-01
-4.559038915886063359e-01
-4.808204671618409587e-01
-4.977384064115762952e-01
-5.060883122455469563e-01
-5.049906703305472311e-01
-4.956819914320610421e-01
-4.768481886502580203e-01
-4.495556586071525196e-01
-4.140842554513111118e-01
-3.705526303144820455e-01
-3.207390218445399510e-01
-2.645499157850826899e-01
-2.035458897255026933e-01
-1.387692030504259488e-01
-7.126108424808402786e-02
-2.579395657697602928e-03
6.619080326562432059e-02
1.337372110272245784e-01
1.988008986878754270e-01
2.599893295471139565e-01
3.167655523315796584e-01
3.674370504890845379e-01
4.116322222174806367e-01
4.485198865486820230e-01
4.770193267274367988e-01
4.979571056380264760e-01
5.097358824041688941e-01
5.131093150371507372e-01
5.080097355076357291e-01
4.940326128923725468e-01
4.729886055356083974e-01
4.438913308277543379e-01
4.081847828688794921e-01
3.664695582410992802e-01
3.190131167518175381e-01
2.677365396661903763e-01
2.125316634841232233e-01
1.548137360975750942e-01
9.551917729531445023e-02
3.539996673208367639e-02
-2.435303095739416168e-02
-8.292872744943147190e-02
-1.395089052125185747e-01
-1.931750644339570444e-01
-2.429344144630537772e-01
-2.887376291751510005e-01
-3.291040613671659121e-01
-3.640295357670061405e-01
-3.929139934099517562e-01
-4.148328574832980120e-01
-4.307763676073114167e-01
-4.391722306042648016e-01
-4.407373800479097437e-01
-4.354188535395467907e-01
-4.227027505374462146e-01
-4.042023829271341739e-01
-3.789159006187116097e-01
-3.479997817070209498e-01
-3.120056217516835595e-01
-2.710479660973734717e-01
-2.267723566861910012e-01
-1.791300170884458920e-01
-1.292868038458452329e-01
-7.815640584629668375e-02
-2.639914885702965286e-02
2.494038836379686153e-02
7.505734824283757933e-02
1.232417879247127562e-01
1.686722189720969156e-01
2.104661264018684030e-01
2.485928001825178923e-01
2.818238423744878207e-01
3.101594866419494778e-01
3.332394211806525286e-01
3.502889199780017671e-01
3.622425852231110355e-01
3.679241837246172153e-01
3.679417756648272197e-01
3.624760485162015211e-01
3.510610237242165477e-01
3.351209730956116184e-01
3.139033121512300184e-01
2.882823360791564316e-01
2.588198658404657349e-01
2.254653749634430437e-01
1.895269621495566104e-01
1.509135191824838573e-01
1.104276196204202476e-01
6.877373377742182492e-02
2.636053137438129634e-02
-1.605915107365360472e-02
-5.787502655566444110e-02
-9.856114585861469601e-02
-1.375007778724148810e-01
-1.739167016262955501e-01
-2.077739109594678169e-01
-2.379977729511975615e-01
-2.644333066568243518e-01
-2.867574680617205329e-01
-3.041056020161626017e-01
-3.170943517157867042e-01
-3.246531853087992747e-01
-3.270375204839528482e-01
-3.243693175122389083e-01
-3.160840003454476466e-01
-3.032352972727416773e-01
-2.852430887873440568e-01
-2.627338197945893183e-01
-2.362764557755057115e-01
-2.058759747001095985e-01
-1.726765003720298619e-01
-1.368114910808301554e-01
-9.907154875541557271e-02
-6.023433012652473773e-02
-2.083406213983511612e-02
1.833843585154318334e-02
5.659496795927039525e-02
9.332658999645132569e-02
1.279391908167675229e-01
1.596681929491753360e-01
1.884269624470508997e-01
2.133517131574370895e-01
2.342870693803172644e-01
2.511132312102525299e-01
2.631572912597406333e-01
2.710627237133250711e-01
2.741318143006690189e-01
2.726729457146243596e-01
2.670487447815604876e-01
2.568625052611256399e-01
2.431585449489569173e-01
2.255953862985127512e-01
2.047307904778324916e-01
1.811870877340689134e-01
1.549135401520876920e-01
1.268840326504696581e-01
9.718212071702821142e-02
6.636394506987391972e-02
3.502941404262539804e-02
3.488611925157151378e-03
-2.772112342052042433e-02
-5.812916708729877480e-02
-8.734010865709607163e-02
-1.150014783166241616e-01
-1.405007935960620180e-01
-1.638779743116294541e-01
-1.844405942689400779e-01
-2.020086638586573446e-01
-2.165995996555491465e-01
-2.274663650805182069e-01
-2.351492184787796758e-01
-2.390012954264987832e-01
-2.390557626189772633e-01
-2.357061224398191435e-01
-2.283268433545226628e-01
-2.177389804706038878e-01
-2.036094469666571982e-01
-1.861576644400046721e-01
-1.660283193635885834e-01
-1.429590074455390214e-01
-1.177584106052045332e-01
-9.053929883844268056e-02
-6.164531320806500292e-02
-3.172343030286644411e-02
-9.890814356999372281e-04
3.005033247459817924e-02
6.089914809013619035e-02
9.117656312618188652e-02
1.205099674080585825e-01
1.482494692020642491e-01
1.743589978522362416e-01
1.981589904200263264e-01
2.193043069036856862e-01
2.378591226375179057e-01
2.529159457392738397e-01
2.648858378470564379e-01
2.731480082465017611e-01
2.774465964392293094e-01
2.782587434515000346e-01
2.747026763866683430e-01
2.674542518981563033e-01
2.561787497128961144e-01
2.407820266733148584e-01
2.219884536311358958e-01
1.992852753767291318e-01
1.733901441899624030e-01
1.444224894577267326e-01
1.125479193883252016e-01
7.852136086970540330e-02
4.247452348866793959e-02
4.982330660144640433e-03
-3.335689137502059753e-02
-7.208464146713433607e-02
-1.106409201526685759e-01
-1.482224889095679898e-01
-1.845518537376060753e-01
-2.187477809381489224e-01
-2.501937245259747700e-01
-2.787443948119253112e-01
-3.032229053182968759e-01
-3.237878558170668164e-01
-3.396561252419827426e-01
-3.503384818282597735e-01
-3.562612662740929359e-01
-3.563728928135482255e-01
-3.513237521839542854e-01
-3.408110302510833911e-01
-3.247324562425005223e-01
-3.040438574298138796e-01
-2.782396757850325031e-01
-2.482940434018959808e-01
-2.145217388714725226e-01
-1.772323167296832036e-01
-1.375638529120523645e-01
-9.568013867823484120e-02
-5.246231656913268732e-02
-8.652350382312198884e-03
3.524229216866658215e-02
7.842681990499951461e-02
1.202080736378248749e-01
1.602334642584535562e-01
1.976806848670670802e-01
2.320815711491401589e-01
2.633662481041704195e-01
2.905349159566515405e-01
3.139135315709267737e-01
3.328716224768714649e-01
3.470640848440291748e-01
3.571462355812535794e-01
3.620336932118117801e-01
3.625132825327796460e-01
3.582738554735166447e-01
3.490785932671319203e-01
3.359781425002429378e-01
3.180921687733003766e-01
2.962921741762123418e-01
2.706494750221902779e-01
2.410946539299561042e-01
2.086591062639319705e-01
1.730360302138973794e-01
1.349047075628443948e-01
9.475135291714040231e-02
5.282889362452317800e-02
9.838420234262250721e-03
-3.368706955131138547e-02
-7.736756421723457733e-02
-1.203838732128635486e-01
-1.620855187200548053e-01
-2.022795986555656345e-01
-2.396758449693664750e-01
-2.742358274013738662e-01
-3.050892748637604734e-01
-3.313780255373869887e-01
-3.535135571022368084e-01
-3.699510098416428083e-01
-3.810663543249966367e-01
-3.863533024529924309e-01
-3.851668941198114204e-01
-3.784998947677679082e-01
-3.652349446258076893e-01
-3.461708511795123511e-01
-3.214490848870975581e-01
-2.910013054953199396e-01
-2.561164845491974429e-01
-2.165703892364390093e-01
-1.733589192091183062e-01
-1.271945630587312803e-01
-7.863673752488919977e-02
-2.872703970414424574e-02
2.182081961280871868e-02
7.223225532483625033e-02
1.215997548796231287e-01
1.689728498111049415e-01
2.140786139831419299e-01
2.555525104713815554e-01
2.931861286970045555e-01
3.262815185697295339e-01
3.538291423065861308e-01
3.764915598353586468e-01
3.927051496323858970e-01
4.028901417519482053e-01
4.068004577029752933e-01
4.036849996640432536e-01
3.948733070826723202e-01
3.791366722060240391e-01
3.573352098996767645e-01
3.297442474416282798e-01
2.961565496334112035e-01
2.580434933656121088e-01
2.150162075292875730e-01
1.680786051470460063e-01
1.179497600195741763e-01
6.513430674602685433e-02
1.070443300849007948e-02
-4.463832451856556555e-02
-1.000498558129963855e-01
-1.545973938647736134e-01
-2.071550828985299075e-01
-2.574372028293253067e-01
-3.038534605429390467e-01
-3.460000613380665446e-01
-3.831065680041080834e-01
-4.138393548346427919e-01
-4.388738793607536715e-01
-4.563800119685059720e-01
-4.666192721462346649e-01
-4.694030278141637647e-01
-4.637861387201230867e-01
-4.512790897176155447e-01
-4.306305947518000998e-01
-4.027713212974084467e-01
-3.682946242043992902e-01
-3.270467639541286831e-01
-2.808935381427193900e-01
-2.296411213426549081e-01
-1.745256785798595667e-01
-1.166781185495354700e-01
-5.668848732941791924e-02
3.995806186826572626e-03
6.458542956504949306e-02
1.241493288369080461e-01
1.815960516826596871e-01
2.359609436094589063e-01
2.869069367655392444e-01
3.330730365156638340e-01
3.742717795264182690e-01
4.099487126672526349e-01
4.391040122919729893e-01
4.626553878171804079e-01
4.791072001486613718e-01
4.889733650099620244e-01
4.923703406564374774e-01
4.884383925783494229e-01
4.788744969131245588e-01
4.624459421391907687e-01
4.399824131774132674e-01
4.121186385086098580e-01
3.782984961916748823e-01
3.402564209554742591e-01
2.974285153114898383e-01
2.505869179737491015e-01
2.006458443569152372e-01
1.475945150842019604e-01
9.260674188906403703e-02
3.609088287611178503e-02
-2.139899020948130004e-02
-7.890074092292337360e-02
-1.357072924886472132e-01
-1.914681107438769847e-01
-2.448320564919544140e-01
-2.954785755782770584e-01
-3.426478537262935831e-01
-3.850560551496339246e-01
-4.231730396410016137e-01
-4.551942442653325038e-01
-4.810906946230563141e-01
-5.005996538712187416e-01
-5.123823485442540182e-01
-5.175989174188831976e-01
-5.147714635007921702e-01
-5.042961264174172786e-01
-4.866253119250918413e-01
-4.610053288864937038e-01
-4.290214606672628772e-01
-3.901698209086346125e-01
-3.452830574263537899e-01
-2.954423484551435553e-01
-2.408200395988580600e-01
-1.829329853812581286e-01
-1.223878531858170748e-01
-6.016098923566506884e-02
2.508825083245555532e-03
6.468247756561330830e-02
1.255367113523126743e-01
1.837390334258222069e-01
2.386347756376255291e-01
2.894196015656261278e-01
3.348480659499049605e-01
3.751811757506566813e-01
4.089379406453416688e-01
4.360756363316765083e-01
4.565499887583229777e-01
4.692556078431759925e-01
4.754168773654137148e-01
4.738928385872229199e-01
4.652063761446960655e-01
4.500028536825718684e-01
4.276333249431363837e-01
3.997424238775626470e-01
3.658539377708004414e-01
3.267937157321601505e-01
2.835684097800856840e-01
2.361809766174906011e-01
1.860490967458228173e-01
1.335002326764266334e-01
7.937689485631893582e-02
2.465732474230608595e-02
-2.996327920920771604e-02
-8.375950549332938921e-02
-1.357105092465896168e-01
-1.851776004970076273e-01
-2.315471347601359420e-01
-2.736354013539917807e-01
-3.115910857432005465e-01
-3.440984132299539922e-01
-3.708954116488349939e-01
-3.919691894175069691e-01
-4.060985115110684052e-01
-4.142277258144672070e-01
-4.153070305781852989e-01
-4.095613721914217464e-01
-3.976323926774702477e-01
-3.787674607678246930e-01
-3.543876210973251895e-01
-3.241464892919677654e-01
-2.887059849954659030e-01
-2.491327864436660433e-01
-2.054276532260033428e-01
-1.589637625465700754e-01
-1.101696069919641113e-01
-5.988335149321603879e-02
-9.117410531762015768e-03
4.143625280236590269e-02
9.100568279426199392e-02
1.386656609560601439e-01
1.837358573502329562e-01
2.257297687078519965e-01
2.635545489290748722e-01
2.973264048542139104e-01
3.260263784396195130e-01
3.493329801151876524e-01
3.674737122554345148e-01
3.793126315520869984e-01
3.857291495185888319e-01
3.859657824524809211e-01
3.800823766593883768e-01
3.688737150216902516e-01
3.515242618432153909e-01
3.292616651602560673e-01
3.018401540901822222e-01
2.696349120039117642e-01
2.336679254514120729e-01
1.937575508392310741e-01
1.510195904824680468e-01
1.058272694972351852e-01
5.878820212933839884e-02
1.079701361934759518e-02
-3.755489130495542893e-02
-8.559098811438592413e-02
-1.324221265266495862e-01
-1.773401164461458901e-01
-2.198639104796989985e-01
-2.588116363264531539e-01
-2.941259467775018122e-01
-3.247618402599236065e-01
-3.501571257962779460e-01
-3.704526761197591833e-01
-3.843763521523537730e-01
-3.925443311489179576e-01
-3.942509301256010845e-01
-3.893590302818525917e-01
-3.786776005596871331e-01
-3.614036642294899959e-01
-3.386772456302452050e-01
-3.104710057548731306e-01
-2.771647371823193762e-01
-2.399792359126010077e-01
-1.988657904035006641e-01
-1.550565150610312970e-01
-1.091532294100607536e-01
-6.183406619174526553e-02
-1.418238662145568374e-02
3.320001931518120480e-02
7.956060531963868310e-02
1.240360327864456214e-01
1.660081926877788328e-01
2.050696127949323544e-01
2.402608392355982669e-01
2.716504166249247287e-01
2.984888954492779800e-01
3.204159751197177552e-01
3.378633163222181657e-01
3.497783805991523387e-01
3.569327407259555995e-01
3.588851343816775730e-01
3.555090817246434609e-01
3.478041972224694689e-01
3.348697539735618900e-01
3.177447392471577370e-01
2.963577723762308991e-01
2.707511843911687421e-01
2.420233034968975461e-01
2.097252602719019143e-01
1.747368781036319485e-01
1.373820725194474512e-01
9.791606856988833985e-02
5.715321154937080123e-02
1.537953555216016455e-02
-2.688757794258733735e-02
-6.895740976177444637e-02
-1.102802697177365648e-01
-1.505203705650790813e-01
-1.886302746120409879e-01
-2.244937648994763113e-01
-2.572600214640675675e-01
-2.861863578120498741e-01
-3.115028552985619203e-01
-3.317925842977353934e-01
-3.473685598348646986e-01
-3.576105231206324064e-01
-3.619214153763314901e-01
-3.611022666616930943e-01
-3.540083780429535976e-01
-3.413833505091078968e-01
-3.231849658353904142e-01
-2.993081753146604185e-01
-2.709372867227097803e-01
-2.376996401454171126e-01
-2.005892175915872655e-01
-1.601746013775576516e-01
-1.169119806905937059e-01
-7.192148576723812747e-02
-2.568475559704024025e-02
2.095379377158576584e-02
6.713200641142941238e-02
1.120771521915216173e-01
1.552584015391600958e-01
1.956159127599393088e-01
2.328502151585724322e-01
2.662254919680218102e-01
2.949897014472140366e-01
3.194719533773957010e-01
3.384380489155358052e-01
3.522560041532106223e-01
3.605894989333183753e-01
3.629468111911766659e-01
3.603683710632143988e-01
3.518395273839073356e-01
3.381964877765380462e-01
3.195678716295382582e-01
2.958401898062907875e-01
2.683061963250392146e-01
2.365070085689686130e-01
2.013840189401807368e-01
1.634486959134263395e-01
1.230038078095809922e-01
8.108076206395035956e-02
3.797938858110366800e-02
-5.583738973549953744e-03
-4.888746083716155599e-02
-9.126877160809548917e-02
-1.323170123516516639e-01
-1.710359458076101957e-01
-2.071444650819718181e-01
-2.399657434491296870e-01
-2.686879073687396535e-01
-2.936490857041006985e-01
-3.135388196321204357e-01
-3.285973222959385209e-01
-3.384729341599767571e-01
-3.425393306712365971e-01
-3.417664853067755026e-01
-3.350841854359477567e-01
-3.231964163411720214e-01
-3.062504726475980821e-01
-2.841053787157706845e-01
-2.580124447026989620e-01
-2.275954653113981541e-01
-1.937888454891319168e-01
-1.571730252408846118e-01
-1.181733086987388492e-01
-7.780656759896621699e-02
-3.651463159875409370e-02
4.913344140261177717e-03
4.576821874380268551e-02
8.525611951487804818e-02
1.230334256071860533e-01
1.580925743867889754e-01
1.901115378541162193e-01
2.185988397185927301e-01
2.427132949450870325e-01
2.629218423488972056e-01
2.780713354916957147e-01
2.883991638299320259e-01
2.938170491259005646e-01
2.937320059856313725e-01
2.891808587833652466e-01
2.792936605929875471e-01
2.647220721182180214e-01
2.457640333226577822e-01
2.222872261960901485e-01
1.954364935094886346e-01
1.649559834805340852e-01
1.316561588084578516e-01
9.607382946312968686e-02
5.863362700127602856e-02
2.014834662141810548e-02
-1.889629231370341250e-02
-5.777602695850660164e-02
-9.592240151205033705e-02
-1.324400719023138273e-01
-1.671177739132694851e-01
-1.989076078317367213e-01
-2.273820877767860904e-01
-2.521906545353019280e-01
-2.722890966286967696e-01
-2.881492694883115435e-01
-2.986344369684409972e-01
-3.037824436120498683e-01
-3.036879916085863385e-01
-2.976092088105956601e-01
-2.865784337557604755e-01
-2.699057646897634610e-01
-2.481213163777586383e-01
-2.218085465619108188e-01
-1.908513763856149459e-01
-1.564785019822975409e-01
-1.187354990079358963e-01
-7.843302577558833311e-02
-3.639888716728360840e-02
6.845907598302558572e-03
5.040011458750852380e-02
9.356654482358059410e-02
1.356237727831396678e-01
1.759139097392345419e-01
2.135235637224847660e-01
2.483012782103742322e-01
2.792254271812091848e-01
3.059574502143292962e-01
3.283329294079820326e-01
3.453657741329356767e-01
3.577255456238539466e-01
3.644496563534715405e-01
3.656461670330121150e-01
3.617116885117983016e-01
3.518780131630696029e-01
3.373253808772833651e-01
3.174810128046507973e-01
2.927640084117574815e-01
2.639513774318704153e-01
2.307253093561991986e-01
1.942681422744539643e-01
1.546119348501208690e-01
1.122916167194667469e-01
6.816896393869700810e-02
2.252950850586247361e-02
-2.387430730508639798e-02
-7.035370921121553156e-02
-1.163928904383861873e-01
-1.613148128214428323e-01
-2.042327417232961406e-01
-2.450283279381483270e-01
-2.825407805460735666e-01
-3.163753311998562245e-01
-3.462609106532778536e-01
-3.709741866915239328e-01
-3.910537348484895981e-01
-4.053107362013781412e-01
-4.136159511292797353e-01
-4.162787377422951796e-01
-4.122225895178975308e-01
-4.025346759052514378e-01
-3.865250163081278556e-01
-3.644500114007005465e-01
-3.372065030778251260e-01
-3.043087070988982901e-01
-2.670868927019864891e-01
-2.256421659898007748e-01
-1.805424808067723763e-01
-1.329572386482645308e-01
-8.313243218207422291e-02
-3.211567689889915922e-02
1.931696322045139969e-02
7.056687634461852876e-02
1.207463168945374921e-01
1.690260551770106923e-01
2.151423832345132903e-01
2.580041864307404120e-01
2.972222014316407424e-01
3.326272844998322542e-01
3.630274023003701167e-01
3.890661524733521892e-01
4.096762582511572770e-01
4.246841537101757602e-01
4.346883453274207332e-01
4.383546299676013280e-01
4.369021000374767039e-01
4.295413140373095517e-01
4.161952356996271862e-01
3.979362785801680569e-01
3.736257459625100252e-01
3.445297222415182881e-01
3.103778333206110296e-01
2.711903741935077772e-01
2.281196662059754021e-01
1.807178196673589199e-01
1.299111359071940530e-01
7.616540115745261408e-02
1.979054432535218289e-02
-3.828436566237169991e-02
-9.739763859757338826e-02
-1.570931352859609997e-01
-2.161635464895472480e-01
-2.738601335634930911e-01
-3.296972565337774053e-01
-3.819472204464027798e-01
-4.306528470802657993e-01
-4.742593549500665473e-01
-5.117708043818827157e-01
-5.433635489847122857e-01
-5.669050780576103676e-01
-5.830174500367131252e-01
-5.905138371819098619e-01
-5.886837767250338027e-01
-5.785207871677240377e-01
-5.584672103133025978e-01
-5.297590911560481342e-01
-4.922190344778560878e-01
-4.459129803479713883e-01
-3.924968546124728563e-01
-3.316922261325789267e-01
-2.650603743632956588e-01
-1.935500345819306800e-01
-1.180168723211160176e-01
-4.016489571083196874e-02
3.897748576625770234e-02
1.181838702854399736e-01
1.958606773924709832e-01
2.708419282704464526e-01
3.421781410683306657e-01
4.080649819521992572e-01
4.682561870222060607e-01
5.212259542686533687e-01
5.660751333929332496e-01
6.030815043614720095e-01
6.303606518257854896e-01
6.488150019308014382e-01
6.575256385065526565e-01
6.561817368856887045e-01
6.461453862296071549e-01
6.260527657186445438e-01
5.975510013945293242e-01
5.605605478505031325e-01
5.153868869504865113e-01
4.638626986230435789e-01
4.055796446833397351e-01
3.422390380517748021e-01
2.745775918574647756e-01
2.033794891514787428e-01
1.302199473835612964e-01
5.582862699675605889e-02
-1.866208138092895208e-02
-9.194787480340788077e-02
-1.630074874229144877e-01
-2.310804651553881595e-01
-2.945133428645236862e-01
-3.531042343342996048e-01
-4.054433875892360373e-01
-4.506209061581416542e-01
-4.889430400531754595e-01
-5.184608748373109588e-01
-5.399614677968926912e-01
-5.524876760525339048e-01
-5.556302222664024626e-01
-5.506634673027933635e-01
-5.361469083272116798e-01
-5.136132838840217207e-01
-4.829536519759927149e-01
-4.444918503657258047e-01
-4.000005321625368926e-01
-3.491137974750427309e-01
-2.935667333604780049e-01
-2.340723663741389460e-01
-1.715687536115588219e-01
-1.075767663270635610e-01
-4.285165382131367329e-02
2.136220894103019186e-02
8.396497374229877630e-02
1.438157897998816881e-01
2.003380540827691125e-01
2.520508153537090457e-01
2.986935180418116009e-01
3.393165330302417848e-01
3.730090948219221825e-01
4.003805675874548831e-01
4.197968431103242248e-01
4.320068910246994132e-01
4.365628857676874253e-01
4.330470656760269099e-01
4.229365857755752467e-01
4.050011744721477847e-01
3.806041095293130616e-01
3.498975118754747426e-01
3.130439956215835817e-01
2.717412243766722524e-01
2.255927608612348090e-01
1.760249722678499384e-01
1.236933034625859879e-01
6.928914860958937383e-02
1.408438085552135566e-02
-4.132927435422304591e-02
-9.594282456569398765e-02
-1.488588853117865929e-01
-1.990769679989216612e-01
-2.461892649240545183e-01
-2.888676451566761227e-01
-3.268307287620285662e-01
-3.593292126127392572e-01
-3.854272436749918151e-01
-4.057292860725919548e-01
-4.187557407717217295e-01
-4.250387541543618752e-01
-4.243596223411516544e-01
-4.162225226637381592e-01
-4.020691609940021394e-01
-3.808948374080385890e-01
-3.538460829320506651e-01
-3.213917533106249169e-01
-2.836261789247607190e-01
-2.423107058178215201e-01
-1.972427435134145313e-01
-1.496775735895746751e-01
-1.005419013773914683e-01
-5.033224892090795710e-02
-3.735523470227153364e-04
4.882468229516229163e-02
9.651860467167380775e-02
1.418162081156345844e-01
1.841529155872144996e-01
2.232550836506013436e-01
2.581896355849628844e-01
2.890467650293557789e-01
3.153534394983696920e-01
3.366413739383072867e-01
3.537365010166376167e-01
3.655430201940716994e-01
3.727783799682790056e-01
3.754488771571362071e-01
3.731247421943133524e-01
3.672318373134925706e-01
3.567301777150901909e-01
3.424568769451468708e-01
3.247452309985221497e-01
3.031745004739444527e-01
2.790997066614487876e-01
2.518390065384062959e-01
2.219636154538733863e-01
1.899875742953697211e-01
1.556901894006985088e-01
1.199092885424793142e-01
8.266470112332410802e-02
4.421186691910783395e-02
5.170452899474389796e-03
-3.419487811237374719e-02
-7.366559828225453799e-02
-1.123849587252894605e-01
-1.502608336171101788e-01
-1.866661605305658389e-01
-2.207787671477448310e-01
-2.529013781938089789e-01
-2.816118830816391472e-01
-3.069020099351738029e-01
-3.283477827303050156e-01
-3.448868890029309076e-01
-3.572424432133763927e-01
-3.640458488594670583e-01
-3.654919455527544936e-01
-3.616245085631362155e-01
-3.516993828421079993e-01
-3.367716300354324788e-01
-3.161538623691808603e-01
-2.903850703763399266e-01
-2.600642397238418502e-01
-2.251689714078315419e-01
-1.868403196900563223e-01
-1.453214087711047764e-01
-1.013883290109494906e-01
-5.593505075465070309e-02
-9.636196480917728902e-03
3.673079470202196550e-02
8.221798003494612539e-02
1.261705944212236086e-01
1.678724449423331100e-01
2.063115375394494189e-01
2.414777763836176705e-01
2.721833434613676883e-01
2.982226119716898660e-01
3.194074979184065022e-01
3.347919742906315110e-01
3.451756936108051899e-01
3.495551300984409138e-01
3.482312956457135344e-01
3.415721846433241171e-01
3.289815077294405143e-01
3.117070104559201971e-01
2.892235622852923349e-01
2.621617330287930869e-01
2.312275887410579212e-01
1.963539465864478639e-01
1.587126553161116449e-01
1.184261252265518261e-01
7.621770157391911937e-02
3.283954392102456793e-02
-1.117623756446375211e-02
-5.515075734876928593e-02
-9.832823645209801122e-02
-1.400868663720205576e-01
-1.798892930733209938e-01
-2.167277868867404089e-01
-2.505999708435788786e-01
-2.803889813359067285e-01
-3.057364932843608107e-01
-3.265200244984246547e-01
-3.416301513452348892e-01
-3.517120597209875688e-01
-3.557786944897045611e-01
-3.538874966996876092e-01
-3.464305197887255772e-01
-3.327021224024372392e-01
-3.137882235567705513e-01
-2.893035194181159397e-01
-2.597709129914930748e-01
-2.259889253590093017e-01
-1.880015557343216182e-01
-1.469500356955681375e-01
-1.032148028899147474e-01
-5.761524357128601503e-02
-1.101377222758179869e-02
3.581810412321231873e-02
8.214254787371748356e-02
1.270292808684861385e-01
1.697003142556718358e-01
2.096323729349397480e-01
2.456758388384772118e-01
2.778061623008507564e-01
3.049769920232938136e-01
3.267809446299969056e-01
3.432663466681333819e-01
3.533945222501632122e-01
3.578561719865114288e-01
3.559276211927188127e-01
3.477469093912750608e-01
3.338972525625121257e-01
3.138898066774876705e-01
2.888439498652689563e-01
2.586528830292549319e-01
2.239716468077568301e-01
1.856654751094098110e-01
1.440260158400264168e-01
1.001611105267587176e-01
5.462329529046164311e-02
8.352600481915106734e-03
-3.787582933882463476e-02
-8.309132679635131136e-02
-1.266467473251131903e-01
-1.675906079132346016e-01
-2.050798897826216494e-01
-2.388031771107618773e-01
-2.675299510793262003e-01
-2.913762117154155007e-01
-3.094522187148753822e-01
-3.213855176654117907e-01
-3.275399045369459250e-01
-3.269594836945152183e-01
-3.205268206567805644e-01
-3.078331449344594017e-01
-2.891374852543302509e-01
-2.653770603595939082e-01
-2.362416959180700382e-01
-2.030174642732782697e-01
-1.659175085873554056e-01
-1.256707980524443546e-01
-8.335436858251456249e-02
-3.935167468565926169e-02
5.247426511362000834e-03
4.978987436738570999e-02
9.344293638625572607e-02
1.355427618231104248e-01
1.752102188564756691e-01
2.120607412979544915e-01
2.453351127074432370e-01
2.744051273474429897e-01
2.993767665073075457e-01
3.191482618349503197e-01
3.341741778388797046e-01
3.438855509491932083e-01
3.479552139473404693e-01
3.472417013833715149e-01
3.406888225224908306e-01
3.293136070410432326e-01
3.129156043633650741e-01
2.914057428969623054e-01
2.660488482909464936e-01
2.361090070340205460e-01
2.026825603249462759e-01
1.660034390706866536e-01
1.261588547567544516e-01
8.434252333362599052e-02
4.041569494606607471e-02
-4.860552284514790822e-03
-5.085326585673888289e-02
-9.726984015584075327e-02
-1.433954313426232252e-01
-1.885970492395900311e-01
-2.326397367446047526e-01
-2.746493107906736175e-01
-3.140708567157473041e-01
-3.508955572254468525e-01
-3.837942453749708105e-01
-4.130367695678345275e-01
-4.377913962697601580e-01
-4.572926939805174174e-01
-4.722598613330175055e-01
-4.810611711331673757e-01
-4.843400662775466659e-01
-4.816530425681387340e-01
-4.722583882752200979e-01
-4.574321802491369549e-01
-4.358484469508150383e-01
-4.083523062062901499e-01
-3.751455835927349769e-01
-3.358364779745799389e-01
-2.919002426740187062e-01
-2.428786253384226379e-01
-1.896033926204339082e-01
-1.329366264675617693e-01
-7.307007560101042021e-02
-1.120334479183804355e-02
5.198946963878314786e-02
1.159291558255766130e-01
1.793465000478100535e-01
2.414615602600604927e-01
3.017792451758066763e-01
3.586534686513543901e-01
4.119631990602553584e-01
4.604640981851198522e-01
5.030585339845493609e-01
5.401733752877604378e-01
5.697578045474335218e-01
5.922571897875454905e-01
6.069116379139718465e-01
6.127741018759029767e-01
6.111012409888028074e-01
6.002234688831000753e-01
5.811032086381493489e-01
5.537793420399996780e-01
5.179216475379999629e-01
4.752261497730301265e-01
4.250941547422091293e-01
3.687668748459724810e-01
3.071129234751452941e-01
2.406382980577401742e-01
1.709029255866503227e-01
9.865317615721180822e-02
2.500159818353253627e-02
-4.865749877230007847e-02
-1.211665702268058808e-01
-1.916914627013117656e-01
-2.584374047353000803e-01
-3.208961676196845914e-01
-3.777080307874364773e-01
-4.276037112124022599e-01
-4.708857407880616686e-01
-5.054640460235442223e-01
-5.317831603199792978e-01
-5.491101961437307999e-01
-5.566825964837873730e-01
-5.559588326213141807e-01
-5.453897089908812390e-01
-5.263345005720676539e-01
-4.989813440265374878e-01
-4.633921277845610698e-01
-4.216527810031500678e-01
-3.732481198352177731e-01
-3.199062905463959661e-01
-2.625314829874040301e-01
-2.018576873266163529e-01
-1.396676584946913158e-01
-7.648285074654836979e-02
-1.360333351401032953e-02
4.789330467879748809e-02
1.070153674951719314e-01
1.631167054301594366e-01
2.149469178538385705e-01
2.621803463040074389e-01
3.040614758924843342e-01
3.396835225621829268e-01
3.697787630005771042e-01
3.927697933474961767e-01
4.092939020184482857e-01
4.191232434180635624e-01
4.216117514170550917e-01
4.184012088740984847e-01
4.080743517579870638e-01
3.917822603129421655e-01
3.697862798077278801e-01
3.418186147285354193e-01
3.096578277168487991e-01
2.725445102292346489e-01
2.316416000393293761e-01
1.875607046154150193e-01
1.405459756336834287e-01
9.186730319019306701e-02
4.175203454862874697e-02
-8.939254644429350805e-03
-5.943383319129494358e-02
-1.089377027343687021e-01
-1.570116658716089186e-01
-2.025026731228427024e-01
-2.449891791506247918e-01
-2.838001263757006787e-01
-3.178159607510696594e-01
-3.474618337549672531e-01
-3.711770904972503393e-01
-3.890564452863820022e-01
-4.008455050636681172e-01
-4.055833852574541876e-01
-4.044004704759183721e-01
-3.960754265559592868e-01
-3.812408400277495502e-01
-3.602575678427151207e-01
-3.328004741431785374e-01
-3.003430960139704675e-01
-2.625521275854733605e-01
-2.204247498120777693e-01
-1.748106272885389667e-01
-1.261692868414765467e-01
-7.575229504163702443e-02
-2.417558168086379744e-02
2.760103319612315642e-02
7.867480067320835324e-02
1.280433277108277146e-01
1.752339797878986749e-01
2.190412032348509064e-01
2.589589581683539588e-01
2.944893429449443323e-01
3.245072456548587225e-01
3.495330418667860206e-01
3.682758569771396040e-01
3.808490495606245418e-01
3.873517026285541176e-01
3.869168331016842322e-01
3.807890296660351170e-01
3.680448046943399776e-01
3.492915654115581470e-01
3.251156072575733802e-01
2.951946334475384903e-01
2.609358363015822357e-01
2.221177819101344542e-01
1.795880700951804632e-01
1.341536040445358569e-01
8.620906282173712576e-02
3.677992075068365480e-02
-1.352497080879836930e-02
-6.386470193251403416e-02
-1.135117727564918105e-01
-1.613988931299258911e-01
-2.072145085910948314e-01
-2.497158094217490354e-01
-2.882921525265374485e-01
-3.225791547848544938e-01
-3.511916297785436791e-01
-3.746215527017667246e-01
-3.915195405618844271e-01
-4.017258639514442176e-01
-4.054576338304713423e-01
-4.015978614593926910e-01
-3.913110282504902449e-01
-3.737765762687894067e-01
-3.494170260699915875e-01
-3.190476201750742091e-01
-2.823323498500067141e-01
-2.407293627688422144e-01
-1.943230859812685729e-01
-1.439992053910586489e-01
-9.086465881993652238e-02
-3.550085111570068508e-02
2.091820954321505638e-02
7.749150940517970931e-02
1.332443177896421305e-01
1.873027862172193525e-01
2.384438501511119135e-01
2.863068422672448987e-01
3.296180202736757603e-01
3.677303488295727285e-01
4.004432003364842840e-01
4.263809523524581535e-01
4.461718613491868490e-01
4.586975400336914532e-01
4.638589476892610586e-01
4.622240847705847977e-01
4.527424335335305527e-01
4.367399265704896560e-01
4.136551242141404128e-01
3.838978640560644640e-01
3.485420147892002718e-01
3.072183520486154729e-01
2.613803932475267655e-01
2.112287642792693709e-01
1.574996672536267683e-01
1.013456964802022797e-01
4.325343315522275911e-02
-1.574179421643566792e-02
-7.471156214224668191e-02
-1.328217282931477006e-01
-1.892526594035882637e-01
-2.427748117115286763e-01
-2.931119715619671107e-01
-3.389310933655583224e-01
-3.795641172455707091e-01
-4.148315459040810560e-01
-4.432084005059043208e-01
-4.652742642284606323e-01
-4.798429795757187533e-01
-4.866864132435632095e-01
-4.863997434596968317e-01
-4.777975357920068999e-01
-4.621597599151965885e-01
-4.389821604459187010e-01
-4.086244193680626524e-01
-3.723027771615924908e-01
-3.296624703895400521e-01
-2.822424675967104557e-01
-2.304184375889287151e-01
-1.749990489999826981e-01
-1.173275619912915180e-01
-5.796319208651188465e-02
1.931445165806650044e-03
6.134384259722396038e-02
1.193920483509047226e-01
1.752319632423518514e-01
2.276753688971571987e-01
2.764497747719636966e-01
3.203799900321423477e-01
3.588646178472374437e-01
3.919444660985917372e-01
4.182298269363182719e-01
4.384200712232195207e-01
4.516020903021185084e-01
4.575947920245838074e-01
4.572570185271846444e-01
4.494165777927219829e-01
4.353774908835172375e-01
4.147499435182177008e-01
3.877397388290325098e-01
3.556166565213531028e-01
3.178041842082072188e-01
2.756679918689953213e-01
2.294565402092933193e-01
1.796886812088890895e-01
1.275709741208079784e-01
7.337661451814024571e-02
1.809665053224172176e-02
-3.743333158407809863e-02
-9.248300455996308345e-02
-1.462679342971934249e-01
-1.977119093019450435e-01
-2.464381129313643615e-01
-2.913058277752796354e-01
-3.315905461349202277e-01
-3.671546321177361905e-01
-3.965601562103758804e-01
-4.201494547183757811e-01
-4.369722576432438776e-01
-4.466515161544443169e-01
-4.498128153735280188e-01
-4.453216648526494570e-01
-4.342163687707760733e-01
-4.162195158735974010e-01
-3.915485595681830189e-01
-3.614883099886293527e-01
-3.256759114784409936e-01
-2.855409411769502803e-01
-2.415940811746990491e-01
-1.945099749329660677e-01
-1.457580271575925068e-01
-9.570778342597691113e-02
-4.554914797874123900e-02
3.785698041440604955e-03
5.165119040021276531e-02
9.709465477150137913e-02
1.394158452313745966e-01
1.782892864654688214e-01
2.128973485409214050e-01
2.430293071805694760e-01
2.687133135790140681e-01
2.892442613858169365e-01
3.052898446034110203e-01
3.164226968783053762e-01
3.228204274489880898e-01
3.253685022041887809e-01
3.233970882040113626e-01
3.180832323231619352e-01
3.093197951328978679e-01
2.973004177069749066e-01
2.831963939935076002e-01
2.663473478770764791e-01
2.477525898592827236e-01
2.274718390965686510e-01
2.054683136658014275e-01
1.826365014913379214e-01
1.585069785982544111e-01
1.335231032566006337e-01
1.078986828010349702e-01
8.150079829096687489e-02
5.472623460564723930e-02
2.763636116340933979e-02
2.091350407806835676e-04
-2.710545514583551086e-02
-5.420011693270276876e-02
-8.108493524909765604e-02
-1.069965543096889071e-01
-1.321318848266381796e-01
-1.558505498957325486e-01
-1.776683175234401446e-01
-1.978769375256146379e-01
-2.152683403240149840e-01
-2.300910984698680828e-01
-2.417994308142736859e-01
-2.497852778123785811e-01
-2.546223176199886584e-01
-2.552302556423264868e-01
-2.520066808085946741e-01
-2.448340872132540591e-01
-2.333943968533590541e-01
-2.185193228186034231e-01
-1.997380752701238271e-01
-1.776455845166428904e-01
-1.526216516969450265e-01
-1.248380372061207721e-01
-9.512541424075468544e-02
-6.372576192673601314e-02
-3.123807132586625679e-02
1.723225720754006929e-03
3.460984708073289173e-02
6.700672735222812371e-02
9.815243739254053690e-02
1.277338008444010020e-01
1.552470244472108352e-01
1.799947288037105908e-01
2.022334729242416529e-01
2.209460443977198096e-01
2.362346149432967835e-01
2.478956830000105249e-01
2.552696566876881956e-01
2.591954695345596305e-01
2.586746404341569994e-01
2.541356145091682173e-01
2.456950888716337156e-01
2.329053503671056347e-01
2.168291348032120314e-01
1.968187031275106524e-01
1.734434729224672567e-01
1.470831530499124851e-01
1.177024641065624044e-01
8.617618377112248873e-02
5.253336631986506300e-02
1.733021827996472641e-02
-1.888084166890799387e-02
-5.559786707277031281e-02
-9.239020725103208598e-02
-1.284758905823893405e-01
-1.634181642070232643e-01
-1.966572562286990622e-01
-2.272638631295005318e-01
-2.553640841659688410e-01
-2.797208719574295621e-01
-3.001541691990989302e-01
-3.163527317716368081e-01
-3.273475635290377661e-01
-3.338183212766133168e-01
-3.346461337963971827e-01
-3.300522745751085507e-01
-3.202017335840755541e-01
-3.045623181175741712e-01
-2.842059732834106844e-01
-2.586663428734238268e-01
-2.285709479699509772e-01
-1.945662719683241004e-01
-1.568199018212416695e-01
-1.164177795974388335e-01
-7.373068385005335235e-02
-2.954461779905147301e-02
1.530640361178689512e-02
6.006189047791651858e-02
1.041105171688333497e-01
1.464600667846938653e-01
1.865453178871815387e-01
2.237521800154013141e-01
2.570767378973899397e-01
2.866875711877794886e-01
3.113916363073864213e-01
3.310995995415590976e-01
3.456737867811403575e-01
3.542528352405489578e-01
3.577108804030566525e-01
3.550943524524417527e-01
3.468046502056856273e-01
3.331910139026866835e-01
3.138513708417202674e-01
2.899751944238193602e-01
2.612027338479289140e-01
2.282577038771486100e-01
1.918001865966858510e-01
1.520732656205557032e-01
1.100962699821360774e-01
6.626995865781057371e-02
2.139723344761683757e-02
-2.381193030646508446e-02
-6.849354086976186529e-02
-1.121687875968003512e-01
-1.538005313889610759e-01
-1.927624367662511551e-01
-2.285706008055586325e-01
-2.600425881703815056e-01
-2.874041329170011760e-01
-3.094173775206954802e-01
-3.258770666393567272e-01
-3.367538246503179455e-01
-3.410652445157848489e-01
-3.396804859704590229e-01
-3.317373384837157269e-01
-3.176025352716709271e-01
-2.977670980132469669e-01
-2.719365712205242813e-01
-2.413250055094289803e-01
-2.058512133422467916e-01
-1.663790274583553108e-01
-1.237191459360314078e-01
-7.843333566325719208e-02
-3.159173109441519578e-02
1.610677463004006951e-02
6.363920705246622900e-02
1.102859299731928922e-01
1.548796069031146139e-01
1.969715901923124179e-01
2.354553117487317992e-01
2.695853827984613371e-01
2.991077313850351027e-01
3.227618211045111818e-01
3.409201252392653481e-01
3.525821020831874097e-01
3.575896051992744629e-01
3.562781862840290192e-01
3.478365473357408755e-01
3.332863453715711466e-01
3.121753160556970386e-01
2.850064409879890515e-01
2.525547735034783248e-01
2.148343782461013540e-01
1.730840913654596303e-01
1.276136588103126135e-01
7.941126422972570598e-02
2.935864800910658809e-02
-2.166155013699884446e-02
-7.269874973884292435e-02
-1.228018038674189572e-01
-1.708801332103694337e-01
-2.163346914091527906e-01
-2.577723167908068103e-01
-2.949325864820905307e-01
-3.266677790055934061e-01
-3.522635632833264197e-01
-3.717154454564532973e-01
-3.837681672993960569e-01
-3.890098476422220175e-01
-3.866792302556551486e-01
-3.768121495300403856e-01
-3.600728391494435465e-01
-3.359659508164526964e-01
-3.057243138242530800e-01
-2.693625040091692235e-01
-2.276968446605502905e-01
-1.817738884409188516e-01
-1.320995727092272864e-01
-7.999563937016264392e-02
-2.621289478052209188e-02
2.802696244474939258e-02
8.183965529784931192e-02
1.339673946659675763e-01
1.836459237598142280e-01
2.297923873284863916e-01
2.713460694289362984e-01
3.080619916963587279e-01
3.384921103080163474e-01
3.627975101514158696e-01
3.800684967053368224e-01
3.898558477829422997e-01
3.926773957077752120e-01
3.874990813491656638e-01
3.753119920451097324e-01
3.557619825184652473e-01
3.291793012224470960e-01
2.965900984003005392e-01
2.578187821437863958e-01
2.142350448388996575e-01
1.661944988163276959e-01
1.146835827532087515e-01
6.077495431351744026e-02
5.276032279835474181e-03
-5.064180301834489417e-02
-1.060529892409046437e-01
-1.596907355568087383e-01
-2.109196156628029284e-01
-2.582536925211016965e-01
-3.012170907060732761e-01
-3.387432436681323544e-01
-3.698125013486786017e-01
-3.945656616364660030e-01
-4.114927335341801995e-01
-4.210555382498318289e-01
-4.225916034147822464e-01
-4.157962973797600936e-01
-4.016181151134430305e-01
-3.792223887908420243e-01
-3.498586257402673816e-01
-3.136240767835006271e-01
-2.710789728236785434e-01
-2.236001157804846928e-01
-1.713936645234262479e-01
-1.159395846483831649e-01
-5.802512563367055731e-02
1.207498295820258472e-03
6.062880086601038498e-02
1.191269059497868099e-01
1.757065160291940153e-01
2.293153285184473256e-01
2.787606071644538330e-01
3.237484697026241642e-01
3.627476180811926576e-01
3.957055783016805162e-01
4.217902673534074109e-01
4.402295993119654804e-01
4.517067027167801507e-01
4.548613379989245309e-01
4.505487037011764451e-01
4.384745355586532889e-01
4.185318398553158348e-01
3.920350406475048288e-01
3.583155709687276813e-01
3.187090060971438654e-01
2.735583935130293520e-01
2.234432124063227554e-01
1.697313638453782636e-01
1.127596402858799668e-01
5.380192155452552527e-02
-6.264061137230767136e-03
-6.635337400712426614e-02
-1.255738935503030174e-01
-1.826493658095922068e-01
-2.368323884941720137e-01
-2.870378228439014467e-01
-3.320816804143695289e-01
-3.718984387024892313e-01
-4.048026020778565104e-01
-4.308839616159915176e-01
-4.493530252964285099e-01
-4.594692428698747277e-01
-4.620954027330644864e-01
-4.559236648213336185e-01
-4.419328740377770348e-01
-4.200634748270342111e-01
-3.904094904770354368e-01
-3.545033008182315037e-01
-3.120071368878998830e-01
-2.644387672921134635e-01
-2.125082623200510445e-01
-1.570783611433764770e-01
-9.968814323563995883e-02
-4.100837463318598997e-02
1.762274258332034715e-02
7.516084427181934924e-02
1.304793254628269505e-01
1.828235162442786166e-01
2.309461347906350825e-01
2.743701489807540139e-01
3.122856110409528152e-01
3.438403349734575065e-01
3.694613955212121548e-01
3.878431283248917061e-01
3.995465516113893001e-01
4.043042409541041105e-01
4.017774872568459221e-01
3.933215264574390635e-01
3.779601304891687108e-01
3.569082419938993112e-01
3.304211108984115852e-01
2.986381661587147462e-01
2.631522799915531063e-01
2.235848426001981748e-01
1.811868146324843720e-01
1.365498675417613772e-01
9.017146146901564019e-02
4.318907944272451505e-02
-4.022120940649541454e-03
-5.065223293999602389e-02
-9.598627997313601001e-02
-1.392850584710176587e-01
-1.802519472755679808e-01
-2.178259870567775813e-01
-2.518310648746124869e-01
-2.816632994432627379e-01
-3.065218296344459636e-01
-3.269914242901897361e-01
-3.417102527453936278e-01
-3.511129443330135991e-01
-3.549657304069687158e-01
-3.526807122664563643e-01
-3.455068060290550913e-01
-3.323485460290315774e-01
-3.140820150365122854e-01
-2.910048997265023973e-01
-2.629819811383051764e-01
-2.314911677895157838e-01
-1.961506476741917415e-01
-1.579546740539357341e-01
-1.176281958069825967e-01
-7.550395809869694941e-02
-3.272623732873911062e-02
1.031235082434164493e-02
5.291323319377626289e-02
9.429053313585059048e-02
1.338489065720468163e-01
1.712549109287927751e-01
2.056041667918065974e-01
2.367729771775290981e-01
2.642900920719900570e-01
2.875087399258409726e-01
3.070272882976187168e-01
3.217559542836256337e-01
3.320974788135371281e-01
3.380416946193070538e-01
3.389877919322607513e-01
3.361511015101823485e-01
3.285453675535310869e-01
3.167962259869879227e-01
3.012752249382384950e-01
2.815041519789247548e-01
2.587807846317746741e-01
2.325088216979632194e-01
2.032367010141848951e-01
1.715588677557761954e-01
1.372849931185086969e-01
1.013488934851180107e-01
6.380212378210128876e-02
2.500313271607434995e-02
-1.437242751402663041e-02
-5.403885265693114670e-02
-9.362377485252244835e-02
-1.323544913572591852e-01
-1.700292123234666275e-01
-2.060398006797224124e-01
-2.396151372403243773e-01
-2.709451982551778215e-01
-2.987867306413317658e-01
-3.230813152285793022e-01
-3.434915673332308850e-01
-3.590430987184139444e-01
-3.704176495811360992e-01
-3.764213285323604885e-01
-3.772256635161650440e-01
-3.729758384927512882e-01
-3.629479570702304203e-01
-3.482015167402132683e-01
-3.281182215786788703e-01
-3.031707188215687632e-01
-2.740386649157517951e-01
-2.405725871937269833e-01
-2.039442496514738412e-01
-1.643247698098388998e-01
-1.223492112981636459e-01
-7.897745281727715227e-02
-3.461068871520567997e-02
9.912436090527927332e-03
5.381781914691009111e-02
9.663382421594934879e-02
1.375664248451329563e-01
1.759318985920303724e-01
2.116181919382840726e-01
2.436192006186235215e-01
2.718749197924407723e-01
2.960958127127903405e-01
3.155733012196046960e-01
3.309822556855204212e-01
3.414034838837299857e-01
3.471660271724074098e-01
3.485324452737127987e-01
3.449105339330618691e-01
3.374399281605316436e-01
3.254957270780637346e-01
3.095647436931167062e-01
2.902650186505934538e-01
2.672205658180468180e-01
2.415414955250131945e-01
2.130429503073818509e-01
1.821465576914841344e-01
1.495571857124191051e-01
1.152513409852414239e-01
7.992470033831414189e-02
4.391862540120504421e-02
7.518325871631446888e-03
-2.869541011355368487e-02
-6.428238494528802638e-02
-9.909608533797108210e-02
-1.323232526880032400e-01
-1.637748888956541971e-01
-1.931260030105318437e-01
-2.195322539612512003e-01
-2.433349855124379846e-01
-2.635129583286382471e-01
-2.799688852119621707e-01
-2.927321552410337979e-01
-3.008630400051147125e-01
-3.050706807711738855e-01
-3.045476678195910281e-01
-2.993885549015243286e-01
-2.900308880779121079e-01
-2.758688073867969770e-01
-2.578247240091340875e-01
-2.356586099179858729e-01
-2.097356331418567810e-01
-1.807908009466182020e-01
-1.488267049035655876e-01
-1.147144041802402592e-01
-7.883990300129753437e-02
-4.174972512985158923e-02
-4.162269823269781899e-03
3.334146542150527581e-02
7.027662593746876463e-02
1.058680711688524401e-01
1.396079556981467684e-01
1.711467401115185083e-01
1.995788603787592708e-01
2.250194756580748412e-01
2.466476420370077305e-01
2.641814544731924674e-01
2.778002078511773720e-01
2.865880205996279573e-01
2.911986855106079020e-01
2.910461658395552820e-01
2.861379239046170087e-01
2.770762555357068613e-01
2.632340075075071395e-01
2.455200537078141010e-01
2.237674619349613314e-01
1.982618972426344328e-01
1.697706791357556644e-01
1.382106652398357172e-01
1.044150676882778517e-01
6.871152040498479385e-02
3.161901660600099917e-02
-6.212960339905877760e-03
-4.421800458939341427e-02
-8.189891849998104378e-02
-1.185311811661008269e-01
-1.534764965466116071e-01
-1.864450855048364331e-01
-2.163813933358605668e-01
-2.432788088174516750e-01
-2.663114779099717278e-01
-2.849354294384685571e-01
-2.993786210984426543e-01
-3.085157350917803187e-01
-3.128673984926713669e-01
-3.118985541415322804e-01
-3.054078977836158781e-01
-2.941364685149082114e-01
-2.773760196041877291e-01
-2.560341448505473738e-01
-2.301298151522293556e-01
-1.999214245279319901e-01
-1.664026725570655063e-01
-1.295730000085674183e-01
-9.037806898523512156e-02
-4.935851933299739008e-02
-7.126988702362570781e-03
3.552388559757462677e-02
7.790018624512030920e-02
1.194334369734501022e-01
1.593331593879412089e-01
1.968686950200603525e-01
2.318461765631174565e-01
2.631180362309745169e-01
2.907330936000698252e-01
3.139762962152475856e-01
3.322200453239823603e-01
3.459759846361012414e-01
3.540036976559365889e-01
3.569104153535196389e-01
3.543062132004510256e-01
3.458280730769763278e-01
3.324808346463951070e-01
3.133573773290042053e-01
2.893567190656246568e-01
2.605665519184447443e-01
2.270249331055879949e-01
1.898531258341246974e-01
1.488769234416524312e-01
1.049810450318435229e-01
5.875766645041530928e-02
1.071813084724551959e-02
-3.828424314482557766e-02
-8.751735906490985817e-02
-1.363732187027609510e-01
-1.839240490749237955e-01
-2.292910127402377207e-01
-2.721954326170218375e-01
-3.112171819372292481e-01
-3.462329434770591297e-01
-3.763524519807668334e-01
-4.006584119491775620e-01
-4.196245886838991801e-01
-4.317178049634294856e-01
-4.374236956948306387e-01
-4.363320966185897376e-01
-4.279086543477514937e-01
-4.133360018539998793e-01
-3.916187058638730401e-01
-3.637683604891546185e-01
-3.300966697192513344e-01
-2.906911168728582573e-01
-2.470594588303017258e-01
-1.991110527738910174e-01
-1.479940063975455633e-01
-9.459173737007231519e-02
-3.951223871825443323e-02
1.606180336817339405e-02
7.136110673298101670e-02
1.256395839665361280e-01
1.778726148313136135e-01
2.272373573885868581e-01
2.734460395658765419e-01
3.151770973609302473e-01
3.524295397467591129e-01
3.844531116590723663e-01
4.104816097466841285e-01
4.312601071831973498e-01
4.453090173760533288e-01
4.533130269451597361e-01
4.550072777242263333e-01
4.498442921703843522e-01
4.392483661715364529e-01
4.220171436743954674e-01
3.991649178631598294e-01
3.709367890930579392e-01
3.371445271810216138e-01
2.992911849084179399e-01
2.569002520258917843e-01
2.109299594821226476e-01
1.620552879703270333e-01
1.105968870163389073e-01
5.759857189993061732e-02
3.604838181276881492e-03
-5.073130397575653650e-02
-1.044803982706491441e-01
-1.567856862831556453e-01
-2.073713895488690229e-01
-2.547648378872206520e-01
-2.987508553953486246e-01
-3.384510700711362841e-01
-3.727299888263627126e-01
-4.021598004894367251e-01
-4.249030551561536195e-01
-4.412805824974754820e-01
-4.508555406632319684e-01
-4.527282931595320026e-01
-4.481933027973427075e-01
-4.358506090980056591e-01
-4.165705234476599350e-01
-3.906191153308034014e-01
-3.578064590854456162e-01
-3.197586224946382671e-01
-2.761072536982124292e-01
-2.280394148037096502e-01
-1.764200896736644042e-01
-1.218750928148335105e-01
-6.571374164710269694e-02
-8.685049500387495569e-03
4.819371515128245687e-02
1.039082900200672399e-01
1.573389794685439158e-01
2.080758876537215918e-01
2.546731179677117485e-01
2.967393021173256318e-01
3.336059088161924535e-01
3.641479034519803926e-01
3.890451676212163812e-01
4.067577120565233351e-01
4.176638229434299632e-01
4.216899348469667075e-01
4.181096929062038114e-01
4.083680725421639512e-01
3.913841507959700539e-01
3.680975139088631942e-01
3.389855382401567585e-01
3.039600349284247160e-01
2.646018713798909960e-01
2.206761053300477227e-01
1.733007269921004456e-01
1.232782770783008852e-01
7.121278903568942220e-02
1.821250437760684598e-02
-3.501276821692300006e-02
-8.754579709677660915e-02
-1.385693563160552699e-01
-1.869695153076354199e-01
-2.324831593490180870e-01
-2.737419302350380113e-01
-3.103208925250090511e-01
-3.417241873646472139e-01
-3.667535753778060625e-01
-3.860686649637892209e-01
-3.982528508116197075e-01
-4.035384047862683454e-01
-4.020184260052083181e-01
-3.929335826563443157e-01
-3.776484290890277373e-01
-3.553451427164104892e-01
-3.268606052952448549e-01
-2.928978038781059334e-01
-2.534657628547704045e-01
-2.101178558003707619e-01
-1.629517761481772131e-01
-1.130660866720413632e-01
-6.144510914014232605e-02
-8.810351577901082143e-03
4.376654752807586368e-02
9.541585471619631886e-02
1.452685913104998783e-01
1.925651568383627554e-01
2.362153394175969812e-01
2.761131076752322833e-01
3.110422397467070832e-01
3.407052520721178812e-01
3.649249462280557132e-01
3.826368908026043791e-01
3.947103400771243553e-01
4.000410451656283284e-01
3.989202369360268507e-01
3.917808999278736826e-01
3.778976611357828808e-01
3.586773509976288188e-01
3.335006643934579351e-01
3.030328793463973325e-01
2.680980624894748754e-01
2.285431469747595257e-01
1.857260327584050463e-01
1.397544047378793119e-01
9.141379256114698371e-02
4.161966916065049094e-02
-9.102831573255532049e-03
-5.990706614454069379e-02
-1.099559552697087494e-01
-1.585640328583824421e-01
-2.050275403337578628e-01
-2.482849570752720392e-01
-2.882425357378045616e-01
-3.236545464054963461e-01
-3.541415972442759630e-01
-3.794891109090787751e-01
-3.985118285353900225e-01
-4.119023166512291168e-01
-4.185581701227809592e-01
-4.185754875782826678e-01
-4.124016135096386648e-01
-3.992299425791247525e-01
-3.803538720826001307e-01
-3.553083482490047573e-01
-3.246631662000443730e-01
-2.894353358035489654e-01
-2.494835494811331600e-01
-2.062476027928736855e-01
-1.600348611030161239e-01
-1.116115935996791486e-01
-6.213916297964106050e-02
-1.206762981758857656e-02
3.763158483071782356e-02
8.612880641191750231e-02
1.328654181602593187e-01
1.770843443461604383e-01
2.180145008846191002e-01
2.555945781463806465e-01
2.888568148406855385e-01
3.176707696714780593e-01
3.420076133516097849e-01
3.609948829549506355e-01
3.754575102594631675e-01
3.845715953125580788e-01
3.885281201449498623e-01
3.879537103853396562e-01
3.819992619491083818e-01
3.719201724032281109e-01
3.571972140717987743e-01
3.380843367681304334e-01
3.155248860611403749e-01
2.888669232093165617e-01
2.592398408901244178e-01
2.265636410990285732e-01
1.910260180222191628e-01
1.535356263238308594e-01
1.139188265853383203e-01
7.284070385267825409e-02
3.076393132409704911e-02
-1.210738946679273606e-02
-5.511693957607802230e-02
-9.773341022460384220e-02
-1.398015695167079131e-01
-1.803678282089247464e-01
-2.190882407911637075e-01
-2.556711565076853487e-01
-2.889583409330574448e-01
-3.192235969602512657e-01
-3.453426635198734718e-01
-3.669045330073277267e-01
-3.840912406838341009e-01
-3.955824165178087881e-01
-4.020409849778281974e-01
-4.026757589857106190e-01
-3.972830670508881168e-01
-3.865866134946155386e-01
-3.697031965315797919e-01
-3.476221836447143665e-01
-3.202655441864749042e-01
-2.878461768612186056e-01
-2.514819764184694773e-01
-2.110727474228509815e-01
-1.676786694916269915e-01
-1.219304915319271571e-01
-7.437154764562932396e-02
-2.608686862946405990e-02
2.231691527506399902e-02
7.014695927401179421e-02
1.164217029656673813e-01
1.605817045951337396e-01
2.020798725151467246e-01
2.399360037551447888e-01
2.741774658762625716e-01
3.039052363026975012e-01
3.288036411524373204e-01
3.491218982585275188e-01
3.638342339808656178e-01
3.736870345985126018e-01
3.781384592259187105e-01
3.771531135799016110e-01
3.716396392644498170e-01
3.607605111637371964e-01
3.456216609613853574e-01
3.261193001394036561e-01
3.023825809047773205e-01
2.755559775290198909e-01
2.451766547037951827e-01
2.122257346969765313e-01
1.770006633235481630e-01
1.397028543690251312e-01
1.012602248593620913e-01
6.175880955715115639e-02
2.173379319501085594e-02
-1.819510227505699573e-02
-5.773024350884539690e-02
-9.642708340522843091e-02
-1.335718797685694348e-01
-1.691299698211321811e-01
-2.023039384195157719e-01
-2.326651798854856845e-01
-2.603217176135413924e-01
-2.841046454392682774e-01
-3.043905639876777203e-01
-3.204697081116374968e-01
-3.318888635610718896e-01
-3.392691462083458620e-01
-3.414236067056344859e-01
-3.390353191039844893e-01
-3.317961560760616102e-01
-3.194570003682293824e-01
-3.030181598421567424e-01
-2.817643840856354220e-01
-2.565483962797752149e-01
-2.276275919279860671e-01
-1.951220415148139375e-01
-1.601155691456267460e-01
-1.226245512603187371e-01
-8.341868561460047404e-02
-4.318433052921170218e-02
-2.363268913206081900e-03
3.831481591643189077e-02
7.817427400675541760e-02
1.168401309272087407e-01
1.535447412259385302e-01
1.877122596824012113e-01
2.193203656447272332e-01
2.472967744648765231e-01
2.718172987169127364e-01
2.923443645811277247e-01
3.083265009886074770e-01
3.204783934153496716e-01
3.276328807452456027e-01
3.304007456286689459e-01
3.286147220457498186e-01
3.218445247206940807e-01
3.112385676861478823e-01
2.958579776463275413e-01
2.764684747084424354e-01
2.532810304440197835e-01
2.261024352851708774e-01
1.960754983300871390e-01
1.628291984413686444e-01
1.270339791063603008e-01
8.922532165336224952e-02
4.959514594493751038e-02
8.916865121357912816e-03
-3.238504301967135013e-02
-7.386970512269364075e-02
-1.148049571523739043e-01
-1.545640621103138712e-01
-1.929538038754713136e-01
-2.288304658761610710e-01
-2.620589548512265443e-01
-2.919592099292514509e-01
-3.176515613496858625e-01
-3.396034345885304284e-01
-3.563800149102209214e-01
-3.682292015150908648e-01
-3.748459377671053971e-01
-3.754690290948445308e-01
-3.711760350407856124e-01
-3.608296362998018036e-01
-3.450791167191406550e-01
-3.242143034572944060e-01
-2.979242873620575605e-01
-2.676325153526970535e-01
-2.329205388980924996e-01
-1.946526685507985743e-01
-1.536280228668339132e-01
-1.100456729541631623e-01
-6.515294685819607301e-02
-1.930589902378604394e-02
2.681078173278978599e-02
7.226830254021376909e-02
1.165503668566634787e-01
1.591387209056304430e-01
1.991268182089987460e-01
2.363489800567984134e-01
2.701559819273824381e-01
2.999297078153664309e-01
3.261090918594464760e-01
3.475382600901113506e-01
3.645935966023872155e-01
3.771029000998821212e-01
3.844414443521487201e-01
3.877807499101035837e-01
3.859900876646931156e-01
3.797127894278987670e-01
3.692165244079951836e-01
3.539262126633833105e-01
3.352344996071301431e-01
3.123292934919324471e-01
2.857961347340619573e-01
2.562108703358215722e-01
2.232014869438264937e-01
1.879054994415825519e-01
1.501342968022197355e-01
1.102673957643645897e-01
6.906930023662702367e-02
2.658986250678041507e-02
-1.653438410450190632e-02
-5.971189942827860586e-02
-1.027475433621356515e-01
-1.448290932872396131e-01
-1.854013238700069621e-01
-2.243915051870311317e-01
-2.605972576175962230e-01
-2.939900026169475211e-01
-3.239566207132921205e-01
-3.496367208798834003e-01
-3.715444608824862160e-01
-3.883506964887518675e-01
-4.002742916828150310e-01
-4.072132760945562646e-01
-4.083830904088245894e-01
-4.048624815872762239e-01
-3.957239786441884011e-01
-3.814740856835068250e-01
-3.626696221548006971e-01
-3.388674750340665565e-01
-3.114660002422957596e-01
-2.801878716447795403e-01
-2.456346442740858227e-01
-2.088078342127367426e-01
-1.695942188490819347e-01
-1.291899027707605618e-01
-8.787598900971960170e-02
-4.599595081164450233e-02
-4.522597194485278305e-03
3.645172002530167044e-02
7.646091256116355206e-02
1.148622199840525493e-01
1.517526626964450509e-01
1.865752032620355827e-01
2.190004673208004737e-01
2.494386676297540850e-01
2.769722522974704670e-01
3.019395167194725005e-01
3.242662363963630945e-01
3.432160950808147426e-01
3.597542716979416078e-01
3.727517583357926600e-01
3.824138772021028476e-01
3.889997174660783097e-01
3.913892451683083085e-01
3.906215447911687288e-01
3.856302459877605227e-01
3.763480275208479497e-01
3.632486744728435912e-01
3.452724548719431352e-01
3.232513125475652838e-01
2.966792315707118544e-01
2.654693042125195745e-01
2.303087316139632579e-01
1.908627445994162120e-01
1.477437305263870071e-01
1.014155497177218201e-01
5.214257192504589966e-02
7.833818823875793314e-04
-5.189998690599795239e-02
-1.055055218584199928e-01
-1.586642275501410904e-01
-2.107157220518460772e-01
-2.609078503933298654e-01
-3.076650778762638483e-01
-3.509856253452853236e-01
-3.892019238821138316e-01
-4.216685345397342966e-01
-4.481825642073991034e-01
-4.671448570454034832e-01
-4.792212110814738635e-01
-4.832377125223913383e-01
-4.790980363378397056e-01
-4.674159567616197886e-01
-4.473419872048048918e-01
-4.201928523537473148e-01
-3.857721472878110069e-01
-3.447143792346382685e-01
-2.982337271343867835e-01
-2.465280762654953328e-01
-1.910626452574092360e-01
-1.325564190254507890e-01
-7.205120308305046350e-02
-1.073434280031715371e-02
5.035866176178049880e-02
1.103335936724937349e-01
1.679762265470002847e-01
2.223559832558021920e-01
2.729125411472724805e-01
3.182042564346362346e-01
3.583426408203695956e-01
3.920864336198097710e-01
4.189658183783125933e-01
4.392688353998898676e-01
4.516091130739611770e-01
4.570210289598605202e-01
4.546303100250865814e-01
4.445249854654186317e-01
4.276628089127792465e-01
4.031657578577515499e-01
3.725257807855757441e-01
3.355304220897026291e-01
2.927636590928735516e-01
2.454520790402647534e-01
1.935897645977421866e-01
1.385659221449193623e-01
8.094564293825790013e-02
2.165590213006546305e-02
-3.824834182038322483e-02
-9.781542323838499087e-02
-1.562110467706198658e-01
-2.122835533162751864e-01
-2.650368769842915695e-01
-3.139811333622324896e-01
-3.575538322043227968e-01
-3.957607878442658267e-01
-4.273767121927689594e-01
-4.517242340506258391e-01
-4.691505809623559009e-01
-4.781563541768342751e-01
-4.796495369387404617e-01
-4.729359909994849120e-01
-4.579781705464966990e-01
-4.359555593024360132e-01
-4.060653680183433645e-01
-3.698386175991666969e-01
-3.274382244379791529e-01
-2.794649557608114288e-01
-2.275028851670940488e-01
-1.716753422213979363e-01
-1.134918177651179222e-01
-5.380754805276342229e-02
6.508257934043193416e-03
6.620043743549031134e-02
1.244234477036179065e-01
1.804032548741286435e-01
2.330659076837703902e-01
2.817083351593613894e-01
3.260042496462893791e-01
3.647414001191096045e-01
3.982001016792821035e-01
4.255082759402633030e-01
4.463057116345955366e-01
4.612863646146612706e-01
4.691811059523530725e-01
4.710699417600193173e-01
4.664917802079495135e-01
4.553552721717513685e-01
4.389725430083584734e-01
4.163256675384635619e-01
3.887142346238220969e-01
3.561633089532530994e-01
3.187703233204384201e-01
2.778906082216989204e-01
2.331315731094128207e-01
1.855132263854190333e-01
1.355755516718912257e-01
8.366385560179839809e-02
3.073788325696184126e-02
-2.267422903170094109e-02
-7.605224529611630258e-02
-1.284261485837378258e-01
-1.791408810688728814e-01
-2.278591321791766933e-01
-2.731976130341701170e-01
-3.151705130086648321e-01
-3.526874469187183392e-01
-3.849389885816036916e-01
-4.122999598773867125e-01
-4.330587820850446690e-01
-4.477658027866441848e-01
-4.556930145785998421e-01
-4.562619010831202582e-01
-4.505390701685411670e-01
-4.372341963195365833e-01
-4.173882998751161644e-01
-3.910266080721487847e-01
-3.581490539746171597e-01
-3.202616595724112614e-01
-2.770175508534256092e-01
-2.296737228488199001e-01
-1.789917032309591705e-01
-1.255446407496081385e-01
-7.069928764189051251e-02
-1.506206047706982326e-02
4.042498309308978355e-02
9.470483068889759548e-02
1.469660472441735866e-01
1.966436352650094144e-01
2.425334810494060300e-01
2.844674194810083989e-01
3.216081691389252040e-01
3.532402004218707647e-01
3.798990055554288259e-01
4.001846630161002283e-01
4.147365859269747101e-01
4.232014968437781133e-01
4.250825120311840788e-01
4.217482788073126931e-01
4.119391031302995221e-01
3.967182653611427412e-01
3.762163577353525024e-01
3.501710915102362875e-01
3.201684926932086839e-01
2.854431339620243091e-01
2.470096085657871865e-01
2.053915748940760011e-01
1.606542137548024329e-01
1.140187144036644840e-01
6.556326280909727244e-02
1.597016277552143482e-02
-3.395976500045386204e-02
-8.371035320656892986e-02
-1.327675112531989665e-01
-1.801079757264738568e-01
-2.254722951972707723e-01
-2.680022340705546235e-01
-3.067948459188590271e-01
-3.421478478844990345e-01
-3.724344838960167436e-01
-3.978404964628475815e-01
-4.177861721299660491e-01
-4.313264760201669379e-01
-4.394818902985517250e-01
-4.407035901997921612e-01
-4.356172755409079000e-01
-4.242207343034833933e-01
-4.059879708945965393e-01
-3.823673944433044758e-01
-3.525556364186721581e-01
-3.174937453297259626e-01
-2.777991269278989872e-01
-2.336488724590627952e-01
-1.863981398588578642e-01
-1.363066569872290468e-01
-8.431131072460121278e-02
-3.135963181431242197e-02
2.174114213293512621e-02
7.428499074903771593e-02
1.251173079196885585e-01
1.736887843210719873e-01
2.191686899128063859e-01
2.604627352866457080e-01
2.978234380300390782e-01
3.296907150793393915e-01
3.561261549458337727e-01
3.767509312857306170e-01
3.906009170790629703e-01
3.987630940096039689e-01
3.998528787115529504e-01
3.944961433372521364e-01
3.828508271084783976e-01
3.644498443038042268e-01
3.407288343102681250e-01
3.109983082083779826e-01
2.762156253764264657e-01
2.369548216258380857e-01
1.934948850694535316e-01
1.470437992133411531e-01
9.791441194170380502e-02
4.711144836553404769e-02
-4.614558660915313304e-03
-5.622354036910298669e-02
-1.071640461136717515e-01
-1.561997094270634046e-01
-2.025608590719548685e-01
-2.456289202528693094e-01
-2.839325199332559668e-01
-3.177607392621689675e-01
-3.454753766722947761e-01
-3.668144029895399338e-01
-3.816075819644534350e-01
-3.885783048397372097e-01
-3.887920761084608934e-01
-3.809832034662753442e-01
-3.655854078876888957e-01
-3.430591572646553011e-01
-3.129538881910531312e-01
-2.767845262076508717e-01
-2.342712477434741591e-01
-1.864708660522323425e-01
-1.343385901743901489e-01
-7.849620438000842748e-02
-2.033214225898055671e-02
3.935460546873381649e-02
9.929872078030488325e-02
1.585098693798979719e-01
2.155868241728938761e-01
2.698866002167623623e-01
3.199699335403145550e-01
3.649307704956352705e-01
4.042687365708449443e-01
4.364423089350963902e-01
4.618843257280668135e-01
4.792020348382379780e-01
4.882514135854499893e-01
4.893050581345329553e-01
4.813310524527208978e-01
4.656786033548079295e-01
4.416073776839838372e-01
4.097711589365554685e-01
3.711217306300778063e-01
3.255319344914240909e-01
2.746897669580248280e-01
2.188075658097951570e-01
1.590160333189751529e-01
9.654802369680359764e-02
3.219226526403257127e-02
-3.274469140048730242e-02
-9.720106676064887985e-02
-1.600837997268046986e-01
-2.203916015824285424e-01
-2.767829681739855663e-01
-3.288762123067675569e-01
-3.752189258397309324e-01
-4.152378348579401912e-01
-4.485713652214559088e-01
-4.739118108746421809e-01
-4.919479252256029334e-01
-5.014609703930383855e-01
-5.026555560770846753e-01
-4.959517382270129393e-01
-4.806487196201641443e-01
-4.582128933922549607e-01
-4.281801139233298303e-01
-3.914648891936249320e-01
-3.490745099303386723e-01
-3.012141728428872622e-01
-2.495030410963909873e-01
-1.943879409149218696e-01
-1.370955991166295518e-01
-7.873682505038440138e-02
-2.028837438663831649e-02
3.719116660420190845e-02
9.262248409814297090e-02
1.450203916904088952e-01
1.937014703204233967e-01
2.373867668457629865e-01
2.760246874328899924e-01
3.084172521367131159e-01
3.342384646225265432e-01
3.535056351452077195e-01
3.651900312998213605e-01
3.702073579379487334e-01
3.677312090994486748e-01
3.582078295421770031e-01
3.422642231265652368e-01
3.195497320758844406e-01
2.914968456486756176e-01
2.579472969776502866e-01
2.199378627055488256e-01
1.783532096289296154e-01
1.336806812883086781e-01
8.725700786652347551e-02
3.960175190959172586e-02
-8.040455780852107104e-03
-5.495831648553781146e-02
-1.000159500925319467e-01
-1.424948938992115777e-01
-1.814924749799181336e-01
-2.160251736126646005e-01
-2.459039586769425079e-01
-2.698553729516702804e-01
-2.880461469165487287e-01
-2.996849609560693350e-01
-3.044585215371541365e-01
-3.028291407019265691e-01
-2.940075739101858376e-01
-2.789575759978936698e-01
-2.574334938923163452e-01
-2.299461530718904245e-01
-1.974112295249195181e-01
-1.599233147855992909e-01
-1.187959738463503223e-01
-7.444069156303542711e-02
-2.797398817817600691e-02
1.970773714764809115e-02
6.766569486819845602e-02
1.148552723665433040e-01
1.604620253072459590e-01
2.032557426618336605e-01
2.428439528086404620e-01
2.778751889918432139e-01
3.080430262722213541e-01
3.325634108569378022e-01
3.506094625966348910e-01
3.625038632600960375e-01
3.670870844415842216e-01
3.648895005408568926e-01
3.555511759165455032e-01
3.389857361226904509e-01
3.160923287580738039e-01
2.864479775000510209e-01
2.511628097103362212e-01
2.105182931667201607e-01
1.652225737383447579e-01
1.163733085952645963e-01
6.453852593897603518e-02
1.092895557419527874e-02
-4.360003338983850507e-02
-9.783297804699336853e-02
-1.509516149341139646e-01
-2.016122671275202838e-01
-2.490529960506680518e-01
-2.922303794231574381e-01
-3.299889509610675065e-01
-3.622101006419310987e-01
-3.874093036468472251e-01
-4.056880135734401982e-01
-4.163583524698589722e-01
-4.189158907638192986e-01
-4.141008473824330238e-01
-4.010139605219640302e-01
-3.806627750357282070e-01
-3.530934418641706873e-01
-3.187167527475315287e-01
-2.788533636855052844e-01
-2.335844199612298056e-01
-1.843678791122895233e-01
-1.319291226228150316e-01
-7.734353467319365905e-02
-2.184342440713543665e-02
3.363684772319794347e-02
8.794806192158577396e-02
1.401197374814877050e-01
1.889909734306099709e-01
2.340947159039598047e-01
2.741150801910903212e-01
3.088015173553237958e-01
3.374202580528281037e-01
3.592383172203176822e-01
3.747914437601291282e-01
3.828979664417569984e-01
3.842672881976795241e-01
3.786586200785607703e-01
3.659809142346960309e-01
3.474464903938812022e-01
3.224104177225703971e-01
2.921189619876874977e-01
2.568331716943424992e-01
2.170631963685250021e-01
1.740750371041844824e-01
1.280145757226595071e-01
8.009088927222324239e-02
3.093486927186844815e-02
-1.851458991596843795e-02
-6.748990762823808831e-02
-1.150352610033886780e-01
-1.604212981256971371e-01
-2.028811753426353337e-01
-2.413335319611034369e-01
-2.757975874727372489e-01
-3.048438248671370143e-01
-3.284498673002007596e-01
-3.460486657253985521e-01
-3.568262243758549834e-01
-3.615901752686996318e-01
-3.590803246924485492e-01
-3.499968658035009783e-01
-3.342968697208574258e-01
-3.118337974926313483e-01
-2.839164407510502142e-01
-2.500784604570757130e-01
-2.114968438164603337e-01
-1.687188208494032060e-01
-1.223843351351914521e-01
-7.373590291651568873e-02
-2.331718438830607254e-02
2.772315183658523308e-02
7.855091883663148367e-02
1.280164351403532130e-01
1.755689301536475511e-01
2.199275044576017857e-01
2.604928750176347396e-01
2.965955345940144983e-01
3.270597236211059688e-01
3.523247861062200337e-01
3.709165789154110215e-01
3.830178751099772572e-01
3.884279715409015288e-01
3.863945719979289817e-01
3.781392645677117414e-01
3.625863519850007211e-01
3.405731568057351333e-01
3.124312018332863761e-01
2.781285856281461299e-01
2.391138810724620090e-01
1.951843770222548846e-01
1.474786457223757341e-01
9.673549048817740859e-02
4.371343283816517267e-02
-1.051506101788621250e-02
-6.511112107219252376e-02
-1.190596536164422736e-01
-1.714847097410801546e-01
-2.210891812212275043e-01
-2.675952752447899319e-01
-3.094447715454477499e-01
-3.461483613864766440e-01
-3.770820394217706539e-01
-4.009813469493023197e-01
-4.184976959780517536e-01
-4.281039601721814414e-01
-4.301008867526290302e-01
-4.244764681384092242e-01
-4.106293484662150162e-01
-3.899452433230898851e-01
-3.616809121052020903e-01
-3.268766259557759346e-01
-2.862027476091353884e-01
-2.400254437649334549e-01
-1.899060580832808154e-01
-1.361955751357002420e-01
-8.021897794713060692e-02
-2.298577926256585580e-02
3.438825815952171322e-02
9.090432893645328249e-02
1.453779644500609869e-01
1.968499973482982779e-01
2.445178855479065994e-01
2.870753237420017312e-01
3.245827526673485397e-01
3.556023932558556866e-01
3.799796890445525932e-01
3.974892582289873966e-01
4.071834376837001335e-01
4.101187888867542375e-01
4.051886955271111201e-01
3.930499299053477058e-01
3.740816720563969744e-01
3.480448974812029861e-01
3.164557229632644075e-01
2.789653894174218829e-01
2.367173077561962602e-01
1.904728392794431402e-01
1.408044722676933258e-01
8.901407120830046038e-02
3.566328110984783029e-02
-1.807027738570693431e-02
-7.137441024617827146e-02
-1.230507975374820623e-01
-1.725201441509316702e-01
-2.185352202691474566e-01
-2.603133118834749515e-01
-2.973355864410187066e-01
-3.282559676494483103e-01
-3.534200012703936356e-01
-3.714758809364219760e-01
-3.823519407296995798e-01
-3.860923120354018412e-01
-3.818327199136334893e-01
-3.707152187717869252e-01
-3.519653369999110049e-01
-3.263063429770940993e-01
-2.943852826467582839e-01
-2.562712420211833986e-01
-2.134434442397429299e-01
-1.660808328903078945e-01
-1.154259383736105926e-01
-6.242214060630454919e-02
-8.048366088403161034e-03
4.654493344739340371e-02
1.003755192138560265e-01
1.522407393649289065e-01
2.014102810301270641e-01
2.464711165727102304e-01
2.871424098357329147e-01
3.221650935637689339e-01
3.509144754803159016e-01
3.732541811611749250e-01
3.879791324353903392e-01
3.957850836436035413e-01
3.957255099074653559e-01
3.880014613496434173e-01
3.731179260826549826e-01
3.506026510637358928e-01
3.217787943967127529e-01
2.864334112290564116e-01
2.454934232630864854e-01
1.998622703311082605e-01
1.500327372518540370e-01
9.736986772373970589e-02
4.250797512960377555e-02
-1.327535032031309722e-02
-6.907758926989034098e-02
-1.236160029741160266e-01
-1.760671668011055679e-01
-2.252316934115864422e-01
-2.700229076205811762e-01
-3.099735168048297629e-01
-3.435806379850323000e-01
-3.709520051331915980e-01
-3.909202262947035211e-01
-4.031007849203240845e-01
-4.077577383679543699e-01
-4.038845627129120652e-01
-3.925373050492708127e-01
-3.731822229896087917e-01
-3.463494915385032513e-01
-3.129823201231409779e-01
-2.730434585145366522e-01
-2.280848874733573117e-01
-1.784446986406598712e-01
-1.253086450845363187e-01
-6.982323904627393829e-02
-1.288891046416624706e-02
4.421984853720420383e-02
1.005382985992789024e-01
1.548180408673437147e-01
2.063548469993013446e-01
2.537448702850545468e-01
2.966389991053990927e-01
3.339349358281279989e-01
3.648550277018320909e-01
3.895194492642262141e-01
4.065592050639122434e-01
4.166795574650985490e-01
4.190861439380189069e-01
4.136913854330793172e-01
4.013644120088424305e-01
3.812393616750373027e-01
3.546881785773425277e-01
3.215161584398039674e-01
2.822624580239616043e-01
2.381434010245052080e-01
1.891229409404981132e-01
1.366261798927000948e-01
8.115771943164881708e-02
2.366308173862906317e-02
-3.478096294372262642e-02
-9.330496700858728620e-02
-1.509716461409427168e-01
-2.067319559651253358e-01
-2.595489629685273081e-01
-3.088911352343529093e-01
-3.532771641139126340e-01
-3.925835754615311091e-01
-4.256510178182546511e-01
-4.517347887436090614e-01
-4.710974549771298481e-01
-4.822652897599798427e-01
-4.859995963171427347e-01
-4.815949976150263323e-01
-4.689317131841069797e-01
-4.490693984311937559e-01
-4.211965506175939788e-01
-3.867231008238681267e-01
-3.457746586785274689e-01
-2.989218425512148447e-01
-2.476666068116941122e-01
-1.921690653465878140e-01
-1.339151141130904277e-01
-7.377729805730570689e-02
-1.269307499820183059e-02
4.806791009594424402e-02
1.075655679432997169e-01
1.649509688984489852e-01
2.190830073198620775e-01
2.691614957618222448e-01
3.147741594035509682e-01
3.546548828874507286e-01
3.889934432388779117e-01
4.168691141773381847e-01
4.379208713100964934e-01
4.527366327645847566e-01
4.601336640904230002e-01
4.611627770977231311e-01
4.553707571579571622e-01
4.428291313921215444e-01
4.247484722413726876e-01
4.003473717680255950e-01
3.709758283898156317e-01
3.367032218735971916e-01
2.979101703951779756e-01
2.558525458253437246e-01
2.104276848746672313e-01
1.627365564790188568e-01
1.133418809460428334e-01
6.285427604330059981e-02
1.212469021539877567e-02
-3.812524474289051557e-02
-8.734266112930016979e-02
-1.346096319025704147e-01
-1.791742413038776016e-01
-2.208200572105537829e-01
-2.581908559404649806e-01
-2.913756555504009027e-01
-3.194387997753270758e-01
-3.417272749168004387e-01
-3.587372717213608841e-01
-3.690428801784522705e-01
-3.733663496291752537e-01
-3.712035973964221136e-01
-3.623337276243910887e-01
-3.478707182182884661e-01
-3.269582297024363760e-01
-3.007786439725180783e-01
-2.695132392685523626e-01
-2.335268246175775109e-01
-1.941660231820706017e-01
-1.514510027485921340e-01
-1.065925919525321369e-01
-6.029300322451877636e-02
-1.331351453551388175e-02
3.338127682689287501e-02
7.903781554227905237e-02
1.229512611743011768e-01
1.643385202836608050e-01
2.024024156094679228e-01
2.370440904255840531e-01
2.671396525542117928e-01
2.927671483644220252e-01
3.134236820221293907e-01
3.285256939288644373e-01
3.388534850061799553e-01
3.432715212481521894e-01
3.424897921619236563e-01
3.364027665391370325e-01
3.247288078545813028e-01
3.087066580847395159e-01
2.875290816223977641e-01
2.621452861432589931e-01
2.328189313721724107e-01
1.996232295078871066e-01
1.637290880806162863e-01
1.249801933211093924e-01
8.422232714405736287e-02
4.203179475226997974e-02
-1.118164427212742229e-03
-4.446913893322951283e-02
-8.738520547929873317e-02
-1.293100097044349583e-01
-1.694743444267593491e-01
-2.071191453393960158e-01
-2.420296875575000950e-01
-2.730392690952428980e-01
-3.000166363580452078e-01
-3.222837804608295054e-01
-3.391872742860452261e-01
-3.510905897298463030e-01
-3.569347065052490553e-01
-3.571549766482801092e-01
-3.515329360256476687e-01
-3.399941033851031635e-01
-3.234078356329737614e-01
-3.014288156110595529e-01
-2.750225488970230447e-01
-2.445816944511312596e-01
-2.107398137398730775e-01
-1.745571761214629869e-01
-1.365119247280990877e-01
-9.769596560348442482e-02
-5.885995683206779461e-02
-2.093911736365872134e-02
1.532704334576340255e-02
4.906443174003172203e-02
7.966467123361975489e-02
1.064825300461574864e-01
1.289256722123637289e-01
1.469491605878870955e-01
1.598666348647082014e-01
1.679373240739334694e-01
1.709289460214290512e-01
1.689916488297543706e-01
1.627449059126759856e-01
1.520253744665974738e-01
1.378471519035010528e-01
1.203695870610952956e-01
1.004102122482375958e-01
7.882917764479013822e-02
5.594929564601708316e-02
3.299651414836879404e-02
1.024051868905424476e-02
-1.128384864814169913e-02
-3.104601990589528349e-02
-4.853475537535083262e-02
-6.295157619206104282e-02
-7.424316195747879266e-02
-8.166820308770400549e-02
-8.538260764863614405e-02
-8.501599759060979311e-02
-8.053464332929710645e-02
-7.224140394583949965e-02
-5.996104951106173697e-02
-4.444348910725492985e-02
-2.564146766956382217e-02
-4.152359375850289691e-03
1.949858508187352069e-02
4.496393927822395220e-02
7.137722340391738918e-02
9.846620246545162436e-02
1.254495443666128751e-01
1.518892211599692232e-01
1.771418239332323008e-01
2.007734003408785384e-01
2.223125837174512176e-01
2.412170782851669748e-01
2.574113069553570221e-01
2.701720602519578351e-01
2.797619357456492262e-01
2.856578973485055517e-01
2.876972831051709534e-01
2.862372758356462876e-01
2.806062708446119269e-01
2.715994665666152108e-01
2.588005703516386147e-01
2.422988592327253166e-01
2.227446065197388470e-01
1.996439782947704855e-01
1.738891424525041418e-01
1.453636299056991765e-01
1.142270281813174693e-01
8.119886382789029411e-02
4.616434341825167986e-02
9.710792518811073304e-03
-2.778291577147157243e-02
-6.613505430322919043e-02
-1.047304821854539436e-01
-1.430984467133759042e-01
-1.811174740607417177e-01
-2.178553936684806680e-01
-2.530552400063863505e-01
-2.863163777210891991e-01
-3.165990932091518051e-01
-3.442070978340410758e-01
-3.679003598316178958e-01
-3.873877297291556943e-01
-4.025978165767596928e-01
-4.123190501305208366e-01
-4.171868007946258894e-01
-4.161861405251898738e-01
-4.092184981039871938e-01
-3.966527980688371313e-01
-3.777458647997113395e-01
-3.533648570653590282e-01
-3.232679873354840083e-01
-2.878007531549817699e-01
-2.477457282517834536e-01
-2.033128105143745257e-01
-1.553970127802640488e-01
-1.047214233723336163e-01
-5.206425665751110432e-02
1.663135407377683284e-03
5.532762240090528805e-02
1.083624939833537776e-01
1.593969856375075655e-01
2.075833897595404376e-01
2.523127085011599435e-01
2.920683955412969879e-01
3.269439878008174594e-01
3.555439557196889977e-01
3.774475268007603246e-01
3.926486621088154383e-01
3.999844567132775364e-01
4.002812364930973255e-01
3.927157437514237071e-01
3.776259297836602191e-01
3.556075450488081491e-01
3.264239702660175491e-01
2.913705904307673511e-01
2.505158332759972462e-01
2.049316706382221520e-01
1.555302169453770256e-01
1.031425965732723216e-01
4.903227511088203289e-02
-5.923951551337874877e-03
-6.032907681995407223e-02
-1.133901150450821738e-01
-1.635933315249409048e-01
-2.102497525714393523e-01
-2.521454813737563638e-01
-2.882103385557550079e-01
-3.181830914952764044e-01
-3.406423176100028538e-01
-3.558332714700332966e-01
-3.628651563481742337e-01
-3.615862164814899748e-01
-3.524536784040587789e-01
-3.349126930985829587e-01
-3.101025382947664721e-01
-2.779381657429544905e-01
-2.393530072844338163e-01
-1.953213655695685003e-01
-1.464693809825063642e-01
-9.431978586338347903e-02
-3.959767814475497610e-02
1.610317728795192249e-02
7.182339287869113353e-02
1.260997410405585717e-01
1.777863452136159705e-01
2.258079993364379146e-01
2.687215513566286185e-01
3.061317020015912882e-01
3.365304917158030706e-01
3.597359221934563478e-01
3.749414829086918921e-01
3.816005944043629472e-01
3.801087576739839990e-01
3.697135258623535647e-01
3.512875095863224884e-01
3.247334960274311788e-01
2.906985999571936041e-01
2.501681606989860640e-01
2.035633621110226332e-01
1.523792175319397812e-01
9.729654146093186240e-02
3.986249489931692480e-02
-1.885556695257660509e-02
-7.743764986066536959e-02
-1.345219542145347225e-01
-1.890018606800303869e-01
-2.392049207212895157e-01
-2.845800418126240294e-01
-3.234289683485095934e-01
-3.552705502128591375e-01
-3.792013606651620239e-01
-3.943133562146385884e-01
-4.009705601483768977e-01
-3.980970383620179298e-01
-3.864308136862968923e-01
-3.658167345923030722e-01
-3.366123130358561477e-01
-3.000048131268865381e-01
-2.560946952329904991e-01
-2.064939820812306259e-01
-1.518771473584537846e-01
-9.364631804649811708e-02
-3.316505247153848923e-02
2.840997242242532944e-02
8.949941485630978633e-02
1.490428528645776629e-01
2.053910625265545908e-01
2.578355582581817740e-01
3.047988753861547440e-01
3.456229314141258668e-01
3.794648772161441919e-01
4.052465134675919955e-01
4.233423897307034833e-01
4.324618739038844639e-01
4.331656904011673692e-01
4.252052082107874442e-01
4.084774265348670719e-01
3.842207570659120774e-01
3.519312563772551417e-01
3.130170769336130254e-01
2.678862979787437482e-01
2.173485065273895178e-01
1.628607164088682058e-01
1.049030107759049979e-01
4.500426988243434734e-02
-1.595642297368595960e-02
-7.665088093491431720e-02
-1.360958693764747762e-01
-1.929956159497242252e-01
-2.464005661401406644e-01
-2.953281339310364628e-01
-3.384960147111463202e-01
-3.758427052810405233e-01
-4.057959411271391259e-01
-4.283973011386730811e-01
-4.430184707112155840e-01
-4.489836125643374976e-01
-4.472096296058900577e-01
-4.365747408705946686e-01
-4.181000216106613987e-01
-3.918496367963818505e-01
-3.580703414829290443e-01
-3.182671490635387013e-01
-2.723019912570071033e-01
-2.217075945784441893e-01
-1.672136791602222283e-01
-1.098630941449898757e-01
-5.101757569535737835e-02
8.439974275372900958e-03
6.720928292583451535e-02
1.243011941998788672e-01
1.783813634164419515e-01
2.289443735808849301e-01
2.745121169464039279e-01
3.146388367955736953e-01
3.485830500811240573e-01
3.752962189023015815e-01
3.953963762280132688e-01
4.074274801745458308e-01
4.119546793061790724e-01
4.087903014332350260e-01
3.975533973941400845e-01
3.796593609482656340e-01
3.542409956772064605e-01
3.225481673835423613e-01
2.849683627498150740e-01
2.419056529237349207e-01
1.948835326988012651e-01
1.439899871256481445e-01
9.059663241013762858e-02
3.547147142448459772e-02
-2.032816433826241387e-02
-7.585448115878981601e-02
-1.300470934938362522e-01
-1.819510644064757376e-01
-2.307491627831320113e-01
-2.751023074279617675e-01
-3.150342475334949044e-01
-3.489279703632320873e-01
-3.765911769978233514e-01
-3.975296823202960628e-01
-4.106632102823548069e-01
-4.169723937537304637e-01
-4.150164445563621629e-01
-4.054401153057042295e-01
-3.883432499344572353e-01
-3.634192702776265493e-01
-3.322041233069440991e-01
-2.941417981377166813e-01
-2.504778789960138696e-01
-2.019059407003870876e-01
-1.490955376730909443e-01
-9.346949952981688237e-02
-3.564673831089434919e-02
2.304461305193394871e-02
8.164170771894757594e-02
1.387888180108352576e-01
1.937946262020254218e-01
2.451927523723865798e-01
2.921522177166209211e-01
3.339117172426352420e-01
3.690719428008849001e-01
3.979594965124256811e-01
4.189949408833701372e-01
4.322238774885332480e-01
4.374539124087390429e-01
4.339236598238249698e-01
4.228269962839950602e-01
4.032416162431570195e-01
3.761086690115007514e-01
3.419098880684765529e-01
3.009194033873097696e-01
2.546912105545745542e-01
2.034006345912103275e-01
1.485064761692240776e-01
9.094918569615667581e-02
3.192790925869365415e-02
-2.732234514300532768e-02
-8.565075453635007108e-02
-1.417462652168365866e-01
-1.946869887022170120e-01
-2.429515936003299736e-01
-2.862213050031826023e-01
-3.229972813974267276e-01
-3.527793603666213307e-01
-3.751776692937144331e-01
-3.891250268245048938e-01
-3.954351116897584228e-01
-3.930277677808969305e-01
-3.824965271821695323e-01
-3.642138393998181622e-01
-3.380686019184034885e-01
-3.056519043655602785e-01
-2.667707004482963162e-01
-2.228080259873252422e-01
-1.746676557302409560e-01
-1.231602041837951550e-01
-6.984647178275887880e-02
-1.538224945410306133e-02
3.878936066679947170e-02
9.178551458551439945e-02
1.423435984840411006e-01
1.897424303271594836e-01
2.328873939485803235e-01
2.709678196848649412e-01
3.036095674340830164e-01
3.296598646698000734e-01
3.495495742045466869e-01
3.622384617564298748e-01
3.678126460369678941e-01
3.665425429586899875e-01
3.577897828567762062e-01
3.428224766662324452e-01
3.210607428965918109e-01
2.933055459423548617e-01
2.602809965737888920e-01
2.220677146694309267e-01
1.801103846039504852e-01
1.345360057224688766e-01
8.645737564476219106e-02
3.671599644789412531e-02
-1.389478176202993409e-02
-6.437960118816611621e-02
-1.139172442750534808e-01
-1.615070432946916490e-01
-2.065289713871555910e-01
-2.477490426461561035e-01
-2.849786002967369392e-01
-3.170483023992655691e-01
-3.434264584686551602e-01
-3.639780268173324895e-01
-3.775560937153428220e-01
-3.848110288297000858e-01
-3.848054773546040197e-01
-3.777030672566281666e-01
-3.639496508811229658e-01
-3.430611180484138822e-01
-3.162462652714486677e-01
-2.833011800823310722e-01
-2.450634897783807165e-01
-2.023808903129664660e-01
-1.557264479741489738e-01
-1.063406363348630701e-01
-5.486654563462284306e-02
-2.487341342481866335e-03
4.997133393059149248e-02
1.012547936197095988e-01
1.506636148351392090e-01
1.970366110440683605e-01
2.393578115688407837e-01
2.772659189149101477e-01
3.092797829804248000e-01
3.355760045248979417e-01
3.550362346644450606e-01
3.672608309427120021e-01
3.725475306098767758e-01
3.698511291884337693e-01
3.601463706586626179e-01
3.428686684751917069e-01
3.184267200428129163e-01
2.876337651654885530e-01
2.503782682526629610e-01
2.080073992607812672e-01
1.607746097015510522e-01
1.097771615673578949e-01
5.596589185341188655e-02
2.906981969120758791e-04
-5.609598702998874753e-02
-1.122187718024728331e-01
-1.666960208882038441e-01
-2.188951695087558713e-01
-2.671554749116612504e-01
-3.110257804008155769e-01
-3.492710351912153288e-01
-3.808017576713018659e-01
-4.056806148379747956e-01
-4.222638417376408104e-01
-4.310696636297082773e-01
-4.312459649040504828e-01
-4.225069717580414164e-01
-4.057331611128618953e-01
-3.800600726523292727e-01
-3.468491014751221013e-01
-3.061047363893869555e-01
-2.584960940502274429e-01
-2.054367430268052575e-01
-1.472169239122501083e-01
-8.546752909274857313e-02
-2.104874787853933116e-02
4.476708711103447036e-02
1.106906995990397935e-01
1.754782347612248161e-01
2.380330786837299983e-01
2.971025792041986358e-01
3.514585309427993298e-01
4.006255614427979839e-01
4.429899620860314191e-01
4.785629905149034746e-01
5.063019222881678383e-01
5.255506655831585494e-01
5.369361103979676253e-01
5.390879342582112210e-01
5.331072990061235251e-01
5.185710894779295144e-01
4.955387216241101123e-01
4.654512980752776863e-01
4.276056455793049160e-01
3.836175072056522417e-01
3.337898088760830051e-01
2.787138870416395187e-01
2.199885041963893229e-01
1.577822159094692811e-01
9.347636015825239175e-02
2.797531952722270843e-02
-3.788407894594120195e-02
-1.029888710688928316e-01
-1.663171472668027173e-01
-2.272505859499170389e-01
-2.845689358066710861e-01
-3.374531888724875972e-01
-3.856523068216514694e-01
-4.275953072909697283e-01
-4.635866353835911280e-01
-4.925070481768498709e-01
-5.138017590973003035e-01
-5.281345849827970840e-01
-5.339610314143632408e-01
-5.323535022392730243e-01
-5.227405271314755630e-01
-5.050518514455893948e-01
-4.806312011539854989e-01
-4.485987768796153574e-01
-4.104218287318214253e-01
-3.663398410068016142e-01
-3.168470146599979831e-01
-2.634771223232350024e-01
-2.063798922292137128e-01
-1.468858701986282544e-01
-8.592132113826725370e-02
-2.436124705128972501e-02
3.671364661113291766e-02
9.622878472220158796e-02
1.535291537035717579e-01
2.074588427848863548e-01
2.571243371481827800e-01
3.023961858185045815e-01
3.417226683462385450e-01
3.753875185774263601e-01
4.024939157347701135e-01
4.224432124856682957e-01
4.361062462677337548e-01
4.419960240315048416e-01
4.411661172744565373e-01
4.332592135812666223e-01
4.181249659755351678e-01
3.972131349309764303e-01
3.695899550794466970e-01
3.366097896808309953e-01
2.985004787863126396e-01
2.556011280977765199e-01
2.093135270716926510e-01
1.596119228917216026e-01
1.076631562769426176e-01
5.416322964001785145e-02
-9.251196448735454769e-05
-5.427355813853759758e-02
-1.074144387215850843e-01
-1.588621671797889323e-01
-2.077075156209048368e-01
-2.528786621402678847e-01
-2.943838264863901100e-01
-3.305982633177231844e-01
-3.615354679116470904e-01
-3.864509813968309837e-01
-4.043787509122341861e-01
-4.161606170649221337e-01
-4.202067534316847874e-01
-4.172035072389953525e-01
-4.069478233838208503e-01
-3.890413006435872734e-01
-3.648913997467522763e-01
-3.336806889641414919e-01
-2.965876497072154061e-01
-2.540983238363919705e-01
-2.066382446550522611e-01
-1.556597540244265554e-01
-1.014819679731431001e-01
-4.535350726338769484e-02
1.178577619690537176e-02
6.885106604388004092e-02
1.249777145478297158e-01
1.789055563743529864e-01
2.298473707602248228e-01
2.768927154134319113e-01
3.187921047715797096e-01
3.556800798924028562e-01
3.859439424471521884e-01
4.096050036719606768e-01
4.262033119626550959e-01
4.348751138473725963e-01
4.366872892519468308e-01
4.303667421285897743e-01
4.167261971093021433e-01
3.959217981161803346e-01
3.678583944946400841e-01
3.340315916707340405e-01
2.940564770367367076e-01
2.491953271365513478e-01
2.001195392597310829e-01
1.475897096136302433e-01
9.286099461713513692e-02
3.664229713817410139e-02
-1.985564698209499324e-02
-7.573779211506218023e-02
-1.296585516188413778e-01
-1.811273691117387674e-01
-2.286262342490757438e-01
-2.714845478301215476e-01
-3.089835368652526504e-01
-3.397872700378644639e-01
-3.643666565843484140e-01
-3.811298109868844208e-01
-3.902700283022098593e-01
-3.916154560334927925e-01
-3.845154511445134093e-01
-3.702354136829550391e-01
-3.479103375947208976e-01
-3.185944375191027134e-01
-2.827778961386013812e-01
-2.408734615098533927e-01
-1.944046172762131097e-01
-1.436397955054538600e-01
-9.006853030151780459e-02
-3.456301540469836064e-02
2.157133988846009556e-02
7.728775538762516772e-02
1.313865965155796844e-01
1.826306629152869565e-01
2.302950710285073810e-01
2.727949043580129018e-01
3.101134555966217343e-01
3.407475638332108092e-01
3.642770927468749198e-01
3.805516630361592822e-01
3.883991916337469763e-01
3.888677955222153426e-01
3.808405885991186235e-01
3.648569407486876304e-01
3.414305974765037832e-01
3.102666498326180911e-01
2.729897223343835111e-01
2.293477448502854177e-01
1.805500266312560775e-01
1.275404696049322883e-01
7.100123453788589889e-02
1.240092647956703500e-02
-4.753968563036674311e-02
-1.074837920840714528e-01
-1.664810670201262999e-01
-2.231584517670994472e-01
-2.768472369292798163e-01
-3.261739767667233281e-01
-3.702403206964353100e-01
-4.085409409448473306e-01
-4.395884929075826730e-01
-4.638192966298500530e-01
-4.798461796819344372e-01
-4.875833332134454912e-01
-4.872673203774028350e-01
-4.779356008190567273e-01
-4.609701115318869946e-01
-4.356311447475937904e-01
-4.026605775857303726e-01
-3.629961876327835180e-01
-3.165958943485198684e-01
-2.651807999547711181e-01
-2.089876249635312377e-01
-1.492031526200449654e-01
-8.704343736696337763e-02
-2.334964495880453850e-02
4.061830966836302292e-02
1.037904446159766403e-01
1.651104993840019075e-01
2.236509812430265143e-01
2.780790191276307777e-01
3.281533925444142796e-01
3.724371606929253731e-01
4.104476968460369912e-01
4.419098405365829985e-01
4.655329042647448623e-01
4.821169431160835517e-01
4.904172224664145596e-01
4.906678181153799057e-01
4.832623030023461275e-01
4.674687183714509309e-01
4.447014406895835603e-01
4.144062292500866329e-01
3.774416059781629529e-01
3.346579833534018555e-01
2.862587376578802356e-01
2.337077894052819182e-01
1.774257593318296911e-01
1.186474261647477990e-01
5.836681634209045511e-02
-2.260406124953151519e-03
-6.223085135801248446e-02
-1.202999630539398623e-01
-1.752970956991701801e-01
-2.264842340605308091e-01
-2.722616153669594752e-01
-3.124825822347626625e-01
-3.457054293707486625e-01
-3.713914405103680982e-01
-3.894505245904408275e-01
-3.986786076071894280e-01
-3.999419631973731293e-01
-3.923713738698064724e-01
-3.764478089019523410e-01
-3.528592635660084964e-01
-3.214477120695521384e-01
-2.838122400365145070e-01
-2.400567867022588286e-01
-1.915376574824715350e-01
-1.393827319839430756e-01
-8.449586308577100580e-02
-2.847863746376355643e-02
2.780748650682872414e-02
8.281384001765834668e-02
1.356314496389716129e-01
1.848683581767812667e-01
2.297267544356426106e-01
2.691782695871731690e-01
3.022653530333441196e-01
3.288290950203591190e-01
3.477124295855589797e-01
3.593015295165262746e-01
3.629460797273601491e-01
3.586856271260498441e-01
3.471907583808007125e-01
3.280188235537371821e-01
3.024911472365368059e-01
2.705929163691189188e-01
2.332234656222892943e-01
1.915193495340309915e-01
1.458409626660537584e-01
9.774566111415416980e-02
4.778958414790542009e-02
-2.796637371275965955e-03
-5.298247392152931334e-02
-1.018580886034970295e-01
-1.483929889846841155e-01
-1.917668140672518784e-01
-2.310285766971491017e-01
-2.657513545398769716e-01
-2.949220420799127940e-01
-3.184989140992476875e-01
-3.358067412695562304e-01
-3.465783154359173834e-01
-3.511917415076044602e-01
-3.489690671580674142e-01
-3.408138305383064948e-01
-3.265082148981890975e-01
-3.064934222543541087e-01
-2.817408218786333629e-01
-2.521410678810560024e-01
-2.190185074706003376e-01
-1.826581687434725709e-01
-1.438836195327960199e-01
-1.037200912492074606e-01
-6.259167947759636252e-02
-2.153018642030926633e-02
1.888333733817920690e-02
5.787743943639966915e-02
9.492409805022783420e-02
1.292617161832618766e-01
1.606279228478533216e-01
1.884166224533581069e-01
2.121713715013187063e-01
2.320759943376730083e-01
2.472526600663705887e-01
2.581958208290556778e-01
2.644531031684425049e-01
2.659061156091683253e-01
2.632487111238637212e-01
2.557322510651282021e-01
2.442367228889728015e-01
2.285728501843993232e-01
2.089166849594272790e-01
1.860870621087448162e-01
1.597825641023747634e-01
1.308752936258244237e-01
9.953747761263506688e-02
6.626090220948105403e-02
3.167207675308109094e-02
-3.819050057758954786e-03
-3.958380803522565383e-02
-7.508837782883359679e-02
-1.095449306916295162e-01
-1.427160093766189908e-01
-1.735356019585636567e-01
-2.017531565428692941e-01
-2.267021130116495531e-01
-2.475366281311423000e-01
-2.645221496762875102e-01
-2.764136381887216665e-01
-2.834410786686077932e-01
-2.851958273135470900e-01
-2.811920088665884609e-01
-2.721690899347998238e-01
-2.573537824946047214e-01
-2.374400792970902119e-01
-2.125480168752714449e-01
-1.828674382398599585e-01
-1.493355362857242685e-01
-1.120633614250109572e-01
-7.196601708576619294e-02
-2.963753146814299133e-02
1.407989549780785943e-02
5.848277554451475346e-02
1.026117561585154769e-01
1.457070052069892596e-01
1.869946742082506663e-01
2.253294882752303607e-01
2.605540141821226507e-01
2.912886673490797662e-01
3.172443221977011563e-01
3.378102714064563639e-01
3.520714129695646788e-01
3.604578723269947771e-01
3.618345495969804704e-01
3.565440620759102730e-01
3.444333728009495998e-01
3.253519736428482356e-01
3.001442978935824346e-01
2.685733217523766925e-01
2.315800359421361643e-01
1.896230984409023879e-01
1.435677881767989661e-01
9.435734249776803195e-02
4.291056444334909181e-02
-9.556440346703901079e-03
-6.212961358171001369e-02
-1.132516289030483930e-01
-1.623194821061496596e-01
-2.076831214714862095e-01
-2.484683177955043232e-01
-2.838078724317496526e-01
-3.123065295296787447e-01
-3.341137919900327713e-01
-3.477750697447873907e-01
-3.533626073575824034e-01
-3.506061681908752559e-01
-3.391454503525326292e-01
-3.199554686075024579e-01
-2.926083584402903170e-01
-2.582521481689571963e-01
-2.173907289230316286e-01
-1.709805277869125839e-01
-1.203669300373511331e-01
-6.634737807735024973e-02
-1.059694167408120613e-02
4.595313945537846112e-02
1.015434246513855776e-01
1.552402966102793269e-01
2.055191995454085374e-01
2.511037960314252970e-01
2.912450829246328587e-01
3.243379125277987551e-01
3.504709985968220698e-01
3.682210394406892906e-01
3.774331773451454763e-01
3.780088212995213470e-01
3.693238689642974193e-01
3.525263902832980190e-01
