BVP Signal
-1.759637310619122097e-02
7.541773780652960557e-04
3.173656390039272801e-02
6.504457755224596349e-02
9.256525792888140036e-02
1.118290077104037716e-01
1.263132077305096357e-01
1.401397637028973797e-01
1.529764641579685058e-01
1.620506785373178049e-01
1.649178070303773946e-01
1.612039421486707313e-01
1.528940223989085911e-01
1.412541390484224890e-01
1.258470032743869982e-01
1.058323337078086734e-01
8.087955388810010027e-02
5.183925922189747126e-02
1.993130406986447570e-02
-1.395503006718550043e-02
-4.958317606372907027e-02
-8.677011657519337340e-02
-1.245105986887707350e-01
-1.619222674166194698e-01
-1.981077893172984994e-01
-2.319884334952058702e-01
-2.633224153781566490e-01
-2.912855840060700752e-01
-3.148436116402122398e-01
-3.339628118154307490e-01
-3.477870601018608898e-01
-3.558314380912827035e-01
-3.583295952903299275e-01
-3.546716806688872126e-01
-3.450127302981319533e-01
-3.297237847307247782e-01
-3.086353650705554452e-01
-2.825057914209635479e-01
-2.517420185085133544e-01
-2.166619951332109384e-01
-1.784138659100509283e-01
-1.373925611923124679e-01
-9.430639037406714220e-02
-5.030668614232985947e-02
-5.851613861320603682e-03
3.822436805012316419e-02
8.110010565258540804e-02
1.221875952468226001e-01
1.609081799056268913e-01
1.967305190330990161e-01
2.291158238719235851e-01
2.579786756231183253e-01
2.828980673257314726e-01
3.035401669030052818e-01
3.204140088959438470e-01
3.329625331775030173e-01
3.412142552099862169e-01
3.460362611694312585e-01
3.467098796618630629e-01
3.437186713182413533e-01
3.377216560214854613e-01
3.281490726944592540e-01
3.157535939479963472e-01
3.007919065511502899e-01
2.828965211246483591e-01
2.629358035351458955e-01
2.407694997554649108e-01
2.162553986164265085e-01
1.902179028983628506e-01
1.623182831745917376e-01
1.326569855490737360e-01
1.017838848298511928e-01
6.957926190435384517e-02
3.624307783522182080e-02
2.123798432494494737e-03
-3.250952456376907107e-02
-6.751620200045674314e-02
-1.024435017386139679e-01
-1.367511651440909415e-01
-1.704478030754275619e-01
-2.027458710190490621e-01
-2.330187540457662743e-01
-2.615061920443622068e-01
-2.870008678737613339e-01
-3.090978940616889159e-01
-3.280460699048859396e-01
-3.425773314782569745e-01
-3.526856336094187361e-01
-3.584201687078665266e-01
-3.588828583570506381e-01
-3.544812014881414397e-01
-3.451401671670591975e-01
-3.304746686049490068e-01
-3.112978983682377909e-01
-2.875209567117994469e-01
-2.592862047484763011e-01
-2.277067060781905461e-01
-1.927727313427800571e-01
-1.550928501809619997e-01
-1.157208566934807975e-01
-7.494392465594454378e-02
-3.352956989086548073e-02
7.658439772166486526e-03
4.812625510630531844e-02
8.724726065641974504e-02
1.243259640593346038e-01
1.588935817281502128e-01
1.906808014335342194e-01
2.190878266228526994e-01
2.438569719308756878e-01
2.652016908054865563e-01
2.824928086158934870e-01
2.958810551430531288e-01
3.058014475039645408e-01
3.117231755667259629e-01
3.142066398750628653e-01
3.136066108825135701e-01
3.095830966694282926e-01
3.030015005343491552e-01
2.939462374908414777e-01
2.822507946272164170e-01
2.689607976233022724e-01
2.537960797205946473e-01
2.367233657419233195e-01
2.188334638951908162e-01
1.995097775823758690e-01
1.789154799271851504e-01
1.577440698063109215e-01
1.355114750563292669e-01
1.123792136238842415e-01
8.871416528060607765e-02
6.423628562564800970e-02
3.903501864552935685e-02
1.337707741649417532e-02
-1.283216647435210522e-02
-3.960290829315631783e-02
-6.652492686005265221e-02
-9.354665835012655750e-02
-1.207999705613915786e-01
-1.475331744236852705e-01
-1.737181499073664759e-01
-1.993264713259554899e-01
-2.234696973295840494e-01
-2.461875792806249297e-01
-2.671760831594153229e-01
-2.855744742168843109e-01
-3.015698852615067427e-01
-3.145902159804353504e-01
-3.239593421120670058e-01
-3.300967176262841751e-01
-3.322559680456111386e-01
-3.300843997079226377e-01
-3.242736754482615225e-01
-3.140538049541209964e-01
-2.995819749011792155e-01
-2.814615053647173681e-01
-2.593808360769798149e-01
-2.338257836256301403e-01
-2.053673796196708590e-01
-1.741000399153323219e-01
-1.407131408710344533e-01
-1.057745220395441277e-01
-6.964742365538034718e-02
-3.303593503872216675e-02
3.475962841665524578e-03
3.944327115265974099e-02
7.434606713086405749e-02
1.075553605638298466e-01
1.387841043791759599e-01
1.677020256309070534e-01
1.937337259430342573e-01
2.169124350720355310e-01
2.369868865356745680e-01
2.535518414496713002e-01
2.670254554730552843e-01
2.770890990095325468e-01
2.835726696178542117e-01
2.872560398365500700e-01
2.876188461757600567e-01
2.847730957373627581e-01
2.796579499708139460e-01
2.715866952851536120e-01
2.610029953042243278e-01
2.485168957601677220e-01
2.336555417342824625e-01
2.169735937505846146e-01
1.987402077411243306e-01
1.787007929603090517e-01
1.574122548697855228e-01
1.349174732860429771e-01
1.111572756606290374e-01
8.659524543242205774e-02
6.124865821222963413e-02
3.520470413177317903e-02
8.756433533640313460e-03
-1.787673144127401026e-02
-4.459152869375496153e-02
-7.114813153603383178e-02
-9.710897574070448401e-02
-1.224616223330128040e-01
-1.468259888191833507e-01
-1.696772830143882249e-01
-1.911541463550623654e-01
-2.106282992490928208e-01
-2.276342206706112870e-01
-2.425101429034680067e-01
-2.543781297472968994e-01
-2.630236120155853841e-01
-2.688500244216450730e-01
-2.709846882659724954e-01
-2.695789389640069200e-01
-2.648895538347995071e-01
-2.563995399868306269e-01
-2.445570969167378539e-01
-2.295337151461538661e-01
-2.111989926197261613e-01
-1.902409978619903075e-01
-1.668092341464987305e-01
-1.411002434590659105e-01
-1.139224538637971240e-01
-8.544875936828735807e-02
-5.609131069318258611e-02
-2.655714855671582192e-02
2.865982115491244597e-03
3.176629682164688884e-02
5.962193445382282797e-02
8.607872116420217656e-02
1.109247406813173853e-01
1.337622101755744641e-01
1.543064854090987204e-01
1.726604516173062820e-01
1.884428634428477467e-01
2.015286599467689677e-01
2.123798147759159982e-01
2.204934330957048494e-01
2.260147442224976211e-01
2.295162846942668256e-01
2.304642621469288888e-01
2.292667156083390001e-01
2.263079175904938733e-01
2.211643665160470118e-01
2.143998676224154187e-01
2.061059688266660139e-01
1.959791951964779122e-01
1.846560550283983804e-01
1.719369505107449791e-01
1.576434019049451907e-01
1.423988135744865824e-01
1.258257381907446071e-01
1.079138229398602239e-01
8.906134084460626266e-02
6.904770088106085280e-02
4.792399956637157649e-02
2.594392611613034749e-02
3.137918900206419781e-03
-2.045217591676649904e-02
-4.451274552207271085e-02
-6.880362921108001961e-02
-9.333987864674606061e-02
-1.175741561508437394e-01
-1.411441094216865089e-01
-1.641805606157260289e-01
-1.858088243078405977e-01
-2.057597810556923423e-01
-2.240782498109344933e-01
-2.398372078582967082e-01
-2.529585991678905410e-01
-2.633284183459793093e-01
-2.701956235473912948e-01
-2.737508014738251894e-01
-2.737686079990847565e-01
-2.698068353825039956e-01
-2.623741992729706207e-01
-2.512073658984254609e-01
-2.362369466247652983e-01
-2.182644210428586473e-01
-1.970559273893298657e-01
-1.729633361263169522e-01
-1.467500424703833128e-01
-1.184794253040889478e-01
-8.870105935269115283e-02
-5.807762922557425933e-02
-2.688910011337920791e-02
4.314060673382309752e-03
3.497533627982080118e-02
6.475083994199454240e-02
9.327785050125658728e-02
1.200632052976469272e-01
1.448428686548207112e-01
1.675876314647887499e-01
1.877659666869418154e-01
2.053809241608944847e-01
2.205628373623454985e-01
2.328474746754788383e-01
2.425383975980811013e-01
2.497383160641832300e-01
2.540947733121007301e-01
2.561945454925294574e-01
2.559408619349914371e-01
2.531126990724514858e-01
2.485172250457705068e-01
2.417542185808128630e-01
2.327498974921376473e-01
2.224110483690782125e-01
2.100647995420004688e-01
1.958873047192956629e-01
1.804345157610444117e-01
1.632258044381053597e-01
1.444969286458052393e-01
1.245366510543917948e-01
1.030846209910770972e-01
8.038285739060938018e-02
5.662503536652871428e-02
3.176701082418503796e-02
6.002031878785035746e-03
-2.036500631559551300e-02
-4.721306463951341348e-02
-7.443554928098633505e-02
-1.014565483545742802e-01
-1.281445192064016581e-01
-1.543103447743496837e-01
-1.792302762208081712e-01
-2.028544223160897442e-01
-2.248087885360580684e-01
-2.443727827659560869e-01
-2.616742501051441128e-01
-2.761311248982842304e-01
-2.871817560507227696e-01
-2.952118006733484012e-01
-2.994798977896176440e-01
-2.997465984413600903e-01
-2.965975477019502371e-01
-2.893253918131294400e-01
-2.781378737822788327e-01
-2.635458331022455525e-01
-2.452344350518175231e-01
-2.237256996517520413e-01
-1.994792776817532198e-01
-1.725401601796440199e-01
-1.436300226466350471e-01
-1.131704671524387251e-01
-8.145270592450565283e-02
-4.922323923263599577e-02
-1.688135596836096153e-02
1.519391360973179617e-02
4.643191513322646180e-02
7.640584150173959643e-02
1.048598754615408385e-01
1.314320892418274767e-01
1.557151839082145384e-01
1.777356104961343719e-01
1.972235303843666299e-01
2.138871916224922565e-01
2.280975060116157138e-01
2.395178111487650252e-01
2.480248287248331129e-01
2.543213545667578623e-01
2.578507224475434234e-01
2.587374410918323875e-01
2.577449461123448304e-01
2.542007317739669592e-01
2.484827049027458767e-01
2.410489197110503579e-01
2.313761886824901581e-01
2.199489713090994614e-01
2.068975399873788645e-01
1.918774429327003150e-01
1.754033073031138756e-01
1.573790441006066576e-01
1.376518492076316547e-01
1.166926148629571502e-01
9.437355573671026010e-02
7.073104646701366960e-02
4.608713976751078328e-02
2.055025495178437744e-02
-5.774098674354549710e-03
-3.260251630490498820e-02
-5.955748530544122121e-02
-8.657350928002943702e-02
-1.132216605607929694e-01
-1.389677649663131898e-01
-1.638771700020499322e-01
-1.872550491515793114e-01
-2.085602848120538533e-01
-2.280803685409172887e-01
-2.448215478519900068e-01
-2.584882643225416277e-01
-2.693897586333157679e-01
-2.765571233189078604e-01
-2.800482040609136303e-01
-2.800415697795871628e-01
-2.758850806404797296e-01
-2.679846307826226348e-01
-2.564145530134013806e-01
-2.409158320128885755e-01
-2.221945610233919122e-01
-2.002695637431225473e-01
-1.752624583991084506e-01
-1.480362454685966722e-01
-1.186297427829653417e-01
-8.748105140417015979e-02
-5.529170134838447964e-02
-2.234037737209092905e-02
1.088487462237666681e-02
4.387741644437793964e-02
7.616257264719492048e-02
1.074371408640419634e-01
1.372678332248984390e-01
1.651247132409626728e-01
1.910662003570537670e-01
2.145475782918078167e-01
2.351265932399577707e-01
2.533197114644260561e-01
2.682793080533620311e-01
2.799095000651578014e-01
2.887674676634592874e-01
2.939898749792140831e-01
2.958313602290514321e-01
2.946053085211441935e-01
2.896274732163221510e-01
2.814399810839257055e-01
2.700242306901543543e-01
2.549778334777605404e-01
2.370257394192608058e-01
2.158988211356275833e-01
1.915319068115799994e-01
1.646840770574698742e-01
1.350729525694205624e-01
1.029966133378186210e-01
6.895506751830754455e-02
3.310513441201416718e-02
-4.146585620734485889e-03
-4.236698921651649297e-02
-8.099673051969991100e-02
-1.196884246558998083e-01
-1.578357989880779244e-01
-1.946469565605493390e-01
-2.299917224305705610e-01
-2.629236812650220800e-01
-2.926597502636652526e-01
-3.194161967970780003e-01
-3.418762886421485847e-01
-3.596861223716547595e-01
-3.729951811964728470e-01
-3.807212393648714555e-01
-3.829882146448325697e-01
-3.798657947805416102e-01
-3.707341940997068708e-01
-3.562429548011317726e-01
-3.364242403303903117e-01
-3.112222830840400412e-01
-2.817279754901997890e-01
-2.479938862032382563e-01
-2.104827064331947772e-01
-1.704882020193225212e-01
-1.281622007437315802e-01
-8.433687453724170169e-02
-4.005488972601325970e-02
4.224339511588820484e-03
4.772344716950996379e-02
8.966025418989256868e-02
1.294968172662675776e-01
1.667913788692803045e-01
2.009434015225217696e-01
2.315503158504598757e-01
2.586981092087711209e-01
2.818015961920978807e-01
3.007641695149668171e-01
3.161858631586270119e-01
3.273576137608250058e-01
3.346715368891139408e-01
3.387188707608191351e-01
3.389284755918923198e-01
3.360468976298865429e-01
3.303787102757152483e-01
3.215134781537778985e-01
3.104243225054589272e-01
2.969807625354149994e-01
2.809396671377386578e-01
2.633499362894451412e-01
2.436779670743183246e-01
2.218849646761698602e-01
1.988338779309336002e-01
1.739132619417331771e-01
1.472695950697530676e-01
1.193593605238449373e-01
8.992049322243941822e-02
5.909567076229747806e-02
2.721475815303026069e-02
-5.649322851890813124e-03
-3.941582055003763768e-02
-7.358065233586812137e-02
-1.078157771248028779e-01
-1.421647235608230198e-01
-1.757221141366090145e-01
-2.080966481857849937e-01
-2.393764839168531777e-01
-2.683168327639106066e-01
-2.947159313145261694e-01
-3.184248218427837007e-01
-3.382788352791753494e-01
-3.543532664995365233e-01
-3.662733918082580753e-01
-3.731822872316025719e-01
-3.755396924266273806e-01
-3.728354919663986466e-01
-3.646778059410551442e-01
-3.519389794066205002e-01
-3.340911597882755824e-01
-3.113199518371558283e-01
-2.846386078700381961e-01
-2.538012942074342471e-01
-2.194567539621647967e-01
-1.824998911854903150e-01
-1.431247392726053558e-01
-1.021529367934722737e-01
-6.035917805243840722e-02
-1.819396526312182238e-02
2.360363894536396390e-02
6.434933049191524090e-02
1.035541195300339334e-01
1.408027709251674642e-01
1.754155930828681098e-01
2.071085438771158582e-01
2.358234000899281091e-01
2.608788772142143220e-01
2.823924277316270381e-01
3.004163687572053432e-01
3.144129878205483841e-01
3.249237553986775717e-01
3.318775864015307553e-01
3.349419552618120299e-01
3.350278273712549160e-01
3.317583693555322677e-01
3.250297099802978984e-01
3.160004197795170944e-01
3.039246756320218013e-01
2.890321268938353394e-01
2.722283106126069385e-01
2.528273356037190611e-01
2.312442150717895495e-01
2.079604531443217941e-01
1.825808878372797983e-01
1.555413738865056850e-01
1.270719508902842243e-01
9.706093214590798268e-02
6.587789356762674409e-02
3.376032928789014786e-02
8.276506623304796112e-04
-3.268438055903517131e-02
-6.627322612378568067e-02
-9.973678454490018941e-02
-1.328691495225443608e-01
-1.648866196281171537e-01
-1.956681842643637481e-01
-2.248365806397674693e-01
-2.515363422844552055e-01
-2.758361327765385118e-01
-2.971155313974450651e-01
-3.146577612570883864e-01
-3.288230113701915425e-01
-3.387833342734514197e-01
-3.441407279969840860e-01
-3.456071840229426040e-01
-3.422500574159997866e-01
-3.342245874078796364e-01
-3.221967037115504584e-01
-3.056354752118775608e-01
-2.851084954349228373e-01
-2.611775470127944976e-01
-2.337735027854407344e-01
-2.037179142984505420e-01
-1.714846779895698448e-01
-1.373478412018818429e-01
-1.021715419802174118e-01
-6.637365117533208791e-02
-3.038839980235095994e-02
5.116373148476174512e-03
3.970262624486473740e-02
7.300168979533268321e-02
1.046602129010095750e-01
1.341715618106179286e-01
1.614652164857449668e-01
1.863338179136844741e-01
2.083175313745202484e-01
2.277325928087568507e-01
2.442886514768548012e-01
2.576602875745359067e-01
2.685418837126288816e-01
2.763550732682795719e-01
2.809723381501423312e-01
2.833528271299510237e-01
2.825554241482782780e-01
2.788370418261251205e-01
2.727734177605584120e-01
2.636327706412683325e-01
2.518347466600153184e-01
2.375563185641035857e-01
2.203682889020958657e-01
2.007609405474026221e-01
1.786774029257142127e-01
1.540373781274551324e-01
1.273042508949851492e-01
9.847449530194962719e-02
6.779276257402007400e-02
3.560399130679023361e-02
2.263250463007293600e-03
-3.182293816868053682e-02
-6.633632755149138083e-02
-1.005258693036359396e-01
-1.340304629933593006e-01
-1.663623193011812273e-01
-1.966002291819440861e-01
-2.245960498498565938e-01
-2.496105943941987482e-01
-2.708267936942037046e-01
-2.884510702409758265e-01
-3.015336090997033924e-01
-3.096434896286106575e-01
-3.133145445620063585e-01
-3.116143727934183039e-01
-3.047289545233418662e-01
-2.931612691863986764e-01
-2.764855776237545859e-01
-2.553666662736202020e-01
-2.302693268416345640e-01
-2.012831268035922549e-01
-1.693922195788642449e-01
-1.350195632850601513e-01
-9.864201952896323178e-02
-6.130777496505730034e-02
-2.341025949993377764e-02
1.439601338538734621e-02
5.131112901333811926e-02
8.688924048266338795e-02
1.205927875699326357e-01
1.519818534826490319e-01
1.805732305559967776e-01
2.062058916640689965e-01
2.286437253061242569e-01
2.475025004936379225e-01
2.631082962455134622e-01
2.751966853669716162e-01
2.835717269273280161e-01
2.890467170041005618e-01
2.910960297549237130e-01
2.898243732574621867e-01
2.862203692477074402e-01
2.795600543002731420e-01
2.702883469846900644e-01
2.590658139510075841e-01
2.452987233075593076e-01
2.295880160421792104e-01
2.121790319313351936e-01
1.926556919026290449e-01
1.716600929960371280e-01
1.491087040000841357e-01
1.247881077204041345e-01
9.927042095791990817e-02
7.237535732259819943e-02
4.410227256812815355e-02
1.481622520667918823e-02
-1.540800290015332738e-02
-4.648513905281819597e-02
-7.811933779625084007e-02
-1.098991242859861384e-01
-1.417708479594190218e-01
-1.732582282813721064e-01
-2.037302439966222067e-01
-2.332570401413927574e-01
-2.610218035997505237e-01
-2.863498726916933190e-01
-3.095354135229130832e-01
-3.293903728313915535e-01
-3.454972794488113674e-01
-3.581672295086492097e-01
-3.662294206532720198e-01
-3.696749078943277755e-01
-3.686781322511740733e-01
-3.624602550721707783e-01
-3.514352467839237937e-01
-3.357132533753188763e-01
-3.150057940636539766e-01
-2.901253501385392952e-01
-2.611908054830098802e-01
-2.283819121178759792e-01
-1.927765038566348343e-01
-1.545531950013268874e-01
-1.142666273906801644e-01
-7.291399975049364657e-02
-3.089671914978974615e-02
1.115802761737431925e-02
5.243848011173479762e-02
9.242327198187838544e-02
1.306810069970831822e-01
1.665439389330206077e-01
1.995616122874150911e-01
2.296867178402210441e-01
2.562881377168313990e-01
2.791335736294525138e-01
2.986586688583016125e-01
3.141159125361350779e-01
3.256918683942847670e-01
3.339443959021588526e-01
3.382132409618848201e-01
3.390684568616277317e-01
3.368874171733138301e-01
3.312077165805805690e-01
3.228716034398485535e-01
3.119247695109159668e-01
2.981050503057958156e-01
2.824015185425815533e-01
2.645019095889663552e-01
2.443257744550008104e-01
2.228725828235398609e-01
1.995851786696174468e-01
1.746210816308176317e-01
1.485969383528382148e-01
1.212044561914208674e-01
9.262054164144999102e-02
6.322642239539871811e-02
3.299470886605838232e-02
2.034286408744426927e-03
-2.925363088014396040e-02
-6.067976854294054867e-02
-9.226286305137301746e-02
-1.233468947404865040e-01
-1.536279050022937853e-01
-1.833033178650578243e-01
-2.113129032192545553e-01
-2.375056283697229154e-01
-2.618905472384328581e-01
-2.833892173110124091e-01
-3.020445402207630470e-01
-3.176093252173397552e-01
-3.291909450309574714e-01
-3.371133901158451240e-01
-3.409187902485085742e-01
-3.400622432806844064e-01
-3.351987929926655840e-01
-3.257707055555931763e-01
-3.116797665757767843e-01
-2.938643554805115965e-01
-2.718213812911751681e-01
-2.459815913085601213e-01
-2.171543986008600824e-01
-1.853046369643623903e-01
-1.511067477515859181e-01
-1.152675069218693504e-01
-7.809003489900218087e-02
-4.028708881343891213e-02
-2.495139808624327604e-03
3.483341858393491919e-02
7.117201578522053262e-02
1.058947164198397045e-01
1.386074130965103124e-01
1.691322513464298682e-01
1.967806580827587415e-01
2.214669182955861793e-01
2.431885891570814140e-01
2.613483531278585348e-01
2.762455934413935443e-01
2.878583983743557839e-01
2.957625354807895679e-01
3.006426550223306737e-01
3.022681691204903154e-01
3.004278646750020432e-01
2.961174781067799633e-01
2.887791713658398596e-01
2.784652749614693890e-01
2.662250743701042310e-01
2.513066756404395141e-01
2.340656082651177972e-01
2.151427803663928939e-01
1.940387003097450158e-01
1.711869693280623217e-01
1.468993702432176696e-01
1.209423940010835863e-01
9.372840404557830629e-02
6.543328174551329979e-02
3.606182240183020138e-02
5.911135056838087709e-03
-2.472968094249144294e-02
-5.570169400311477531e-02
-8.685575569178184685e-02
-1.176019821990904324e-01
-1.478059034955689355e-01
-1.772553797958156263e-01
-2.051778827739797473e-01
-2.315680407109903249e-01
-2.559912262977318553e-01
-2.776645300740003819e-01
-2.968059318740965402e-01
-3.127029419300061397e-01
-3.247428393664501534e-01
-3.334421499486253659e-01
-3.378585997562809085e-01
-3.377721328372882970e-01
-3.338239057103667973e-01
-3.251700792072457213e-01
-3.120719685853166614e-01
-2.950608389882546367e-01
-2.737413270497620066e-01
-2.487367736148619057e-01
-2.205155214146709564e-01
-1.891040891982075922e-01
-1.553722097125527501e-01
-1.197576208682331056e-01
-8.258531170893525231e-02
-4.478549701644306269e-02
-6.783470392036080460e-03
3.097235973760112393e-02
6.774024284759791459e-02
1.030480154380447599e-01
1.365830870102613948e-01
1.678373940629195871e-01
1.963762477749513846e-01
2.222141433014582779e-01
2.449716500276114539e-01
2.643654523457691363e-01
2.808285688378843181e-01
2.939387442182597732e-01
3.036166693799170480e-01
3.107233398820709036e-01
3.145948683439102056e-01
3.154706444408405530e-01
3.142426439509424241e-01
3.101752129865706920e-01
3.037737805894132337e-01
2.955974649581683544e-01
2.850211979336131907e-01
2.726794437765482915e-01
2.587157664265474777e-01
2.426313718219254012e-01
2.251057922392124822e-01
2.059256049673979516e-01
1.847426137166124638e-01
1.622029166287370094e-01
1.379329774816462628e-01
1.117987106288562543e-01
8.422436909719556442e-02
5.508698344226820032e-02
2.435373975517175771e-02
-7.608949045920049281e-03
-4.059139346929204611e-02
-7.459469007905940308e-02
-1.090640766713480980e-01
-1.435287130571147041e-01
-1.780320619557044515e-01
-2.116602799410500224e-01
-2.438232978069197476e-01
-2.747088773235396020e-01
-3.029939461839498693e-01
-3.282903222173983449e-01
-3.506490035820270523e-01
-3.688032782279955235e-01
-3.826759677085043165e-01
-3.921451672164311120e-01
-3.962915309712010670e-01
-3.954415442477732245e-01
-3.893940688134676642e-01
-3.777200266798596551e-01
-3.611837345338251848e-01
-3.396045336149589589e-01
-3.130753834029512683e-01
-2.827235350916556533e-01
-2.484576791340438184e-01
-2.108836267559227040e-01
-1.710599053645028844e-01
-1.292646249175154749e-01
-8.627853820317650524e-02
-4.301973361953792541e-02
3.196540926513058434e-05
4.218846265102936532e-02
8.268061980161367508e-02
1.210499963615388475e-01
1.569314125372368862e-01
1.896530460200344936e-01
2.189651789767727563e-01
2.449743483746137374e-01
2.669899304507945548e-01
2.852020900071208787e-01
2.998749003436523286e-01
3.104983309637868727e-01
3.176690487320789624e-01
3.215716909189902939e-01
3.219034818168164391e-01
3.195850839816755107e-01
3.145195061650529200e-01
3.065924693781720278e-01
2.969133057306994616e-01
2.850020031873125581e-01
2.709075991570080721e-01
2.557302578486034816e-01
2.386945798866920154e-01
2.200723882895956884e-01
2.004672169406701010e-01
1.793421898419727545e-01
1.569502115210560933e-01
1.335649753774188764e-01
1.088980319319571288e-01
8.313394151709546653e-02
5.647376532822213913e-02
2.885753462557057170e-02
3.691051292904380535e-04
-2.859627212551175274e-02
-5.793870775777532067e-02
-8.766243202052097228e-02
-1.170162002878622209e-01
-1.459186569068066097e-01
-1.741948711485447332e-01
-2.009511037597365712e-01
-2.261937290933226374e-01
-2.494713270051059917e-01
-2.699325871941510302e-01
-2.877713007996426930e-01
-3.022794951769389726e-01
-3.128303770164292397e-01
-3.198956181243441388e-01
-3.226151559406205127e-01
-3.207700483659702839e-01
-3.150326237955884401e-01
-3.046517728766274802e-01
-2.899226934438093872e-01
-2.714398650453981321e-01
-2.489307179371617051e-01
-2.230354759270438136e-01
-1.943027448464885176e-01
-1.628663525358070852e-01
-1.295624106037037149e-01
-9.489988895196288521e-02
-5.926330867786658990e-02
-2.347361801917063895e-02
1.199282430990909754e-02
4.669607486542001751e-02
8.005580689174415787e-02
1.115825333530042485e-01
1.410247214047006536e-01
1.680587273884331379e-01
1.922445830782164022e-01
2.136860888057105501e-01
2.321707709020111587e-01
2.473970353536816824e-01
2.598837652155907008e-01
2.693240515371886357e-01
2.755930638219077355e-01
2.795992592934567478e-01
2.807371641121357841e-01
2.791447150494780205e-01
2.757734105301937189e-01
2.698437521432300867e-01
2.617527395597989415e-01
2.520706406152872781e-01
2.401411738882625047e-01
2.264621589222156062e-01
2.111941542127151461e-01
1.938512124851651253e-01
1.749561165965293208e-01
1.543841704313722030e-01
1.318582238569364351e-01
1.078524552674063608e-01
8.220188833092223479e-02
5.486128222207530686e-02
2.615109919005876443e-02
-3.800212082550918219e-03
-3.492482895855260339e-02
-6.690175666921265030e-02
-9.926206484173820399e-02
-1.319338425682905214e-01
-1.643782255520229163e-01
-1.959088126578936995e-01
-2.265569837868453285e-01
-2.554406547649025749e-01
-2.818413976655388953e-01
-3.060147015569152362e-01
-3.267304733227665570e-01
-3.435574529571800428e-01
-3.567582739400966818e-01
-3.651797032743238081e-01
-3.688128841024535531e-01
-3.678127472416806709e-01
-3.614387208978770971e-01
-3.501261604702883834e-01
-3.339858117398445403e-01
-3.127773629319691162e-01
-2.873461772166098771e-01
-2.578173805573472643e-01
-2.244188029635467152e-01
-1.882633934367601292e-01
-1.495295921920898885e-01
-1.088186648948714363e-01
-6.714426001380106868e-02
-2.490926741884502693e-02
1.722664666533147565e-02
5.844237046139078018e-02
9.823265416235579806e-02
1.361409503780782737e-01
1.715023571170397054e-01
2.039014877514349067e-01
2.332671244725376680e-01
2.589906706928467028e-01
2.808915808295183170e-01
2.993739842319808608e-01
3.137419472194413750e-01
3.242434506959204210e-01
3.313888114682577712e-01
3.346070001416768802e-01
3.345161123226532696e-01
3.314637802656067445e-01
3.250768009366825639e-01
3.162341946152311123e-01
3.049719231658188368e-01
2.910992653036612587e-01
2.756309851431905100e-01
2.582521643314613646e-01
2.389170327649371428e-01
2.186488129598999908e-01
1.968628630347003805e-01
1.737164012795178181e-01
1.498302701331458153e-01
1.248357585091435379e-01
9.887481882507154207e-02
7.232411180227737990e-02
4.503413872877641555e-02
1.708179162156751169e-02
-1.116805389597499282e-02
-3.969083399148703312e-02
-6.850072569371966347e-02
-9.703287709014524198e-02
-1.251591146061492577e-01
-1.530011753055502965e-01
-1.796662966691720265e-01
-2.051236262367051033e-01
-2.292954292639761693e-01
-2.512680035355504549e-01
-2.711321729398796232e-01
-2.885642464673017216e-01
-3.027840771415690746e-01
-3.140866825681457586e-01
-3.219455719437620544e-01
-3.258462170738520292e-01
-3.263584616815655703e-01
-3.228441181696795614e-01
-3.151569052272436000e-01
-3.041166325052171437e-01
-2.891186305296071790e-01
-2.704843736125941978e-01
-2.489345866109293759e-01
-2.242660283494133100e-01
-1.970560523015641441e-01
-1.679366127748461168e-01
-1.370034920944302459e-01
-1.049397978108903284e-01
-7.228437255556743879e-02
-3.928311615668052953e-02
-6.537628890138300064e-03
2.548504090722805704e-02
5.654667202058848152e-02
8.629613791394957767e-02
1.142667641174631987e-01
1.404135070539653529e-01
1.645797744451872602e-01
1.863370800847886644e-01
2.059321060191142139e-01
2.232264933113703997e-01
2.378790452106373521e-01
2.504491340666183952e-01
2.606120558818590394e-01
2.681390932710547848e-01
2.738662280948144789e-01
2.771182237484171584e-01
2.778512426410849612e-01
2.769326303135241085e-01
2.734476382652632487e-01
2.676092257261443175e-01
2.598862008524261413e-01
2.495469909298083655e-01
2.369142577793469095e-01
2.221124522405339141e-01
2.046711882857042697e-01
1.849800788749206004e-01
1.630021921651477745e-01
1.385726779651118568e-01
1.120891303096999275e-01
8.360913596193882136e-02
5.325595319967584007e-02
2.136148241659067970e-02
-1.167352541478329508e-02
-4.559343793313233584e-02
-8.001399620102583876e-02
-1.142225618323911007e-01
-1.479905555870418277e-01
-1.807337570316092379e-01
-2.116140642501457281e-01
-2.405791179631328880e-01
-2.667855711615174652e-01
-2.894926612293038937e-01
-3.089597763881186121e-01
-3.241192784749069022e-01
-3.346157011210427745e-01
-3.408738415419051981e-01
-3.419388394179334600e-01
-3.379804428489239787e-01
-3.293775930138670427e-01
-3.156358143671076921e-01
-2.973831279251419879e-01
-2.749600183901176331e-01
-2.483493382807122341e-01
-2.185269373564617257e-01
-1.857945792737229485e-01
-1.505133079593193868e-01
-1.138017507695132519e-01
-7.592590165123733192e-02
-3.747272304415366628e-02
6.438756674351665127e-04
3.806641573457172911e-02
7.427817021258878438e-02
1.086690221226121189e-01
1.408455281159952666e-01
1.706054813244326784e-01
1.975340172596328769e-01
2.213391305792073716e-01
2.422647009679991803e-01
2.598977260632602815e-01
2.741331489200503624e-01
2.856956128890644209e-01
2.939438355678135606e-01
2.991085817204853781e-01
3.019850365614493715e-01
3.018611699646170932e-01
2.992609329658493800e-01
2.946756706615258903e-01
2.874845861750834342e-01
2.783821003415382078e-01
2.674301694669227736e-01
2.541353694985885037e-01
2.392714547280818671e-01
2.225059572645029515e-01
2.035102758575672577e-01
1.830485618870319742e-01
1.605837599288855166e-01
1.360421412240468975e-01
1.099088904821759471e-01
8.192648661837598212e-02
5.213347102264563604e-02
2.089937840567350491e-02
-1.166709509835513192e-02
-4.549291551660246402e-02
-8.006442847344992508e-02
-1.149732462304065561e-01
-1.501929877499904864e-01
-1.848671897710467971e-01
-2.184276202023494595e-01
-2.510037711542178474e-01
-2.813108730565036519e-01
-3.089521473369429283e-01
-3.339248134009047964e-01
-3.549637312390469535e-01
-3.719634557254337670e-01
-3.847545546043656950e-01
-3.923633826181425754e-01
-3.950980106083123444e-01
-3.926866435168811509e-01
-3.846102164058921025e-01
-3.716437162425750285e-01
-3.534884794884769477e-01
-3.301394303631351446e-01
-3.027778325801226411e-01
-2.711370649880578410e-01
-2.357752960989365487e-01
-1.977716790598947616e-01
-1.572638358597054919e-01
-1.150271567145141893e-01
-7.197949459901364921e-02
-2.850533875837864273e-02
1.466150580090234967e-02
5.676855398906752170e-02
9.738610183991738833e-02
1.360707792758749923e-01
1.721612656364260863e-01
2.053698638666734411e-01
2.357114275718453222e-01
2.624736151020949371e-01
2.857523847809622097e-01
3.057415091361904147e-01
3.218325329003430824e-01
3.345226061509555815e-01
3.439227175810057324e-01
3.495770306017148554e-01
3.523431286653897487e-01
3.520192546993970995e-01
3.483254920673122812e-01
3.423781069276561895e-01
3.335444838085103170e-01
3.217591208341281650e-01
3.081665702397045070e-01
2.918401147386324168e-01
2.730193086064004460e-01
2.523512732759455313e-01
2.292041903178592965e-01
2.038794637907510587e-01
1.766854861222026396e-01
1.473258303464562435e-01
1.160915431921537011e-01
8.322820822397609952e-02
4.876454840991063799e-02
1.290655140153731950e-02
-2.385514815410046119e-02
-6.126114878169466871e-02
-9.921218523614999674e-02
-1.367841800599492452e-01
-1.737265916890662898e-01
-2.097776709165259379e-01
-2.438183167340447488e-01
-2.757442184855924960e-01
-3.050090397687993948e-01
-3.305454473114071146e-01
-3.525415091638864906e-01
-3.701659092152054242e-01
-3.826493866291072465e-01
-3.905688778441260278e-01
-3.929150336489558026e-01
-3.894628876757976754e-01
-3.810018174836826144e-01
-3.667040778027345627e-01
-3.469756641920579976e-01
-3.224813034990286487e-01
-2.930078183930063807e-01
-2.593550247334220904e-01
-2.221133522096367940e-01
-1.816128665061675640e-01
-1.388119849305891607e-01
-9.430248066688744213e-02
-4.876341089489180658e-02
-3.017929514264345442e-03
4.223656319816273402e-02
8.625896203665826822e-02
1.285695379954984729e-01
1.683039351557370500e-01
2.050122074183720888e-01
2.384210026807367933e-01
2.676987117053127863e-01
2.928756377691266177e-01
3.136745892157666304e-01
3.294933502011512250e-01
3.408932362503865887e-01
3.474112352168368112e-01
3.488118723484264216e-01
3.461014810856986035e-01
3.385576170163355769e-01
3.264581465820338702e-01
3.107760257005152127e-01
2.908944739735538354e-01
2.674989483234679888e-01
2.411831222730470015e-01
2.117586405262071869e-01
1.800457009485642579e-01
1.463554701538797853e-01
1.108949940361658171e-01
7.441130337476271894e-02
3.716169024137336296e-02
-3.767732377917831776e-04
-3.771498403772564900e-02
-7.438358614348858366e-02
-1.098659813155019871e-01
-1.439432215842481877e-01
-1.758471793450609999e-01
-2.053007131136030949e-01
-2.320996265048199669e-01
-2.554157194354367277e-01
-2.753482432709890571e-01
-2.915252575534862389e-01
-3.032979503594729342e-01
-3.111968734475273335e-01
-3.146143958639854854e-01
-3.132617462597279689e-01
-3.080615970937908843e-01
-2.982208262589680081e-01
-2.840065859855125940e-01
-2.662553054890417492e-01
-2.444800267687049222e-01
-2.193355113694522573e-01
-1.914099137903917114e-01
-1.606799357559010599e-01
-1.279482786886131929e-01
-9.363079492374298818e-02
-5.806664108865224050e-02
-2.196530674871036148e-02
1.427980428667351837e-02
5.014556745308855479e-02
8.524641884637293443e-02
1.190157333552377683e-01
1.510173267911643913e-01
1.811585282641038630e-01
2.086958054584068245e-01
2.335091322434288963e-01
2.555382090265457262e-01
2.740435894630058877e-01
2.893082695967705287e-01
3.010753768927058593e-01
3.087706410636616439e-01
3.130750409097153852e-01
3.134101235974167121e-01
3.094933791339456453e-01
3.023085117714135461e-01
2.909889555760933333e-01
2.757509326325866539e-01
2.572917677390925695e-01
2.350785888151840086e-01
2.096022246152394464e-01
1.812757539205057944e-01
1.500107929835758913e-01
1.164152443602603365e-01
8.080166509438599376e-02
4.348604598088583184e-02
5.021941908251004172e-03
-3.413313811729404290e-02
-7.340009294997670852e-02
-1.124442727590881652e-01
-1.504495089079809222e-01
-1.868796852012132859e-01
-2.214680779049994497e-01
-2.532140483099891703e-01
-2.818422190956956785e-01
-3.070001823280778530e-01
-3.277665183942330418e-01
-3.442780272598482960e-01
-3.560263891140483250e-01
-3.624102063973306809e-01
-3.640437865611606538e-01
-3.602823344239775571e-01
-3.510152980503611353e-01
-3.372490499162887900e-01
-3.183342528390743498e-01
-2.947929691006143660e-01
-2.675006917974376286e-01
-2.362982740852446195e-01
-2.020464101195999229e-01
-1.654639016074846425e-01
-1.267952347050932960e-01
-8.700794874674612489e-02
-4.668273373196309139e-02
-6.283335343252929688e-03
3.337633354476021025e-02
7.178860766920863723e-02
1.084956590339324345e-01
1.430506225834973222e-01
1.749169313413947435e-01
2.039074279832930325e-01
2.298616659666758988e-01
2.522844747414123567e-01
2.713984131319239768e-01
2.871031283946064994e-01
2.990503730500265189e-01
3.078837931334462708e-01
3.133355669093153550e-01
3.152575175416846842e-01
3.146410171790163801e-01
3.108909096963255458e-01
3.041195371872305042e-01
2.953826411978965893e-01
2.838723473994407276e-01
2.699993642852651088e-01
2.543978133050409651e-01
2.364799371037644704e-01
2.167366445571946298e-01
1.954309062317620416e-01
1.722169540779516783e-01
1.475789788738916808e-01
1.215868608866525480e-01
9.412586584971982528e-02
6.560044489826762082e-02
3.613206193570629721e-02
5.786760887166605971e-03
-2.515575007867144885e-02
-5.630032226967074394e-02
-8.754682394147442204e-02
-1.185794324254288712e-01
-1.487795516089344128e-01
-1.781241533924284304e-01
-2.060979269165609806e-01
-2.320214615354155852e-01
-2.560423881180768357e-01
-2.773821595866692857e-01
-2.954754236642994636e-01
-3.107262268457159915e-01
-3.221246988259051647e-01
-3.294472013227157103e-01
-3.331911714891743759e-01
-3.324325322891525936e-01
-3.273894654182569752e-01
-3.184422787433248692e-01
-3.050881005232005116e-01
-2.879022274928714209e-01
-2.671886851118640549e-01
-2.428659129137772377e-01
-2.157756793169535448e-01
-1.861777548744574518e-01
-1.543189055734092707e-01
-1.211402747194563340e-01
-8.688515594367565709e-02
-5.199145809716477357e-02
-1.722475492549958159e-02
1.707418229998959591e-02
5.052849288174433851e-02
8.260704376621183509e-02
1.129210907853246126e-01
1.413582511698662225e-01
1.675073795504080643e-01
1.910527913751016715e-01
2.122544697704632499e-01
2.306460013436956724e-01
2.460657707409639183e-01
2.591746432907223729e-01
2.692624790384642863e-01
2.764716964216487050e-01
2.814900819448334923e-01
2.835516281229477076e-01
2.830781492901545127e-01
2.804529228372321104e-01
2.750503585871605372e-01
2.674597513570471374e-01
2.576874524458958593e-01
2.452979783174095707e-01
2.309631101481506021e-01
2.143885078502195674e-01
1.953637068476929695e-01
1.745517621490986493e-01
1.515665529019101787e-01
1.264707841403634458e-01
9.970126719923073921e-02
7.119182669998841417e-02
4.111828355362441567e-02
9.843499771425123779e-03
-2.233854292509501738e-02
-5.524972161065590248e-02
-8.837397260143509126e-02
-1.211721013903540034e-01
-1.535659379119596601e-01
-1.847314943161571521e-01
-2.140604054812650925e-01
-2.416801915393861355e-01
-2.664194847783464271e-01
-2.879248840090751771e-01
-3.062579286130105993e-01
-3.203401753135941554e-01
-3.301714198947696133e-01
-3.357003273992971160e-01
-3.361993684458520204e-01
-3.320884083594968228e-01
-3.232579125106497253e-01
-3.094458869601676709e-01
-2.914863512426578152e-01
-2.692692336214868587e-01
-2.429943085036400108e-01
-2.138037999065244277e-01
-1.816178027331127320e-01
-1.470668440924471632e-01
-1.111527771340300452e-01
-7.409047396219989312e-02
-3.660457478859408670e-02
5.052147391243384800e-04
3.689159110794582030e-02
7.197039847664897516e-02
1.051373782902412513e-01
1.360965354567484076e-01
1.645941779446376818e-01
1.901444030693280607e-01
2.126428252902367311e-01
2.322767456880178161e-01
2.485357291768405807e-01
2.616825242663307072e-01
2.720527177891808313e-01
2.792373426470980968e-01
2.838285041409223663e-01
2.860671638510608461e-01
2.856438846192077552e-01
2.834142920454607584e-01
2.793097180970150473e-01
2.730978823065803307e-01
2.658045257353366941e-01
2.569251894193154695e-01
2.463112431708994743e-01
2.349924205142655542e-01
2.221029549934263048e-01
2.076844319752309265e-01
1.923086901317388464e-01
1.752738860974643598e-01
1.566381953988718878e-01
1.366563963042015661e-01
1.148508452529951596e-01
9.128912113422898988e-02
6.614568946770485458e-02
3.921130268211035774e-02
1.054550026152024228e-02
-1.948441650470152109e-02
-5.083299091167572947e-02
-8.345218427947961870e-02
-1.165835850318808209e-01
-1.500806168886736902e-01
-1.836894784816453519e-01
-2.164136383702504884e-01
-2.481148219268228816e-01
-2.782448871361537512e-01
-3.057540143437585400e-01
-3.306756017387189051e-01
-3.521786116214646878e-01
-3.693822892701674188e-01
-3.826518787016780498e-01
-3.909648079294727463e-01
-3.938692216375007105e-01
-3.920052768848512614e-01
-3.844495956967626249e-01
-3.713554036396713998e-01
-3.533408090281601188e-01
-3.300091174645198855e-01
-3.019829962366329945e-01
-2.698712343720315321e-01
-2.337764726489592326e-01
-1.946342833226306357e-01
-1.530419173829019874e-01
-1.094618965178106584e-01
-6.488553902091223624e-02
-1.991441397208931763e-02
2.484480148087654661e-02
6.863756058119416248e-02
1.107903441425940327e-01
1.508617449789432241e-01
1.883697095864445004e-01
2.226549562891992906e-01
2.536755273507598218e-01
2.810630196905936629e-01
3.043153198584964692e-01
3.238953706742634941e-01
3.393275993303548344e-01
3.503646627300229799e-01
3.579606237123534318e-01
3.613345083610830510e-01
3.606409690900772014e-01
3.568979138295788056e-01
3.492357970193984973e-01
3.381936079711794219e-01
3.243849013414542015e-01
3.072006731317405426e-01
2.873510108809275709e-01
2.650284245545839190e-01
2.399235718879705881e-01
2.127727687069587426e-01
1.835134622734905241e-01
1.521286248400042507e-01
1.192428519314539248e-01
8.483249588556962539e-02
4.911654555957294110e-02
1.248851240282124880e-02
-2.470270564155522749e-02
-6.221178261919670799e-02
-9.966252992158455837e-02
-1.363755964200308590e-01
-1.722309915120405766e-01
-2.066219990026786357e-01
-2.387419724450220437e-01
-2.687146642347263414e-01
-2.955791959170711580e-01
-3.186402168310109029e-01
-3.383590873512392627e-01
-3.534447953253818109e-01
-3.636603725510366147e-01
-3.694656256278346929e-01
-3.697681873661380347e-01
-3.648464820850390589e-01
-3.550113888179330934e-01
-3.396959642946925095e-01
-3.196261541432623421e-01
-2.950276889806875968e-01
-2.658875332169715611e-01
-2.332524838744492734e-01
-1.973379941900004486e-01
-1.585765968825979255e-01
-1.181171160085366934e-01
-7.623446795209663784e-02
-3.362708594678504720e-02
8.810966048220486568e-03
5.057983828662589165e-02
9.108245017269603339e-02
1.296791783249258978e-01
1.658008931969860433e-01
1.992041746044204142e-01
2.293738629726603251e-01
2.558601975145908258e-01
2.789210338955106505e-01
2.979817420656119542e-01
3.128443762495994873e-01
3.243066096947265775e-01
3.315438683114902974e-01
3.348377353564837011e-01
3.349680107534434015e-01
3.312133321677048214e-01
3.242148189815556858e-01
3.144520773718909035e-01
3.014086198737928601e-01
2.859561181310470435e-01
2.681711799703583310e-01
2.477557569295185946e-01
2.256673072050756068e-01
2.016336147457511996e-01
1.755621530708658395e-01
1.483454604761225704e-01
1.195657675943477688e-01
8.936147513669290277e-02
5.823986843573633609e-02
2.612584880817510335e-02
-6.853476693217092075e-03
-4.032481612470106835e-02
-7.405594336662843502e-02
-1.080169182285558027e-01
-1.416866080104788317e-01
-1.746266771765432324e-01
-2.069793400358178603e-01
-2.378567791368869644e-01
-2.667715047254751726e-01
-2.940698381612910084e-01
-3.184347247809447556e-01
-3.396550764191315630e-01
-3.578360734399887999e-01
-3.717800423749549332e-01
-3.815647584501890566e-01
-3.870555660912194940e-01
-3.873833152589965523e-01
-3.829999744630771530e-01
-3.736285749182401972e-01
-3.588731985379725598e-01
-3.395784957714241825e-01
-3.154616611139447468e-01
-2.866564026817387534e-01
-2.542662259930439927e-01
-2.181769359367955741e-01
-1.790052633287800288e-01
-1.377530300026691967e-01
-9.472711069965752961e-02
-5.068939572764118856e-02
-6.536903812802526831e-03
3.721524312188354000e-02
7.991577033962879439e-02
1.207655838834906514e-01
1.592781669164688996e-01
1.951453905268329125e-01
2.276162885062810726e-01
2.564547276556620181e-01
2.817775579269713448e-01
3.028474271436512044e-01
3.198897024349836582e-01
3.331429338880100288e-01
3.420858093469387184e-01
3.473714000140598612e-01
3.491374845765474189e-01
3.470972491270093441e-01
3.422473484787896258e-01
3.344325965759627484e-01
3.235710071029527235e-01
3.108628051960096172e-01
2.957647522668216400e-01
2.784090309465637736e-01
2.598627857436877076e-01
2.394196136099686623e-01
2.173839415759323268e-01
1.943459469091277092e-01
1.698255772778163031e-01
1.440974205696485544e-01
1.174490159590079741e-01
8.963157059670838478e-02
6.083458437876392705e-02
3.130744474817415135e-02
1.011949980773592384e-03
-2.998789219898809200e-02
-6.120562428733442029e-02
-9.256181179638223178e-02
-1.240454029999794594e-01
-1.548336541628994589e-01
-1.848923493996797451e-01
-2.139993836563037766e-01
-2.412128385612937742e-01
-2.666209242404867785e-01
-2.896968372017585946e-01
-3.095681394963692989e-01
-3.265501782960177346e-01
-3.398319946376856526e-01
-3.487949316256988563e-01
-3.540635459414862574e-01
-3.546489640818023537e-01
-3.504125162939978333e-01
-3.420482405278921223e-01
-3.288005909816869576e-01
-3.110187340725477645e-01
-2.892787295823607829e-01
-2.633355823554391351e-01
-2.338615921357466432e-01
-2.013689797613561483e-01
-1.660539784717893208e-01
-1.287290876062590628e-01
-8.990418235284335091e-02
-5.005910669235269506e-02
-9.902759004860081649e-03
2.996988818698834850e-02
6.902993342139118749e-02
1.068424349047457783e-01
1.426772916866333174e-01
1.762461065479506150e-01
2.072726692598295672e-01
2.350422515745874130e-01
2.596715127815499291e-01
2.808483094644018130e-01
2.980171814773615591e-01
3.117570953604861250e-01
3.215261682028136003e-01
3.270345783549455376e-01
3.292668537776508031e-01
3.273446369211958085e-01
3.214350625250834703e-01
3.123718871510217654e-01
2.993918490811456334e-01
2.829909517838128941e-01
2.636169575504382356e-01
2.408659365502663907e-01
2.153834569516027142e-01
1.873295527109359870e-01
1.566845527286137574e-01
1.240864865024672303e-01
8.964960472251382040e-02
5.368148299467925821e-02
1.666076999282453674e-02
-2.104654846622802666e-02
-5.897872525720931902e-02
-9.681822369591724931e-02
-1.338186878597170948e-01
-1.696152988022781583e-01
-2.038130657690599423e-01
-2.354926316342275117e-01
-2.645450483112894435e-01
-2.903411539678218412e-01
-3.120507675968162697e-01
-3.299359225605288382e-01
-3.431126228397091693e-01
-3.510832705466947479e-01
-3.545322817755603984e-01
-3.524237901399914219e-01
-3.449005125556522944e-01
-3.325956122560693173e-01
-3.149345218703235583e-01
-2.925565531537914765e-01
-2.660086064591281052e-01
-2.352607618936011225e-01
-2.012959019970652630e-01
-1.646045030391441455e-01
-1.255904650157272928e-01
-8.535010757722158448e-02
-4.434779867426552613e-02
-3.202163884896705448e-03
3.714455440348352067e-02
7.621867761268633079e-02
1.134542102358816473e-01
1.482749618392420754e-01
1.801657030365419188e-01
2.089195586687559447e-01
2.342082881531101779e-01
2.556493357508071718e-01
2.735200652562708723e-01
2.875494487831504187e-01
2.975885858410591833e-01
3.044064281990055965e-01
3.075715087228035882e-01
3.072081379610488994e-01
3.044312359851332750e-01
2.985215912557401263e-01
2.899890026144282262e-01
2.796407547202182098e-01
2.668896731368368691e-01
2.523828725720626553e-01
2.364961553260886695e-01
2.187857486106698779e-01
1.999161320776278727e-01
1.798717346079226898e-01
1.583571965422489458e-01
1.359535821516078269e-01
1.124418907631500875e-01
8.768246555365631634e-02
6.207500432380996802e-02
3.550446994861303218e-02
7.938339348343287361e-03
-2.037289091312349115e-02
-4.922190018166607006e-02
-7.864690295540376075e-02
-1.082743017322826129e-01
-1.376510454625874402e-01
-1.668656857592081266e-01
-1.952299381314467341e-01
-2.221768006550028374e-01
-2.479094298528482510e-01
-2.713651090279078915e-01
-2.920763528204624038e-01
-3.103102004634474276e-01
-3.248345856422811817e-01
-3.355225088198058314e-01
-3.424516182385662910e-01
-3.447158863080237445e-01
-3.425348556005957112e-01
-3.358986102469475599e-01
-3.243582011292825973e-01
-3.085120876710724103e-01
-2.883698840579652645e-01
-2.639627386459882930e-01
-2.362054965013860031e-01
-2.051953068899013966e-01
-1.713779422262203811e-01
-1.357467354972849705e-01
-9.858558907054648657e-02
-6.054493288471349266e-02
-2.247532068460733612e-02
1.515944050505421692e-02
5.179888870880382246e-02
8.675130491885414685e-02
1.195790712559977043e-01
1.500170842875882260e-01
1.774933560842294200e-01
2.017612000231586988e-01
2.229797880578706926e-01
2.405912435587057030e-01
2.546849782138994600e-01
2.657141047144315760e-01
2.731463994375670223e-01
2.774645953618281036e-01
2.790662355273065276e-01
2.775883583728574466e-01
2.737882455057191189e-01
2.678138638558648643e-01
2.594540198297138334e-01
2.496212239849166514e-01
2.381094694253775290e-01
2.248258726516743633e-01
2.107090712187257298e-01
1.952210028729954305e-01
1.784222089982829274e-01
1.609638157239234868e-01
1.423279966831173526e-01
1.226285881659449073e-01
1.021819381290978990e-01
8.070250053243871458e-02
5.825859858176382633e-02
3.506476228567520503e-02
1.106271363523113338e-02
-1.374679735154603344e-02
-3.900357046242970693e-02
-6.457957109142847818e-02
-9.056665938277096151e-02
-1.162676744990201738e-01
-1.415195617355364255e-01
-1.663386235714266193e-01
-1.898095090755946013e-01
-2.118551385867416814e-01
-2.322529655223201095e-01
-2.501141097870893115e-01
-2.655243788744448552e-01
-2.780333070987371924e-01
-2.869503199470026522e-01
-2.926118972497302462e-01
-2.944264646789914175e-01
-2.920369263068463006e-01
-2.860734727923972542e-01
-2.759245688971612154e-01
-2.617140195286229432e-01
-2.440871907323686751e-01
-2.227771319140640083e-01
-1.982614944517587796e-01
-1.711389699612469728e-01
-1.415228135173078050e-01
-1.100824871523047033e-01
-7.738364638615599644e-02
-4.378255488048236888e-02
-9.961636281389223829e-03
2.353757731729205771e-02
5.629211604461575869e-02
8.778782590340386549e-02
1.174848567070415906e-01
1.450966613868119037e-01
1.703253230778147831e-01
1.926817158038610645e-01
2.121753310541236170e-01
2.286278039034465581e-01
2.417093729137994029e-01
2.517858434997928829e-01
2.586726385369561010e-01
2.622541120135563064e-01
2.632438518484873091e-01
2.613199973694394496e-01
2.565813627144970521e-01
2.500206635787964315e-01
2.410729244340404365e-01
2.301444774566668294e-01
2.179900233828240830e-01
2.041592406496608170e-01
1.891541495259241590e-01
1.733982545728187663e-01
1.565537663412034375e-01
1.391130920388946313e-01
1.211992238593350285e-01
1.025587209991170867e-01
8.359646932522329932e-02
6.425994553460766257e-02
4.436374948163808452e-02
2.417088879908929622e-02
3.651009866635995804e-03
-1.733650419132415355e-02
-3.864847763222725718e-02
-6.011954967889651669e-02
-8.191186731499069951e-02
-1.037883653957356045e-01
-1.254184717595878129e-01
-1.469981052561416535e-01
-1.680320721137812390e-01
-1.880880682635161505e-01
-2.074352695295395010e-01
-2.252457615795790957e-01
-2.411079614494512913e-01
-2.553805668641241922e-01
-2.669825774151007303e-01
-2.757601823293343024e-01
-2.818778594209531141e-01
-2.844705329304303976e-01
-2.836392723066256671e-01
-2.794348391841476875e-01
-2.713235936983157681e-01
-2.597148435093630803e-01
-2.446295754595840255e-01
-2.259122348796724356e-01
-2.042479313866606416e-01
-1.796924320499011241e-01
-1.524440140113577646e-01
-1.232941811364910434e-01
-9.242536646807088252e-02
-6.026682427364400685e-02
-2.749139446441425938e-02
5.507115305061094368e-03
3.832493516594857874e-02
7.039791554531560358e-02
1.012614842220078692e-01
1.307300342471530152e-01
1.582732616746082011e-01
1.834898764806982274e-01
2.065573597967779451e-01
2.268417044177498676e-01
2.441527414739893820e-01
2.589676890820167277e-01
2.705164931895241986e-01
2.789683949350317271e-01
2.847047443826606905e-01
2.870772486413621372e-01
2.865392979296539910e-01
2.832136206274852852e-01
2.766380495309170295e-01
2.674833781678813693e-01
2.555645287166619650e-01
2.406560505412421447e-01
2.235379197679638053e-01
2.038140933297410418e-01
1.815523737220905709e-01
1.573940933763974814e-01
1.310729275656082882e-01
1.028655164350707751e-01
7.318116618669144591e-02
4.213132848887257698e-02
1.001503530775257195e-02
-2.277411200152648640e-02
-5.581476228527453010e-02
-8.891470245917684756e-02
-1.214765270727732882e-01
-1.529152180461384736e-01
-1.832762116994025581e-01
-2.116049635262388096e-01
-2.374218182970599944e-01
-2.609032047168942658e-01
-2.809066732848227721e-01
-2.972943229785443009e-01
-3.101185213282229292e-01
-3.184300956121394743e-01
-3.224919923140388556e-01
-3.221978161724868839e-01
-3.169706077992048288e-01
-3.074892678624128184e-01
-2.935172006726561311e-01
-2.749380660178670777e-01
-2.527471208167288985e-01
-2.266654684529206820e-01
-1.970751541411715768e-01
-1.648951338355938434e-01
-1.301357392047058914e-01
-9.344204795659211138e-02
-5.549849977524774075e-02
-1.668388773681209192e-02
2.239776159389744725e-02
6.119521934446492395e-02
9.911851494792645045e-02
1.358570913093084809e-01
1.708078147964743609e-01
2.033615521120723524e-01
2.336888988696638192e-01
2.609132493888013937e-01
2.847045238398514533e-01
3.054570374996258830e-01
3.221728980315543001e-01
3.349440865884703578e-01
3.440208528438313262e-01
3.485478938939637339e-01
3.490224457648289924e-01
3.453764758967744486e-01
3.370475858652382528e-01
3.248608427808468146e-01
3.084269650451086919e-01
2.875767258773400670e-01
2.633102702357856817e-01
2.351012112389176401e-01
2.032715084936568828e-01
1.685539971661661474e-01
1.308506963554464109e-01
9.071455560419530717e-02
4.868788480955948267e-02
5.175823812925917089e-03
-3.926324689123772416e-02
-8.402582878718206638e-02
-1.283566563944359695e-01
-1.719009685114618324e-01
-2.137637869613612240e-01
-2.530912701509067109e-01
-2.899155669982182992e-01
-3.229247642452609535e-01
-3.516063640357593445e-01
-3.760507613976085683e-01
-3.949962422085475100e-01
-4.084365564699083961e-01
-4.163705206180425833e-01
-4.179130716342359109e-01
-4.136388715870043531e-01
-4.034266494837707162e-01
-3.869436338680559140e-01
-3.652919626835345324e-01
-3.382646956378261849e-01
-3.061055966511720405e-01
-2.702512783758880266e-01
-2.304892978685147698e-01
-1.876226322167667271e-01
-1.427939574071521167e-01
-9.623777808936540001e-02
-4.885461707130547837e-02
-1.490936626196495696e-03
4.534412620115271797e-02
9.096529135952771683e-02
1.347047529406583954e-01
1.760016817250447396e-01
2.146407191781329882e-01
2.499264278525312744e-01
2.814616686934449108e-01
3.096178883424320349e-01
3.334577700052422378e-01
3.530645476456297782e-01
3.688858077260229740e-01
3.800655275347151196e-01
3.871385182867670416e-01
3.903248216435122320e-01
3.889660088879668409e-01
3.839875729623921097e-01
3.751990462421953554e-01
3.622212730869843189e-01
3.462377261758350921e-01
3.266458409248464978e-01
3.034095443991906005e-01
2.777058674793257964e-01
2.487936821439006019e-01
2.170190101070557098e-01
1.830919573324735206e-01
1.467282971834231176e-01
1.083502866623531902e-01
6.843667345995962936e-02
2.712702054986901312e-02
-1.521789029889242598e-02
-5.804490613384269415e-02
-1.009093802210415253e-01
-1.436423537516632043e-01
-1.853424689606531506e-01
-2.254798846548846658e-01
-2.640851173801348484e-01
-2.998547191598349704e-01
-3.325075910360663078e-01
-3.619124557183287516e-01
-3.868092501825957652e-01
-4.072686082015936626e-01
-4.229255034009258840e-01
-4.328282995513504372e-01
-4.375011514058796958e-01
-4.363866620805314511e-01
-4.290335523366693438e-01
-4.164349287081592910e-01
-3.979545890581098755e-01
-3.737721666522430541e-01
-3.450859135601678229e-01
-3.114899413808152606e-01
-2.737310313149113328e-01
-2.328395361202531544e-01
-1.889371155259882140e-01
-1.429949325141675887e-01
-9.589207757260853615e-02
-4.808035909486561843e-02
-4.799188050001179651e-04
4.614425723926506712e-02
9.126493277836329743e-02
1.342786912602817739e-01
1.744598026101633059e-01
2.114761284007712627e-01
2.451419975806794216e-01
2.747410487120877098e-01
3.003815543825231749e-01
3.220583450872413489e-01
3.392294977136849354e-01
3.524840202400548184e-01
3.617500772304101386e-01
3.667272951490490596e-01
3.684321804850063109e-01
3.665084301366525743e-01
3.609031350076808975e-01
3.529318114774127046e-01
3.418311248692548210e-01
3.278688625948815716e-01
3.121642748507215681e-01
2.938915159410007694e-01
2.735238105205147763e-01
2.516627519492823373e-01
2.277382422973577847e-01
2.022225699506259855e-01
1.753434617950214713e-01
1.467887297089146559e-01
1.169449139598795206e-01
8.593327883753129615e-02
5.367737317556151022e-02
2.041811442626577378e-02
-1.351955302262163039e-02
-4.806885149756878056e-02
-8.306744570153916374e-02
-1.178359719257367488e-01
-1.523238608573324882e-01
-1.861868691049283764e-01
-2.185509741179195164e-01
-2.494776247277726289e-01
-2.782961787407980947e-01
-3.041398415463825722e-01
-3.272879790083098039e-01
-3.467351388555616198e-01
-3.618323065704341923e-01
-3.731682923789149675e-01
-3.795114678196584990e-01
-3.807328453562607851e-01
-3.773919911500119850e-01
-3.685902584893031575e-01
-3.546977464059630214e-01
-3.361667115758202873e-01
-3.126593364415170551e-01
-2.849392983856108841e-01
-2.534226300069919446e-01
-2.182801532647798970e-01
-1.805019327724549927e-01
-1.405222844880785749e-01
-9.885473953017281934e-02
-5.646964167712062443e-02
-1.387153240349502104e-02
2.831994189601485384e-02
6.940969888585471481e-02
1.087568043837010140e-01
1.459670224353687706e-01
1.805594987186965872e-01
2.119249045387013031e-01
2.400921940235324348e-01
2.646320388668625956e-01
2.851216284793249289e-01
3.020988693394636715e-01
3.149883634154104217e-01
3.236505709125271357e-01
3.290987522089838246e-01
3.304481368581490552e-01
3.280494976186680289e-01
3.227243461229385990e-01
3.137486478879779606e-01
3.017585424525250914e-01
2.871768974727521573e-01
2.695367511483464096e-01
2.496067896915312445e-01
2.274238946293963559e-01
2.027947960500471603e-01
1.764724211466755788e-01
1.482923116785352380e-01
1.183130478128385787e-01
8.714119841090345320e-02
5.470636494454501897e-02
2.125406922162061119e-02
-1.285582868890834674e-02
-4.729043300611512207e-02
-8.184219396516487222e-02
-1.161138625745096742e-01
-1.494984192014964519e-01
-1.819340010109548600e-01
-2.127652071633678310e-01
-2.413037031161682500e-01
-2.677296031555713718e-01
-2.910365749820935100e-01
-3.106871102954464892e-01
-3.271261434328217033e-01
-3.390957539354479966e-01
-3.465357523809456386e-01
-3.497322177466551940e-01
-3.477899406760577294e-01
-3.410711431209848543e-01
-3.297447842847551214e-01
-3.134111162640135784e-01
-2.928330685673878886e-01
-2.681364718809474690e-01
-2.394197601425328559e-01
-2.077220512970164856e-01
-1.731922202944116695e-01
-1.363177657895337513e-01
-9.816389015302288967e-02
-5.899322658387132906e-02
-1.947091439462715623e-02
1.959025424807013527e-02
5.773244834239356360e-02
9.444715152856400509e-02
1.291262094567648677e-01
1.613172074796080380e-01
1.908631764241617290e-01
2.172499932942471013e-01
2.401919249485786889e-01
2.599898748148459227e-01
2.760674804100096136e-01
2.884406012569940003e-01
2.977548639212397874e-01
3.033295526976735879e-01
3.055957757233545014e-01
3.050806651002269110e-01
3.012668684771452887e-01
2.948563063211875890e-01
2.860803270566057988e-01
2.746017457914616267e-01
2.612804932672354585e-01
2.459926046007017975e-01
2.285738620768908991e-01
2.099163339652587168e-01
1.896158934016420050e-01
1.676962712687066204e-01
1.448471126979548051e-01
1.206917048209144999e-01
9.536521433991805574e-02
6.926211727336752111e-02
4.228691083813645307e-02
1.453792814398422069e-02
-1.364863007869638808e-02
-4.213576451516584664e-02
-7.091098525262314045e-02
-9.946576786238024714e-02
-1.275166086042200941e-01
-1.551795734027031359e-01
-1.816167729141361376e-01
-2.065731677202800598e-01
-2.301626955314663714e-01
-2.513494593779296293e-01
-2.700710799205139900e-01
-2.862229799432178812e-01
-2.989064973451043827e-01
-3.082963182074675568e-01
-3.141003571169269093e-01
-3.157179730411312502e-01
-3.136228734958849684e-01
-3.074280685149821113e-01
-2.969263563880313872e-01
-2.828929284332274419e-01
-2.649509443399666875e-01
-2.433501870403025902e-01
-2.189156096133272333e-01
-1.915393072039341393e-01
-1.617809969381785451e-01
-1.303652631196295653e-01
-9.750484603570094833e-02
-6.384236967153986142e-02
-3.001015152753332138e-02
3.627388860183530794e-03
3.653921561960871839e-02
6.816100323216099655e-02
9.815555405069442685e-02
1.262727379739687350e-01
1.519561603863599786e-01
1.750877044927377779e-01
1.956660830073176371e-01
2.131819175068502270e-01
2.278502847714182211e-01
2.397221299968400055e-01
2.484388066373230952e-01
2.545370690062397911e-01
2.579468506085288437e-01
2.584848199105639899e-01
2.569457776882404509e-01
2.530077864744512128e-01
2.466544962240044270e-01
2.388352041936276371e-01
2.289328010225389898e-01
2.171729053223125094e-01
2.042334763599455705e-01
1.895754684182716920e-01
1.735143392254329398e-01
1.563866171964004848e-01
1.378563011875497124e-01
1.182254149332154503e-01
9.763578876028802811e-02
7.594874599413845018e-02
5.340127804951950996e-02
3.014689910163556585e-02
6.213999318695012652e-03
-1.826555332040651763e-02
-4.292252010848142396e-02
-6.766913622704331943e-02
-9.237173018479513664e-02
-1.164450609100689954e-01
-1.398485112209213455e-01
-1.622937254639182370e-01
-1.831222060117443651e-01
-2.024218544869759995e-01
-2.196879062406165151e-01
-2.343381615437410415e-01
-2.466715748974493971e-01
-2.559825726217201391e-01
-2.619016933817476800e-01
-2.649958273361359695e-01
-2.644281269909551924e-01
-2.602570439251307710e-01
-2.529617986452180611e-01
-2.420310143414147186e-01
-2.278380974518664503e-01
-2.107740114061339431e-01
-1.906900278916730807e-01
-1.681899954944667264e-01
-1.436006017035734994e-01
-1.170750232707617744e-01
-8.929517388718860582e-02
-6.056249316491243984e-02
-3.121134516013347737e-02
-1.801928664300046778e-03
2.731036562306629265e-02
5.579006199437692298e-02
8.331374779104452899e-02
1.094220394398889851e-01
1.339910363728089582e-01
1.568075141237749714e-01
1.774089078141800058e-01
1.959910173223873009e-01
2.122633683927322712e-01
2.258471445788322873e-01
2.372893604003082912e-01
2.460385950998755789e-01
2.518910372771102635e-01
2.556337236385674005e-01
2.564170127493258233e-01
2.543789570740230266e-01
2.500217804347528716e-01
2.426556691725870463e-01
2.326094121192603392e-01
2.200614669409279023e-01
2.045802513559149272e-01
1.866180275172416303e-01
1.661440179032630526e-01
1.430458029433633038e-01
1.178073660119999672e-01
9.042098248097417412e-02
6.109055865238363636e-02
3.021542767363710746e-02
-1.909386078502064987e-03
-3.490655986136661365e-02
-6.842202840154679166e-02
-1.017949430965180979e-01
-1.346805220167078265e-01
-1.665999810460499497e-01
-1.967121605810959739e-01
-2.248797154266007070e-01
-2.503997932221879719e-01
-2.724887329942166647e-01
-2.913701726566790828e-01
-3.061046408132406249e-01
-3.162441833181809381e-01
-3.223146244608061095e-01
-3.233491046687469450e-01
-3.194561820457696433e-01
-3.111284685128414274e-01
-2.978049829933609449e-01
-2.800659559298839252e-01
-2.583332601419996433e-01
-2.324924466344806817e-01
-2.034837964219915751e-01
-1.716360530345075186e-01
-1.372098143685060723e-01
-1.012911585643532647e-01
-6.412701705637646743e-02
-2.621801840096332076e-02
1.154296018586988687e-02
4.884774969243008136e-02
8.521600301242546194e-02
1.200971048256041784e-01
1.530789510294003064e-01
1.839709131586276247e-01
2.124191991319970274e-01
2.380225719832864406e-01
2.610309991808631436e-01
2.810425925201797681e-01
2.977581161064938864e-01
3.119332223471272258e-01
3.228420502909978840e-01
3.304558527641300869e-01
3.357091685145014437e-01
3.376366900232612989e-01
3.365589288414226887e-01
3.330910364098945142e-01
3.263478060303504624e-01
3.168860921396812746e-01
3.048670980147134002e-01
2.895815047713319879e-01
2.717529245989678266e-01
2.511349473436815805e-01
2.272820008153152993e-01
2.009872732119603600e-01
1.718235705579454209e-01
1.397081227836540762e-01
1.052453239988755535e-01
6.831838466449476066e-02
2.907392780742700661e-02
-1.198596347167809814e-02
-5.450897531047720068e-02
-9.827987104426771925e-02
-1.426308135939607924e-01
-1.868496735089998639e-01
-2.308071407613951354e-01
-2.734608255828928081e-01
-3.139466449771685652e-01
-3.523947481968142115e-01
-3.872983217699423886e-01
-4.180413543736470339e-01
-4.447689138822706889e-01
-4.659586193171839641e-01
-4.814584711398223194e-01
-4.912743800216435863e-01
-4.942853979610726256e-01
-4.909011600151856891e-01
-4.810361443001291981e-01
-4.641534056849490053e-01
-4.412481491186607263e-01
-4.122104685208097807e-01
-3.771298429178904787e-01
-3.374680222011887665e-01
-2.931469038900519908e-01
-2.448688239344112005e-01
-1.940252019961801189e-01
-1.409019018958145297e-01
-8.643004619685761003e-02
-3.177708008814097984e-02
2.252784924602271865e-02
7.566747108671212363e-02
1.266895470506018417e-01
1.750741656307255312e-01
2.203938214712535260e-01
2.618211788766091064e-01
2.990632743837364216e-01
3.322652358251315108e-01
3.605587097722488532e-01
3.841499925738809940e-01
4.034126328129469252e-01
4.176342174568238308e-01
4.275184838599479509e-01
4.333362854807727427e-01
4.346106778236966117e-01
4.324470949845283796e-01
4.267645188781770682e-01
4.173110374028095593e-01
4.054508765906360557e-01
3.906214077075836344e-01
3.727584929595251229e-01
3.533246970259801834e-01
3.313091092868628573e-01
3.069743316884439577e-01
2.811974805423981261e-01
2.532520387586353339e-01
2.234191063954206191e-01
1.921610272164648858e-01
1.590618297247799462e-01
1.243578516373824716e-01
8.839128180316482841e-02
5.103546288655914920e-02
1.243608631938095122e-02
-2.686731093479628740e-02
-6.677818979756039441e-02
-1.072742061633779886e-01
-1.473776687430579102e-01
-1.870006199332133745e-01
-2.259199539561034253e-01
-2.629721367861750370e-01
-2.981730041811416210e-01
-3.309671967547792581e-01
-3.602273512691892554e-01
-3.862112771876452522e-01
-4.080286686882252933e-01
-4.248141028353323301e-01
-4.371913865626693707e-01
-4.440311139646472283e-01
-4.449477709439036421e-01
-4.408909677036286778e-01
-4.307421126115346666e-01
-4.148042989983636852e-01
-3.938668797477046790e-01
-3.674253078151527574e-01
-3.362266533770050803e-01
-3.009430657443500357e-01
-2.616301120576864925e-01
-2.192875693405075266e-01
-1.745188863790434475e-01
-1.277758181298964957e-01
-8.003152682645678362e-02
-3.190280387747122803e-02
1.600102843684775289e-02
6.301955080774107598e-02
1.083970528015191503e-01
1.517037277632887760e-01
1.925600382537036026e-01
2.301563612982812645e-01
2.644830774016128649e-01
2.952081555789969891e-01
3.216360776174360669e-01
3.442754622672412057e-01
3.625805976669041475e-01
3.761039122797761314e-01
3.858453612087792695e-01
3.908617772661257539e-01
3.911229064832345559e-01
3.877425784915120577e-01
3.796073057354700797e-01
3.671811675953843279e-01
3.511112006792868057e-01
3.306793352188913682e-01
3.065900161989888462e-01
2.790789697709323836e-01
2.478984143415771391e-01
2.138336938031046297e-01
1.769515289636198474e-01
1.374522080462916296e-01
9.602625822367663599e-02
5.291189313507172615e-02
8.622209554219516237e-03
-3.637667689915801555e-02
-8.138569029249655140e-02
-1.258834155849742065e-01
-1.694212490505612179e-01
-2.109778406980853394e-01
-2.502553216130736224e-01
-2.865972192288886999e-01
-3.189632443013777352e-01
-3.474412104784231348e-01
-3.710817490872192481e-01
-3.891324128909069424e-01
-4.021558476198959231e-01
-4.089783654708637473e-01
-4.094698697099455331e-01
-4.043537251289389678e-01
-3.927190876912192707e-01
-3.751078666444639387e-01
-3.521252601114812641e-01
-3.235086763368772989e-01
-2.902698078518020641e-01
-2.529323566397900236e-01
-2.118250776149454562e-01
-1.681922864877519741e-01
-1.225317145582189571e-01
-7.555214690759609608e-02
-2.842854422611493237e-02
1.830952708355448877e-02
6.386679518460831873e-02
1.074416104553144180e-01
1.483967898048305922e-01
1.862349234958571853e-01
2.204833429118320531e-01
2.505727491231444226e-01
2.765253737380861110e-01
2.980074265958250201e-01
3.146984027464795330e-01
3.271987607277727084e-01
3.350943333900255894e-01
3.383995909019543169e-01
3.382175977971083047e-01
3.338700664419244069e-01
3.258383327884210590e-01
3.151413571601227037e-01
3.011632376279526069e-01
2.846780127165262075e-01
2.662873116490720449e-01
2.455958622044753792e-01
2.234549739101040489e-01
2.000337189456868614e-01
1.751326148913951164e-01
1.495228347774034683e-01
1.230878596033957995e-01
9.577642752416537508e-02
6.816115814570783416e-02
4.009730873380706884e-02
1.163152448077840739e-02
-1.695211994228332242e-02
-4.551417616734007576e-02
-7.407720148023619333e-02
-1.023768590065290834e-01
-1.300407994598906936e-01
-1.572148600606809721e-01
-1.834011790356009364e-01
-2.081179754391657699e-01
-2.316686558244805405e-01
-2.531865944307638006e-01
-2.722248695305448662e-01
-2.892788954723237715e-01
-3.031194157633247954e-01
-3.136288558040738472e-01
-3.210794823046884128e-01
-3.244539098600170979e-01
-3.239318003421891579e-01
-3.195885852538856708e-01
-3.108035662021495504e-01
-2.980745823888966139e-01
-2.813996721326311734e-01
-2.606105600007068701e-01
-2.364873664675359310e-01
-2.090652097554632771e-01
-1.785801533751202874e-01
-1.459750421725279634e-01
-1.113994100543896498e-01
-7.538961163835659895e-02
-3.874808299945669415e-02
-1.896026403467591243e-03
3.464438091982514206e-02
7.019443425339495779e-02
1.042581109015539576e-01
1.365309724757903520e-01
1.664115155730847562e-01
1.935090666321097608e-01
2.178850838140323765e-01
2.389264054942865367e-01
2.564866832896497972e-01
2.710201557474524181e-01
2.818219795319364396e-01
2.891668208923873218e-01
2.934874436549788079e-01
2.942687727219257532e-01
2.920960676764419173e-01
2.872100231411895965e-01
2.793027227507643984e-01
2.691752309964652312e-01
2.567803062046285500e-01
2.420019466910370010e-01
2.257317171757539653e-01
2.076480372553489995e-01
1.878119612325201970e-01
1.670153159125144782e-01
1.448522796497963838e-01
1.215356410393807207e-01
9.752395701262348005e-02
7.266120908349432694e-02
4.712710105287828966e-02
2.123975934399137400e-02
-4.948307874658004757e-03
-3.134653362896139966e-02
-5.756467861646762801e-02
-8.341698297866048661e-02
-1.089449946714821232e-01
-1.335193953247387211e-01
-1.569486127881349335e-01
-1.793556683427275922e-01
-1.998782216772164166e-01
-2.184945280658796840e-01
-2.351528743801337695e-01
-2.490631795463990605e-01
-2.603949762879764762e-01
-2.689028793974647669e-01
-2.740110252500948529e-01
-2.761283587317081012e-01
-2.748695592382785491e-01
-2.699684967043913253e-01
-2.620814715277720586e-01
-2.507723801503328742e-01
-2.361524775772692042e-01
-2.189522512866122206e-01
-1.988969015101743343e-01
-1.764134959389448143e-01
-1.521003616756454735e-01
-1.260111702118724974e-01
-9.867521128484110782e-02
-7.058936518632637214e-02
-4.201326431272248141e-02
-1.341012783610331244e-02
1.477096944522994504e-02
4.221026557255036504e-02
6.866884481586624234e-02
9.365684191005771431e-02
1.169614498343278242e-01
1.385849016502657405e-01
1.579745688527702530e-01
1.751772632799275253e-01
1.902315111503586620e-01
2.026546864696175676e-01
2.127709458676522447e-01
2.204897894641257572e-01
2.254657856006378192e-01
2.282681556236148268e-01
2.285665328715238975e-01
2.261965276161236049e-01
2.218880216115012294e-01
2.150650699080737527e-01
2.058299715778815486e-01
1.947576398537388398e-01
1.813469817419741947e-01
1.658907836091435550e-01
1.486829052536592644e-01
1.295223027529214255e-01
1.087568101813001092e-01
8.655434513340534708e-02
6.300780950701637129e-02
3.842987283363671902e-02
1.306659197236785877e-02
-1.276762336996407898e-02
-3.888717678838093939e-02
-6.478535300320811818e-02
-9.010015037792008796e-02
-1.147174887067550497e-01
-1.379028309106735961e-01
-1.594303823059979031e-01
-1.791015604147344620e-01
-1.961717145950522545e-01
-2.106596711432879021e-01
-2.222257129657786434e-01
-2.303023587470772182e-01
-2.352256465857114343e-01
-2.365295497883843634e-01
-2.339648124492100800e-01
-2.281868474324426077e-01
-2.186708146098209071e-01
-2.056258196510254710e-01
-1.896953541344965632e-01
-1.706399380557673817e-01
-1.489839736771942369e-01
-1.252472322228050938e-01
-9.953405836017592545e-02
-7.249229111126277714e-02
-4.453400846658120416e-02
-1.599952714841421444e-02
1.254367450367067753e-02
4.072346498351735872e-02
6.811519323709880336e-02
9.442361194926780776e-02
1.191986384578084535e-01
1.421401882392855920e-01
1.632043993936810322e-01
1.818730791351480525e-01
1.981294404268926224e-01
2.119904572977564516e-01
2.229795854671326460e-01
2.314149730524896476e-01
2.371832577916121454e-01
2.399355875380075331e-01
2.403027007199063925e-01
2.379090135888015101e-01
2.325937657381453860e-01
2.252133417538960680e-01
2.151113232241416151e-01
2.024643043703304723e-01
1.878640472616917578e-01
1.708505618236551560e-01
1.517591300908011365e-01
1.309223472920512665e-01
1.081522619157913312e-01
8.385083977013088607e-02
5.823060143538424938e-02
3.137065172255272538e-02
3.637856876636726827e-03
-2.468098838527219702e-02
-5.331005441501515674e-02
-8.202239850947026789e-02
-1.102752683079663565e-01
-1.377866904815698290e-01
-1.643648717493149114e-01
-1.892925247826410806e-01
-2.124344037155409537e-01
-2.335084295316647296e-01
-2.517905816345961112e-01
-2.674158951587436439e-01
-2.799389556729843243e-01
-2.887968762388413713e-01
-2.944801478497222069e-01
-2.963621040856200817e-01
-2.941925779453423706e-01
-2.887780249792108456e-01
-2.793970512385222649e-01
-2.662790685021945158e-01
-2.501146847070772061e-01
-2.305157805731162246e-01
-2.080096663867447293e-01
-1.831337959047129871e-01
-1.558149361142605049e-01
-1.267371857909800337e-01
-9.629233085905619660e-02
-6.464210287000371480e-02
-3.243098973394101248e-02
1.491701949274393257e-05
3.241773570554046247e-02
6.437673666985976872e-02
9.547116908196373597e-02
1.255050468488740911e-01
1.542914054222556675e-01
1.812922278328439885e-01
2.065568891912096805e-01
2.298998857325725287e-01
2.507516055350155759e-01
2.694889306499346215e-01
2.856940631732814428e-01
2.988610017159852861e-01
3.097126106708715798e-01
3.174279010139715029e-01
3.217252574311363356e-01
3.234425132306277262e-01
3.215085459192753570e-01
3.160138908540854330e-01
3.074490052473408674e-01
2.950015469879584407e-01
2.790055760805821850e-01
2.596506433801740177e-01
2.365060246492586005e-01
2.100861935888290177e-01
1.804655527836594997e-01
1.476443014235552242e-01
1.121978488208481284e-01
7.435370408897956640e-02
3.448397962247246040e-02
-6.925432514125917649e-03
-4.923517399833982067e-02
-9.194759267301821914e-02
-1.345746719890575371e-01
-1.761383948711213732e-01
-2.162668290862247988e-01
-2.543134731512592395e-01
-2.892096572129569942e-01
-3.209282639831088635e-01
-3.485715046949657836e-01
-3.712615210920833797e-01
-3.894737161334785869e-01
-4.020532863514684196e-01
-4.086585665826811820e-01
-4.100119038374407388e-01
-4.050846794983444799e-01
-3.941974594025462464e-01
-3.779636338569170029e-01
-3.558969477135725534e-01
-3.288162169233008192e-01
-2.971909122352633381e-01
-2.610933442416742967e-01
-2.216154491437072327e-01
-1.791288554609608286e-01
-1.341472898555663151e-01
-8.771598099941801951e-02
-4.025213637901200320e-02
7.509567336980604857e-03
5.489411749540236418e-02
1.012182147726382042e-01
1.459075551916965141e-01
1.885547102025004473e-01
2.283127443900013487e-01
2.650305674955981683e-01
2.982855002313982151e-01
3.272754086699745102e-01
3.523943617640507564e-01
3.729316994997277646e-01
3.883293842068795687e-01
3.995096473278421101e-01
4.053333527177209739e-01
4.057920288564135225e-01
4.017336523356397904e-01
3.921247146789783589e-01
3.774519269625309370e-01
3.581768769639618322e-01
3.337512097432329128e-01
3.049744758512984433e-01
2.720203425503193717e-01
2.349038751595625696e-01
1.945440650133703486e-01
1.510930069741172610e-01
1.050638528656510085e-01
5.726650840527396091e-02
8.157745108957781266e-03
-4.148214389066839924e-02
-9.108202153943847912e-02
-1.397016178948575771e-01
-1.866829320264331571e-01
-2.314711709238294057e-01
-2.729136059935248770e-01
-3.107416922146784000e-01
-3.442274796483533184e-01
-3.723507580376536064e-01
-3.954096894175849752e-01
-4.124262187574022076e-01
-4.228174512824348086e-01
-4.275026883758965557e-01
-4.252995167811113864e-01
-4.164331273898155827e-01
-4.018011389367781572e-01
-3.807124791816611231e-01
-3.540118592934311526e-01
-3.224158216349464756e-01
-2.858532704971618599e-01
-2.455484573906430712e-01
-2.020341928331395309e-01
-1.557500962746631856e-01
-1.079746253101477038e-01
-5.914188925056658441e-02
-9.970474512653534210e-03
3.855801019779506178e-02
8.594047189296817602e-02
1.314960559656353778e-01
1.747321394165897712e-01
2.149491714480419868e-01
2.518785258443796415e-01
2.852541764063111218e-01
3.143762879085739703e-01
3.395495688302809234e-01
3.604093684046570933e-01
3.764283366353502469e-01
3.885094211192808289e-01
3.959105234176387711e-01
3.984173693274852823e-01
3.973759330494426312e-01
3.915864136588721456e-01
3.814139063465538104e-01
3.677822246217101743e-01
3.497771015867703892e-01
3.280559378342718935e-01
3.030517257284980337e-01
2.742441834208945162e-01
2.424373395739155557e-01
2.077254991991151489e-01
1.700146988889175703e-01
1.300834830464760727e-01
8.800105957589218764e-02
4.404286234381871168e-02
-1.215550215654642718e-03
-4.735462083998875915e-02
-9.394991187355505868e-02
-1.405559823520357299e-01
-1.863148843845464919e-01
-2.309164354616261017e-01
-2.737575205338423356e-01
-3.137846694767003619e-01
-3.509755456604472523e-01
-3.843910327053139953e-01
-4.130730297833528075e-01
-4.374206931907895779e-01
-4.561388923711058307e-01
-4.686958039836702228e-01
-4.758158322447627597e-01
-4.761415214452465183e-01
-4.698558382674190570e-01
-4.575444206416776072e-01
-4.384487686308672916e-01
-4.133241981384049857e-01
-3.826618794937841628e-01
-3.463584539577105881e-01
-3.056097317064645491e-01
-2.608722904098091933e-01
-2.125831953175383315e-01
-1.621342441163250714e-01
-1.099950921762039013e-01
-5.691746899596859116e-02
-4.129704430423555839e-03
4.778879662421245400e-02
9.812722338611817863e-02
1.459999254646942024e-01
1.907748723901905308e-01
2.321248790427555830e-01
2.693988954421660531e-01
3.021453083562002373e-01
3.305869561980073756e-01
3.541328506277192645e-01
3.726575759424318735e-01
3.869701923417954714e-01
3.963336846209016273e-01
4.010790405521459934e-01
4.022552627135588810e-01
3.990605536344784543e-01
3.922812115635236352e-01
3.826534653655259688e-01
3.695992051576026949e-01
3.541230161602717530e-01
3.364997885413789080e-01
3.163492920903917538e-01
2.947406726210681782e-01
2.714964777608880331e-01
2.463940069835487967e-01
2.204342438452751574e-01
1.931445297680359774e-01
1.644734059595238107e-01
1.350957038887448391e-01
1.046664308421810657e-01
7.317436231434631955e-02
4.103672275801160951e-02
8.211357709605571209e-03
-2.537785880504371538e-02
-5.926491284355880906e-02
-9.325287899905920774e-02
-1.275117074327074274e-01
-1.612707311503052132e-01
-1.941910044466054197e-01
-2.265773068292274151e-01
-2.572089621799774628e-01
-2.858460942850256092e-01
-3.126632468940538923e-01
-3.363065960856584935e-01
-3.567676167317582747e-01
-3.739087683562138387e-01
-3.866096363396820945e-01
-3.951516869475181770e-01
-3.991643657479491680e-01
-3.979303558651003381e-01
-3.920898650962454379e-01
-3.811718051031903198e-01
-3.649550558287838475e-01
-3.444260692443374960e-01
-3.191527313570572399e-01
-2.894828687620801810e-01
-2.563826521858448837e-01
-2.198293814962181125e-01
-1.804958746877378395e-01
-1.392377109007966740e-01
-9.641850014846212180e-02
-5.277112375834622920e-02
-9.075081393046541961e-03
3.412925755505559489e-02
7.629584464744566807e-02
1.166584159122064646e-01
1.547228068538434309e-01
1.903337876358783820e-01
2.226382918201725014e-01
2.514697956481475871e-01
2.768918994904453479e-01
2.981299743484606690e-01
3.154499715336976928e-01
3.288912864519509260e-01
3.379080595791410513e-01
3.431822121008721305e-01
3.445480860348612007e-01
3.417509755075598399e-01
3.357964766715195726e-01
3.262232429035487602e-01
3.130761983210577637e-01
2.975309045667113850e-01
2.788678596935498799e-01
2.575206754264049991e-01
2.342577602844089224e-01
2.086634536333617229e-01
1.812672851594324397e-01
1.524886519483852065e-01
1.222401054613168336e-01
9.099879028480739596e-02
5.905210530139208547e-02
2.656318177041536166e-02
-6.151569237119694500e-03
-3.868545667111074338e-02
-7.074650903063016416e-02
-1.022491060573120225e-01
-1.324697909202891821e-01
-1.612305212956746669e-01
-1.884134771365139349e-01
-2.131915195875019875e-01
-2.355946519468045397e-01
-2.553200484695248851e-01
-2.716418147869782973e-01
-2.848628988040645682e-01
-2.944592622165088658e-01
-2.999780383837203912e-01
-3.020151090179961639e-01
-2.998913977088898952e-01
-2.935438273610846971e-01
-2.837870514870768912e-01
-2.699560482449408494e-01
-2.524791769598578872e-01
-2.319945485870504587e-01
-2.082956009119376339e-01
-1.820568261633155882e-01
-1.537935050851326757e-01
-1.236715562259867174e-01
-9.244801617213482814e-02
-6.057179222706762789e-02
-2.841566882362633190e-02
3.366965644960022430e-03
3.434030347607604228e-02
6.412162259158869781e-02
9.231789399546933006e-02
1.184560367498296296e-01
1.423652909128739763e-01
1.638567997447671343e-01
1.825112407925471580e-01
1.984862050605237238e-01
2.116481104031963101e-01
2.217303320534165234e-01
2.292358954501779178e-01
2.339323133877422300e-01
2.357475489180159145e-01
2.354769585711757318e-01
2.326678794250458537e-01
2.274775605393633549e-01
2.207670215009022163e-01
2.119355159201605499e-01
2.013801273457450081e-01
1.896307028095979286e-01
1.762495727329918271e-01
1.616859782700542369e-01
1.461510424900983041e-01
1.293682830804283035e-01
1.117587731072238744e-01
9.333208553457973677e-02
7.395821232571904436e-02
5.396937518377438459e-02
3.335860635430153154e-02
1.211562462536817930e-02
-9.557847033302757644e-03
-3.148469145949382708e-02
-5.364892480923832974e-02
-7.585404141738869011e-02
-9.773050332077184987e-02
-1.193058328865618800e-01
-1.402300974709309034e-01
-1.600403451336376293e-01
-1.788593836125174641e-01
-1.961037436400128731e-01
-2.113359034973908979e-01
-2.248330054749725360e-01
-2.357852940707423905e-01
-2.439595760759722953e-01
-2.496735088856750773e-01
-2.521371574136989646e-01
-2.514245132827858664e-01
-2.477544378129131475e-01
-2.406352355579735591e-01
-2.304232089396033578e-01
-2.172896165208108299e-01
-2.010702923809813136e-01
-1.823755381728295044e-01
-1.613600494005676400e-01
-1.381401861148821575e-01
-1.134843324502370215e-01
-8.753636340131726312e-02
-6.061283641252182552e-02
-3.341449935501518420e-02
-6.156143034844255291e-03
2.082824997652084342e-02
4.700541029286040007e-02
7.212195084640576903e-02
9.599560793220918153e-02
1.182239409915835371e-01
1.386129093314260596e-01
1.572367841500660890e-01
1.737271406761869696e-01
1.880095066383030700e-01
2.004690837925270364e-01
2.106276811184170095e-01
2.186291861631978750e-01
2.249459577804087118e-01
2.290611817065878464e-01
2.313318509973456005e-01
2.320635763824139830e-01
2.307977903532604236e-01
2.280383041079648010e-01
2.238091693864026066e-01
2.177260847542221434e-01
2.103931095153301345e-01
2.015286883139658092e-01
1.908492844819392464e-01
1.790074948050930925e-01
1.654980302344039589e-01
1.502325808235147053e-01
1.336591967463268693e-01
1.154189492156116603e-01
9.552890586808716888e-02
7.429087906123600649e-02
5.159960279659722010e-02
2.752260707277016938e-02
2.392451757316435557e-03
-2.365708533889016030e-02
-5.056040290677213389e-02
-7.778537180094158288e-02
-1.050239656532226673e-01
-1.322905590520628838e-01
-1.587355527558012014e-01
-1.840804992708689469e-01
-2.082500894959325444e-01
-2.303029486578060947e-01
-2.501046924531977744e-01
-2.674283955073329389e-01
-2.814398485315531828e-01
-2.922660047306163689e-01
-2.995473857050403588e-01
-3.027101950449934131e-01
-3.022290590273331579e-01
-2.976576211137852424e-01
-2.887854961345725502e-01
-2.764420151908744128e-01
-2.601485096528716179e-01
-2.401866438944754711e-01
-2.173292426804243060e-01
-1.914430184595406759e-01
-1.630825663133902703e-01
-1.329091768789842365e-01
-1.010796068257170111e-01
-6.823783686376533320e-02
-3.492954019727817494e-02
-1.473406451239694936e-03
3.160832289212295310e-02
6.382695940646024302e-02
9.485038678053286931e-02
1.244651403657997812e-01
1.521124553977892813e-01
1.776597626624015214e-01
2.010883251723683540e-01
2.218303744718911341e-01
2.400554866175314550e-01
2.557338972534254906e-01
2.683630442483309064e-01
2.784459104958126874e-01
2.857356439701650430e-01
2.898619666915815962e-01
2.916288672516199054e-01
2.904430398244636780e-01
2.861458555308445395e-01
2.796851551071733444e-01
2.701943822207840129e-01
2.578658229731138340e-01
2.432788814390218768e-01
2.258328920992258015e-01
2.058692267959883471e-01
1.836698376227428597e-01
1.589612970646172019e-01
1.321489853931652469e-01
1.034099709246882742e-01
7.280041135060595636e-02
4.068346041204960045e-02
7.386663291230236017e-03
-2.678261270523296655e-02
-6.159216967716026059e-02
-9.635179143872127372e-02
-1.307251835050941557e-01
-1.644472055825966506e-01
-1.965894265416386899e-01
-2.269622377696512427e-01
-2.551213526167384060e-01
-2.801167911461954763e-01
-3.020621691029560796e-01
-3.202689372394592060e-01
-3.339960497096147729e-01
-3.437644967084252934e-01
-3.486659545166188590e-01
-3.484118376110274529e-01
-3.437758259996517851e-01
-3.339003854793826109e-01
-3.190821407186640868e-01
-2.999608181652074212e-01
-2.761776498612406594e-01
-2.484142543414269433e-01
-2.171819681128864810e-01
-1.826070583754285104e-01
-1.455527408043349735e-01
-1.064672229709121287e-01
-6.583726820230702270e-02
-2.443367336287016051e-02
1.722523436846583322e-02
5.850912659372391189e-02
9.897040355326186534e-02
1.378733839903751868e-01
1.747680680478483906e-01
2.094125885325882619e-01
2.409716335913699714e-01
2.693857384368420482e-01
2.943798337195368542e-01
3.152011377761354538e-01
3.322748469871498744e-01
3.450740617012843514e-01
3.530968717640498578e-01
3.572286115354806335e-01
3.565888519614875407e-01
3.511464152345243894e-01
3.418153287570996901e-01
3.277342328244983172e-01
3.093414918520604462e-01
2.872004838285583950e-01
2.608897879621265847e-01
2.310979137370069991e-01
1.981247771750560271e-01
1.620297590696965495e-01
1.235651328191868653e-01
8.300001487775519882e-02
4.080052992684420066e-02
-2.425630886825874688e-03
-4.614873645223599441e-02
-8.971082924031270611e-02
-1.327359790238478443e-01
-1.742913637424629014e-01
-2.138628767377396267e-01
-2.510896788623264153e-01
-2.848765875782540702e-01
-3.150821150117044667e-01
-3.411815347796805509e-01
-3.622127305322443980e-01
-3.785615992860323908e-01
-3.894566669166376616e-01
-3.943297772326044837e-01
-3.941362744615249936e-01
-3.878820403426287977e-01
-3.756905531547563015e-01
-3.585715401451024520e-01
-3.358461757468407805e-01
-3.082155064045575266e-01
-2.764718116103941359e-01
-2.404852550598071681e-01
-2.012692527639254325e-01
-1.594043832153411444e-01
-1.152224266928630891e-01
-6.974494022449528874e-02
-2.345272544960597116e-02
2.305129691211287024e-02
6.906746784945047568e-02
1.140001194171727239e-01
1.572708873107263594e-01
1.986138805999622114e-01
2.371996188761087976e-01
2.728055363467749017e-01
3.053134865889093885e-01
3.338286313492507817e-01
3.586422577023941627e-01
3.794473426755003986e-01
3.954638735272666961e-01
4.075359156177937314e-01
4.149077151520066398e-01
4.170785225840741850e-01
4.153603072954292763e-01
4.084765959528101620e-01
3.965333464356779469e-01
3.804916699771850874e-01
3.593550486978152048e-01
3.336130009771181570e-01
3.037764176803168237e-01
2.693670586835913983e-01
2.310890982578983621e-01
1.892092137216022651e-01
1.438127821025725617e-01
9.561793878805327496e-02
4.500413990952242815e-02
-7.468900643567907838e-03
-6.129023713439707421e-02
-1.155826805795915901e-01
-1.696347334517909755e-01
-2.230299139124043983e-01
-2.744280198217614597e-01
-3.233035345197825539e-01
-3.690723431154921408e-01
-4.102667737565444117e-01
-4.468069711191556825e-01
-4.777926899550788975e-01
-5.020096925957617806e-01
-5.199979364572175911e-01
-5.305471890562256654e-01
-5.330418999759303222e-01
-5.286220787358014706e-01
-5.159729832145970585e-01
-4.954442330795238436e-01
-4.680331304088133915e-01
-4.331813728891084070e-01
-3.918849658442022932e-01
-3.449924276287870684e-01
-2.927093877369320030e-01
-2.363945611352413212e-01
-1.768173061661832413e-01
-1.147593759692339815e-01
-5.154674294962430930e-02
1.199587835535904229e-02
7.484264854877516193e-02
1.360882652983616825e-01
1.946889487308641753e-01
2.498549970163337630e-01
3.010765966413132544e-01
3.472397585702144962e-01
3.881441502758526951e-01
4.233987834504727710e-01
4.521072688739989909e-01
4.747980305902131937e-01
4.909189375199148331e-01
5.000112736997778251e-01
5.032824587690718499e-01
4.998468789184444261e-01
4.898576037707200181e-01
4.747914971931700423e-01
4.536378162182332363e-01
4.272244926170618573e-01
3.965339025192948230e-01
3.610910374716733706e-01
3.219859414241370010e-01
2.797395556634603708e-01
2.344015808756597652e-01
1.870515489547463495e-01
1.379932674836663042e-01
8.767366354700766029e-02
3.691419035387356884e-02
-1.384901364273275967e-02
-6.400095317758096314e-02
-1.131040415291929280e-01
-1.603203732331070774e-01
-2.052267485198576713e-01
-2.474763432146427355e-01
-2.860361086708174683e-01
-3.208787803645742343e-01
-3.514637004659693087e-01
-3.768815047103769023e-01
-3.975937239787758481e-01
-4.127473562219568515e-01
-4.218313842666828184e-01
-4.257881765871730506e-01
-4.235129238216013281e-01
-4.151488654179532611e-01
-4.017239225957485727e-01
-3.823613070818289161e-01
-3.578343633209125629e-01
-3.288666320783014685e-01
-2.952560571293235681e-01
-2.580785179498422677e-01
-2.178464755886096449e-01
-1.749286844414655318e-01
-1.304158792519398979e-01
-8.476948313235871391e-02
-3.869069938277176768e-02
7.013594004903644930e-03
5.174666883418099772e-02
9.480278475471132227e-02
1.358006309532142075e-01
1.739240678650856298e-01
2.088253666440377243e-01
2.403039084602409114e-01
2.675581488940646513e-01
2.907458792597055197e-01
3.095799398780168521e-01
3.234904276821036206e-01
3.331377875812113198e-01
3.379727727056696107e-01
3.378010782126465439e-01
3.336568763746835531e-01
3.247155993076282221e-01
3.113191744540884098e-01
2.943340896567803178e-01
2.731568844534673079e-01
2.484999213467192769e-01
2.208440951461161650e-01
1.900835139022599429e-01
1.570431513162776072e-01
1.219889833640423610e-01
8.525775926780293501e-02
4.758377238596778191e-02
9.280731746310860730e-03
-2.903620943648665964e-02
-6.689799042623328917e-02
-1.036992678525349154e-01
-1.388325068105482063e-01
-1.720494176254079854e-01
-2.024817510271604282e-01
-2.298111689563215876e-01
-2.537815575827032655e-01
-2.735608694320915690e-01
-2.892566589987192738e-01
-3.004868278912716795e-01
-3.067145837063434688e-01
-3.085181189533193202e-01
-3.053807904177833765e-01
-2.972221990914147849e-01
-2.850274471773372453e-01
-2.682176686688845235e-01
-2.473050776229389069e-01
-2.231746310076627438e-01
-1.956393951995545333e-01
-1.655364826135582168e-01
-1.335284013493941990e-01
-9.982926358588137261e-02
-6.532720317151974321e-02
-3.049918089241038244e-02
4.210329719316563413e-03
3.812259022082359339e-02
7.083801599463257492e-02
1.018887855892467442e-01
1.310138471636549951e-01
1.577287168882852697e-01
1.818007704753044074e-01
2.032784937105980294e-01
2.216294457259279094e-01
2.369984928737673968e-01
2.494702657951726743e-01
2.585860886336747710e-01
2.648736653460207480e-01
2.682112373909463221e-01
2.682973876242995548e-01
2.659625150897522161e-01
2.607434191136494550e-01
2.525463876427339605e-01
2.423608961810060081e-01
2.294132298238282242e-01
2.139627641025514948e-01
1.965922487383206518e-01
1.768111153624677412e-01
1.549865988820863794e-01
1.313926869851783641e-01
1.058729090939559692e-01
7.880371170160369032e-02
5.037422707636972363e-02
2.074152546889615478e-02
-9.809742011819944096e-03
-4.091057580797904936e-02
-7.219102475732835922e-02
-1.035305225591111322e-01
-1.341860259830156832e-01
-1.638181933273611390e-01
-1.922517443652208557e-01
-2.185702651677468578e-01
-2.426053434812631693e-01
-2.640032942404558214e-01
-2.819050966254444401e-01
-2.964335520381365940e-01
-3.070419461036293374e-01
-3.131464532578366322e-01
-3.152266219470841735e-01
-3.126234953892169655e-01
-3.052027330212363498e-01
-2.937073851029228244e-01
-2.775793718916941266e-01
-2.572255103776595053e-01
-2.333054094602840245e-01
-2.057442526033801955e-01
-1.752577937287305987e-01
-1.424393842234931151e-01
-1.076102989598811399e-01
-7.159325307946240446e-02
-3.494475481847925113e-02
1.798674148160900321e-03
3.794224074307678968e-02
7.292201892869724922e-02
1.062165403479141401e-01
1.374392972326939077e-01
1.659831410607269520e-01
1.916063460342297131e-01
2.141448994136578299e-01
2.330858506772266192e-01
2.485928146073110301e-01
2.605597195502082908e-01
2.686817265050986392e-01
2.735382276387849365e-01
2.749120958049101060e-01
2.727561622879897674e-01
2.679788846842361405e-01
2.601369443122018010e-01
2.494850690971245899e-01
2.369406498896882707e-01
2.219865491872886343e-01
2.051290095239705347e-01
1.869256811764304915e-01
1.670754134728172080e-01
1.461162217755108683e-01
1.242932031229945361e-01
1.015004019636423505e-01
7.819015712797384998e-02
5.445664786665500856e-02
3.033855456963524544e-02
6.118710743989952405e-03
-1.804283890529594786e-02
-4.204619432190234013e-02
-6.577620524707375460e-02
-8.885014351146952594e-02
-1.112408318126100609e-01
-1.327950294275231924e-01
-1.529980390553768999e-01
-1.719536364270733142e-01
-1.893144153162192311e-01
-2.045684567900801221e-01
-2.179929272148288799e-01
-2.289958340964583783e-01
-2.372008060511032468e-01
-2.430915628084309166e-01
-2.458787415248731012e-01
-2.454996359094439307e-01
-2.424363160087460167e-01
-2.360295028355162694e-01
-2.265433385439433178e-01
-2.143300165741912622e-01
-1.990841320154650151e-01
-1.813027557234441201e-01
-1.612645370590206628e-01
-1.389890907880420856e-01
-1.151058062412323446e-01
-8.987168362693973012e-02
-6.353271733109810970e-02
-3.670009114302164727e-02
-9.661195441901720971e-03
1.725268307991640118e-02
4.361563354784044749e-02
6.904135857345483629e-02
9.332144468243173951e-02
1.161780636984971055e-01
1.372075967875608926e-01
1.564575868651943702e-01
1.736728537650513438e-01
1.885221111475558486e-01
2.013719503927902665e-01
2.118337448675781109e-01
2.197094491390266524e-01
2.256795589934811608e-01
2.290877755228899193e-01
2.300151211522647454e-01
2.290623068242350624e-01
2.255784372140211269e-01
2.198606693585311023e-01
2.122278641371115326e-01
2.021914296907851571e-01
1.901796845860984353e-01
1.762361687233814089e-01
1.600844901771503459e-01
1.422079039125541122e-01
1.225005414293099670e-01
1.009173919926083796e-01
7.790784192769414918e-02
5.342835830684784792e-02
2.764470271284523439e-02
8.645809595658054958e-04
-2.664055781675479795e-02
-5.466017621333868481e-02
-8.286714328123137574e-02
-1.107316223547809009e-01
-1.381189503800007712e-01
-1.645247599733956900e-01
-1.893040715341615388e-01
-2.125238542352413385e-01
-2.334120273315052341e-01
-2.513900695515258743e-01
-2.668405702545632585e-01
-2.787145268048706326e-01
-2.868208950579667627e-01
-2.915041321974389810e-01
-2.919220789999787957e-01
-2.882750142586427700e-01
-2.808255521371452179e-01
-2.690811923253197957e-01
-2.536360090892938457e-01
-2.346626933068312881e-01
-2.120545104591259056e-01
-1.867020019521532515e-01
-1.586980607920541742e-01
-1.282689616247272013e-01
-9.639758028664821565e-02
-6.315728934745060141e-02
-2.901231072119675458e-02
5.332129750635572485e-03
3.958469764975200422e-02
7.335706777234074494e-02
1.061668732856005104e-01
1.376109965608142693e-01
1.675702756766980772e-01
1.956204918485941469e-01
2.213514900389939033e-01
2.450548292770739489e-01
2.661246618644343975e-01
2.842640318136387401e-01
3.001752039037093311e-01
3.128972489290591241e-01
3.224921644997702508e-01
3.295261643686606678e-01
3.330639621225596203e-01
3.334609594932588239e-01
3.309506838386385708e-01
3.247398735521284108e-01
3.154575306446956162e-01
3.029433789123201493e-01
2.866594093494019280e-01
2.674344428847719723e-01
2.448219120029814788e-01
2.186442440216261329e-01
1.897241837092178973e-01
1.576714714549564966e-01
1.226765046977899287e-01
8.532440871346771982e-02
4.570253790351888612e-02
4.136266001957628058e-03
-3.880341363454989367e-02
-8.260648102711806717e-02
-1.269769850923780641e-01
-1.711222900965776450e-01
-2.142706951702689211e-01
-2.563492931097755001e-01
-2.961645791324139521e-01
-3.329784383932674618e-01
-3.669594274643461773e-01
-3.966019337323439253e-01
-4.215726169660301559e-01
-4.419364593156861476e-01
-4.563929581937594682e-01
-4.651146490908685260e-01
-4.680173487611218319e-01
-4.642375379231343246e-01
-4.545305903304084350e-01
-4.386709569205401449e-01
-4.163668253706727662e-01
-3.888925807241915833e-01
-3.559369909344076155e-01
-3.178443749585959655e-01
-2.760050904808071248e-01
-2.303185248138229224e-01
-1.815822194979543891e-01
-1.309196428725551697e-01
-7.865829621747058575e-02
-2.565035735119916560e-02
2.720951674131109194e-02
7.935641290514117152e-02
1.301944296964520353e-01
1.789120100978368599e-01
2.249279163912705215e-01
2.681603490079529362e-01
3.076509997199173840e-01
3.430921397280530805e-01
3.748177890080877650e-01
4.017208489530810778e-01
4.240043564118818331e-01
4.419580668012765279e-01
4.546190029476675498e-01
4.626904141542594884e-01
4.661394851163860320e-01
4.642761220803940936e-01
4.582355222123211669e-01
4.475218240892560040e-01
4.318024943513697478e-01
4.124868886385582023e-01
3.886739613046703568e-01
3.605312686506625952e-01
3.291728180282154081e-01
2.939081633131789273e-01
2.552144621243176981e-01
2.137648969610849714e-01
1.694016475217981488e-01
1.226601568929461261e-01
7.407138112405761698e-02
2.394732072997196592e-02
-2.728699410211448545e-02
-7.888834498855787358e-02
-1.302389090277820960e-01
-1.811804716779231716e-01
-2.304687451799873055e-01
-2.775358278133476242e-01
-3.222703824623371904e-01
-3.631435782143920266e-01
-3.999141437095749541e-01
-4.322371788690421712e-01
-4.587301661113242224e-01
-4.796241508309845303e-01
-4.942979387030420613e-01
-5.018248576904540403e-01
-5.029972273405294292e-01
-4.970076798201213952e-01
-4.835881109207622597e-01
-4.640597314216587943e-01
-4.375993921643138718e-01
-4.047816069756268731e-01
-3.668520124557300699e-01
-3.235955684971187907e-01
-2.760883716715026859e-01
-2.253757432471568678e-01
-1.718510506667091653e-01
-1.167255193748409914e-01
-6.089408119129614827e-02
-5.085596626244928697e-03
4.971849797386344860e-02
1.026759401520360160e-01
1.530489348479701084e-01
2.003974420072761053e-01
2.437842099742927315e-01
2.828628321754861896e-01
3.175914048313899229e-01
3.470859927521385280e-01
3.715915256273555345e-01
3.911346610555616055e-01
4.050759508719972701e-01
4.142556075750825073e-01
4.184695714838034264e-01
4.174184481158272342e-01
4.124079033324250521e-01
4.028199509117382782e-01
3.887144286228883527e-01
3.716401468492197546e-01
3.505723452391650841e-01
3.260811406081650654e-01
2.991170385372164953e-01
2.690487682074806375e-01
2.365584359766409461e-01
2.020988580792463241e-01
1.654661745750853896e-01
1.272840369739831057e-01
8.780676470260620481e-02
4.719831217410674906e-02
5.882536122863546435e-03
-3.571652096009056421e-02
-7.720661026396671844e-02
-1.184530802346802636e-01
-1.585667694064333277e-01
-1.972388965772952085e-01
-2.343024588125140473e-01
-2.686324573399222482e-01
-3.001660479878389132e-01
-3.284819251873216106e-01
-3.525051868860373805e-01
-3.725438688733170300e-01
-3.878562989347731360e-01
-3.976856402652018119e-01
-4.027764885198857892e-01
-4.021456272038285151e-01
-3.955766647102453293e-01
-3.841274489964789374e-01
-3.668479624332015021e-01
-3.442214142302251201e-01
-3.170915465643919240e-01
-2.851474085038531725e-01
-2.492558440896939786e-01
-2.100958715196327986e-01
-1.679158177857435486e-01
-1.237105756444262933e-01
-7.808328813295088711e-02
-3.163975223257954605e-02
1.480836384871592193e-02
6.059769040098963999e-02
1.050441969257047137e-01
1.477619444698297091e-01
1.878900453457392761e-01
2.250346239449412256e-01
2.590612300642516908e-01
2.890815781202688561e-01
3.151826886499288216e-01
3.372069230511076654e-01
3.544221318512822405e-01
3.674486092627374800e-01
3.758569970175650310e-01
3.792135690938308601e-01
3.785901836328446901e-01
3.731678502738374759e-01
3.629669710630718527e-01
3.491007863156292967e-01
3.306652926430773687e-01
3.081541641687602917e-01
2.822204500222230683e-01
2.524182476717087287e-01
2.194303759981990898e-01
1.835849077655417050e-01
1.449290187716786860e-01
1.041540648395165580e-01
6.155672271520259975e-02
1.759797816856452368e-02
-2.720180043511832846e-02
-7.224526208493570190e-02
-1.168777860966829507e-01
-1.607953242773549896e-01
-2.029605766477541318e-01
-2.428659308937263228e-01
-2.801555091626127814e-01
-3.136554794576271177e-01
-3.432066863998926576e-01
-3.682507182783623656e-01
-3.878059890772609930e-01
-4.021973833136155418e-01
-4.106575726212789990e-01
-4.126730510544562858e-01
-4.090875336609883783e-01
-3.990396374512771294e-01
-3.827258705668650784e-01
-3.611425665924903883e-01
-3.337909850571972314e-01
-3.014906025668784295e-01
-2.651057389171633805e-01
-2.247524129313990815e-01
-1.815621718436511711e-01
-1.362789969754819031e-01
-8.945709035689444755e-02
-4.223013423828382573e-02
4.739767519826712690e-03
5.073966903983632287e-02
9.494521417845294686e-02
1.367058775311399965e-01
1.754725885087767279e-01
2.108726966378238199e-01
2.422513098444804558e-01
2.695190430759208389e-01
2.925582196958266268e-01
3.108812257197961504e-01
3.249452122027122747e-01
3.346306604080133140e-01
3.397225762088306178e-01
3.411707143591445890e-01
3.386255308193233948e-01
3.321673849564406589e-01
3.230797111194542159e-01
3.106578378132550666e-01
2.953685431254066684e-01
2.782112687208399548e-01
2.585570505994072565e-01
2.370393764717216856e-01
2.141653107637092046e-01
1.895580931545411407e-01
1.638199922645372786e-01
1.371035529342203851e-01
1.092663124282864662e-01
8.076551005194909649e-02
5.166376933913428837e-02
2.200032621471003508e-02
-7.982405812447985333e-03
-3.801611219444925999e-02
-6.800673729466799600e-02
-9.781733564279847248e-02
-1.268797689781580584e-01
-1.551869667996287894e-01
-1.824418354776610462e-01
-2.079405580609156590e-01
-2.318246732685780853e-01
-2.534941668760778977e-01
-2.722956058300518567e-01
-2.885714938306526700e-01
-3.014248035718171126e-01
-3.104277680762923541e-01
-3.161619613445930677e-01
-3.175633009628026082e-01
-3.146899907535777308e-01
-3.079747761565292397e-01
-2.967730431140858105e-01
-2.815109541510757984e-01
-2.625287677570174449e-01
-2.396802074313433284e-01
-2.136730902599373039e-01
-1.848466591339585074e-01
-1.534709199108883759e-01
-1.203821944560727331e-01
-8.597787019937583319e-02
-5.076734970896237820e-02
-1.551634230799089909e-02
1.928983162955055439e-02
5.313684732714196723e-02
8.547933452933197118e-02
1.157676835259154324e-01
1.437413990879980452e-01
1.690051169677902754e-01
1.911246189938587137e-01
2.102173080365600799e-01
2.259275945744957936e-01
2.380570276184048595e-01
2.471252113020183661e-01
2.526919263351818379e-01
2.548533790081122241e-01
2.544185157982410961e-01
2.508072651521619512e-01
2.444948170204654936e-01
2.360747166103500660e-01
2.251660441873185037e-01
2.124053521120341514e-01
1.980807980146250535e-01
1.820011091629928912e-01
1.648372608201957024e-01
1.466038338827144738e-01
1.272645476567217659e-01
1.074146137496467535e-01
8.692865849680499191e-02
6.588232727163034763e-02
4.469287036648873779e-02
2.330575627058511373e-02
1.826023387747399696e-03
-1.950730067805551970e-02
-4.053986210809248925e-02
-6.125805818953802828e-02
-8.140076213154773255e-02
-1.006933121300072620e-01
-1.192549898373914119e-01
-1.366528462653871234e-01
-1.525944967790989759e-01
-1.673670665088427267e-01
-1.802943343212096150e-01
-1.912030339809323021e-01
-2.004735923094062844e-01
-2.072967371400832870e-01
-2.117610474783044594e-01
-2.140832678672222877e-01
-2.136549300055293477e-01
-2.107795333345051925e-01
-2.055237110943703149e-01
-1.975417679871288301e-01
-1.873307787518565248e-01
-1.748487488428761838e-01
-1.600175701292024244e-01
-1.434477107594011591e-01
-1.250549184195690611e-01
-1.050003012020138543e-01
-8.381684531017322137e-02
-6.153974175051089845e-02
-3.844035363178009701e-02
-1.487719040437466590e-02
8.908959891645383544e-03
3.271614900725344083e-02
5.624980468726785421e-02
7.914455362948596973e-02
1.013876440501177562e-01
1.225917948150703207e-01
1.423617064824079792e-01
1.609547097373871527e-01
1.777322508976010851e-01
1.924309468537697132e-01
2.054213139467876981e-01
2.158954235724597770e-01
2.238441159859292373e-01
2.294561951923024812e-01
2.320307646331097873e-01
2.317882657387776435e-01
2.286815242167291595e-01
2.222446631898936098e-01
2.129016313851413988e-01
2.004376646885783764e-01
1.847129542422961956e-01
1.662749906274368639e-01
1.449196035221927692e-01
1.208754165052345897e-01
9.460998626502768738e-02
6.624336737910993533e-02
3.621474519676592951e-02
4.924879775192200423e-03
-2.712422916188672248e-02
-5.948633462022814844e-02
-9.168220619010097883e-02
-1.229797212476008705e-01
-1.531136909386327238e-01
-1.814064107422983796e-01
-2.071135810795213528e-01
-2.303147744208214331e-01
-2.500774974868393286e-01
-2.659653185895932692e-01
-2.782320404356221633e-01
-2.859824683466159478e-01
-2.892458192407338369e-01
-2.882581080702712462e-01
-2.824507502798403458e-01
-2.723189590286797523e-01
-2.580252404658627263e-01
-2.394213620410632348e-01
-2.173745425292545053e-01
-1.919623174823642253e-01
-1.634373651588421072e-01
-1.328306534409834372e-01
-1.001851548087911437e-01
-6.607590700235239922e-02
-3.128716201847573514e-02
3.910032674800882624e-03
3.893539767575300570e-02
7.328823477185514301e-02
1.065094392836936493e-01
1.382705217902404082e-01
1.681945357753377723e-01
1.957724849825858149e-01
2.211037189469785003e-01
2.436955300748634423e-01
2.631290257187641757e-01
2.800104189381702469e-01
2.934940734267568185e-01
3.035235569683945034e-01
3.107246004985346199e-01
3.142124399582661987e-01
3.142806698878748417e-01
3.112774773746190826e-01
3.044734986004191679e-01
2.944543545464369805e-01
2.812004546579126574e-01
2.642546787790102103e-01
2.443973310962375689e-01
2.213329080949377192e-01
1.949442033344523650e-01
1.660660346049706027e-01
1.343752626456426458e-01
1.001393939425954671e-01
6.392581342900539865e-02
2.587303395718949794e-02
-1.363648394531000174e-02
-5.410032571633893728e-02
-9.496992755427309529e-02
-1.359219008993227396e-01
-1.762830260769356061e-01
-2.152663353221485332e-01
-2.527883063686476861e-01
-2.878291415274310538e-01
-3.196113889205967062e-01
-3.484294302466252047e-01
-3.728729887126507325e-01
-3.926067523682987837e-01
-4.078593114510528084e-01
-4.174333465861839731e-01
-4.214865969576874205e-01
-4.201318531314657267e-01
-4.126022720768544039e-01
-3.996023495315624841e-01
-3.811289057811403369e-01
-3.569549043872156657e-01
-3.282475944353240305e-01
-2.949265842377659652e-01
-2.572958180698185493e-01
-2.167145898498262224e-01
-1.731581541311459915e-01
-1.273514896975992128e-01
-8.035451975510188305e-02
-3.251294917857951161e-02
1.544941669089915093e-02
6.273325045676923783e-02
1.088016093486993963e-01
1.532153809169951308e-01
1.952862277549400616e-01
2.344819837602998558e-01
2.708696732658717465e-01
3.036377385919070693e-01
3.324718747640589278e-01
3.579405726588191228e-01
3.789719534971263126e-01
3.957421051227068554e-01
4.087531383585855660e-01
4.170422838049084868e-01
4.212072640338872520e-01
4.214127362024796541e-01
4.169204724192316913e-01
4.086787677169068655e-01
3.963961248691458272e-01
3.796489665317269169e-01
3.596010730785110798e-01
3.355902734072860882e-01
3.076052950682888198e-01
2.766910390865355285e-01
2.422499003283100916e-01
2.046341416351452058e-01
1.645030830271311251e-01
1.217929204437542823e-01
7.694176233332471193e-02
3.050893603521481756e-02
-1.710241303552391401e-02
-6.553191055695450906e-02
-1.140059501280547838e-01
-1.618269191349794855e-01
-2.088792926206848310e-01
-2.539339452797758634e-01
-2.963194646656486242e-01
-3.360972156232855390e-01
-3.717024470136759406e-01
-4.028464119173505442e-01
-4.294175599952673728e-01
-4.500425886617457905e-01
-4.649302240869818137e-01
-4.737581462379456543e-01
-4.756279306369399773e-01
-4.713235081049551023e-01
-4.603680909509162977e-01
-4.425048660920529175e-01
-4.190276230206355645e-01
-3.894220740468751774e-01
-3.541607287766802004e-01
-3.145805579722887879e-01
-2.705331806169198883e-01
-2.229723876309203101e-01
-1.729614803343878238e-01
-1.208828264227858329e-01
-6.775153300289415981e-02
-1.442056134998870309e-02
3.843313365429512629e-02
9.007102152560880759e-02
1.396989078914712967e-01
1.866212101805151957e-01
2.306420796930129247e-01
2.708159722721655283e-01
3.067705245492797217e-01
3.387142222211609877e-01
3.656145666137600725e-01
3.876461310926211379e-01
4.049932668011484438e-01
4.168199606208925490e-01
4.238281623280148458e-01
4.259114829959126380e-01
4.225698073596241833e-01
4.149260730529953922e-01
4.024772631606359785e-01
3.851312036762503110e-01
3.642412128520531311e-01
3.390047416002602287e-01
3.098461558054327325e-01
2.777638516943581326e-01
2.422849028978914521e-01
2.040791759537979033e-01
1.637453210462152253e-01
1.213258744860568339e-01
7.748198052467003549e-02
3.269700005370777818e-02
-1.259474128705444229e-02
-5.791924558520658572e-02
-1.026030050068672539e-01
-1.460297548798499823e-01
-1.880507443927968148e-01
-2.275858033187809215e-01
-2.641976896209105585e-01
-2.978093664373574478e-01
-3.272120490259635139e-01
-3.523527282935141058e-01
-3.730003030106254225e-01
-3.881743546141321888e-01
-3.982938977235191413e-01
-4.029323928531122756e-01
-4.015667045335227225e-01
-3.950988041072002188e-01
-3.829675861339310594e-01
-3.652089331126460725e-01
-3.431132320081370923e-01
-3.160972991089555095e-01
-2.848425750423636549e-01
-2.504365021202505925e-01
-2.127937954864314030e-01
-1.728628734676802559e-01
-1.314745642056922847e-01
-8.894785054572282301e-02
-4.619575704140022054e-02
-3.858016244233736236e-03
3.757247765758303659e-02
7.749451240801269458e-02
1.153319182285612865e-01
1.506546282728747355e-01
1.833771907294824421e-01
2.128061141245010668e-01
2.388760492410769154e-01
2.617548490291694563e-01
2.807805419844217054e-01
2.963276573281376502e-01
3.085084934747431840e-01
3.168010985785376654e-01
3.219828486126256606e-01
3.238541017228236396e-01
3.220967433238960953e-01
3.177693261838169247e-01
3.102438612413647157e-01
2.994500929302926218e-01
2.865166374829667406e-01
2.705061429633335290e-01
2.517189444396836784e-01
2.307667436521005921e-01
2.070752221643143154e-01
1.810362667644419554e-01
1.529223335976634401e-01
1.225680099324185507e-01
9.036135499957693995e-02
5.653676513752860927e-02
2.130298672228242429e-02
-1.504880891890382488e-02
-5.200902807999883970e-02
-8.912795264671286022e-02
-1.262598273130561277e-01
-1.624430238681548455e-01
-1.972776441245065460e-01
-2.305000496014547873e-01
-2.609908637287109978e-01
-2.885610256011548191e-01
-3.127322663008522685e-01
-3.325146412505679550e-01
-3.480788726313895354e-01
-3.587611986306498690e-01
-3.639530681692142444e-01
-3.642654248458174204e-01
-3.589628846116030836e-01
-3.480079632939367396e-01
-3.323110160350091768e-01
-3.113233818706592215e-01
-2.856289957272596380e-01
-2.560577922558262554e-01
-2.226084714946377219e-01
-1.861997636001685164e-01
-1.475691279593090155e-01
-1.071187261188926987e-01
-6.584954029514217266e-02
-2.440374243570741369e-02
1.664386829564518805e-02
5.648381232276886155e-02
9.454140497793929454e-02
1.303260032886792985e-01
1.634165602972269538e-01
1.932572773343987083e-01
2.197074277293644684e-01
2.426290661254880410e-01
2.615919710648630936e-01
2.769119929433587757e-01
2.885163375137835828e-01
2.961838312843603216e-01
3.006664809030723529e-01
3.017319348905364573e-01
2.993875795221175307e-01
2.947123521879962960e-01
2.871556171642801192e-01
2.770022942714689962e-01
2.652668793174395856e-01
2.512743994753307009e-01
2.355247010396215313e-01
2.185876840723401937e-01
1.999749815545211473e-01
1.801955147520970524e-01
1.594410853363162905e-01
1.374138154739563689e-01
1.145417757389573243e-01
9.083414880338441799e-02
6.616659754383716341e-02
4.082826053894423463e-02
1.490412871173101700e-02
-1.160640207722640066e-02
-3.854334795931405044e-02
-6.554307804532115422e-02
-9.260572562989807799e-02
-1.194838812787705484e-01
-1.456109184184720962e-01
-1.710524003420052230e-01
-1.953105762577715954e-01
-2.177655236261564764e-01
-2.386102932583855640e-01
-2.570559522938656860e-01
-2.725925690195447060e-01
-2.855995553054142544e-01
-2.950709776395816220e-01
-3.008369026451331307e-01
-3.032403906270447758e-01
-3.014686425005562720e-01
-2.957193203144090066e-01
-2.862237220293258888e-01
-2.726063360079745146e-01
-2.553704487857511585e-01
-2.347295607549204355e-01
-2.107361671103760714e-01
-1.841147440556981374e-01
-1.551337565650455219e-01
-1.241660423351712145e-01
-9.201480868244943379e-02
-5.903603468195593035e-02
-2.575789767004951075e-02
7.137976314602098582e-03
3.917709232141694531e-02
6.992728950132240384e-02
9.884334259850061088e-02
1.254845618706892096e-01
1.496805026781873327e-01
1.709784031305275898e-01
1.891249522891648716e-01
2.042918009012266167e-01
2.160557492567070637e-01
2.244367308940107275e-01
2.299498990129387188e-01
2.321299796512685809e-01
2.313694360176922760e-01
2.281926428664289852e-01
2.222956598178026932e-01
2.143221220172373265e-01
2.046269234407233073e-01
1.930917144689725529e-01
1.804753848839854846e-01
1.668935560679378205e-01
1.523454088363222769e-01
1.375828837180584907e-01
1.224793524282707380e-01
1.070715883649766137e-01
9.200546033798470691e-02
7.697507981982115721e-02
6.204017750987338153e-02
4.753115962485370688e-02
3.322882618121489329e-02
1.908036443275000493e-02
5.240688388320688396e-03
-8.431043658731721124e-03
-2.210548645068485807e-02
-3.561977411585290354e-02
-4.904811549062709775e-02
-6.265268854163028034e-02
-7.609580444301602964e-02
-8.938956985276269585e-02
-1.028575992737696954e-01
-1.158743372614954303e-01
-1.285000337170215667e-01
-1.408274889644297589e-01
-1.521890149155962213e-01
-1.626597224580118017e-01
-1.720820207778226973e-01
-1.798332804906026539e-01
-1.860646842802358147e-01
-1.904269046412067623e-01
-1.924402390061947798e-01
-1.924054813469539826e-01
-1.898807907560287611e-01
-1.846226588204053498e-01
-1.770991808119497524e-01
-1.669040732006047412e-01
-1.541204936670184378e-01
-1.391860314242342744e-01
-1.219891585051490202e-01
-1.028164492723604162e-01
-8.209836188666164158e-02
-5.996317713693419954e-02
-3.679843267462860196e-02
-1.303323133754830110e-02
1.105854482008827855e-02
3.513544063431653375e-02
5.874710956660977867e-02
8.159480946977273885e-02
1.035172017910902242e-01
1.240002730088247962e-01
1.428910564571936881e-01
1.601411613296523928e-01
1.752605499197845140e-01
1.883322486987341615e-01
1.993122448886172071e-01
2.077906465976460670e-01
2.141361134161741675e-01
2.181718585750098693e-01
2.196138826925568555e-01
2.191071403827949959e-01
2.162315432261277537e-01
2.109013561328051678e-01
2.038562180480258113e-01
1.945187358770995856e-01
1.830591651022309418e-01
1.699645074322991001e-01
1.548220260930125158e-01
1.379198312714253194e-01
1.195123235257710553e-01
9.939289911068061034e-02
7.789335771861080615e-02
5.515790102132769879e-02
3.119389115997694972e-02
6.287668121713857472e-03
-1.933593713737195852e-02
-4.550402426970863445e-02
-7.203685364172099370e-02
-9.845778583002356976e-02
-1.245770016219203136e-01
-1.501911535736083769e-01
-1.746345078685385965e-01
-1.978238233424967629e-01
-2.194034198592357265e-01
-2.386588919799657038e-01
-2.557362266736420420e-01
-2.700566770960546314e-01
-2.810225045168555091e-01
-2.891117427731694223e-01
-2.935158392889345436e-01
-2.939775925104783916e-01
-2.911371899191894097e-01
-2.842194247192848522e-01
-2.734042440298325993e-01
-2.592392510063027955e-01
-2.412836298229833476e-01
-2.200569497338827896e-01
-1.959944394256197819e-01
-1.689936626715591861e-01
-1.397970624215405244e-01
-1.087369750419318604e-01
-7.598294019533001487e-02
-4.230803235217175939e-02
-8.006976084730242638e-03
2.659234690221355668e-02
6.093394986897000820e-02
9.460166415761787906e-02
1.273418394268801268e-01
1.588016632894360403e-01
1.884627417636764446e-01
2.163340789599713376e-01
2.420873211157627825e-01
2.651945290012013845e-01
2.860473918172939389e-01
3.041098155424401539e-01
3.189393779331979872e-01
3.313597420034382623e-01
3.404194122153217927e-01
3.459922055176821720e-01
3.488931039512496723e-01
3.480672244556718975e-01
3.437257773982431708e-01
3.363407848540553302e-01
3.250562560515247168e-01
3.103435392883644450e-01
2.923143531810393769e-01
2.704244698095973898e-01
2.453327149330502555e-01
2.169321253330634969e-01
1.850547888966667942e-01
1.504258522592936964e-01
1.129889917194616816e-01
7.295850433146280900e-02
3.091411480438164411e-02
-1.276838130573638985e-02
-5.772439431161126289e-02
-1.033634273488764077e-01
-1.489168269073459228e-01
-1.940707593682275411e-01
-2.380209032197517227e-01
-2.798089530826520233e-01
-3.193744001191168302e-01
-3.555730618209504423e-01
-3.875253103646466024e-01
-4.156050110290802069e-01
-4.383116689006597566e-01
-4.552903455691544865e-01
-4.669372564022112870e-01
-4.720073144185702452e-01
-4.707374864708174789e-01
-4.634365037767590456e-01
-4.493851797760718969e-01
-4.294139061319695583e-01
-4.037390777803146480e-01
-3.722303618882646381e-01
-3.361928279805256325e-01
-2.957645624233457560e-01
-2.513225026221001523e-01
-2.044002914767235057e-01
-1.550969625747111447e-01
-1.041784987553646957e-01
-5.284032572891481094e-02
-1.473948788065393423e-03
4.922133923235064157e-02
9.837663666252041694e-02
1.454902933969441370e-01
1.902108312458928308e-01
2.318445075274302436e-01
2.699681742824422970e-01
3.047690368832715602e-01
3.354830259624144162e-01
3.619145945313024249e-01
3.848415888380068983e-01
4.031811691843636414e-01
4.172558980561927866e-01
4.277508439398005624e-01
4.336982897410089355e-01
4.358057738426809324e-01
4.343829705166441513e-01
4.286606924301929467e-01
4.196480084416390754e-01
4.071478611719654417e-01
3.906529816234018404e-01
3.713480237645068183e-01
3.485929622614651890e-01
3.222018320038646522e-01
2.933123490778052900e-01
2.611655574510540201e-01
2.259496311145869907e-01
1.883555052367574534e-01
1.481295675152031199e-01
1.055481336027858236e-01
6.115646700554706883e-02
1.517017828016607728e-02
-3.216399376964612644e-02
-8.011459068401391437e-02
-1.281246111719459291e-01
-1.761142456310086091e-01
-2.229005051279766281e-01
-2.678342598296652444e-01
-3.110273861302114695e-01
-3.508370943794463792e-01
-3.869203648484340619e-01
-4.191704677239611598e-01
-4.460587300836608149e-01
-4.676612279346391565e-01
-4.836182613699555044e-01
-4.928082535799764852e-01
-4.958520925216279296e-01
-4.921977150367229936e-01
-4.813367150845758724e-01
-4.644334358107624627e-01
-4.408670256203518489e-01
-4.108641380681305466e-01
-3.757996692575061859e-01
-3.353195122365431047e-01
-2.902767528296593125e-01
-2.417983000204078636e-01
-1.901407933270863326e-01
-1.363422361866390431e-01
-8.132291518128739738e-02
-2.573702665374230300e-02
2.954708788904347738e-02
8.368643004301601351e-02
1.359065793077771922e-01
1.858257161456376427e-01
2.324713484179987133e-01
2.752861014222613423e-01
3.143928621049491556e-01
3.486409969504066231e-01
3.780160509958862547e-01
4.026924565764152808e-01
4.216688159410703629e-01
4.355009151276953427e-01
4.441096330130034908e-01
4.468156633759425289e-01
4.446755363155232565e-01
4.371946190623450801e-01
4.241270136658909506e-01
4.068478455706732166e-01
3.845007805838140946e-01
3.573991514085116394e-01
3.266894131175143157e-01
2.917223876342542876e-01
2.531958700524115091e-01
2.117875471047099833e-01
1.674447115436744904e-01
1.209315390993271899e-01
7.274431007680215444e-02
2.333337391115898607e-02
-2.668092592596561785e-02
-7.663895976742418625e-02
-1.258013060307732189e-01
-1.738723379394308266e-01
-2.197596904768084891e-01
-2.628084188047740133e-01
-3.029105903936057387e-01
-3.387012299819436301e-01
-3.699335187118016344e-01
-3.963805269200090242e-01
-4.168554213950351195e-01
-4.316445194326160029e-01
-4.403257632662315180e-01
-4.421831816288909756e-01
-4.380825146129163628e-01
-4.274504445613921400e-01
-4.102003327076741979e-01
-3.876993049795809942e-01
-3.593344904743215329e-01
-3.257583340298121910e-01
-2.882751576087141943e-01
-2.467231557961888089e-01
-2.021713827944648934e-01
-1.556503976142192824e-01
-1.074801357787213141e-01
-5.876965926129271156e-02
-1.030771300488927955e-02
3.735952551865706628e-02
8.340815780968913185e-02
1.271895200989718866e-01
1.682031798618858764e-01
2.061674012520731125e-01
2.403976857163908631e-01
2.707449877535934579e-01
2.973423777675912594e-01
3.195067269150295153e-01
3.375990574156666479e-01
3.518093888796016144e-01
3.615924457351740173e-01
3.678005589979593259e-01
3.703624527352943341e-01
3.689270897964547213e-01
3.647342128914839998e-01
3.572364239145814913e-01
3.462958166895579448e-01
3.333722372913993648e-01
3.174041516028688892e-01
2.986450102117568783e-01
2.780284978934633999e-01
2.547001770264660792e-01
2.290288166288074745e-01
2.014396265527400587e-01
1.714325352717867845e-01
1.393709765859276750e-01
1.054497376900458555e-01
6.954437745681019134e-02
3.192226132603145916e-02
-7.079950576104998561e-03
-4.725828636197848542e-02
-8.852697039303208948e-02
-1.300572411264735995e-01
-1.715616521577186804e-01
-2.128541433079232381e-01
-2.527538734201876802e-01
-2.910547128566149944e-01
-3.272540838352321346e-01
-3.600801094076765407e-01
-3.895708456426786315e-01
-4.148486111626260575e-01
-4.348433810622011064e-01
-4.499777501329603746e-01
-4.590972732474125628e-01
-4.616110242294829691e-01
-4.583583930291647013e-01
-4.481609460431074110e-01
-4.312136855061591278e-01
-4.082741581909324902e-01
-3.788547629027776420e-01
-3.437178436485055499e-01
-3.036138408228724606e-01
-2.587206270146653608e-01
-2.101922233364373338e-01
-1.588134107872457568e-01
-1.052347521717623136e-01
-5.071849947034606787e-02
3.915350586705418356e-03
5.784515891141875366e-02
1.100237725452808402e-01
