BVP Green Neck Signal
4.971694379283945857e-03
7.902265554858697513e-04
-3.283726580108841872e-03
-7.169929225842331180e-03
-1.078814558005674294e-02
-1.405813984109421065e-02
-1.689991716338013622e-02
-1.924254267738524649e-02
-2.102667604877347246e-02
-2.219482155153849195e-02
-2.270521197790633522e-02
-2.252791906120052423e-02
-2.163685829481326595e-02
-2.003127566049730385e-02
-1.772141327460700216e-02
-1.472544160247483795e-02
-1.109174961047931958e-02
-6.876038106934141345e-03
-2.146525146098976489e-03
3.001943043254732234e-03
8.470745041094370972e-03
1.414859311655799687e-02
1.990858371054514755e-02
2.562253371754604631e-02
3.115793076294470776e-02
3.637912378379295347e-02
4.115212809832557300e-02
4.535478973531795188e-02
4.886988845682812416e-02
5.158815384486652861e-02
5.342945711496206035e-02
5.432048592870095810e-02
5.420657427706392084e-02
5.307118855939006036e-02
5.090336215367118056e-02
4.772115593900079500e-02
4.357710901134169423e-02
3.852817129324730139e-02
3.266249358914578849e-02
2.609001186380247722e-02
1.892429017152609527e-02
1.129962646914978164e-02
3.358622540807169356e-03
-4.755595508609945440e-03
-1.289813346867966191e-02
-2.092376778605836707e-02
-2.869481316852286884e-02
-3.608840740884079745e-02
-4.298403822896798565e-02
-4.927964779859089067e-02
-5.489429773469387680e-02
-5.975033298777186752e-02
-6.379625874315494882e-02
-6.699816922399140506e-02
-6.932663247314066468e-02
-7.077805854052088286e-02
-7.135879532829736416e-02
-7.108043559534965583e-02
-6.997220160682358914e-02
-6.806706424497113717e-02
-6.540169752872979081e-02
-6.201977870202175780e-02
-5.796576979336373614e-02
-5.328429571681313898e-02
-4.802016099656718912e-02
-4.221802687497375195e-02
-3.592077313159596635e-02
-2.917012629287307063e-02
-2.200794206612010501e-02
-1.447696211094834547e-02
-6.620255706761835057e-03
1.517036096299533704e-03
9.883071044424235341e-03
1.842459403396548567e-02
2.708254493742890540e-02
3.578730315310547916e-02
4.446778938866033370e-02
5.304419623269287370e-02
6.142744262487341567e-02
6.952739017232746621e-02
7.724714629065433658e-02
8.448560914972121083e-02
9.114199503522947554e-02
9.711769985910477521e-02
1.023148939871881685e-01
1.066406619469771472e-01
1.100173313338195097e-01
1.123703463249508122e-01
1.136396018192464691e-01
1.137902860274284805e-01
1.127912231631373885e-01
1.106372290812548120e-01
1.073497302314092017e-01
1.029544190248712077e-01
9.750926378464250255e-02
9.109159361257371246e-02
8.378396571960794459e-02
7.569606787077134968e-02
6.694681093999746424e-02
5.765906563525471928e-02
4.796746311710146926e-02
3.800877544848635381e-02
2.791698910000804668e-02
1.782139861320457264e-02
7.850228835394445354e-03
-1.882189628668829925e-03
-1.127523342068865835e-02
-2.023120803588462913e-02
-2.867598276503870863e-02
-3.654902969639237803e-02
-4.379489879066699592e-02
-5.038384850351459304e-02
-5.629452460581266943e-02
-6.151208591570711537e-02
-6.604027097118626843e-02
-6.988617686408667151e-02
-7.306129477765116453e-02
-7.558423944941711214e-02
-7.747420182993125515e-02
-7.874880323944238869e-02
-7.942417287348076116e-02
-7.951563622143499599e-02
-7.903140135000030764e-02
-7.797572298042960981e-02
-7.635143027433577423e-02
-7.415442041429842757e-02
-7.137842365452137794e-02
-6.801719106003245585e-02
-6.406453271552856044e-02
-5.951436295833986700e-02
-5.436635563033702379e-02
-4.862917287345153855e-02
-4.231302615975220116e-02
-3.544330492984505004e-02
-2.805930154701614943e-02
-2.020340088608994777e-02
-1.194147912457088796e-02
-3.351964751238209472e-03
5.481556195096204225e-03
1.445130545909367042e-02
2.344224352540866252e-02
3.233395548398077662e-02
4.099189634658639836e-02
4.927924834444871033e-02
5.706040203374700831e-02
6.420156351474412548e-02
7.056997005499170139e-02
7.604921410018521122e-02
8.053732317324539813e-02
8.393678724128332547e-02
8.618454381502020645e-02
8.723523395974741579e-02
8.705342721584800880e-02
8.564868810971669466e-02
8.304354877889864872e-02
7.927662111292613223e-02
7.442710506495929523e-02
6.858084647172095483e-02
6.184076098384660297e-02
5.433446118391235119e-02
4.619198778535986427e-02
3.755206153377432104e-02
2.856078455500497132e-02
1.936369120974337082e-02
1.009966478126479196e-02
9.043016523043066399e-04
-8.091519287046549866e-03
-1.677760500677992483e-02
-2.504949133866718469e-02
-3.281310581278983757e-02
-3.999956691450121810e-02
-4.654404350424538872e-02
-5.239577655944567536e-02
-5.752361445731279943e-02
-6.189861614817994406e-02
-6.550431456321255397e-02
-6.833446259264687461e-02
-7.038397634032968198e-02
-7.165458814426661771e-02
-7.215126876977003001e-02
-7.187941568235461931e-02
-7.084614515243245481e-02
-6.905902838657024256e-02
-6.652598553335579978e-02
-6.325574927387281332e-02
-5.925723311349768985e-02
-5.454208944477845905e-02
-4.912564628199479061e-02
-4.302406419897843171e-02
-3.626243556559129166e-02
-2.887290261257011159e-02
-2.089010409970816495e-02
-1.236608254848136669e-02
-3.360827915808063324e-03
6.059903195866842007e-03
1.580718610672840474e-02
2.578619399894171299e-02
3.589281841047521626e-02
4.600218508384835980e-02
5.598639322758883902e-02
6.570954815921763170e-02
7.502542151028675221e-02
8.378728780791754038e-02
9.185118936314118354e-02
9.907527292359248616e-02
1.053207619814662127e-01
1.104706964205176695e-01
1.144176893329872796e-01
1.170647886541675425e-01
1.183553424144513921e-01
1.182425854501777257e-01
1.167015459212116107e-01
1.137541101995516168e-01
1.094291061749358696e-01
1.037860447779541673e-01
9.692264671970036993e-02
8.894107715379348522e-02
7.997199176892262618e-02
7.016691156631990611e-02
5.967963417076046356e-02
4.867635528359358366e-02
3.732849708050275939e-02
2.580478755494929749e-02
1.426387607612784186e-02
2.861991598249432559e-03
-8.256905782634719332e-03
-1.897421353836466207e-02
-2.917513857691428347e-02
-3.876683262758523485e-02
-4.768277557792193616e-02
-5.585985190910422449e-02
-6.325927387294441595e-02
-6.985941305490131481e-02
-7.564155729461903566e-02
-8.060385056486429889e-02
-8.475126171321309410e-02
-8.809005215953873147e-02
-9.063101735654004176e-02
-9.238594536564470605e-02
-9.336449322030265785e-02
-9.357208315251590303e-02
-9.301348938161720092e-02
-9.168900550482526890e-02
-8.959374587232950271e-02
-8.672245484162610651e-02
-8.306885892521094494e-02
-7.862599328026691203e-02
-7.338842671104342519e-02
-6.736048270838213003e-02
-6.055027798478594681e-02
-5.297259550269447365e-02
-4.466494285276121495e-02
-3.566980430742692360e-02
-2.604479225887694482e-02
-1.587643020905717128e-02
-5.255267800693408375e-03
5.706490006961047884e-03
1.687251950963539887e-02
2.810366617628606151e-02
3.924221464062810361e-02
5.011831058829469693e-02
6.056150156268792079e-02
7.039899204921283571e-02
7.945711372451849663e-02
8.756875153568940973e-02
9.458823895529139270e-02
1.003745078159301585e-01
1.048083065559232974e-01
1.078104882168666734e-01
1.093077769073474703e-01
1.092679046793215564e-01
1.077026120665419417e-01
1.046305010520116596e-01
1.001229956320903863e-01
9.428477805150378699e-02
8.722910338953498988e-02
7.911573914353239867e-02
7.012111545367172294e-02
6.042865646266594448e-02
5.024366410493452673e-02
3.977567319467396889e-02
2.923010375454769549e-02
1.880509852832946277e-02
8.697058435950434305e-03
-9.220029765991078971e-04
-9.905290845973526229e-03
-1.811131117077965230e-02
-2.544280893045735431e-02
-3.182934067057945071e-02
-3.721023360305725919e-02
-4.157675737295172397e-02
-4.493804173347375891e-02
-4.731723320463095128e-02
-4.877960860868479215e-02
-4.939849532748590011e-02
-4.925959528201442894e-02
-4.846966982289490494e-02
-4.713757785383002746e-02
-4.537325403883129410e-02
-4.328770497316577343e-02
-4.099039898961431838e-02
-3.857468454093090221e-02
-3.612450769197238232e-02
-3.371804755087227934e-02
-3.140357609645427067e-02
-2.921949532182479409e-02
-2.719314134149150575e-02
-2.531992384879532682e-02
-2.358933296238627242e-02
-2.197737252171180072e-02
-2.043795698721891790e-02
-1.892257450604624414e-02
-1.737457059445993851e-02
-1.572947251641622357e-02
-1.392304989690645346e-02
-1.189647602183643675e-02
-9.593956988427744872e-03
-6.963996179636880099e-03
-3.976713757375897884e-03
-6.090793748111285322e-04
3.150681625545022260e-03
7.283174377359614808e-03
1.176336612102150264e-02
1.654826780045768816e-02
2.156657941894278563e-02
2.674364163604961431e-02
3.198738630993317594e-02
3.718963880009961559e-02
4.224101223653384946e-02
4.702652827222837673e-02
5.142818943147397376e-02
5.533075392537757653e-02
5.863250584934028703e-02
6.123584942171754475e-02
6.305419991158071891e-02
6.403024237015161879e-02
6.411185651340876868e-02
6.326874978099840396e-02
6.150376250781702109e-02
5.882402562941441843e-02
5.526535513369876945e-02
5.088913893424646534e-02
4.576059300916487244e-02
3.997072665382717799e-02
3.362394507573372715e-02
2.682758616688026010e-02
1.970210102489659831e-02
1.237174920621621557e-02
4.959817927811406742e-03
-2.412888197795849329e-03
-9.626119286118511517e-03
-1.656808755555625595e-02
-2.313937337126289323e-02
-2.924244080065242779e-02
-3.479577588023000795e-02
-3.973162665262446741e-02
-4.398504155133933780e-02
-4.751080963944923768e-02
-5.027357923165318848e-02
-5.224228664281204554e-02
-5.340465825243091713e-02
-5.375367245490841883e-02
-5.328848186705069379e-02
-5.202336968232439823e-02
-4.997506539332760567e-02
-4.716831532610694933e-02
-4.363914975826772846e-02
-3.942503677459941597e-02
-3.457330243351948440e-02
-2.913943088387864477e-02
-2.318058209908190059e-02
-1.676536751494727556e-02
-9.967897337238374247e-03
-2.865002173152672929e-03
4.455016429105772627e-03
1.190078236539073020e-02
1.937750351508155458e-02
2.678234692893469160e-02
3.401130175456967830e-02
4.095942155137990981e-02
4.752049156605091251e-02
5.358866903627054062e-02
5.906540767772679168e-02
6.385797849295442308e-02
6.787644710407295112e-02
7.105100764802289859e-02
7.332114473946262090e-02
7.463402908542698944e-02
7.496808570418833639e-02
7.430979973752298295e-02
7.266033224186663197e-02
7.005403325872758269e-02
6.653029934672526069e-02
6.214764305791867227e-02
5.698953825939463702e-02
5.114220385470573393e-02
4.470772123630489120e-02
3.780035469502343592e-02
3.053525210642750454e-02
2.303173733460699146e-02
1.541098651210589393e-02
7.791503614319053930e-03
2.812796370073875410e-04
-7.014319471571989553e-03
-1.399898832141341191e-02
-2.059611191102956457e-02
-2.673208329002926126e-02
-3.234862066360921079e-02
-3.740671947032178646e-02
-4.186978657506189305e-02
-4.571793689599355087e-02
-4.894364589073355726e-02
-5.154136771128348810e-02
-5.351734056656196753e-02
-5.488282439055668788e-02
-5.565020482532230528e-02
-5.583602840120497485e-02
-5.545781649194742730e-02
-5.453268984044889328e-02
-5.307693232038418474e-02
-5.110669368473497870e-02
-4.863714694993655913e-02
-4.568228148828692992e-02
-4.225612925544409287e-02
-3.837424023306466175e-02
-3.405324603035608799e-02
-2.931087178495315332e-02
-2.417198452854375790e-02
-1.866437474201565472e-02
-1.281942280182555606e-02
-6.681407902086248032e-03
-2.975645233531274900e-04
6.277729161720455725e-03
1.297574834612722286e-02
1.972577786886482026e-02
2.644862166473085918e-02
3.305518176088131227e-02
3.945551773193207296e-02
4.555611926059455197e-02
5.126102646014615155e-02
5.647548678745840933e-02
6.111275888811222579e-02
6.508925088754682897e-02
6.832739723202110871e-02
7.077041138205585058e-02
7.236610523629727343e-02
7.307622952483305845e-02
7.288945430918307433e-02
7.179825333887156213e-02
6.981611872629689408e-02
6.698018719059016524e-02
6.333067277801009143e-02
5.892962204264608900e-02
5.385350661920077636e-02
4.818135191371319265e-02
4.200621222460988041e-02
3.542643567829924928e-02
2.854071857391712180e-02
2.144887716502941882e-02
1.425091113100102405e-02
7.041854813675715516e-03
-9.248081756758463196e-05
-7.067703037516102904e-03
-1.381050287869939504e-02
-2.025958556678543465e-02
-2.635544025331019308e-02
-3.205204298571068949e-02
-3.731194897588015896e-02
-4.209959915687777610e-02
-4.638964932333537738e-02
-5.016045528031166240e-02
-5.339164060250833899e-02
-5.606683551669342652e-02
-5.817046108685991479e-02
-5.968675067269348100e-02
-6.059960220040271073e-02
-6.089285347290922246e-02
-6.054971069420334029e-02
-5.955272038481368435e-02
-5.788463406853237847e-02
-5.553076114229344579e-02
-5.247797726180857686e-02
-4.871500027541749572e-02
-4.424072626534004266e-02
-3.905759222540788889e-02
-3.317434264847513026e-02
-2.661890606455620534e-02
-1.942301830948087171e-02
-1.163225638517875228e-02
-3.315997436148380648e-03
5.453152431496899148e-03
1.458209953537944331e-02
2.395713069764277697e-02
3.346171329178837528e-02
4.295959659949615678e-02
5.230290929215256762e-02
6.134218539193727476e-02
6.992022019092156149e-02
7.787723254504790027e-02
8.505740958437756072e-02
9.131652748857808921e-02
9.651270071188590427e-02
1.005209805502528808e-01
1.032444463406811674e-01
1.045903952217937943e-01
1.045006774321374093e-01
1.029506527671307098e-01
9.992197292854516910e-02
9.544451385354654760e-02
8.957549987919534440e-02
8.238196767236993789e-02
7.397967728949063348e-02
6.449998266051600038e-02
5.408622774551580248e-02
4.291531869375662250e-02
3.117010325505262247e-02
1.904055919405008013e-02
6.728021649600434903e-03
-5.565477059447730690e-03
-1.764436649377110894e-02
-2.931911472807924302e-02
-4.040295767047717007e-02
-5.073283786780798110e-02
-6.015863259153603204e-02
-6.853784963845750700e-02
-7.576484338193741064e-02
-8.174529043188628885e-02
-8.639990942785313877e-02
-8.968984292846798878e-02
-9.158334514151443562e-02
-9.207137452667500666e-02
-9.117970647705953002e-02
-8.893847270642578351e-02
-8.540474492064061007e-02
-8.065985243167211882e-02
-7.478882815263757089e-02
-6.790198237846008233e-02
-6.012289181275257133e-02
-5.157895048100517854e-02
-4.241496641549877267e-02
-3.278087095329015876e-02
-2.282878227679557837e-02
-1.271645941126231701e-02
-2.602484964035206225e-03
7.358465031606830666e-03
1.701748271974998922e-02
2.622695973109678835e-02
3.485435838173994716e-02
4.278021614139698725e-02
4.988886028966098285e-02
5.609313277733896097e-02
6.132026793916264124e-02
6.550606050347050624e-02
6.862440801707128668e-02
7.065998542163422214e-02
7.161266569729535236e-02
7.151997402029122708e-02
7.042556604335110937e-02
6.839231709891910316e-02
6.551043040282138186e-02
6.187311461304212390e-02
5.758922368329950220e-02
5.278068950732843490e-02
4.757025183025694048e-02
4.208394085058127232e-02
3.644938363119792912e-02
3.079107171429690260e-02
2.521990343755194791e-02
1.984306821693954809e-02
1.475661454994656695e-02
1.003008120279417353e-02
5.728670039430111896e-03
1.896558321941440965e-03
-1.450867745306656451e-03
-4.301914689205489986e-03
-6.670732274333976072e-03
-8.592282422248605570e-03
-1.010463932359308668e-02
-1.126539104494973971e-02
-1.214122907755821150e-02
-1.279965563819891218e-02
-1.331131761997085376e-02
-1.374764997329216455e-02
-1.417399868747304219e-02
-1.464179084552964978e-02
-1.520010331336346839e-02
-1.588135028877857291e-02
-1.669596779594056946e-02
-1.765126666975293246e-02
-1.872999581918430995e-02
-1.989584891219741553e-02
-2.110893793491892823e-02
-2.230658214131329281e-02
-2.341588188338018794e-02
-2.436150823813853367e-02
-2.505868604907465075e-02
-2.542031884846779333e-02
-2.536345327375813530e-02
-2.481423655907491477e-02
-2.370049952188092723e-02
-2.196761907818445964e-02
-1.958326607012158410e-02
-1.651881291000821539e-02
-1.277799602479835935e-02
-8.388737502512833705e-03
-3.385077132603796224e-03
2.159832877199640601e-03
8.155991682719788277e-03
1.450512671000061399e-02
2.107776883386678485e-02
2.773700412386434500e-02
3.434051287829365667e-02
4.073456270838429066e-02
4.676418895635307132e-02
5.228180871099639276e-02
5.714887472855714051e-02
6.122945246915285911e-02
6.441554260036636004e-02
6.661925278508266934e-02
6.775997841978707859e-02
6.780334568554056973e-02
6.673411109945599773e-02
6.455085460947788956e-02
6.130229769660235778e-02
5.704870253246684814e-02
5.186812894073732083e-02
4.587475946240152785e-02
3.918753344830518820e-02
3.193741208104686202e-02
2.426953397180427185e-02
1.632954936984608654e-02
8.259207254779880533e-03
1.975523264710656035e-04
-7.719774245931803128e-03
-1.537876337893233879e-02
-2.267400287599925790e-02
-2.950877701423366972e-02
-3.581666126961732116e-02
-4.153794572668879914e-02
-4.662606700214672745e-02
-5.106011918740953337e-02
-5.482256880773311164e-02
-5.790780542844654877e-02
-6.032376628296944043e-02
-6.207944801266127022e-02
-6.318781530377257094e-02
-6.366448145138925430e-02
-6.352417909488261571e-02
-6.277590105740250837e-02
-6.142644978472901196e-02
-5.947979214140948490e-02
-5.693041790230123078e-02
-5.377081636284857663e-02
-4.999134984872943832e-02
-4.557838820691676590e-02
-4.051805581257595518e-02
-3.480177372145361325e-02
-2.842676196705216235e-02
-2.139217746289797523e-02
-1.371616088909295185e-02
-5.429052905041413524e-03
3.433209189029563270e-03
1.280278640758095512e-02
2.260015368446022244e-02
3.273498430613595161e-02
4.308234219240525409e-02
5.351022335731189794e-02
6.387352024995628097e-02
7.400346401602427016e-02
8.372859875448310230e-02
9.287233135989791943e-02
1.012526492372311931e-01
1.086887155298131291e-01
1.150154575515897476e-01
1.200775551594261137e-01
1.237273436622249312e-01
1.258596662382844289e-01
1.263843142890327120e-01
1.252305693503116824e-01
1.223876450773050267e-01
1.178566404790154371e-01
1.116714554794052405e-01
1.039229785843679144e-01
9.470935375690814340e-02
8.416561458575839982e-02
7.246429436061843643e-02
5.978195669960459369e-02
4.631973448014037320e-02
3.229339037418421654e-02
1.791878468760996906e-02
3.411253395847440271e-03
-1.101405107044501307e-02
-2.515043548561517878e-02
-3.881617731638217078e-02
-5.183442680661415336e-02
-6.404969497489659824e-02
-7.534220791903777081e-02
-8.559700946534849753e-02
-9.473060402428432059e-02
-1.026903126152420159e-01
-1.094278949917254773e-01
-1.149264167591059899e-01
-1.191868824070434901e-01
-1.222144050942145926e-01
-1.240343176579587064e-01
-1.246784935915178777e-01
-1.241808216192887421e-01
-1.225808884740012955e-01
-1.199192563833560571e-01
-1.162347424164577175e-01
-1.115633551235331866e-01
-1.059407110407232788e-01
-9.939956189777013340e-02
-9.196995543674851836e-02
-8.368213843641494898e-02
-7.456924358334247882e-02
-6.466599465688251114e-02
-5.401005034652947567e-02
-4.265357371212143145e-02
-3.065323965533180151e-02
-1.807487631542342710e-02
-5.009184688773418367e-03
8.448664769380534803e-03
2.218648170370294409e-02
3.606570775196606821e-02
4.994451884871309311e-02
6.366160829133821197e-02
7.703795035504523714e-02
8.989288534735809244e-02
1.020368310649256566e-01
1.132754731602473031e-01
1.234176287710141290e-01
1.322872313576576309e-01
1.397127407150082767e-01
1.455384461824636433e-01
1.496499305162064253e-01
1.519400952166885255e-01
1.523381499454346533e-01
1.508274629383244692e-01
1.473987975464351730e-01
1.420974792259286912e-01
1.350166470161472121e-01
1.262576789052744508e-01
1.159789240131171434e-01
1.043677913336695101e-01
9.162007602010877050e-02
7.796876823939326295e-02
6.365746188440335462e-02
4.893128533860557211e-02
3.403920850258869424e-02
1.923045347619141074e-02
4.737511170140710354e-03
-9.231159618770192268e-03
-2.247127248455648568e-02
-3.481846925408071947e-02
-4.614210405443856106e-02
-5.631918921547305473e-02
-6.528092448134821535e-02
-7.298508692032079637e-02
-7.940096498368962030e-02
-8.454735922790677927e-02
-8.845663262518937975e-02
-9.117315226325990729e-02
-9.277015976535961383e-02
-9.332525353586380856e-02
-9.292068740123407555e-02
-9.164515510937330800e-02
-8.958732842537411867e-02
-8.682783207901163813e-02
-8.344074494064498970e-02
-7.949766096830125639e-02
-7.505218857352136119e-02
-7.014945584423407099e-02
-6.483025935209292545e-02
-5.911746398433494198e-02
-5.302922788909203433e-02
-4.658041248412642804e-02
-3.977826148815286761e-02
-3.262904254256132619e-02
-2.514299974025955425e-02
-1.733567529963658815e-02
-9.224014869166791489e-03
-8.408849495648513042e-04
7.768371586857284600e-03
1.655473741558547568e-02
2.544419222074602305e-02
3.435138502633119234e-02
4.318516322120432432e-02
5.183131679336990677e-02
6.016983251300520724e-02
6.807656532328143495e-02
7.541819660151410920e-02
8.206034040988327560e-02
8.787492907705357625e-02
9.274200403319508845e-02
9.654386226414020389e-02
9.918784371993129290e-02
1.006001927170802057e-01
1.007137629214524543e-01
9.950534797632544504e-02
9.697087498918187387e-02
9.311968613560402119e-02
8.801240964026339764e-02
8.172211032426601740e-02
7.434105665837789645e-02
6.600249394559810912e-02
5.684539524277100464e-02
4.702484404817048463e-02
3.671584288881440256e-02
2.609470280566759254e-02
1.533875443566883739e-02
4.626069754261942849e-03
-5.868180115638589600e-03
-1.598876822563025102e-02
-2.558881060972640481e-02
-3.453099337736378893e-02
-4.271316754692041501e-02
-5.004140318195151454e-02
-5.643965603357033178e-02
-6.186856958044253951e-02
-6.629398915168240036e-02
-6.970436141663413632e-02
-7.211505539287979549e-02
-7.354452278841329405e-02
-7.403087639420644073e-02
-7.362599665917275715e-02
-7.238355543920016455e-02
-7.036708181844979204e-02
-6.764406494184341256e-02
-6.428161994544380475e-02
-6.034550307699837468e-02
-5.590114065265244098e-02
-5.101011076038967224e-02
-4.572640160488551653e-02
-4.010291007492657045e-02
-3.418647040920640146e-02
-2.801695882455357278e-02
-2.163354501912058414e-02
-1.507140219847302905e-02
-8.363008668998455492e-03
-1.541142770340600023e-03
5.359225654447854863e-03
1.230228103992545702e-02
1.924966841008824564e-02
2.615444143021837531e-02
3.296778735549950323e-02
3.963532873741762441e-02
4.609213283841699649e-02
5.227186494927987814e-02
5.810197879187725678e-02
6.350305914306485222e-02
6.839528876322062412e-02
7.269830615109319771e-02
7.633139644053606176e-02
7.921586157608515033e-02
8.128510599076353704e-02
8.247701763402562336e-02
8.273749235671927493e-02
8.203839464032830486e-02
8.035702799804743390e-02
7.768820043312724133e-02
7.405865898793631552e-02
6.949951032177945076e-02
6.406672875250726817e-02
5.784278606476835061e-02
5.091350069953484020e-02
4.338762154985385117e-02
3.538822982786391652e-02
2.704033255605471642e-02
1.847871108139254731e-02
9.841618772006382326e-03
1.264664318316844650e-03
-7.124787944564140926e-03
-1.520111066841265020e-02
-2.285053223167780173e-02
-2.998009383080179474e-02
-3.649985865170268795e-02
-4.234192340189266157e-02
-4.746100745345962352e-02
-5.181537501700160531e-02
-5.538991379903261680e-02
-5.818552875289124959e-02
-6.020730317197711678e-02
-6.148202501312066692e-02
-6.204388442770362999e-02
-6.193037325864081399e-02
-6.118882078249154866e-02
-5.986837389203222837e-02
-5.801741407516176896e-02
-5.568302979874360792e-02
-5.291190915944303519e-02
-4.974452024834126462e-02
-4.621517733341344580e-02
-4.235705468724932504e-02
-3.819448359947310440e-02
-3.374667540428618467e-02
-2.903163773251844076e-02
-2.406138711432230515e-02
-1.884598123806213027e-02
-1.339586000981757806e-02
-7.722561121104485130e-03
-1.837889510981511113e-03
4.241419338714485024e-03
1.049061321722708981e-02
1.688367085593207861e-02
2.338328936870961300e-02
2.994141067243084181e-02
3.650797206455069777e-02
4.301778742690845481e-02
4.939724539518330904e-02
5.557032479783816786e-02
6.144934578788414925e-02
6.694297193084459974e-02
7.195968712562206271e-02
7.640748508575127829e-02
8.019440219299793504e-02
8.323624528974150893e-02
8.546098332302877465e-02
8.679868408145582914e-02
8.720001742432174907e-02
8.663457853704807643e-02
8.507618239929284898e-02
8.253079709134818198e-02
7.902162273866061848e-02
7.457920845881325922e-02
6.926871049267895042e-02
6.316570895300104016e-02
5.635514449036162915e-02
4.894664174249296201e-02
4.105394445720027957e-02
3.279619310928455489e-02
2.430066056284745785e-02
1.569496312384856956e-02
7.100572432072499614e-03
-1.366478676494516618e-03
-9.592648241480648472e-03
-1.748446706220969232e-02
-2.495881291933715190e-02
-3.193863326176245299e-02
-3.837448722903285397e-02
-4.422491593266673904e-02
-4.945784142280765239e-02
-5.406493875444006586e-02
-5.804175711103240487e-02
-6.139250191825815217e-02
-6.413393901155668708e-02
-6.628395858436410271e-02
-6.786287531222047475e-02
-6.889307152602729134e-02
-6.939628504414868670e-02
-6.938834437633950580e-02
-6.888214887355752214e-02
-6.788821209383595623e-02
-6.640659242503334225e-02
-6.443445034615713496e-02
-6.196588812128701884e-02
-5.898757151909585217e-02
-5.548507271213434094e-02
-5.144465990736177968e-02
-4.685357394118723484e-02
-4.169976432211885964e-02
-3.598170435846388682e-02
-2.970651428317800519e-02
-2.288442798944151368e-02
-1.554835306889793510e-02
-7.742002276063720059e-03
4.839702864714049910e-04
9.049785290187288556e-03
1.786791307304243237e-02
2.684055257603630562e-02
3.584591118921132136e-02
4.475859720755370058e-02
5.344565301829057313e-02
6.176393813828150170e-02
6.956990612358449066e-02
7.672487218891650695e-02
8.309399989173581191e-02
8.854575517238759408e-02
9.297283042710154100e-02
9.627901493347919282e-02
9.837830972679421915e-02
9.922593626176912096e-02
9.878766741764191672e-02
9.704953915366157369e-02
9.404306122859536210e-02
8.980664018829584427e-02
8.440587803693136437e-02
7.794163356422396938e-02
7.051871733298283040e-02
6.226558074593149805e-02
5.332870193969441869e-02
4.385617033064043851e-02
3.400445423185523980e-02
2.393370999908648461e-02
1.380122561478235033e-02
3.753068804494533520e-03
-6.067481967445031640e-03
-1.552834548902884242e-02
-2.452158947483674967e-02
-3.294299173813609871e-02
-4.070857542442175847e-02
-4.775964778297919766e-02
-5.404084042731049226e-02
-5.952096969386438952e-02
-6.418661503939251944e-02
-6.802759764149576838e-02
-7.105333056462427577e-02
-7.328151161378877732e-02
-7.473216032490105631e-02
-7.543384096252281346e-02
-7.541710233770615446e-02
-7.471154516596312245e-02
-7.334480466803301735e-02
-7.134412406075699153e-02
-6.873187937147427762e-02
-6.552459049570819039e-02
-6.173808505182325213e-02
-5.738363693179578118e-02
-5.246929879055441809e-02
-4.700349770297441998e-02
-4.099758755312577635e-02
-3.446411113614923638e-02
-2.741962901922187501e-02
-1.989504346680704555e-02
-1.192454041572785055e-02
-3.553251096507233087e-03
5.151877007677558261e-03
1.412073724730750213e-02
2.326575516798530530e-02
3.247910706851008661e-02
4.165051785513983890e-02
5.065319159211706390e-02
5.934907816788041052e-02
6.759941110446511525e-02
7.526225922865173446e-02
8.219445782834718106e-02
8.825842963028258936e-02
9.333574039514352938e-02
9.731222130698137518e-02
1.000934680803255011e-01
1.016229614866297482e-01
1.018497965477650202e-01
1.007607430834328438e-01
9.838465150554849548e-02
9.475660906519874083e-02
8.995952292913877990e-02
8.410766624188760476e-02
7.732247927196068960e-02
6.976548639090880688e-02
6.161322006306059473e-02
5.304690340842374563e-02
4.426307185554986812e-02
3.546132896642743837e-02
2.683428418085623268e-02
1.856165153268019008e-02
1.082070743150756811e-02
3.761117307211733068e-03
-2.497169379446335935e-03
-7.839909554943992609e-03
-1.220070806536133375e-02
-1.554338450644943311e-02
-1.784182089413702960e-02
-1.912545238595652480e-02
-1.944368104726975494e-02
-1.886017274455330239e-02
-1.748340997784834927e-02
-1.543081263868620497e-02
-1.283240679234251731e-02
-9.840579580679286245e-03
-6.610070228841561160e-03
-3.297000298253801448e-03
-5.892489135739080452e-05
2.948029679388374565e-03
5.583788484320853507e-03
7.718033372902216062e-03
9.226392786161706841e-03
1.001671699932137408e-02
1.000797377113929465e-02
9.132443389570095438e-03
7.362563419764159983e-03
4.678598262783210948e-03
1.082840380717126939e-03
-3.384818796332719759e-03
-8.679608785255117989e-03
-1.472909851653393144e-02
-2.143321605330582302e-02
-2.868812063417545272e-02
-3.636374139085626206e-02
-4.431466272712335924e-02
-5.239220543073365433e-02
-6.043138296649622210e-02
-6.826181550142183807e-02
-7.571297500318123486e-02
-8.261391420946026520e-02
-8.879374272152081027e-02
-9.409090539434845912e-02
-9.835918243640703884e-02
-1.014549880035954116e-01
-1.032607204130589068e-01
-1.036837982953199150e-01
-1.026373369954123316e-01
-1.000799625306799806e-01
-9.599591976238584790e-02
-9.038130305296354639e-02
-8.329102574213004262e-02
-7.479868406299253203e-02
-6.499821730047562751e-02
-5.404007041078093265e-02
-4.208480560799745390e-02
-2.931717593359900453e-02
-1.596018687172883616e-02
-2.240957698135030707e-03
1.159860129235109477e-02
2.530285613857866100e-02
3.861673037676894432e-02
5.129512030155202601e-02
6.309832310486555851e-02
7.379531674210770831e-02
8.319711712577329554e-02
9.112756826853177228e-02
9.743503248652381210e-02
1.020332501858425972e-01
1.048475216254478037e-01
1.058477257923498838e-01
1.050716064690160739e-01
1.025656041712979805e-01
9.843302690592145576e-02
9.282802352291166792e-02
8.591220914168683220e-02
7.789730359497204493e-02
6.902112705274913995e-02
5.952666901785730325e-02
4.967999930611754350e-02
3.975390597216269667e-02
3.001646002207612740e-02
2.072365418930893766e-02
1.212907735485964714e-02
4.460477998144072621e-03
-2.092273392675482804e-03
-7.345263328891567939e-03
-1.116700896208228967e-02
-1.347119155343410625e-02
-1.418154776484976780e-02
-1.329404557658117776e-02
-1.084083710241639208e-02
-6.870758365380836077e-03
-1.506053458262836785e-03
5.110457268106123781e-03
1.281449584076865128e-02
2.138903674382936979e-02
3.060877705860244602e-02
4.023339885194964632e-02
5.000138880652080925e-02
5.965004095932283784e-02
6.892349915526502224e-02
7.757159215016683207e-02
8.534903462183006384e-02
9.204841747754154146e-02
9.748057430121465083e-02
1.014713047187170425e-01
1.039100420911399786e-01
1.047033685064419906e-01
1.037874801160254823e-01
1.011684964558300509e-01
9.686356745823056225e-02
9.093050536633824621e-02
8.348240484907736014e-02
7.463871520530718229e-02
6.455695944398788522e-02
5.342510299676077323e-02
4.143449636923781515e-02
2.879592815186775984e-02
1.572918615408617354e-02
2.452502188312138086e-03
-1.082248254472794290e-02
-2.388586809189386512e-02
-3.653914785253565417e-02
-4.860966011816907767e-02
-5.992890098738283544e-02
-7.035188248354617979e-02
-7.976441181151779081e-02
-8.805651606454890923e-02
-9.515022204359371849e-02
-1.009922041670839737e-01
-1.055343371104568301e-01
-1.087619539402593788e-01
-1.106752738930140839e-01
-1.112818497360251180e-01
-1.106178239981608219e-01
-1.087264195095453134e-01
-1.056602533021661211e-01
-1.014924203105835865e-01
-9.629898582724764899e-02
-9.016595080989622812e-02
-8.319185005156963519e-02
-7.547661590273460619e-02
-6.712862792381585342e-02
-5.826253293600516803e-02
-4.899378245606234722e-02
-3.944242601164971856e-02
-2.973047860729303993e-02
-1.997953978299185640e-02
-1.030961455860902008e-02
-8.403072178627965863e-04
8.312818263946936820e-03
1.704266328533563662e-02
2.524351329937343791e-02
3.282038604816917005e-02
3.969134237382879876e-02
4.577662801366885054e-02
5.101523737478526332e-02
5.535956242010205836e-02
5.876598682506981031e-02
6.121568170298654493e-02
6.269999596321318425e-02
6.321750120003816198e-02
6.279275718456292510e-02
6.145626937886053409e-02
5.924925094515328533e-02
5.623448426011533330e-02
5.247770904398044861e-02
4.805610984419167453e-02
4.306027194456447243e-02
3.758206701923709481e-02
3.172003228857980112e-02
2.557729199808091852e-02
1.925648507586940478e-02
1.285656348779385706e-02
6.475025056848613195e-03
2.050745344717927465e-04
-5.874940607975569565e-03
-1.168997292273350926e-02
-1.717522992056477044e-02
-2.228578350765993837e-02
-2.697948446107350379e-02
-3.122873447426486454e-02
-3.502235113913047815e-02
-3.835107259922022199e-02
-4.121820170366156943e-02
-4.363536721980535577e-02
-4.561492253456821827e-02
-4.717274775253436914e-02
-4.832605749697044262e-02
-4.908973898101796213e-02
-4.947094341065657458e-02
-4.947514753045713365e-02
-4.910040414343397330e-02
-4.833093446299038809e-02
-4.714905988276262006e-02
-4.552663660777928750e-02
-4.342414471244655794e-02
-4.080101442161613440e-02
-3.761120679472947786e-02
-3.380519370483116293e-02
-2.933497468873711572e-02
-2.416183682790721404e-02
-1.825044461059582152e-02
-1.157394137152830370e-02
-4.132447472976761085e-03
4.068340423661071653e-03
1.300248407797072528e-02
2.260776531365286945e-02
3.281696823397663859e-02
4.353224038137193386e-02
5.462363902578506319e-02
6.595690915686874822e-02
7.736735178298596860e-02
8.867157136518220850e-02
9.968328153194601360e-02
1.102014967940621870e-01
1.200201093013761738e-01
1.289367936847756468e-01
1.367607884249099626e-01
1.433037762269903370e-01
1.483974306363635975e-01
1.519079015758915685e-01
1.537065560758413274e-01
1.537069124383301788e-01
1.518650328371058400e-01
1.481445440571378114e-01
1.425678969860490197e-01
1.351923121785010284e-01
1.260864223842332321e-01
1.153777573528160100e-01
1.032135570313055389e-01
8.975504758521815618e-02
7.520437220180699323e-02
5.977125620519795762e-02
4.367496994331564186e-02
2.715062595173414056e-02
1.043466540084449917e-02
-6.240068032309066537e-03
-2.264422948316066608e-02
-3.855072903988120137e-02
-5.375326465571782231e-02
-6.805735826506227604e-02
-8.127546029050951304e-02
-9.325497365763775470e-02
-1.038545306859062350e-01
-1.129472014056647072e-01
-1.204466069146190171e-01
-1.262737946357853636e-01
-1.303730822209444584e-01
-1.327259631356201841e-01
-1.333187473252097632e-01
-1.321682299740326305e-01
-1.293197756180484714e-01
-1.248234749384429104e-01
-1.187634219114727663e-01
-1.112423186096953565e-01
-1.023695795462129660e-01
-9.228677073267478603e-02
-8.114536206922190464e-02
-6.910560512951878509e-02
-5.635142326874387902e-02
-4.307080463101828349e-02
-2.945849397076819726e-02
-1.571962757075930084e-02
-2.060064133241048742e-03
1.131746041059712021e-02
2.421303001311197328e-02
3.642913456702100150e-02
4.778887203717500226e-02
5.812618862639761658e-02
6.728354529002229800e-02
7.514315241901499409e-02
8.159898416089456097e-02
8.656463143425574547e-02
9.000445615831254020e-02
9.189153155164614395e-02
9.223114438764648537e-02
9.107628422538530111e-02
8.848587756346046329e-02
8.455660931674637004e-02
7.941801698478988258e-02
7.320411754069992838e-02
6.607777874011779018e-02
5.821647428397994789e-02
4.979916895992692050e-02
4.101106011666125206e-02
3.203908633489042229e-02
2.306269147544815629e-02
1.424269273661553196e-02
5.736598438868067626e-03
-2.320552135693421808e-03
-9.825760449784925674e-03
-1.668058282671654180e-02
-2.282243241300479369e-02
-2.821878112535205346e-02
-3.284278638159301295e-02
-3.670630345836645159e-02
-3.984002474778083891e-02
-4.228118444067083953e-02
-4.409482874542492575e-02
-4.535355064969239652e-02
-4.613358310073652213e-02
-4.651984689006061907e-02
-4.659839830860530718e-02
-4.644940541663633571e-02
-4.614494961666425199e-02
-4.575533241887845548e-02
-4.533164564287221060e-02
-4.490946664828311674e-02
-4.452019820188136273e-02
-4.416626018483671423e-02
-4.383651041430717404e-02
-4.351290242322664731e-02
-4.314903152630863298e-02
-4.269110093090035252e-02
-4.207807993940809732e-02
-4.123235075968025021e-02
-4.007396788294945861e-02
-3.852248481923770118e-02
-3.649679237476084748e-02
-3.391667017272022994e-02
-3.071610460482630117e-02
-2.684013547004120842e-02
-2.223836114242769280e-02
-1.689204085463268806e-02
-1.079667224699214050e-02
-3.958437247956268779e-03
3.574226285318947080e-03
1.174228130205493860e-02
2.046924481224830783e-02
2.964019530426539872e-02
3.913460519999098497e-02
4.881408749018543991e-02
5.851749782172232378e-02
6.808174945357046981e-02
7.733706763699203790e-02
8.610866523941045070e-02
9.422354248995816473e-02
1.015222311265194521e-01
1.078511099376295579e-01
1.130652153079342859e-01
1.170525172062962943e-01
1.197089522945720824e-01
1.209500357413469951e-01
1.207327428113751655e-01
1.190202169973231944e-01
1.158060829161451505e-01
1.111213829168471307e-01
1.050020947278805239e-01
9.752015328453678134e-02
8.877344946288218130e-02
7.886531564326944299e-02
6.793206330864452747e-02
5.612369300682006762e-02
4.359633461446416058e-02
3.052836038692187393e-02
1.710325048987221958e-02
3.508415519043440577e-03
-1.006073244453894490e-02
-2.340792632471753315e-02
-3.634064323183557044e-02
-4.867078847914354384e-02
-6.021183987879996646e-02
-7.079425184628686252e-02
-8.026028080727914960e-02
-8.845749803312542847e-02
-9.526637340992073766e-02
-1.005804919674442854e-01
-1.043063728087294112e-01
-1.063957285117688722e-01
-1.068103562813036561e-01
-1.055361350998162973e-01
-1.026060847245994084e-01
-9.805982545103204828e-02
-9.197033506829041527e-02
-8.444860264170822584e-02
-7.561048094353152449e-02
-6.560601187000685008e-02
-5.460812454369287638e-02
-4.279392756617466514e-02
-3.036383437252853507e-02
-1.752717788852561909e-02
-4.494364085043183257e-03
8.520658145370958725e-03
2.130327781570639720e-02
3.364764506352403706e-02
4.536440454199363453e-02
5.626696144166557639e-02
6.619435654686565973e-02
7.501377758534444329e-02
8.259759677781350340e-02
8.886166090333899592e-02
9.374983754849826323e-02
9.721531558662428740e-02
9.926382099763719769e-02
9.992038449206323836e-02
9.922429862237255871e-02
9.726067913350630589e-02
9.412399903422889735e-02
8.992328492994008937e-02
8.479392135239288697e-02
7.887426751777705525e-02
7.230769736461023500e-02
6.524289022700649476e-02
5.782763564315351879e-02
5.019709784849463174e-02
4.247860745808750005e-02
3.479414480395633807e-02
2.723597350255728411e-02
1.988587509812829446e-02
1.281407251581899616e-02
6.055137871650167342e-03
-3.633988296803374735e-04
-6.429432329445148794e-03
-1.215773588347810429e-02
-1.756621613229240875e-02
-2.268315209634972490e-02
-2.754739683462129052e-02
-3.219784566718687097e-02
-3.666884606916949452e-02
-4.099202950544286739e-02
-4.519499362624409405e-02
-4.928360281993907771e-02
-5.325636305609086213e-02
-5.710171281182871428e-02
-6.077829388117841902e-02
-6.423906999850109711e-02
-6.742288925323416948e-02
-7.024492883805147359e-02
-7.261770135031346551e-02
-7.444472871429530514e-02
-7.562070105489650251e-02
-7.604079174894970428e-02
-7.560870886121119627e-02
-7.423306550302945228e-02
-7.182887974002322151e-02
-6.834421169179027977e-02
-6.373786058619836103e-02
-5.798662667273477012e-02
-5.111843736581941910e-02
-4.317071365446408654e-02
-3.421275114652751193e-02
-2.436529258739428272e-02
-1.375552486986880880e-02
-2.547609057157231363e-03
9.059295464673711162e-03
2.086217894921568033e-02
3.263450736637017735e-02
4.413673835985328781e-02
5.513068623496039655e-02
6.538561531799089166e-02
7.467313051843602056e-02
8.277994378478872872e-02
8.953395279247752803e-02
9.477064017808844998e-02
9.836360353306458637e-02
1.002456626129214629e-01
1.003578016720898247e-01
9.870083732549518596e-02
9.533015800179395205e-02
9.031031044838676303e-02
8.377069503413389628e-02
7.587521091267324103e-02
6.679748466412858965e-02
5.675608227303814701e-02
4.598297993824425334e-02
3.471342234896716145e-02
2.319120161187302603e-02
1.166120895010697850e-02
3.529360480446020257e-04
-1.052716286234110961e-02
-2.077668343340354634e-02
-3.023305821347569561e-02
-3.876872935626526212e-02
-4.626375672111512211e-02
-5.265369797176136513e-02
-5.790250437026317476e-02
-6.198560823396596919e-02
-6.492993643730188280e-02
-6.677716899991019417e-02
-6.758085600904521761e-02
-6.742436878748406248e-02
-6.639575597010249908e-02
-6.458644414957608049e-02
-6.209272599320066199e-02
-5.901057951597496465e-02
-5.542396489678637350e-02
-5.140666629655534642e-02
-4.702916985617491136e-02
-4.233743441351939946e-02
-3.736535246118657949e-02
-3.214122492868343867e-02
-2.666920231264918728e-02
-2.094680400143825866e-02
-1.496740828928980020e-02
-8.714401747249753485e-03
-2.169813827930902259e-03
4.678903671528040521e-03
1.183677642237540573e-02
1.930699324266678743e-02
2.707176166416738056e-02
3.509617297973742500e-02
4.334061912408784106e-02
5.173246259334361025e-02
6.018344481378955918e-02
6.859773210958407252e-02
7.684805259538536604e-02
8.479885383626002693e-02
9.230831527257707392e-02
9.922008798811662866e-02
1.053759071518173829e-01
1.106231847687903641e-01
1.148169183537671584e-01
1.178144592915195271e-01
1.195013380746929865e-01
1.197852312978587991e-01
1.185812305152687124e-01
1.158556417799716937e-01
1.115980512475050201e-01
1.058131431999432825e-01
9.856592098994398921e-02
8.993667085658481331e-02
8.002751369887935173e-02
6.898919692156067762e-02
5.697954197138763166e-02
4.417573202180110487e-02
3.077987136925292716e-02
1.699602104356607787e-02
3.032827243043450041e-03
-1.089759260882240850e-02
-2.458535703909862230e-02
-3.783724787214066965e-02
-5.046732526319919893e-02
-6.229837891086641155e-02
-7.318676185798413114e-02
-8.299702076169336584e-02
-9.161140998838113170e-02
-9.895008393774126776e-02
-1.049387896945621901e-01
-1.095280128674448877e-01
-1.126989137791926943e-01
-1.144364326799251902e-01
-1.147513409063010970e-01
-1.136732456641673383e-01
-1.112352914419116184e-01
-1.074919536490409472e-01
-1.025066583332844145e-01
-9.634695062650705522e-02
-8.909549205528959070e-02
-8.083847141394816249e-02
-7.166725278077519523e-02
-6.168384814058472387e-02
-5.099179103961130888e-02
-3.970144501806804893e-02
-2.793133272678712670e-02
-1.580108596163045526e-02
-3.438579116237013705e-03
9.022524794098821938e-03
2.144739890736384672e-02
3.369436973393596935e-02
4.561900459858413831e-02
5.707676766241050886e-02
6.792278446915722689e-02
7.801214543117854228e-02
8.720509769131563893e-02
9.537208970704434685e-02
1.023853431871673686e-01
1.081343559241040725e-01
1.125285100189498816e-01
1.154810629686056495e-01
1.169397017020859658e-01
1.168753970677531423e-01
1.152672835506740323e-01
1.121429596178896704e-01
1.075487789101497726e-01
1.015455238910789176e-01
9.424284831896605208e-02
8.576092652566939811e-02
7.623724733888695426e-02
6.584224069577498950e-02
5.475035986708123165e-02
4.314534637215924201e-02
3.122124234326979081e-02
1.917176442193011671e-02
7.180489795380889592e-03
-4.575606686188555053e-03
-1.592498576916942521e-02
-2.672806254393039760e-02
-3.685712500885232612e-02
-4.619770872609407081e-02
-5.467842378665853376e-02
-6.223683974479790604e-02
-6.883086077184638607e-02
-7.445560465425048180e-02
-7.911090634133137456e-02
-8.281592635719112194e-02
-8.561047624131361278e-02
-8.753605441541401078e-02
-8.864174194861239309e-02
-8.898137323214583283e-02
-8.860733819114013921e-02
-8.756330639914160219e-02
-8.588983616835056678e-02
-8.362158730302544918e-02
-8.077481357585292177e-02
-7.736208654002249552e-02
-7.338731124057640276e-02
-6.883913344812102320e-02
-6.370449684565800130e-02
-5.796670465347944501e-02
-5.160531161001766232e-02
-4.460076308471597889e-02
-3.694479849602908678e-02
-2.863597202132907998e-02
-1.967843290621779789e-02
-1.010658980457711763e-02
3.478951894752592422e-05
1.068705613702336868e-02
2.175001735022367988e-02
3.311545529391466541e-02
4.465341403507709639e-02
5.619710640778857735e-02
6.757533171147013518e-02
7.859765988612503473e-02
8.905458176980328433e-02
9.873586317457627715e-02
1.074322089502189326e-01
1.149348692450971321e-01
1.210416771398952762e-01
1.255851050641192679e-01
1.284090126181997027e-01
1.293797298890844716e-01
1.284281242636278464e-01
1.254972275472130139e-01
1.205747022103897947e-01
1.137209905584392056e-01
1.050060356768934139e-01
9.455924271138860249e-02
8.256686624279650777e-02
6.922285630421756708e-02
5.477335158071373888e-02
3.949365152806591506e-02
2.366332472945505833e-02
7.581870476095536361e-03
-8.444952273842201013e-03
-2.411930761983950566e-02
-3.916520790044798750e-02
-5.331090436366032331e-02
-6.631608318055096096e-02
-7.798977565273737533e-02
-8.814813275143693061e-02
-9.666313915993178518e-02
-1.034582157719277362e-01
-1.084658234929797155e-01
-1.116837524568468076e-01
-1.131449098719886776e-01
-1.128933671884933959e-01
-1.110255159599586594e-01
-1.076535482506565805e-01
-1.028988827533326711e-01
-9.690734239164976171e-02
-8.982872631766299076e-02
-8.181205509085738570e-02
-7.300517257824033768e-02
-6.355502608836632872e-02
-5.359360237778649366e-02
-4.323960833158552869e-02
-3.260854035087519531e-02
-2.179184499621271420e-02
-1.086853449221083547e-02
8.704815114297850126e-05
1.102169375654430197e-02
2.188831222276417521e-02
3.264290835217806275e-02
4.324934700997865727e-02
5.367264286976246995e-02
6.387375333437708691e-02
7.380773149989176829e-02
8.342839795032291894e-02
9.267605238565995718e-02
1.014794305337569785e-01
1.097648616835111002e-01
1.174417048243523581e-01
1.244108815802187767e-01
1.305714013565070220e-01
1.358140630593167586e-01
1.400274019541007109e-01
1.431039553802357367e-01
1.449460231020232859e-01
1.454577642890959588e-01
1.445618448106268661e-01
1.422068664829533313e-01
1.383456433953003106e-01
1.329687735797663584e-01
1.260979895192324840e-01
1.177623802174468243e-01
1.080422241835257841e-01
9.704226849656355514e-02
8.487871121561357812e-02
7.171577422346832320e-02
5.773047957459889745e-02
4.311146169982645743e-02
2.807456257468179256e-02
1.283953219783729588e-02
-2.373177506993754890e-03
-1.734216717396246804e-02
-3.184731799731865820e-02
-4.568964000051475849e-02
-5.868691625677555090e-02
-7.066322709740140151e-02
-8.148702811135813406e-02
-9.104716306990716379e-02
-9.924637788327891896e-02
-1.060436021990086158e-01
-1.114121672399015217e-01
-1.153474697334931631e-01
-1.178945773475225528e-01
-1.191059489917622033e-01
-1.190574812464973570e-01
-1.178555433476104336e-01
-1.156094327005442596e-01
-1.124416169451012137e-01
-1.084846353075525904e-01
-1.038704777177944377e-01
-9.872528930560466043e-02
-9.317263463919488176e-02
-8.733003377178238935e-02
-8.129146058489412907e-02
-7.514507154257282773e-02
-6.896534692730477145e-02
-6.279718172335668758e-02
-5.668110143283981717e-02
-5.063946955710574294e-02
-4.467190212980411135e-02
-3.877558793531619280e-02
-3.293385284749343611e-02
-2.711981132021476504e-02
-2.130624999243825590e-02
-1.546532779751022373e-02
-9.568937454435558210e-03
-3.592964190986076486e-03
2.471771202616872710e-03
8.630885148683839145e-03
1.487872472776248338e-02
2.118620362249969136e-02
2.752079826481346886e-02
3.383290399282386229e-02
4.005230545187206392e-02
4.610647708963147573e-02
5.190854948843678929e-02
5.736147717921226408e-02
6.236797145535721149e-02
6.683056467877718232e-02
7.065171654735140361e-02
7.373921432956352662e-02
7.601994164452371971e-02
7.742517537880558298e-02
7.790186586745671826e-02
7.742829822882714430e-02
7.598733380521956182e-02
7.358784311856189642e-02
7.026893375086130933e-02
6.607369751585255579e-02
6.107397038624840652e-02
5.536122612621773714e-02
4.903053836271947796e-02
4.219742418392056355e-02
3.498539867366783768e-02
2.751945945287843920e-02
1.992963374069621485e-02
1.234698855155541217e-02
4.897985954755520836e-03
-2.299765339502912384e-03
-9.130133527168611193e-03
-1.549043187850675414e-02
-2.129303401020716385e-02
-2.645284919786413530e-02
-3.090554837608456423e-02
-3.460046019913402132e-02
-3.749095860532931229e-02
-3.955353562606907930e-02
-4.077336713942058405e-02
-4.114184818120164566e-02
-4.067080528092263669e-02
-3.937634695875585900e-02
-3.728293090081590683e-02
-3.443045454004278749e-02
-3.086085727011583096e-02
-2.662592679050496125e-02
-2.178808021549542839e-02
-1.641116472826892325e-02
-1.056925263475202471e-02
-4.342892073107314579e-03
2.185832610224295539e-03
8.926502349262630323e-03
1.578569335642229093e-02
2.266889543447352107e-02
2.947818029675106088e-02
3.611496741757025397e-02
4.248254790078587889e-02
4.848754264939551806e-02
5.403727405457154492e-02
5.904791838756751066e-02
6.344486000087472266e-02
6.715568612998054632e-02
7.012709788526430565e-02
7.231744888163250951e-02
7.369037794636784655e-02
7.423801611619137986e-02
7.396235518976324030e-02
7.287552224106327858e-02
7.102031092363213227e-02
6.844546607907901759e-02
6.521311085991823853e-02
6.140827094973329986e-02
5.711863397761181294e-02
5.244146784485365087e-02
4.748364124336214298e-02
4.235214685625385972e-02
3.715095290244702780e-02
3.198225304410409753e-02
2.694454454875571531e-02
2.211674640838562356e-02
1.757127213332323329e-02
1.336996181158496382e-02
9.543950260834922067e-03
6.118572085001322026e-03
3.100984644256966124e-03
4.683969810837171344e-04
-1.805696535875554731e-03
-3.767675142411179914e-03
-5.483109169408006620e-03
-7.019428632015420333e-03
-8.454571321798109995e-03
-9.872407637364853314e-03
-1.135529410288759443e-02
-1.297751911620437758e-02
-1.481079178447838700e-02
-1.691751602331185989e-02
-1.933416057948190298e-02
-2.209238928374961802e-02
-2.520333444029018710e-02
-2.864556710765393116e-02
-3.239338461497059257e-02
-3.639301286530827184e-02
-4.056455757695388159e-02
-4.482453025682651970e-02
-4.906527132988017237e-02
-5.316599191620881293e-02
-5.700432310697486904e-02
-6.045081053317448438e-02
-6.337384816842701885e-02
-6.564771022927441690e-02
-6.716240342988986922e-02
-6.781090001237329024e-02
-6.750706672971688860e-02
-6.619667214914369546e-02
-6.383017215474515171e-02
-6.039608731281841114e-02
-5.591706625575344758e-02
-5.042224619616517134e-02
-4.398754548522388480e-02
-3.671332467048483289e-02
-2.870847143509137889e-02
-2.012081203058833923e-02
-1.110957690616779826e-02
-1.840498030324525316e-03
7.503999310691055261e-03
1.673894109734657548e-02
2.568425705990842051e-02
3.416708597261516184e-02
4.201649587004319814e-02
4.908578948682102566e-02
5.524920529393961138e-02
6.038670446000544978e-02
6.442078906026341145e-02
6.729533628662424938e-02
6.896533506062822727e-02
6.943490934205372167e-02
6.872200466649293349e-02
6.686062508965574802e-02
6.392437312553123085e-02
5.999316003418056487e-02
5.516177703914258712e-02
4.954608101556904481e-02
4.326386470861624811e-02
3.643863840595457787e-02
2.919867121127507625e-02
2.167157627024163952e-02
1.397850798718540052e-02
6.237500538343215481e-03
-1.436734334669282145e-03
-8.943682504259422086e-03
-1.618666578831351455e-02
-2.307496742011419522e-02
-2.953199003450288074e-02
-3.548334016531507623e-02
-4.086156563092381566e-02
-4.560867855186934161e-02
-4.966777469194235545e-02
-5.298838343640769472e-02
-5.552519305889244694e-02
-5.723394988957576646e-02
-5.807742864776979652e-02
-5.802166791313283223e-02
-5.703541036075210346e-02
-5.509846503335681656e-02
-5.219352350014780373e-02
-4.831094964326342056e-02
-4.345856493749243599e-02
-3.764702414285191895e-02
-3.090362221339832544e-02
-2.327750802823416038e-02
-1.482106793234842616e-02
-5.613051691980596933e-03
4.247426128322243782e-03
1.465665539311383249e-02
2.548101084342419692e-02
3.657351660895444972e-02
4.778164803250661841e-02
5.893121843691660061e-02
6.984268750025258987e-02
8.033482202339094214e-02
9.022268730590873864e-02
9.932116658882678140e-02
1.074564080129847971e-01
1.144688112590942081e-01
1.202019047838496224e-01
1.245307065701916072e-01
1.273536651918172058e-01
1.285769644007883072e-01
1.281572317096670022e-01
1.260727242361703859e-01
1.223169058639245327e-01
1.169404565855840100e-01
1.100077203363171580e-01
1.016053129995235227e-01
9.186665724586126625e-02
8.093172020629739449e-02
6.896196650537618489e-02
5.614506196967026380e-02
4.267098173245117976e-02
2.873941775934334142e-02
1.455702565274788474e-02
3.293513885642999559e-04
-1.374653370193576647e-02
-2.747704895293550525e-02
-4.067524230759705928e-02
-5.317815456702579269e-02
-6.482836852733538102e-02
-7.548336877151802515e-02
-8.503074829621222464e-02
-9.336246768862160872e-02
-1.003936441265988466e-01
-1.060665865213773623e-01
-1.103273721255409318e-01
-1.131503480407618639e-01
-1.145293723547456122e-01
-1.144631578871083688e-01
-1.129791231300199539e-01
-1.101160409809653212e-01
-1.059198571937715189e-01
-1.004613449164700745e-01
-9.381674558368961747e-02
-8.607187318952688737e-02
-7.733114004335979452e-02
-6.770146554118146309e-02
-5.730049432078680727e-02
-4.625800554027238026e-02
-3.470520160984394420e-02
-2.278261645736150837e-02
-1.063698551351512957e-02
1.584224093649214647e-03
1.372973455249474131e-02
2.564682135578008615e-02
3.718447165185919528e-02
4.819738350608818167e-02
5.854152103883086822e-02
6.808113363991522005e-02
7.669595320630651081e-02
8.426811198691297466e-02
9.069874634290191195e-02
9.590971002813578061e-02
9.982653560213487764e-02
1.024050080274183233e-01
1.036202690289694112e-01
1.034539561998122220e-01
1.019240656703838538e-01
9.906184882010499182e-02
9.490890367528381777e-02
8.953981175325205488e-02
8.303585390102809216e-02
7.549026495277522120e-02
6.701776919580822167e-02
5.773565856199241314e-02
4.776937414407913390e-02
3.725291726633681716e-02
2.632071722568799649e-02
1.510744329434106706e-02
3.747912553694488641e-03
-7.624265409299977453e-03
-1.888229290342145761e-02
-2.990175628400295466e-02
-4.056118975004011779e-02
-5.074814840842253871e-02
-6.035196022953864814e-02
-6.926620624285800831e-02
-7.739182406138209180e-02
-8.463072248833222733e-02
-9.089044679094644696e-02
-9.608424745058674610e-02
-1.001265675649036513e-01
-1.029416067410384439e-01
-1.044593484812265938e-01
-1.046132851088892729e-01
-1.033554183596925302e-01
-1.006439687093109575e-01
-9.644719332283341329e-02
-9.076282203262789339e-02
-8.359426854027816878e-02
-7.496687306090006608e-02
-6.494247523104192121e-02
-5.358798410051990313e-02
-4.100586669342930202e-02
-2.733327143666573755e-02
-1.271307083060535005e-02
2.669512837466874681e-03
1.860509756262151287e-02
3.487753188981983915e-02
5.123716617389381667e-02
6.742356717453446002e-02
8.317327912686928171e-02
9.821434139286583376e-02
1.122735006928180790e-01
1.250903210763294193e-01
1.364249032670545592e-01
1.460411938422380429e-01
1.537443531711789602e-01
1.593782756686201452e-01
1.627959833728197525e-01
1.639223098941384738e-01
1.627215044845433944e-01
1.591760283304262114e-01
1.533564028032151083e-01
1.453603695912833726e-01
1.353143840114315044e-01
1.234225491455781670e-01
1.099024650128757608e-01
9.500116365808998486e-02
7.901107529307423161e-02
6.222904861098339790e-02
4.496236947405989060e-02
2.752777553758993523e-02
1.023953205974793834e-02
-6.613348575886501476e-03
-2.275518713306885765e-02
-3.792324173604953025e-02
-5.191549301440933489e-02
-6.454794752985826278e-02
-7.566572108858640733e-02
-8.518950449150951287e-02
-9.305289847019829197e-02
-9.923253973412538009e-02
-1.037689795309713892e-01
-1.067102967140971664e-01
-1.081472405330951847e-01
-1.082077929177862330e-01
-1.070239477909279424e-01
-1.047513418658472112e-01
-1.015576172922765114e-01
-9.760918958674555390e-02
-9.306647840817598716e-02
-8.808817093422642575e-02
-8.282098089261755169e-02
-7.738177213263355836e-02
-7.188231538976233570e-02
-6.640909115278896546e-02
-6.101241147155063438e-02
-5.573795345296951587e-02
-5.059961910705417648e-02
-4.558459699520634595e-02
-4.067624985372544910e-02
-3.583348477063143245e-02
-3.100326836936203451e-02
-2.613123570695675968e-02
-2.115758206474987330e-02
-1.602104458804986392e-02
-1.066644372661293937e-02
-5.053165201755974861e-03
8.568673373140871241e-04
7.083771699103401896e-03
1.362293080006806399e-02
2.046621419594124580e-02
2.757782169898150004e-02
3.489954180561286728e-02
4.236903775940990130e-02
4.989683892886228461e-02
5.738073911535972876e-02
6.471518886974514384e-02
7.178101202536585346e-02
7.845549355192561747e-02
8.461845558183819782e-02
9.015555584540221878e-02
9.495362685599520458e-02
9.891407189916794074e-02
1.019576242586868048e-01
1.040081168875400114e-01
1.050163613442330751e-01
1.049542200054469770e-01
1.037983864128040473e-01
1.015573687708714312e-01
9.825402675230984761e-02
9.391784908605106674e-02
8.860451895902773933e-02
8.237629057346344819e-02
7.530214831106184226e-02
6.746595056098322885e-02
5.895366220857201078e-02
4.985558680045042851e-02
4.026757232559427524e-02
3.028595939953840355e-02
2.000898230306569908e-02
9.536298636779710902e-03
-1.032126087758291483e-03
-1.159438252712992508e-02
-2.204771880501312648e-02
-3.228842000130816708e-02
-4.220909885276097340e-02
-5.170148101026064702e-02
-6.065578964584404653e-02
-6.895905653913432520e-02
-7.649794496548671663e-02
-8.316048114258579871e-02
-8.883636920142030935e-02
-9.341625424418419088e-02
-9.680222842523002191e-02
-9.890467094491416089e-02
-9.963828528042396881e-02
-9.894592470971479148e-02
-9.678216344338233523e-02
-9.311359154977309760e-02
-8.795072286263649897e-02
-8.131430123553082256e-02
-7.324898948066310700e-02
-6.384829159888634476e-02
-5.321272717749815639e-02
-4.147655975500223052e-02
-2.881407584237246494e-02
-1.540440190254727289e-02
-1.459249254285440063e-03
1.278695225476400750e-02
2.709697631757071457e-02
4.121841970121645216e-02
5.489281067199366232e-02
6.786569293107064249e-02
7.989677980914035305e-02
9.074906203268018334e-02
1.002064227257375151e-01
1.080937656569941757e-01
1.142423023087251327e-01
1.185286371597947253e-01
1.208812486605737313e-01
1.212368090199579390e-01
1.195977835632146408e-01
1.160108098368564794e-01
1.105343884676146526e-01
1.032957324477090377e-01
9.444843767283891967e-02
8.416079387771661924e-02
7.265041301035816967e-02
6.014536806335696317e-02
4.688301306791032436e-02
3.311822774989617996e-02
1.910752461466912883e-02
5.098802529288750350e-03
-8.669524146420765770e-03
-2.196235198946111522e-02
-3.457748709791316072e-02
-4.633400889629545744e-02
-5.705989780042737547e-02
-6.663399820024888676e-02
-7.495390408201083043e-02
-8.193337402534300873e-02
-8.753828496857642139e-02
-9.174523429653910767e-02
-9.455166539772827394e-02
-9.599288822708967883e-02
-9.610892232780439415e-02
-9.495783252560666132e-02
-9.261682946571243857e-02
-8.916483667046164185e-02
-8.468951484764886128e-02
-7.928396178648657033e-02
-7.304110643525235647e-02
-6.605244822612735267e-02
-5.840897997707332479e-02
-5.019955921830823731e-02
-4.150643134666512357e-02
-3.241053078610302979e-02
-2.298985004148426659e-02
-1.331723995243931820e-02
-3.465015684007453217e-03
6.494929754451554162e-03
1.649113494623883486e-02
2.645170952501999656e-02
3.630004091719719883e-02
4.595668808978914388e-02
5.534071472542979875e-02
6.436323631228457742e-02
7.293267033746810013e-02
8.095588984595636362e-02
8.833518602610161696e-02
9.497203884708235733e-02
1.007706308396671135e-01
1.056396899062698042e-01
1.094889838959184625e-01
1.122418075605866178e-01
1.138347814822937565e-01
1.142079010653186538e-01
1.133293261071030567e-01
1.111834509830847556e-01
1.077623424380813183e-01
1.030971243390809422e-01
9.723164643044050759e-02
9.022327275097127841e-02
8.216786583183945114e-02
7.316833936952393813e-02
6.334367207044208636e-02
5.283884851178491382e-02
4.180168049966019594e-02
3.038954304002659812e-02
1.876888916317818318e-02
7.105886356224583311e-03
-4.439444682100031694e-03
-1.571049239222937349e-02
-2.655543545925188181e-02
-3.684623733245335347e-02
-4.646230265601161702e-02
-5.529516098077279229e-02
-6.326949707481611951e-02
-7.031593151621393090e-02
-7.638449788942061613e-02
-8.145548153659459834e-02
-8.551288447743679577e-02
-8.856227794340258697e-02
-9.062896223914997107e-02
-9.174077345373805870e-02
-9.194199682219691971e-02
-9.128569387176464767e-02
-8.982634409207231052e-02
-8.762482889567682620e-02
-8.474394302137390478e-02
-8.124529585062645332e-02
-7.718738405286583448e-02
-7.262811215295376932e-02
-6.762056744315064760e-02
-6.221060970948640023e-02
-5.644316468878959187e-02
-5.035687452108436601e-02
-4.398484336531706396e-02
-3.735964540670776157e-02
-3.051090444228142518e-02
-2.346673025822552244e-02
-1.625606502718283941e-02
-8.911729716415392466e-03
-1.467667147462665966e-03
6.038506896574803023e-03
1.355991950030339607e-02
2.104813300274690352e-02
2.844825883038955283e-02
3.569608863529361020e-02
4.272636442521322853e-02
4.946821040778091177e-02
5.584598032234888015e-02
6.178402396471893709e-02
6.720791126380867841e-02
7.204381421677680253e-02
7.622071398057088387e-02
7.967993184500178627e-02
8.236620978141949434e-02
8.423318623784045722e-02
8.525603265955601640e-02
8.541347817861848213e-02
8.470084245993192429e-02
8.313652820521191811e-02
8.074190285437765624e-02
7.755899683086786567e-02
7.364674553341316043e-02
6.906671782922350900e-02
6.389734848561430536e-02
5.822507317835465962e-02
5.213789057268475996e-02
4.573018494939878886e-02
3.909801553972289123e-02
3.233552243875203319e-02
2.553238375368671598e-02
1.877746681763773490e-02
1.215220671548126324e-02
5.728078729702637886e-03
-4.249172788578876522e-04
-6.248849316199277595e-03
-1.169529687520632667e-02
-1.671785098168297734e-02
-2.128332160694654251e-02
-2.536454593995331880e-02
-2.893701490349758626e-02
-3.198681533978579156e-02
-3.450272278660701519e-02
-3.647639454040062235e-02
-3.790592537069013140e-02
-3.879035696074804168e-02
-3.913159247177297462e-02
-3.893522877564708357e-02
-3.820738903165175893e-02
-3.695832618033011857e-02
-3.520142865197638249e-02
-3.295121244500810037e-02
-3.022975084136012014e-02
-2.706242822383474189e-02
-2.347757844977398783e-02
-1.951489817367715873e-02
-1.521686462568935284e-02
-1.063160518295876329e-02
-5.819377204840355325e-03
-8.422036046764015335e-04
4.230983786647854288e-03
9.322661757395000331e-03
1.435450250099950739e-02
1.924446951979097431e-02
2.390781413977806358e-02
2.826045816627483637e-02
3.222336528030298602e-02
3.571962138606701864e-02
3.867672507010343902e-02
4.103851636609542192e-02
4.275269899258141160e-02
4.377844588175683338e-02
4.409859892419607658e-02
4.369950187457045943e-02
4.258633336822004178e-02
4.078683672603376775e-02
3.833165410890956165e-02
3.527202387644200882e-02
3.167369067437073027e-02
2.760472136322632969e-02
2.314647323916792232e-02
1.838567633794464112e-02
1.340914391198243238e-02
8.303931482311965179e-03
3.157108562962827013e-03
-1.949468035640038871e-03
-6.944284650794003977e-03
-1.175742503504934207e-02
-1.633039611437554772e-02
-2.061789023598672999e-02
-2.457646361023722859e-02
-2.817676146729848619e-02
-3.139898488855168840e-02
-3.422521299300849973e-02
-3.664820493467201706e-02
-3.866486560828844010e-02
-4.027301385529177130e-02
-4.147355174531735383e-02
-4.226802192141684150e-02
-4.265619415177148571e-02
-4.263445516341844016e-02
-4.219865885965916330e-02
-4.134038009303694222e-02
-4.004643469890550866e-02
-3.830316166079075768e-02
-3.609420373648501018e-02
-3.340144289847558901e-02
-3.020752562186588414e-02
-2.649988609792754829e-02
-2.226774368599348380e-02
-1.750486437531739714e-02
-1.221985769013146476e-02
-6.424474369667190418e-03
-1.418979939429576564e-04
6.583702613709560905e-03
1.370520829216249903e-02
2.115717373446546895e-02
2.885451461796101347e-02
3.670943046737784599e-02
4.461445075380979230e-02
5.244973824183155053e-02
6.009332106778289551e-02
6.741202802791035342e-02
7.426868372839855181e-02
8.052792560610794181e-02
8.606008568439448003e-02
9.073675321327168142e-02
9.444225675898228201e-02
9.708342182324460057e-02
9.857056506890833625e-02
9.884312812227157019e-02
9.787062744304575457e-02
9.562797128733259433e-02
9.213283733659270724e-02
8.742878610745261070e-02
8.156773251526157342e-02
7.464571065791819615e-02
6.677389945333031540e-02
5.807352690362799219e-02
4.869597142418896629e-02
3.879831505967552135e-02
2.854268932709417422e-02
1.809980644312486620e-02
7.640817498708044747e-03
-2.672130367361765999e-03
-1.268584913230970217e-02
-2.225022756965512605e-02
-3.124247559260222296e-02
-3.955571543825136399e-02
-4.709090187439896741e-02
-5.378933851615591566e-02
-5.960562274087442824e-02
-6.450818690637398489e-02
-6.850531412107069285e-02
-7.161265775150765789e-02
-7.386217207566310450e-02
-7.531247168529801861e-02
-7.602511441290335514e-02
-7.607188040466356105e-02
-7.553435090113710948e-02
-7.449413808937505044e-02
-7.302933909549365332e-02
-7.121608113966609865e-02
-6.912691337210452591e-02
-6.681638421557987984e-02
-6.433334798869710935e-02
-6.171771142176189773e-02
-5.898464273833524396e-02
-5.614486140575882661e-02
-5.319606671126447112e-02
-5.011545957743216567e-02
-4.687792509546505337e-02
-4.344803575996443457e-02
-3.978083653429535099e-02
-3.583116989983697181e-02
-3.155530711971080843e-02
-2.691028978030843288e-02
-2.185679436042692325e-02
-1.637308463184768137e-02
-1.044276665579141859e-02
-4.060140624601242532e-03
2.752111366579250689e-03
9.966330854319541133e-03
1.753676087169209544e-02
2.539021224290676643e-02
3.345017795107826930e-02
4.162078465003925254e-02
4.978891909872217719e-02
5.783968178700391732e-02
6.564777630436433031e-02
7.308251464177265011e-02
8.001453065281975696e-02
8.632081045065569114e-02
9.188020368861739284e-02
9.658026281375224620e-02
1.003307157011120165e-01
1.030451539571715508e-01
1.046568167945209765e-01
1.051276185574440830e-01
1.044233607078489112e-01
1.025384839149791755e-01
9.949199321538397534e-02
9.530728929407368544e-02
9.003791575481631670e-02
8.375244807786766388e-02
7.652486713919330608e-02
6.845271867086440143e-02
5.964011798023217265e-02
5.019673340174318765e-02
4.024582023876439180e-02
2.991275798688560611e-02
1.932687494963647445e-02
8.623049467575560553e-03
-2.063373793441411821e-03
-1.259621771130386807e-02
-2.283861724061627546e-02
-3.265422729025110188e-02
-4.191102337297647473e-02
-5.047905252673110660e-02
-5.823122479375811289e-02
-6.505260335043126785e-02
-7.083152276630169664e-02
-7.546515326956965142e-02
-7.887143100413578078e-02
-8.097172723959147889e-02
-8.170683743667019050e-02
-8.104385113249294725e-02
-7.895378983009228302e-02
-7.544017481031832506e-02
-7.053240138610412935e-02
-6.426617189576869227e-02
-5.671984900793620998e-02
-4.799145558451883148e-02
-3.818968079003593613e-02
-2.746636987431010091e-02
-1.598445051217045609e-02
-3.920489039090207725e-03
8.518152262206386133e-03
2.111967271322990475e-02
3.366387681080453692e-02
4.591962300618425419e-02
5.765563060491212671e-02
6.864949460228664257e-02
7.868561700526649494e-02
8.755329611603074325e-02
9.507625965686372638e-02
1.010934831746634344e-01
1.054585815825508505e-01
1.080822253620390277e-01
1.088892057623344206e-01
1.078338892290950646e-01
1.049348169407499920e-01
1.002201052986300828e-01
9.375994944936981434e-02
8.567739868574739126e-02
7.610181535170744416e-02
6.520417695281649495e-02
5.318620331246369515e-02
4.025370377329599153e-02
2.663596717080102261e-02
1.257227254894018736e-02
-1.699464429822599744e-03
-1.594658179939592579e-02
-2.993773621499486864e-02
-4.345534244903914711e-02
-5.631051073715778038e-02
-6.831882916760349811e-02
-7.932545750645347837e-02
-8.921134021891731491e-02
-9.786252965683020499e-02
-1.052045754058533733e-01
-1.111911290244155109e-01
-1.157819697565244527e-01
-1.189736887133615445e-01
-1.207779216471940448e-01
-1.212127712986404843e-01
-1.203194346693301081e-01
-1.181443256781638390e-01
-1.147376216074688371e-01
-1.101570462862816180e-01
-1.044611989371406480e-01
-9.770788424526936911e-02
-8.995398055741801735e-02
-8.125619160882700809e-02
-7.166967611664205873e-02
-6.124853418361703161e-02
-5.004772707385316682e-02
-3.812783410303615533e-02
-2.555163989457128609e-02
-1.238701539618391849e-02
1.280655217246089508e-03
1.536210785022606475e-02
2.975516381718008169e-02
4.433274055546711917e-02
5.896424128597992781e-02
7.349966498163681972e-02
8.776721297343118011e-02
1.015925853440217685e-01
1.147853861863007696e-01
1.271446002030901523e-01
1.384693515388433771e-01
1.485607593259491155e-01
1.572206962747609849e-01
1.642600461661823663e-01
1.695194623367166364e-01
1.728460127967093030e-01
1.741150626806196033e-01
1.732544621201174695e-01
1.701997578568581748e-01
1.649397180967577536e-01
1.575207179407407398e-01
1.479981209928576680e-01
1.364968597942969875e-01
1.231860557816775864e-01
1.082463469265349393e-01
9.192143505263684899e-02
7.447782968900945599e-02
5.619223556434869288e-02
3.737355797138113001e-02
1.833702365113881044e-02
-6.057992836836804604e-04
-1.914987110387574021e-02
-3.699208697523155565e-02
-5.386062995755232924e-02
-6.951631565704903537e-02
-8.372717275035547468e-02
-9.632272541994646442e-02
-1.071700980356802557e-01
-1.161508818491850809e-01
-1.232244408988507484e-01
-1.283771377320647722e-01
-1.316182122728093151e-01
-1.330263316324473422e-01
-1.326936024577679285e-01
-1.307364796464682011e-01
-1.273132235527467127e-01
-1.225867188835817051e-01
-1.167316187520324594e-01
-1.099344035724940938e-01
-1.023809591476103481e-01
-9.424571348569044105e-02
-8.569635204278559792e-02
-7.689432451177222183e-02
-6.796820103106053501e-02
-5.903559560037031917e-02
-5.020046331571317161e-02
-4.152697253430521346e-02
-3.307182918326301291e-02
-2.487353479413425411e-02
-1.694050951312235653e-02
-9.277738744057923564e-03
-1.876821759466512987e-03
5.283605517907050825e-03
1.222532530925219546e-02
1.896900845485942344e-02
2.553469645452160347e-02
3.193904479569767418e-02
3.818140703742541747e-02
4.425560274967563212e-02
5.014693421789501865e-02
5.581689314380104683e-02
6.122268012075652438e-02
6.631112544140259357e-02
7.101256475844623661e-02
7.525573160433593478e-02
7.896665236719484227e-02
8.206882726364161940e-02
8.448714683262571745e-02
8.616037501881819438e-02
8.703483405135498119e-02
8.706301342029278134e-02
8.622727946217671746e-02
8.451916534680523063e-02
8.194290533544477950e-02
7.853681321213859534e-02
7.434513837409752190e-02
6.942827523812140911e-02
6.387134049532114388e-02
5.776212578904728334e-02
5.119958257656452572e-02
4.429269661597336205e-02
3.715064361316123415e-02
2.988111040784079131e-02
2.259100360285246079e-02
1.538413678204735881e-02
8.349822349165425539e-03
1.573100490018554398e-03
-4.868588047885239259e-03
-1.091737890207715618e-02
-1.651871418082629522e-02
-2.162839720858732162e-02
-2.621750774902859710e-02
-3.025882136841893943e-02
-3.373355820901797336e-02
-3.663025436107552463e-02
-3.893809374290902597e-02
-4.064970212578326858e-02
-4.175943989403498730e-02
-4.226176127939420407e-02
-4.215148334813478836e-02
-4.142352800750830066e-02
-4.007380902491652908e-02
-3.810069369982491128e-02
-3.550303604640269589e-02
-3.228514625989453019e-02
-2.845908128673488996e-02
-2.403830271839128840e-02
-1.905008864526767931e-02
-1.353324987371695536e-02
-7.529720413343373581e-03
-1.103849861953329521e-03
5.669150311729933937e-03
1.270825178611569538e-02
1.990764239689066933e-02
2.715480455047648151e-02
3.433025610004901418e-02
4.129796857547678168e-02
4.791948922799894178e-02
5.405547027409753069e-02
5.956534003951889644e-02
6.430939243232704217e-02
6.816317716422930217e-02
7.101451218309615121e-02
7.275626571041854396e-02
7.331764291592769711e-02
7.264477472370400868e-02
7.069613219351855715e-02
6.748080238811544895e-02
6.302103852324465738e-02
5.736034728969274799e-02
5.059074449899200049e-02
4.281159465161258476e-02
3.414684014633963954e-02
2.475279514905413120e-02
1.478905673578226158e-02
4.431449059949200617e-03
-6.131632782777092852e-03
-1.671185162603321117e-02
-2.712371843068355631e-02
-3.718301913246668117e-02
-4.671162770661328734e-02
-5.555550811652978926e-02
-6.356667241259410239e-02
-7.061373801861747790e-02
-7.660174140609271598e-02
-8.144130902583988918e-02
-8.507104572277086885e-02
-8.746505442299748467e-02
-8.860211006239275544e-02
-8.849502731502424668e-02
-8.718202214048047238e-02
-8.470633876706552823e-02
-8.114239079335752725e-02
-7.657799809653387246e-02
-7.110638441999975190e-02
-6.484108651772885201e-02
-5.790047784303217759e-02
-5.040594492243632985e-02
-4.248522583517450740e-02
-3.426674932669859092e-02
-2.587506288418834483e-02
-1.742996992546407692e-02
-9.049986109530262779e-03
-8.401179512406821773e-04
7.104337497881661745e-03
1.469148320894662386e-02
2.185090973482056720e-02
2.852108543086832176e-02
3.464697438386598466e-02
4.019706620531612873e-02
4.514526346951718699e-02
4.947477275724296991e-02
5.318765586484297536e-02
5.628855101393273608e-02
5.879142620151118354e-02
6.072123635712856765e-02
6.210400323760369851e-02
6.297134017497918457e-02
6.335873084849706627e-02
6.330162290148085014e-02
6.283473247032088371e-02
6.199248529948570702e-02
6.080743330823294018e-02
5.930559834008698739e-02
5.751154537583470783e-02
5.544558849240522475e-02
5.311975793140479019e-02
5.054497076731444966e-02
4.772754382460139139e-02
4.466857431505039111e-02
4.136887080494548730e-02
3.782916093008684144e-02
3.405011838498686605e-02
3.003387974082848827e-02
2.579161107947967879e-02
2.133791902418298927e-02
1.669279287665637393e-02
1.189418775073142545e-02
6.983910048424756684e-03
2.014733526151294730e-03
-2.940012270386729160e-03
-7.804235151117177444e-03
-1.248822043311798545e-02
-1.688736036524424861e-02
-2.089566818495119244e-02
-2.439997107020221156e-02
-2.728248479685720096e-02
-2.942714701761929563e-02
-3.072850633411497445e-02
-3.108499443515346655e-02
-3.040540449877652401e-02
-2.863171063479973133e-02
-2.571279994426171889e-02
-2.162392621305672669e-02
-1.638788321451665336e-02
-1.003416394534451146e-02
-2.635702520447811767e-03
5.688804114116049505e-03
1.481395385882816433e-02
2.456473357599613799e-02
3.473548313180355868e-02
4.511378314789009358e-02
5.545158301689250696e-02
6.548833005346874070e-02
7.496226777221402793e-02
8.360798244772751908e-02
9.115957274873055793e-02
9.736878174836004207e-02
1.020179627360155578e-01
1.048946011692412916e-01
1.058352693840691472e-01
1.047263672648794247e-01
1.014641746010947199e-01
9.602480091769491355e-02
8.843182045601957753e-02
7.872631738329201323e-02
6.704070199897209370e-02
5.353814524057032981e-02
3.840682380981672028e-02
2.190854372764987346e-02
4.318906101344807506e-03
-1.406448032504418501e-02
-3.290726432372875765e-02
-5.187154183276287966e-02
-7.061800733110239203e-02
-8.880598448216873997e-02
-1.060979560028937896e-01
-1.221883270949448846e-01
-1.367897681257012887e-01
-1.496274514188262184e-01
-1.604902022084706004e-01
-1.691874276772522001e-01
-1.755561127672349286e-01
-1.795111926226883592e-01
-1.809819367805012569e-01
-1.799409237765441372e-01
-1.764303280799509321e-01
-1.705010175651791859e-01
-1.622537765672860954e-01
-1.518364365919495085e-01
-1.394031319158440252e-01
-1.251502348165787482e-01
-1.092973701031211137e-01
-9.206910668276559184e-02
-7.371334554215296098e-02
-5.448521222646231926e-02
-3.464063433356552590e-02
-1.443770997369025165e-02
5.865233891180478450e-03
2.601797388861785965e-02
4.578282277931157440e-02
6.492418983502241947e-02
8.322634827484542974e-02
1.004916113544048195e-01
1.165263803445761998e-01
1.311679794975098845e-01
1.442701088718177371e-01
1.556946520480519125e-01
1.653416811425749700e-01
1.731226346207612177e-01
1.789642431941102507e-01
1.828330639356215148e-01
1.847025059772078315e-01
1.845702901427975218e-01
1.824703487470967500e-01
1.784413409576597331e-01
1.725544489671535231e-01
1.649093146663202225e-01
1.556106812982971932e-01
1.447988597460046489e-01
1.326322759970174348e-01
1.192758500719332121e-01
1.049234207576349581e-01
8.977706782284824993e-02
7.404388905184025593e-02
5.794352990655605301e-02
4.169747729912270939e-02
2.552289634209048419e-02
9.630753453739482328e-03
-5.769736258092262107e-03
-2.049128056967593203e-02
-3.436507076023627427e-02
-4.722791530136209726e-02
-5.895791707053803232e-02
-6.945340202361911797e-02
-7.862472590915459136e-02
-8.643413194393065324e-02
-9.285807553914900148e-02
-9.789225688031617800e-02
-1.015785960270489119e-01
-1.039662616972149151e-01
-1.051246844280950971e-01
-1.051512827883724771e-01
-1.041461438163825137e-01
-1.022194320169105552e-01
-9.948949766075677881e-02
-9.607388323090780557e-02
-9.208195878675166923e-02
-8.761924688408864736e-02
-8.278547271386163531e-02
-7.765621578263613711e-02
-7.230069694992612150e-02
-6.677599239496928574e-02
-6.111115890226974379e-02
-5.533095613460953938e-02
-4.944542533844843019e-02
-4.344502554584515897e-02
-3.731831050282012618e-02
-3.104541311577483503e-02
-2.459987677883061774e-02
-1.795589549558079812e-02
-1.109383795068544058e-02
-3.996866743745929387e-03
3.346441780180868172e-03
1.092587585484187593e-02
1.872574466085608069e-02
2.671773013350331460e-02
3.484552184159067645e-02
4.304859803334704083e-02
5.124940199834678717e-02
5.934854512274274213e-02
6.724440585439887819e-02
7.482371362320652808e-02
8.196441693805645023e-02
8.854492843204679609e-02
9.444851160155112724e-02
9.956053899225117410e-02
1.037728250401673963e-01
1.070018835836294008e-01
1.091702522424809474e-01
1.102172937933295210e-01
1.101182179992498122e-01
1.088536019707928293e-01
1.064307589177119068e-01
1.028900113121970633e-01
9.827579583293390153e-02
9.266099868337211720e-02
8.613916158438164605e-02
7.880697304870358522e-02
7.077942824632184327e-02
6.217916831400904787e-02
5.312910992253139925e-02
4.375308938271805365e-02
3.417511112079917035e-02
2.451277566887828663e-02
1.487056753818906049e-02
5.350928905414643021e-03
-3.957718707790998380e-03
-1.298363106015933653e-02
-2.165730726954473440e-02
-2.992576849758411123e-02
-3.774758870100421160e-02
-4.508328528296416671e-02
-5.190451120177422967e-02
-5.818738612206965366e-02
-6.390848733932881498e-02
-6.904596359813502948e-02
-7.357828949339746683e-02
-7.748134853434854308e-02
-8.072592150061491667e-02
-8.328204155261917374e-02
-8.511523048061389596e-02
-8.618583983323975517e-02
-8.645386936653354226e-02
-8.587848226541397456e-02
-8.441827842110694036e-02
-8.203353048869410635e-02
-7.869501831866279606e-02
-7.437756959109270705e-02
-6.906359551406116015e-02
-6.276111164835683487e-02
-5.548370674898937815e-02
-4.726365430924394512e-02
-3.816861656758554350e-02
-2.827129419270712346e-02
-1.767471646854749251e-02
-6.515403137707369285e-03
5.065568243995727596e-03
1.689402413040439616e-02
2.877433455765508047e-02
4.050721681042925015e-02
5.187373463081867281e-02
6.264768665294725980e-02
7.260520860559399603e-02
8.153004756368141537e-02
8.920768863600864185e-02
9.544293393045964746e-02
1.000757793007342744e-01
1.029517402744405258e-01
1.039622987046238400e-01
1.030478455256663012e-01
1.001574895935568033e-01
9.531089212272383926e-02
8.857174739777969041e-02
8.001790836654754102e-02
6.980434196801983682e-02
5.811338262333137772e-02
4.514589933552299456e-02
3.116025541128077808e-02
1.642609373401393569e-02
1.225446536129245860e-03
-1.413793654839122331e-02
-2.935851680891754523e-02
-4.414055854800102291e-02
-5.819837685230727642e-02
-7.125064460009389311e-02
-8.305726811964828094e-02
-9.340292415381951097e-02
-1.020848587440156136e-01
-1.089672641984023582e-01
-1.139371385665543801e-01
-1.169061290909872569e-01
-1.178592910004401390e-01
-1.167957541593060700e-01
-1.137496897989034722e-01
-1.088143783535140685e-01
-1.020903496985609976e-01
-9.371323965261330047e-02
-8.385336693680624232e-02
-7.268470714624684914e-02
-6.040317788305785141e-02
-4.721738207433714973e-02
-3.333626818321785978e-02
-1.896978758022366263e-02
-4.328212780221578002e-03
1.038415794775205195e-02
2.498010875379164109e-02
3.927567864106376594e-02
5.310200631384608821e-02
6.631474555880109700e-02
7.877288188940941016e-02
9.035833064647486035e-02
1.009748358854962724e-01
1.105297148001560259e-01
1.189561991608621694e-01
1.262019362987797932e-01
1.322194585935995148e-01
1.369850415857392645e-01
1.404824050158539339e-01
1.427021698506296954e-01
1.436538848499866738e-01
1.433504685471972961e-01
1.418141865921303812e-01
1.390819131074634563e-01
1.351924242968541301e-01
1.301969863338819922e-01
1.241583224704179977e-01
1.171412376099521813e-01
1.092256607902423321e-01
1.004996145397349244e-01
9.105404579150207234e-02
8.099359540857012374e-02
7.042701959513830712e-02
5.946534874522863695e-02
4.822560016007759742e-02
3.682571279050739221e-02
2.538072793269073590e-02
1.400132672745791305e-02
2.797166962776657679e-03
-8.134427557564575736e-03
-1.870703457012782428e-02
-2.883699873818983128e-02
-3.846147077169549677e-02
-4.752831026015157112e-02
-5.599025446242613530e-02
-6.382210396621899873e-02
-7.100502301333476429e-02
-7.752596679167089722e-02
-8.338653026642853239e-02
-8.859064017103472632e-02
-9.314491581633625727e-02
-9.705987784122960260e-02
-1.003461159881231940e-01
-1.030100783170342094e-01
-1.050546858144155160e-01
-1.064815338230014757e-01
-1.072821510009686619e-01
-1.074430836254987448e-01
-1.069487245211509785e-01
-1.057741181663177099e-01
-1.038917296187412548e-01
-1.012737215569811944e-01
-9.789152269884693336e-02
-9.371661060617192396e-02
-8.872772035770688792e-02
-8.291371393533200629e-02
-7.626539721962809215e-02
-6.879324481787910117e-02
-6.052386908272558430e-02
-5.148826279377296394e-02
-4.174833861795881201e-02
-3.138072174939365855e-02
-2.047002633327502097e-02
-9.134275636782401842e-03
2.499637113731964684e-03
1.429465772306020774e-02
2.609003498692867573e-02
3.772152848172542067e-02
4.901996313193687782e-02
5.980953194008056112e-02
6.991467796206304874e-02
7.917100109379376915e-02
8.742291997541951076e-02
9.451962107450520567e-02
1.003445366269399841e-01
1.047967611297368068e-01
1.077885287907180134e-01
1.092849992373694790e-01
1.092648524831867640e-01
1.077314728780645187e-01
1.047436005341133985e-01
1.003683230178686880e-01
9.470438155685383108e-02
8.789149489213908539e-02
8.007385204694335290e-02
7.142134068249327006e-02
6.212341612678673464e-02
5.237083453658754328e-02
4.236020399102225636e-02
3.229070438342061117e-02
2.235658785488607581e-02
1.273292590005710434e-02
3.590042418438428324e-03
-4.918414735895968587e-03
-1.267470786558096314e-02
-1.956660476246596669e-02
-2.551176914637920401e-02
-3.046514778551685787e-02
-3.438665287247166108e-02
-3.727273905505329443e-02
-3.914666185603153659e-02
-4.003688534010294009e-02
-4.000358974314642546e-02
-3.912034627748891408e-02
-3.746553444543850725e-02
-3.513525227057272965e-02
-3.222972622683974164e-02
-2.885031471407522446e-02
-2.510071917122821961e-02
-2.108474034613477821e-02
-1.689990128485096416e-02
-1.263618260548155479e-02
-8.382012387502220732e-03
-4.211235156586069436e-03
-1.873941786991644223e-04
3.629177394015946963e-03
7.197916364079311353e-03
1.048627684184192180e-02
1.346700789652154236e-02
1.613166293131786111e-02
1.847603259481741741e-02
2.050206330241820252e-02
2.222395271966174507e-02
2.365747530866648546e-02
2.482226774329487212e-02
2.574243749994425262e-02
2.644227201053330617e-02
2.694518836423497737e-02
2.727401162399831214e-02
2.745073241975642259e-02
2.749214186992708642e-02
2.741300624618539516e-02
2.722613970233023900e-02
2.693769809213870936e-02
2.655239233538583821e-02
2.607226555691700975e-02
2.549425485582307305e-02
2.481464545879353417e-02
2.402758833656771370e-02
2.312485402102926885e-02
2.209805256781355309e-02
2.093837314153248336e-02
1.963672923870816642e-02
1.818426811077267224e-02
1.657357875160311161e-02
1.479778926020707160e-02
1.285078477235459746e-02
1.072892855578487861e-02
8.429106518039682777e-03
5.949784687605173816e-03
3.292338099450555118e-03
4.585825594650514564e-04
-2.546306907713274253e-03
-5.713545116886592848e-03
-9.033552302510355556e-03
-1.248980028271986543e-02
-1.606137954465929052e-02
-1.972534146607587274e-02
-2.344733875673102319e-02
-2.718893315253984033e-02
-3.090749668967063268e-02
-3.454725115801078605e-02
-3.804978173264183389e-02
-4.135135717953286605e-02
-4.437882989207334733e-02
-4.705801408388268769e-02
-4.931292943220025315e-02
-5.106573725724850021e-02
-5.223927714930635263e-02
-5.276457679105666515e-02
-5.257763365857991145e-02
-5.161847316921835960e-02
-4.984903955208414006e-02
-4.723882883145061329e-02
-4.376807846227837029e-02
-3.944937983349185856e-02
-3.430164177944982490e-02
-2.836314358228733679e-02
-2.170517852932732361e-02
-1.440329774248054646e-02
-6.556817215266793480e-03
1.711232976493600420e-03
1.027507810278958239e-02
1.899143719141160869e-02
2.770680315367798213e-02
3.626757625381858002e-02
4.452034573056767169e-02
5.231177034701785244e-02
5.949592175413788431e-02
6.594830447267016615e-02
7.154857441042217214e-02
7.619749384542576220e-02
7.983044632694182019e-02
8.238768760219637721e-02
8.384507635938788506e-02
8.421270471289825366e-02
8.350633254377978765e-02
8.178327210712210693e-02
7.912419161640092680e-02
7.561633231817074807e-02
7.137899584583876078e-02
6.654164081725477686e-02
6.123713583179068998e-02
5.560779852047831318e-02
4.979743635158877940e-02
4.394131164515890225e-02
3.816119421764822828e-02
3.257635224034427512e-02
2.727965950518602273e-02
2.233953503180471922e-02
1.781923212576410828e-02
1.374278467731454220e-02
1.011301836584039063e-02
6.924990100495456366e-03
4.136977169499045891e-03
1.696076610712590228e-03
-4.577891089798582364e-04
-2.403793958757083696e-03
-4.224229716656872219e-03
-5.999923423251665375e-03
-7.809475511712687598e-03
-9.730388639701914241e-03
-1.182293599193158691e-02
-1.413200919828846817e-02
-1.669830927343143867e-02
-1.953037074187539968e-02
-2.261999719910756657e-02
-2.595102369610990251e-02
-2.947081823278700774e-02
-3.311611061968170594e-02
-3.681349349879193406e-02
-4.046365070648113432e-02
-4.396309177828838788e-02
-4.720348118997653303e-02
-5.006939162345717953e-02
-5.244540431763967947e-02
-5.422628106363072686e-02
-5.531554071456239868e-02
-5.562050340257893022e-02
-5.507803826665597091e-02
-5.363979466082232500e-02
-5.126717279381035053e-02
-4.796462063187971470e-02
-4.374864702204667860e-02
-3.865309768731706175e-02
-3.275437052443432029e-02
-2.613571594901755585e-02
-1.890120816976477436e-02
-1.118427400694549552e-02
-3.121403737262044842e-03
5.136631893379034822e-03
1.342722721255357882e-02
2.158773427518406035e-02
2.945803201464199106e-02
3.687921456392971586e-02
4.369759815247810375e-02
4.978180775630051264e-02
5.500648618940191803e-02
5.926088461503555699e-02
6.246869356337646229e-02
6.455915263429494455e-02
6.548683218889932156e-02
6.524069134889375066e-02
6.381419095736803881e-02
6.123318631966064018e-02
5.754939708151568523e-02
5.281955373584322488e-02
4.713323923960907602e-02
4.059522302042579273e-02
3.331679177542180154e-02
2.543561403778894781e-02
1.709614665477516768e-02
8.449340982727912563e-03
-3.391419810132448656e-04
-9.101580669145032526e-03
-1.766884153149233389e-02
-2.586994462106415038e-02
-3.353447723135082742e-02
-4.050236566241068037e-02
-4.662148833479137083e-02
-5.174360092248832255e-02
-5.574733084222185248e-02
-5.852324284461295212e-02
-5.997274494521870336e-02
-6.003963033349611622e-02
-5.867821799825952145e-02
-5.586542125603628783e-02
-5.162733039752954306e-02
-4.599745883585589640e-02
-3.904404914189323061e-02
-3.087909183044008216e-02
-2.162012258520925462e-02
-1.142361504510709842e-02
-4.748905494911170519e-04
1.103600829189134436e-02
2.289078265251659472e-02
3.485907384435845552e-02
4.670950521986239751e-02
5.820703760495591489e-02
6.911583973009391424e-02
7.921127483076358111e-02
8.829212562201091408e-02
9.616108568571954396e-02
1.026533707401590945e-01
1.076436645048575586e-01
1.110131230478235420e-01
1.126977278214319339e-01
1.126725811518555220e-01
1.109234336210800920e-01
1.075015756280762874e-01
1.024851665390293237e-01
9.596791332498424976e-02
8.809932175995112413e-02
7.904158242771278098e-02
6.897142335000765179e-02
5.809481208736599206e-02
4.662125408067602228e-02
3.476130052020439537e-02
2.272672531244435135e-02
1.072765714339150855e-02
-1.047523837396744685e-03
-1.242538245249492045e-02
-2.323932476573414146e-02
-3.336461554163113602e-02
-4.269299954036973044e-02
-5.112991592886172165e-02
-5.862802158413163434e-02
-6.515032810370480210e-02
-7.067840694696035653e-02
-7.522972708489253368e-02
-7.882639888792059013e-02
-8.150601587235696555e-02
-8.332361422406410478e-02
-8.433548475851482262e-02
-8.460180921523992315e-02
-8.418534387602476243e-02
-8.314726771555439044e-02
-8.153883192804868563e-02
-7.940753453979136622e-02
-7.679578375924088485e-02
-7.372913874994836692e-02
-7.022960631134331222e-02
-6.631235365164785123e-02
-6.197982410563673827e-02
-5.723298663175127587e-02
-5.207046161790959693e-02
-4.648832009217636341e-02
-4.048324909945111988e-02
-3.406043686758090938e-02
-2.723048723542478150e-02
-2.000741625706563970e-02
-1.242470189305298033e-02
-4.522884434693185546e-03
3.650397002380181225e-03
1.202497221812880851e-02
2.052610999435625777e-02
2.907039370131610928e-02
3.755886254120197054e-02
4.589078512278640942e-02
5.396151999283711753e-02
6.166233594169989035e-02
6.888499313290236126e-02
7.552867919699833565e-02
8.149713649863275788e-02
8.669772073036721705e-02
9.105766363109306372e-02
9.451112025308332221e-02
9.700070205252007971e-02
9.849477474191954685e-02
9.896675357834797127e-02
9.840305186104325585e-02
9.681246631797463253e-02
9.420662258136355827e-02
9.061151728143171380e-02
8.606763122517258058e-02
8.061737252091710770e-02
7.431646018917276164e-02
6.722846945007787678e-02
5.941949068710330323e-02
5.096856206238242759e-02
4.195904936398002494e-02
3.247908288489729373e-02
2.263071444905628837e-02
1.251863635785107134e-02
2.255477922587569364e-03
-8.032977598169689301e-03
-1.821932276647751647e-02
-2.816770242521076523e-02
-3.773405713406893097e-02
-4.677385511556052256e-02
-5.514124595439015564e-02
-6.268963031462437829e-02
-6.927532841218461690e-02
-7.476970447483358151e-02
-7.904895582785208263e-02
-8.200159078010310632e-02
-8.355064678804785538e-02
-8.362561599996169714e-02
-8.218489768518859317e-02
-7.923300465240504242e-02
-7.478082685938922114e-02
-6.888538529733051474e-02
-6.164687117059555743e-02
-5.317268830567103283e-02
-4.362223421103650356e-02
-3.318331727682846677e-02
-2.205170439626313178e-02
-1.046090771372837867e-02
1.343964872985632143e-03
1.311511039959068099e-02
2.459747868761020390e-02
3.553506708737230041e-02
4.568678273334700335e-02
5.483443026949127302e-02
6.276394192049569720e-02
6.930320834096621863e-02
7.431795485911149579e-02
7.768263523318334751e-02
7.933751440188900605e-02
7.925744895639873222e-02
7.743294691641300354e-02
7.392685166864254587e-02
6.882335024183949823e-02
6.222851086867239173e-02
5.430494190341767641e-02
4.522463178316731697e-02
3.517910048095704290e-02
2.438874883311169250e-02
1.307660896775378508e-02
1.471189862533766116e-03
-1.019424105378771532e-02
-2.168797802912631606e-02
-3.279295573353433607e-02
-4.329950952153471117e-02
-5.300496264123813472e-02
-6.173794249791081379e-02
-6.933595288372694510e-02
-7.565184784063905266e-02
-8.057657022245046097e-02
-8.400739035644566588e-02
-8.586668295321146782e-02
-8.611256963289662392e-02
-8.470789296333969265e-02
-8.164936023706709234e-02
-7.696202691804285290e-02
-7.067667609817070151e-02
-6.286351232470156758e-02
-5.361190045829826445e-02
-4.302038844162906633e-02
-3.122671547006631437e-02
-1.837926568499511498e-02
-4.639614914656130587e-03
9.799223120407200838e-03
2.473935067910720820e-02
3.996961385612309708e-02
5.526067954130771398e-02
7.038159699554762117e-02
8.509657686768042073e-02
9.916592756586305180e-02
1.123515901240303150e-01
1.244290271419115079e-01
1.351800187851121549e-01
1.443952693022353129e-01
1.519023427880040467e-01
1.575384552779156566e-01
1.611643555077104939e-01
1.626946689750009001e-01
1.620525776237347060e-01
1.592036156245015543e-01
1.541692605351494827e-01
1.469785174398679783e-01
1.377164390688204176e-01
1.265116227067989707e-01
1.135012513151360675e-01
9.887762690172882674e-02
8.285780146661167467e-02
6.566816825881242881e-02
4.757177336391916339e-02
2.884078521509482462e-02
9.751165839559025605e-03
-9.412777110042359549e-03
-2.836595504150309782e-02
-4.683553669053406449e-02
-6.456428724253229778e-02
-8.129838892442284304e-02
-9.681855288736344878e-02
-1.109313310045579731e-01
-1.234513208361804198e-01
-1.342456488134062265e-01
-1.432041043989723261e-01
-1.502315233403513639e-01
-1.552896973970732952e-01
-1.583541058767151399e-01
-1.594224606937123812e-01
-1.585394827401220563e-01
-1.557566051192830758e-01
-1.511504390904243600e-01
-1.448284595913916506e-01
-1.369016883893360292e-01
-1.275036849747319401e-01
-1.167842543398141947e-01
-1.048958639024459988e-01
-9.200656607238119622e-02
-7.829087227308885455e-02
-6.392508479076523809e-02
-4.909196561209971943e-02
-3.397574192147960470e-02
-1.875950367128469826e-02
-3.624029158377803025e-03
1.125041452579529991e-02
2.569086629295115609e-02
3.953299341505215475e-02
5.261425593673351581e-02
6.478878190318639041e-02
7.592227004167535764e-02
8.588494697750853613e-02
9.457482595802042813e-02
1.019009801887571925e-01
1.077830628120710482e-01
1.121776324409943515e-01
1.150494733556443328e-01
1.163833904959915011e-01
1.162033209561028207e-01
1.145387166658554945e-01
1.114479307095140731e-01
1.070222023541162332e-01
1.013571115382170401e-01
9.457942918561100532e-02
8.683677604232037384e-02
7.828075520958104050e-02
6.908525560975799229e-02
5.943268225514781317e-02
4.950639888157160051e-02
3.949292641731871889e-02
2.957935960005167453e-02
1.994339623241783710e-02
1.074506899440049595e-02
2.141467483337310476e-03
-5.737431010210012824e-03
-1.279137504131974863e-02
-1.892544993521222407e-02
-2.408900031832142408e-02
-2.825985578205252730e-02
-3.142463095467593753e-02
-3.361917825178136615e-02
-3.489741334036145642e-02
-3.532450943088885631e-02
-3.500173877192853944e-02
-3.403768321073867564e-02
-3.254760135661707160e-02
-3.065882608900915435e-02
-2.849964459988126031e-02
-2.619030548246135959e-02
-2.384256490819121332e-02
-2.156530067333424505e-02
-1.944018021551841002e-02
-1.753201250653985133e-02
-1.589832389503713361e-02
-1.455677894886963329e-02
-1.351100561746596158e-02
-1.275251957374710747e-02
-1.223554800903851707e-02
-1.190701238816015660e-02
-1.170179367577543240e-02
-1.153382259492560964e-02
-1.131486766385858718e-02
-1.095519281525175227e-02
-1.036353033048194837e-02
-9.450233078396888531e-03
-8.143339701101152267e-03
-6.381435382222562167e-03
-4.109820454413213794e-03
-1.309479553446079442e-03
2.026541931605074093e-03
5.891324840847083667e-03
1.023695759908038218e-02
1.500774238793668204e-02
2.012959227547603952e-02
2.549762853228156045e-02
3.100343888710756224e-02
3.652532304593904960e-02
4.192854610921226133e-02
4.707813883142181882e-02
5.184224963683947002e-02
5.609081608375694056e-02
5.969847274735610304e-02
6.256415772789940266e-02
6.459469595211730919e-02
6.571045076023900033e-02
6.587017718817853029e-02
6.503974162127933167e-02
6.320844032155452374e-02
6.040333105486918319e-02
5.665619572811070315e-02
5.202590690040074378e-02
4.659694353407039386e-02
4.045691957976377956e-02
3.371366990877971287e-02
2.648619442560749132e-02
1.889476889525701364e-02
1.106543689919722850e-02
3.126028823491256402e-03
-4.798631115899003319e-03
-1.259190328571441718e-02
-2.013868945008209788e-02
-2.733362661582840886e-02
-3.408645611458949870e-02
-4.030903861388424742e-02
-4.592923231325404115e-02
-5.088946559937928410e-02
-5.513477961420131662e-02
-5.862902726147815879e-02
-6.134605338366512506e-02
-6.326340642243122314e-02
-6.437585797418274303e-02
-6.468331820773068341e-02
-6.419059730147082254e-02
-6.291530616433110845e-02
-6.087722573533260739e-02
-5.810186989876553465e-02
-5.462331645899146104e-02
-5.047671315552323262e-02
-4.570400217483477218e-02
-4.035308829517302714e-02
-3.447305349743967628e-02
-2.812138340407930454e-02
-2.135985662230604348e-02
-1.425230466273918160e-02
-6.871781321116671865e-03
7.060195907050356712e-04
8.402473420395104725e-03
1.613160361596445436e-02
2.380625905294664335e-02
3.133730121712101357e-02
3.863273283316427664e-02
4.560048603437440867e-02
5.215110835829181446e-02
5.819735874997734870e-02
6.365341379985366144e-02
6.844453740416149568e-02
7.250143968297712016e-02
7.575958157556260397e-02
7.817505713349058583e-02
7.970963974814754271e-02
8.033578713122861703e-02
8.005169714283127957e-02
7.885973308525495717e-02
7.677883298258680878e-02
7.385089610329770293e-02
7.012058209879938608e-02
6.565006071764924178e-02
6.051576573290757405e-02
5.479593922580448806e-02
4.857976012277980676e-02
4.196157200536550919e-02
3.503569629169282773e-02
2.789623326183092444e-02
2.063720915736992623e-02
1.334860591854742512e-02
6.111045928709628143e-03
-9.963879485723123319e-04
-7.903674163982852760e-03
-1.455288165077575462e-02
-2.088768381646767536e-02
-2.686351625532791554e-02
-3.244504525062950895e-02
-3.759849928072996755e-02
-4.229996174832522521e-02
-4.652998887149172036e-02
-5.027023568121518488e-02
-5.350668441215961080e-02
-5.622640291097616427e-02
-5.841614056678567923e-02
-6.006193863902582752e-02
-6.114970874067217343e-02
-6.166406414687547466e-02
-6.158794939983452954e-02
-6.090428487465472662e-02
-5.959723716864663567e-02
-5.765191498011185134e-02
-5.505463868595194404e-02
-5.180024247190433834e-02
-4.788727353723742919e-02
-4.331878458933904191e-02
-3.811512387523001422e-02
-3.230086155824302141e-02
-2.591077566618563838e-02
-1.900145900133606847e-02
-1.163275600808009493e-02
-3.880020309691430136e-03
4.162191318906972859e-03
1.239700541574468087e-02
2.071205907197312679e-02
2.898371087051947875e-02
3.708711042873776009e-02
4.489087609081688496e-02
5.226088993058761872e-02
5.906565237036236898e-02
6.518336338319270784e-02
7.049454161779641903e-02
7.489183775034884138e-02
7.829282577857293868e-02
8.061893738792229314e-02
8.181730030277707677e-02
8.186569480977710922e-02
8.074645734606157588e-02
7.847796156021132064e-02
7.510385271952757513e-02
7.067374165724488178e-02
6.527288250922805291e-02
5.900087164195368800e-02
5.196391518789278408e-02
4.429146462212282809e-02
3.611813261707641498e-02
2.758151208299642471e-02
1.882508272428355320e-02
9.992810287316942347e-03
1.222537560651432501e-03
-7.354929957893044032e-03
-1.561053975913068333e-02
-2.343213255125481398e-02
-3.071895698384743273e-02
-3.737425052115467966e-02
-4.332489153228739898e-02
-4.850689289747805999e-02
-5.286312578238772097e-02
-5.635965208390227021e-02
-5.896752734686766528e-02
-6.066703851513687018e-02
-6.145600914420520922e-02
-6.133459493567461340e-02
-6.031328089465839981e-02
-5.841399081428920448e-02
-5.566019878793696668e-02
-5.208661915530306274e-02
-4.773527470598144806e-02
-4.265043084900446702e-02
-3.688904794045446550e-02
-3.051279553446370474e-02
-2.358745624721987622e-02
-1.619215946997541039e-02
-8.408805093188673890e-03
-3.254513556509679162e-04
7.958590115438408594e-03
1.634257645851880034e-02
2.471975507818911094e-02
3.297696062685066820e-02
4.100060875311619529e-02
4.867592645333081863e-02
5.588739668604055660e-02
6.252106191643694300e-02
6.847197569700547159e-02
7.363840187348097421e-02
7.792545240452362909e-02
8.125957578657705405e-02
8.357155805349492095e-02
8.480875749306089617e-02
8.494766824626834301e-02
8.396886117541407790e-02
8.187997788739885541e-02
7.871649423971759096e-02
7.451808986580986394e-02
6.935555722415474855e-02
6.331843445796951630e-02
5.650080162146451507e-02
4.902026501126359459e-02
4.100246623097653087e-02
3.257535460596694410e-02
2.387375881868563504e-02
1.503371839233747995e-02
6.185938154157449159e-03
-2.547902426892600589e-03
-1.104771481234516524e-02
-1.920967152506330294e-02
-2.694605609031758275e-02
-3.417220057285959289e-02
-4.082726034491969413e-02
-4.686420452502147033e-02
-5.224042764011670170e-02
-5.693570476159344473e-02
-6.093714624004779867e-02
-6.423625615324918270e-02
-6.683712928755970728e-02
-6.874612041595523637e-02
-6.997072704794332632e-02
-7.052030743496574827e-02
-7.040423940613385612e-02
-6.962869229088491929e-02
-6.819677226624785982e-02
-6.611112303687087521e-02
-6.337111867055859882e-02
-5.997430901434638861e-02
-5.591900202150837385e-02
-5.120742365879842051e-02
-4.584303819260604484e-02
-3.983464709597324405e-02
-3.320574069666773487e-02
-2.598253564579865865e-02
-1.820491802192306108e-02
-9.934200205065456604e-03
-1.234647845851814980e-03
7.807962052741402280e-03
1.708806365385154291e-02
2.649698274275234106e-02
3.590432374615439709e-02
4.516803240934677555e-02
5.414393641289458325e-02
6.267818258083064642e-02
7.061400984390657498e-02
7.779878604094427053e-02
8.409078813767616178e-02
8.935041207207630731e-02
9.345696311433593362e-02
9.631828274957056346e-02
9.784661608237849029e-02
9.799227163103908789e-02
9.673929700842982815e-02
9.407872102197067932e-02
9.005232814392526153e-02
8.472810536752335697e-02
7.818448920373360922e-02
7.054720348366590177e-02
6.195565125037479082e-02
5.256018181074842421e-02
4.253890317046988417e-02
3.207430968150245393e-02
2.135151507705295576e-02
1.055943939320141967e-02
-1.135192399476089506e-04
-1.049340804923088420e-02
-2.041861124128417637e-02
-2.973181752062883931e-02
-3.830826668503321125e-02
-4.603935801489075774e-02
-5.282596642434880113e-02
-5.861041305873844476e-02
-6.334653360148868873e-02
-6.700299494920322618e-02
-6.958458448157360532e-02
-7.110182478082660573e-02
-7.158099094135698948e-02
-7.107040227611985395e-02
-6.962065123947364098e-02
-6.729276267459234628e-02
-6.415634553518437255e-02
-6.028154738161893567e-02
-5.574076806311582116e-02
-5.060748238930325854e-02
-4.495434541996141259e-02
-3.885050552931748613e-02
-3.236417455635225843e-02
-2.556182136796205512e-02
-1.850583736690596115e-02
-1.125801239040157518e-02
-3.879316651804177313e-03
3.570384350172792903e-03
1.103116243809735067e-02
1.844088867391450309e-02
2.573568956009878589e-02
3.285102624752416628e-02
3.971767266962376169e-02
4.626425250704400277e-02
5.241873803967244533e-02
5.810649858968162246e-02
6.325225212240782879e-02
6.778294075090698922e-02
7.163050561845625552e-02
7.472783730751121622e-02
7.701820500538694714e-02
7.845835231826094047e-02
7.900741443958993193e-02
7.864658059160631320e-02
7.737388097154805633e-02
7.519197637525601441e-02
7.213402400936898273e-02
6.824662499225332690e-02
6.358381903402809954e-02
5.822840067306204320e-02
5.227020840988434724e-02
4.580670053099707845e-02
3.895179386737834815e-02
3.182157803950524944e-02
2.453312660194991585e-02
1.720474369532642989e-02
9.953958214542035776e-03
2.886371579482755172e-03
-3.901187898055154951e-03
-1.031567373038102566e-02
-1.628884301118680572e-02
-2.176295770747087993e-02
-2.668821073523042209e-02
-3.104426718971564636e-02
-3.481774022314851336e-02
-3.800626328571272278e-02
-4.063035064396858242e-02
-4.271363142954084230e-02
-4.428856186796691768e-02
-4.539823404145140739e-02
-4.608643526361450027e-02
-4.639777707278072011e-02
-4.637745489599564425e-02
-4.606938041673440398e-02
-4.550887589316644083e-02
-4.472776939743142860e-02
-4.375409180686780364e-02
-4.260232224873698043e-02
-4.128386686841029746e-02
-3.980439032349120110e-02
-3.815809602627787817e-02
-3.633768732898203652e-02
-3.433162104132595621e-02
-3.212342419707908681e-02
-2.969650215218924000e-02
-2.703620359515900712e-02
-2.412920295781061097e-02
-2.096382189871019014e-02
-1.753866107642611943e-02
-1.385633669881046991e-02
-9.923919563288493770e-03
-5.763727817368542380e-03
-1.401404839487450232e-03
3.130579494640670958e-03
7.786650509740354956e-03
1.251955796584706439e-02
1.727662598471858477e-02
2.199910989746823448e-02
2.662801161358106100e-02
3.110512884742231560e-02
3.537278205817972337e-02
3.937472807663145585e-02
4.306337927941673166e-02
4.639439460848657909e-02
4.932741880206294172e-02
5.183518357495816437e-02
5.389316920733863009e-02
5.548321896742475223e-02
5.659892538265618583e-02
5.723539520346652976e-02
5.739422337353309450e-02
5.708399764645450541e-02
5.631402368495858762e-02
5.509780817750433574e-02
5.345151453931639568e-02
5.139169329133457670e-02
4.893689838621127774e-02
4.610640511120380619e-02
4.292030778196902902e-02
3.940127995497941238e-02
3.557253606632119342e-02
3.146031653325358918e-02
2.709623728640358359e-02
2.251274212020581977e-02
1.774904974549892239e-02
1.285141477702547719e-02
7.867256163948035258e-03
2.852997375829051819e-03
-2.129456699760813587e-03
-7.017022863595729146e-03
-1.174050256527234791e-02
-1.622858592939916550e-02
-2.041056253154908962e-02
-2.421754056558296508e-02
-2.758104549604674383e-02
-3.043854437309170130e-02
-3.273766072705402291e-02
-3.442763041870850610e-02
-3.547191591927233156e-02
-3.584821645971091042e-02
-3.553699762552595814e-02
-3.454068733639546057e-02
-3.287458055763866488e-02
-3.055876319005400993e-02
-2.763794359614965557e-02
-2.416499262850626412e-02
-2.019949498791275000e-02
-1.582049390964158919e-02
-1.111061609842260538e-02
-6.157839377614163917e-03
-1.058944973044093248e-03
4.088531906609115321e-03
9.188481338522470551e-03
1.414616777584896609e-02
1.886808864955130324e-02
2.327220574202974041e-02
2.728294392369243898e-02
3.082861311414362981e-02
3.385694856771069572e-02
3.632186653544602906e-02
3.818478172273523374e-02
3.942797054320627825e-02
4.003747083037806354e-02
4.000956688210738355e-02
3.935676924360691220e-02
3.809353276037626829e-02
3.624457448674259230e-02
3.384414674203303081e-02
3.092771285052842156e-02
2.753861486923219609e-02
2.372446806838391514e-02
1.953399315034380634e-02
1.502109945090655645e-02
1.024127946374090922e-02
5.251519878039992775e-03
1.127974161234763725e-04
-5.113207705367026762e-03
-1.036226323845695040e-02
-1.556624616139496743e-02
-2.065653128646745967e-02
-2.556116996850122530e-02
-3.020523806743488637e-02
-3.451357827060741457e-02
-3.840990045999577440e-02
-4.181732353613510506e-02
-4.466021108569942499e-02
-4.686877030041212977e-02
-4.837492831970628682e-02
-4.911653372484574981e-02
-4.904661798794450467e-02
-4.812089280022261578e-02
-4.630968478413777928e-02
-4.360477490713612903e-02
-4.000103148231225203e-02
-3.551790150901120574e-02
-3.019603453793383296e-02
-2.408037731255215086e-02
-1.724625918472689340e-02
-9.784252572004327811e-03
-1.791064264787395333e-03
6.609631474218660360e-03
1.528659586012540844e-02
2.410298976298388268e-02
3.290818602448988134e-02
4.154951369026627789e-02
4.987621325053392257e-02
5.774022732383386758e-02
6.499471071109058640e-02
7.150978892964898748e-02
7.716969231813659846e-02
8.186325080304868163e-02
8.551287072002423939e-02
8.805715465421541654e-02
8.944467027141314586e-02
8.966631097948113416e-02
8.872438101140210642e-02
8.663706683836473743e-02
8.346011330272903872e-02
7.925508806198000578e-02
7.410064978929500890e-02
6.809872680150602653e-02
6.135355885566541601e-02
5.397961816977362576e-02
4.609957023509903690e-02
3.783599381090054642e-02
2.930903437832772795e-02
2.063770916839880593e-02
1.193762313477955000e-02
3.310371573846374819e-03
-5.146085859622751349e-03
-1.334167318423496416e-02
-2.120422538848335675e-02
-2.866431979475387443e-02
-3.566318761290632883e-02
-4.215603190424401653e-02
-4.809963546903674170e-02
-5.346027500544000416e-02
-5.821155036658111348e-02
-6.232805946868298641e-02
-6.579033829267760813e-02
-6.858156881518948089e-02
-7.068586758526709812e-02
-7.209098676251798898e-02
-7.278558453566494335e-02
-7.276032925337699853e-02
-7.201027779923603600e-02
-7.053121176933678516e-02
-6.832423275862076206e-02
-6.539716318190869071e-02
-6.175901864706039024e-02
-5.742963982619800345e-02
-5.243691045146228746e-02
-4.681124131444713843e-02
-4.059943405864712557e-02
-3.385530766791323976e-02
-2.663754762104561524e-02
-1.902311921495770941e-02
-1.109334311665311802e-02
-2.936123479810875611e-03
5.346820665260607411e-03
1.365191107727125978e-02
2.187157976343739180e-02
2.989340297613969633e-02
3.760503599375791123e-02
4.489914154061865753e-02
5.167196577631277127e-02
5.782249760652945908e-02
6.326760085158476821e-02
6.793149031148960904e-02
7.174612964656786052e-02
7.467144832760369555e-02
7.667380534980794415e-02
7.773407489762849953e-02
7.786241421549250363e-02
7.707310305040449006e-02
7.539916247069602950e-02
7.289558915970741071e-02
6.961988894230365654e-02
6.564557369338341886e-02
6.105718615773877977e-02
5.594039533479914367e-02
5.038669485654521940e-02
4.448987835845141792e-02
3.834186407878231728e-02
3.202804446290365148e-02
2.563234069666180809e-02
1.923180054259288063e-02
1.289013757712380477e-02
6.669172206083050052e-03
6.202046531582870725e-04
-5.217350377280905241e-03
-1.080546412339002983e-02
-1.611514974461852878e-02
-2.112342070107633279e-02
-2.580785817386652137e-02
-3.014886602928738141e-02
-3.412791809910784707e-02
-3.772545329928628927e-02
-4.091846198090241110e-02
-4.368319242302443756e-02
-4.599315036872086288e-02
-4.781672429056537527e-02
-4.912167958566754367e-02
-4.987407646683243018e-02
-5.003811888676733960e-02
-4.957832548911134118e-02
-4.846389895694464683e-02
-4.666703464155547848e-02
-4.416263331858199387e-02
-4.094119931228148296e-02
-3.699891783059119921e-02
-3.233995790503442491e-02
-2.699392002498969545e-02
-2.099562718823959340e-02
-1.439512896270086183e-02
-7.269806788162426134e-03
2.993513145931967628e-04
8.212328609305867555e-03
1.634914827069491872e-02
2.458765194393382203e-02
3.279219277404499949e-02
4.081882805024791838e-02
4.852387614517605918e-02
5.576580400007778021e-02
6.240383268379542936e-02
6.830401535358464338e-02
7.335329440180336780e-02
7.744281953018028464e-02
8.048243942125291039e-02
8.241429889202574188e-02
8.318507186472165471e-02
8.277248102003834096e-02
8.118563171703085946e-02
7.843848161175533129e-02
7.458088028362874766e-02
6.968392356593625103e-02
6.382428180209613611e-02
5.710713793686533063e-02
4.964722985650547177e-02
4.156352747589994734e-02
3.298739361290772831e-02
2.405243046923356831e-02
1.489070047441956070e-02
5.631706684486704508e-03
-3.595732202975132283e-03
-1.267251167428116131e-02
-2.148898842133097065e-02
-2.993749289952788578e-02
-3.792596529466390337e-02
-4.537123765410797788e-02
-5.219347731409175462e-02
-5.832951221249862983e-02
-6.372152915731764400e-02
-6.831668934219432832e-02
-7.207614561407071907e-02
-7.496359625755481815e-02
-7.694942524003300921e-02
-7.801471303428848814e-02
-7.814194870526312842e-02
-7.732284379759273019e-02
-7.555776507861286517e-02
-7.284886742918927904e-02
-6.921196704901658170e-02
-6.467036735176009965e-02
-5.925133900892656791e-02
-5.300136164147999096e-02
-4.597284620525425580e-02
-3.822638885603405617e-02
-2.984468687454722158e-02
-2.091433921584357619e-02
-1.153419737214903505e-02
-1.821984506005791538e-03
8.102375809429657183e-03
1.810754474687945384e-02
2.805186069482110134e-02
3.779304823841018318e-02
4.718666375595033380e-02
5.608712055630482585e-02
6.435171981854323486e-02
7.185147058738694525e-02
7.846145417769719022e-02
8.406776188600594002e-02
8.858502603494296246e-02
9.193287796275380341e-02
9.405415606387929062e-02
9.492611442779570752e-02
9.453064912775015205e-02
9.288337530577345236e-02
9.002928813739601022e-02
8.601847798833846259e-02
8.093616411231344121e-02
7.488537683739228401e-02
6.797460814787546768e-02
6.033646958541807881e-02
5.211040776305297245e-02
4.343817797860216601e-02
3.446728110259685701e-02
2.534596131381817996e-02
1.621587277689567896e-02
7.209258701072590245e-03
-1.543404219413138656e-03
-9.929504252941276018e-03
-1.785142732316164632e-02
-2.521512348892234606e-02
-3.195180339878375686e-02
-3.800499252821549351e-02
-4.332403149552170596e-02
-4.788315073375543768e-02
-5.166335972854783215e-02
-5.465315277164810998e-02
-5.685891691195972542e-02
-5.828980955927920427e-02
-5.896176877145002659e-02
-5.890005833464419249e-02
-5.813087640121027133e-02
-5.668455541522608720e-02
-5.459477162159134811e-02
-5.189556641909758017e-02
-4.862307669377228386e-02
-4.481442137442707974e-02
-4.050741692164583352e-02
-3.574275854427642896e-02
-3.056190027654717700e-02
-2.500878237259878539e-02
-1.913305469252087748e-02
-1.298530254572940502e-02
-6.621681596446075610e-03
-1.057266610087100045e-04
6.498027479209377011e-03
1.311754646767660133e-02
1.967495259832899995e-02
2.609155194430838598e-02
3.228373188956955991e-02
3.816566441206536292e-02
4.365229890455496475e-02
4.866172683201130944e-02
5.311285225913004587e-02
5.693056180956544005e-02
6.005294362113459267e-02
6.242026092136031962e-02
6.398814404922377463e-02
6.473183301220827857e-02
6.462959673372305203e-02
6.368496378244462020e-02
6.192042108411770218e-02
5.936297782615447549e-02
5.606848994826945515e-02
5.210529742830333211e-02
4.754734736539498186e-02
4.248981800509601253e-02
3.703297228790000672e-02
3.127965822125945011e-02
2.533820636780780705e-02
1.931744379176805054e-02
1.331920111356561971e-02
7.436708000464076901e-03
1.761252495632195485e-03
-3.635150699114426259e-03
-8.694419589018018493e-03
-1.336266387284405603e-02
-1.761234634340255040e-02
-2.142688551693552879e-02
-2.479596999341602409e-02
-2.773211384184157829e-02
-3.025309058045081573e-02
-3.238204644806359084e-02
-3.415308190278244088e-02
-3.560160182260338479e-02
-3.676206051796507279e-02
-3.766778646444590706e-02
-3.835124939630154411e-02
-3.883466612315295691e-02
-3.913311535510250599e-02
-3.925903187902266694e-02
-3.920862639947052253e-02
-3.897163193372216172e-02
-3.853385670786665246e-02
-3.786739603112828506e-02
-3.694132245250518476e-02
-3.572263604401881842e-02
-3.417427384018225517e-02
-3.225887361370203404e-02
-2.994418127231624621e-02
-2.720377183301207757e-02
-2.401280217968098513e-02
-2.036191813984217225e-02
-1.625214940111788936e-02
-1.168850029041570461e-02
-6.699469753849933429e-03
-1.322563979334706770e-03
4.397620723133677592e-03
1.039270107917198045e-02
1.658922208326198480e-02
2.290547662641746751e-02
2.924419816599770766e-02
3.550627552744987231e-02
4.158928865268194525e-02
4.738717925927006525e-02
5.279445173623117243e-02
5.771432596743873711e-02
6.205564747437980477e-02
6.573126270180006114e-02
6.867723660094855742e-02
7.083818028466393191e-02
7.216857132218355841e-02
7.265466276649910904e-02
7.228926859551808304e-02
7.108124396884570040e-02
6.906853937739433624e-02
6.629284916662839255e-02
6.281304453036226643e-02
5.870619509785936219e-02
5.405117043959026257e-02
4.893705164247032224e-02
4.345926502964855831e-02
3.771290643766589401e-02
3.179064939643620746e-02
2.578430989645119631e-02
1.978126558079307956e-02
1.385517165858136251e-02
8.076921498954399425e-03
2.507481617162913862e-03
-2.809505214360361394e-03
-7.832673591105903874e-03
-1.253343915258628601e-02
-1.689626566805620816e-02
-2.090712717099954543e-02
-2.456168319351209606e-02
-2.786138605210431579e-02
-3.080812297047982873e-02
-3.340572494266261933e-02
-3.565868015511242800e-02
-3.756980766140019523e-02
-3.913697407067660144e-02
-4.035708128796704902e-02
-4.122321171000099815e-02
-4.172203325586981704e-02
-4.183946292489245516e-02
-4.155835707529810519e-02
-4.085856121719069756e-02
-3.972003940074280565e-02
-3.812521197208942891e-02
-3.605791304749673271e-02
-3.350414112411044532e-02
-3.046109370696563345e-02
-2.692961427915287892e-02
-2.291700470827962022e-02
-1.844893961091680773e-02
-1.355451718871255283e-02
-8.274781459548533058e-03
-2.670085854965607852e-03
3.196775322757192724e-03
9.248702774150725434e-03
1.539503730756127016e-02
2.154362779663684946e-02
2.759320404994708431e-02
3.343744576281817982e-02
3.897070361971360225e-02
4.409094743733849020e-02
4.869728441353533138e-02
5.269526677040224649e-02
5.600804520126844571e-02
5.856200981240461401e-02
6.029949984129407553e-02
6.118767215638358514e-02
6.119708968389254988e-02
6.032306396031541368e-02
5.858351145168072538e-02
5.600014671202784011e-02
5.262161780301349845e-02
4.851092145554216500e-02
4.373530287182108428e-02
3.838169563891587199e-02
3.254291994067178007e-02
2.631420660503332870e-02
1.979710218757536888e-02
1.309411059675835709e-02
6.304181730656315680e-03
-4.790589956529534010e-04
-7.163033511807703063e-03
-1.366643211519584337e-02
-1.991786217521765434e-02
-2.584809737025781790e-02
-3.140372562450759186e-02
-3.653943786111268216e-02
-4.121312694217967726e-02
-4.539706217923752951e-02
-4.906763868735781325e-02
-5.220469730694424909e-02
-5.479674912060251979e-02
-5.683369031010308825e-02
-5.830754444576907725e-02
-5.921340412819887933e-02
-5.954662001010591066e-02
-5.930287399241271351e-02
-5.847812885985961828e-02
-5.706840758857950613e-02
-5.507015658823099374e-02
-5.248003089404951887e-02
-4.929562512462848378e-02
-4.551865435598398402e-02
-4.115197805117602053e-02
-3.620267238923609993e-02
-3.068800388333508405e-02
-2.462697823978683698e-02
-1.804906719061313142e-02
-1.099828320823154591e-02
-3.520745731667012171e-03
4.320478079827319226e-03
1.244847551808109937e-02
2.078360365264490806e-02
2.922790336632406089e-02
3.767473983612482785e-02
4.601483784946352323e-02
5.412802835809599200e-02
6.189128170785330313e-02
6.918281198195244674e-02
7.588372051243305605e-02
8.187579346545369174e-02
8.705230297079417923e-02
9.132189108726719573e-02
9.459593662798825020e-02
9.681155222668148819e-02
9.792610393271207470e-02
9.790238397823664007e-02
9.673989562558989175e-02
9.445485506964892974e-02
9.107264340392413893e-02
8.665526223982061849e-02
8.127399486315285693e-02
7.501095408529591391e-02
6.797240741378798856e-02
6.026804162173365204e-02
5.201335544140702621e-02
4.333133913516041408e-02
3.434511959807902415e-02
2.517258501739883664e-02
1.592765187410116398e-02
6.721933537278666250e-03
-2.348804177113148275e-03
-1.119572812818294370e-02
-1.973500952770580047e-02
-2.790204644241372350e-02
-3.563691841016704970e-02
-4.288637873751419138e-02
-4.961148645646031030e-02
-5.577529218096868857e-02
-6.134589347078055199e-02
-6.629765486791024121e-02
-7.060538285141418346e-02
-7.424458932596296468e-02
-7.719130133163075447e-02
-7.942117888658307978e-02
-8.090727940203572277e-02
-8.162156652609969809e-02
-8.153579742293297350e-02
-8.062097855178576578e-02
-7.884796353632106403e-02
-7.619077063802688621e-02
-7.262993908109048602e-02
-6.814718239160696966e-02
-6.273625068999107157e-02
-5.640529361810094067e-02
-4.916518705795137195e-02
-4.105143587227758767e-02
-3.211686646733541428e-02
-2.241987145772126461e-02
-1.205304767802735204e-02
-1.122798225608987593e-03
1.025512407453040356e-02
2.193191714273372978e-02
3.375137440171332298e-02
4.554747860656985919e-02
5.713477529048258119e-02
6.832550750400434580e-02
7.893147193162615427e-02
8.876395076737837730e-02
9.763584052760931886e-02
1.053804564019191342e-01
1.118449423951648203e-01
1.168839554122424323e-01
1.203977239111180264e-01
1.223041403789734832e-01
1.225390274841649807e-01
1.210990776620531895e-01
1.179941770259858302e-01
1.132636762542405529e-01
1.070030668447449207e-01
9.931529391401523743e-02
9.033556150257722461e-02
8.023489974010251935e-02
6.918791218370960727e-02
5.738931912583674494e-02
4.504695905687183810e-02
3.236840498185272058e-02
1.955828040402706608e-02
6.820109531433914650e-03
-5.650142354821153720e-03
-1.768115833477438420e-02
-2.910682472107910951e-02
-3.977946381943337634e-02
-4.958518724603304395e-02
-5.841477279863448169e-02
-6.618640414024021257e-02
-7.284759224827300206e-02
-7.834985583809320198e-02
-8.267352739646390003e-02
-8.581702832876765552e-02
-8.778290454365159090e-02
-8.859583031848247692e-02
-8.828838246595858974e-02
-8.689715468787562180e-02
-8.447127281305180646e-02
-8.106234735460518537e-02
-7.672560374861460419e-02
-7.152264173078511089e-02
-6.551591398450716530e-02
-5.877282007445042145e-02
-5.136586050060647224e-02
-4.336862057808017062e-02
-3.486374622147371538e-02
-2.593935850292550943e-02
-1.668604775895870390e-02
-7.207591384973189783e-03
2.387712873554684052e-03
1.198739685951814848e-02
2.146649498206372464e-02
3.069766873734210144e-02
3.955051530756626549e-02
4.788943228366666222e-02
5.557854045868855508e-02
6.248713399946103503e-02
6.848964734841619939e-02
7.346285951688191762e-02
7.730507142850701063e-02
7.992710024973075089e-02
8.124750694240284732e-02
8.122489250265209348e-02
7.983103239853150956e-02
7.705483431591282628e-02
7.293448172108069061e-02
6.751734106062842744e-02
6.087670267377182781e-02
5.312819347248495805e-02
4.439252990020939316e-02
3.481563397855613751e-02
2.456756023687372420e-02
1.382044125897887929e-02
2.757111326505907404e-03
-8.433606744902030425e-03
-1.956519241055349606e-02
-3.046309091804548508e-02
-4.095653350198809328e-02
-5.088566890188427061e-02
-6.012078648272406456e-02
-6.853768613569070911e-02
-7.603413990141361101e-02
-8.254246119038258223e-02
-8.799942470531191274e-02
-9.237042649607173084e-02
-9.564726738852383225e-02
-9.782549942744603322e-02
-9.892607210042810018e-02
-9.898360742928549727e-02
-9.803561274680847037e-02
-9.613292244976419376e-02
-9.333039783774134401e-02
-8.968291567383991636e-02
-8.524539143500603489e-02
-8.007267123712920320e-02
-7.421533799873103465e-02
-6.771752224529244135e-02
-6.062251813558387770e-02
-5.296800439284976569e-02
-4.478666802012268300e-02
-3.611095910225940731e-02
-2.697277483873163767e-02
-1.740372614493987391e-02
-7.437428096521701490e-03
2.883199230765584944e-03
1.351252411973038851e-02
2.439804867157719520e-02
3.546980705603444001e-02
4.665485316685589329e-02
5.786781348436939587e-02
6.900520333762909242e-02
7.996137346187952299e-02
9.061770881284762769e-02
1.008444892604299231e-01
1.105112521816526555e-01
1.194843284859890276e-01
1.276284524703126255e-01
1.348118873254880445e-01
1.409186271316878181e-01
1.458370750356084156e-01
1.494695072060141516e-01
1.517520923587203918e-01
1.526266944760909516e-01
1.520638596262191000e-01
1.500743881696471604e-01
1.466744662639567209e-01
1.419197702371436109e-01
1.358985634857202696e-01
1.287047596546277151e-01
1.204695715756846641e-01
1.113420681617452168e-01
1.014762081848591818e-01
9.104629249234787169e-02
8.023202972980927883e-02
