BVP Signal
-1.758320136536191403e-02
5.846021361498252022e-02
1.205050448199433966e-01
1.569495688862445060e-01
1.598203901645737779e-01
1.261007946429020810e-01
5.856881346513898023e-02
-3.411101537477828627e-02
-1.382698123510617272e-01
-2.371711740068285224e-01
-3.138149728809607186e-01
-3.541098463332753576e-01
-3.497017627552043706e-01
-2.997380055608986349e-01
-2.110636278192561943e-01
-9.673511432030898471e-02
2.680194701899871190e-02
1.431208255422282138e-01
2.388684508324435685e-01
3.056622917400625972e-01
3.404526379025885063e-01
3.445185591331220709e-01
3.216937331315219417e-01
2.765737720648255848e-01
2.133299503073812775e-01
1.354417207034212256e-01
4.628693634790259637e-02
-4.979561581129116066e-02
-1.465423132327814959e-01
-2.354537197996912634e-01
-3.064648912892975474e-01
-3.495672012323257638e-01
-3.569948480315224826e-01
-3.253504689119246507e-01
-2.569871555132837715e-01
-1.601156605402502819e-01
-4.746058585143066860e-02
6.623494517258764203e-02
1.671428652124131164e-01
2.448585867000535599e-01
2.938133666059873916e-01
3.133457509060166846e-01
3.066324430655921196e-01
2.789714094605096339e-01
2.359981003597965421e-01
1.823373783015701799e-01
1.210080398424541043e-01
5.365396103150978091e-02
-1.857104734269589275e-02
-9.382796127449150037e-02
-1.685748267577867332e-01
-2.371160858815111738e-01
-2.919795663302837130e-01
-3.251482252987241695e-01
-3.298911888550253857e-01
-3.026788662759270498e-01
-2.445474631085544914e-01
-1.614000855871735030e-01
-6.308171150139381400e-02
3.850742199365204954e-02
1.316868784715810869e-01
2.070125852579972059e-01
2.585380482111895861e-01
2.841039381946025566e-01
2.847451618223317271e-01
2.635524770157384178e-01
2.244515221725183751e-01
1.713201730596754513e-01
1.076692818987576850e-01
3.685702023458728438e-02
-3.738971779448024835e-02
-1.104570276837087972e-01
-1.766256525198493244e-01
-2.293662467370033431e-01
-2.622105486964270704e-01
-2.700490986559190287e-01
-2.504954443489019189e-01
-2.048513213169788350e-01
-1.382824726291313200e-01
-5.905558583069048240e-02
2.300200434810570349e-02
9.839430134313489895e-02
1.596529741318661877e-01
2.023606824862874409e-01
2.252685844423437111e-01
2.295994187095996564e-01
2.178932000974262428e-01
1.928539351977433536e-01
1.565815122244395285e-01
1.103947635330443100e-01
5.525049805955313531e-02
-7.422255736423348516e-03
-7.480343432254887848e-02
-1.420800248663375842e-01
-2.025013829807246202e-01
-2.482310090771134847e-01
-2.718562221097417519e-01
-2.681647173401598971e-01
-2.356568090377599844e-01
-1.772842541413330864e-01
-1.001080669035426529e-01
-1.391331240894014970e-02
7.081098144165542951e-02
1.448941262955699139e-01
2.019108302778893360e-01
2.386851420206650976e-01
2.549013201392708594e-01
2.521328112833286506e-01
2.327187639345976722e-01
1.988832532435179101e-01
1.523587971666014451e-01
9.458850509456998013e-02
2.737711531071690407e-02
-4.630752143539204613e-02
-1.217492136385175394e-01
-1.924165823334595404e-01
-2.505531873905744167e-01
-2.883696477515634293e-01
-2.996041251642324044e-01
-2.810685754214482523e-01
-2.337150763685612032e-01
-1.628162310652278011e-01
-7.710121910550132851e-02
1.294909332383337164e-02
9.714053920014437127e-02
1.673325478707093916e-01
2.184648872256678143e-01
2.486608837065188427e-01
2.585359516332589314e-01
2.500777219794517725e-01
2.255615765950441665e-01
1.868975719129444268e-01
1.355983686657644960e-01
7.329703107792950867e-02
2.536228981551258421e-03
-7.253497043965589919e-02
-1.458853223511503150e-01
-2.099564664912511036e-01
-2.566815836817114005e-01
-2.789835794882342679e-01
-2.723645754328238855e-01
-2.360999754903350956e-01
-1.736361786817303687e-01
-9.205135722492191475e-02
-7.575902493073133348e-04
9.014807890474690888e-02
1.714165787654609863e-01
2.356951884615980375e-01
2.779259089800532601e-01
2.951744729896245700e-01
2.861786654872661151e-01
2.509817544682886870e-01
1.909181797019050275e-01
1.089948727079392277e-01
1.047703076020888718e-02
-9.666141808544770342e-02
-2.017905535491685276e-01
-2.924596430828629856e-01
-3.560915324037323693e-01
-3.823108371649660553e-01
-3.653556074478550575e-01
-3.058252149594398728e-01
-2.110933669422219161e-01
-9.409092581109748665e-02
2.929449171854069112e-02
1.434717873435837066e-01
2.360972111940318474e-01
2.998878946197567341e-01
3.328819800036925125e-01
3.372848172272723821e-01
3.175092096468379310e-01
2.782129676898404402e-01
2.230130599789398316e-01
1.542166726660523512e-01
7.351833507335250872e-02
-1.670819294149425774e-02
-1.120868654259669778e-01
-2.054830775719944935e-01
-2.872602436235363044e-01
-3.466649700846091142e-01
-3.740415626348640998e-01
-3.632376541932130776e-01
-3.134407169919910530e-01
-2.298297040732280860e-01
-1.227865730981467646e-01
-5.866866103123813403e-03
1.068788145904832343e-01
2.034515855695861464e-01
2.756277845284406669e-01
3.195009258746058234e-01
3.349171580373287993e-01
3.242250251551018758e-01
2.908933390260347585e-01
2.384725927045872607e-01
1.701776016689772741e-01
8.913906828985823649e-02
-8.570769725856144938e-04
-9.452567157335645120e-02
-1.846174373372917454e-01
-2.622299880748392154e-01
-3.180116337834981155e-01
-3.440089034409569146e-01
-3.356122426281247240e-01
-2.929487239852113234e-01
-2.212032904545967460e-01
-1.296894178640511930e-01
-2.992415986194106592e-02
6.668099930971489731e-02
1.507834172819191854e-01
2.161724270423887040e-01
2.597633083194237358e-01
2.807669530767471500e-01
2.795480733629779335e-01
2.567280168231498849e-01
2.129325973097531133e-01
1.493031685150663368e-01
6.855716736347046425e-02
-2.390370499524524517e-02
-1.194615457420663551e-01
-2.068104307832396849e-01
-2.736467187093770681e-01
-3.091576902321128140e-01
-3.065979841395199412e-01
-2.651465945134454105e-01
-1.904151554863920959e-01
-9.337850822122985284e-02
1.199404154234698372e-02
1.116920844792619882e-01
1.943117116019234536e-01
2.526787609024737646e-01
2.841550060043170900e-01
2.897983647737101820e-01
2.728610530600261708e-01
2.372090303411173995e-01
1.861718577160929589e-01
1.221451530632780558e-01
4.701023505175537520e-02
-3.684766323862304072e-02
-1.253744632630468259e-01
-2.120819262419015305e-01
-2.881315208380916815e-01
-3.434471347378270090e-01
-3.686760010934964082e-01
-3.574821448682742320e-01
-3.084649868866075062e-01
-2.260393466777528837e-01
-1.199128637772326617e-01
-3.260250789504148816e-03
1.098686904615217008e-01
2.071465342086395434e-01
2.798749215785505950e-01
3.237920903844001552e-01
3.387464325238566665e-01
3.275312962577306974e-01
2.943776272944933492e-01
2.436319735127130404e-01
1.790098446783610631e-01
1.035648495398920343e-01
2.025088230764564637e-02
-6.723307305282243129e-02
-1.537035465565089187e-01
-2.322239618275061812e-01
-2.945597627551695408e-01
-3.324047351871863287e-01
-3.391474565116299189e-01
-3.116807393964462491e-01
-2.516372102766765151e-01
-1.655597932173118181e-01
-6.386464743341332961e-02
4.112452612050382372e-02
1.374861110681797061e-01
2.156933621483789754e-01
2.697850098385917716e-01
2.975190602913129201e-01
2.996642025591661485e-01
2.788399268889038551e-01
2.383882364462254211e-01
1.816456945385357957e-01
1.117690899702216967e-01
3.205471720524746826e-02
-5.346148945178115508e-02
-1.394212628152954603e-01
-2.188985042435427630e-01
-2.837495698727020565e-01
-3.256526038666859302e-01
-3.376827789682345093e-01
-3.160277354251568305e-01
-2.613133248618690896e-01
-1.790507553032671395e-01
-7.893960842389867449e-02
2.688609122896637449e-02
1.262141187202702464e-01
2.090267105757103172e-01
2.690252568103985720e-01
3.040212278049534977e-01
3.152176266864663012e-01
3.057637203661265901e-01
2.791436729595039856e-01
2.379404437658432236e-01
1.833584804969343174e-01
1.156480615872424733e-01
3.528223475996481590e-02
-5.554807674596286271e-02
-1.517252406890292893e-01
-2.448439641055296101e-01
-3.240003025843422035e-01
-3.776556463430313926e-01
-3.961413649089923217e-01
-3.741296823422787798e-01
-3.123337145410260418e-01
-2.178546026098260591e-01
-1.029690483362669245e-01
1.735088429737434434e-02
1.284709154387488617e-01
2.188081811734478577e-01
2.815136792868404014e-01
3.147906592192455943e-01
3.209497600700333408e-01
3.046555954907415042e-01
2.710105419612952593e-01
2.241066568914992230e-01
1.664612667014639669e-01
9.941021525424309502e-02
2.419363558132511804e-02
-5.674718154248284407e-02
-1.387867601014803609e-01
-2.148666579384608255e-01
-2.761946938005608865e-01
-3.138264317538063675e-01
-3.207531986356217391e-01
-2.938788809395189161e-01
-2.352194653037509020e-01
-1.518675113437557567e-01
-5.466533733011787188e-02
4.403655300604147893e-02
1.328657734414272762e-01
2.034341976892121706e-01
2.513283419750577674e-01
2.759092507028445551e-01
2.791520734264401060e-01
2.640568630254980231e-01
2.332509989339334178e-01
1.882653614774246476e-01
1.296826534698630740e-01
5.804562671739463969e-02
-2.483599540041011786e-02
-1.146853550904507191e-01
-2.041829624565096313e-01
-2.833873855177567180e-01
-3.412233740549443506e-01
-3.677340737836124474e-01
-3.564870690559946986e-01
-3.064141443724997527e-01
-2.224981870988027854e-01
-1.150511069416763066e-01
2.252913308679865140e-03
1.150494918175178072e-01
2.109235054612748905e-01
2.813308837744097346e-01
3.223942663636668038e-01
3.345410761323199811e-01
3.212812512704301127e-01
2.876062467736911765e-01
2.385137359748208952e-01
1.780555128335336024e-01
1.091124898001385179e-01
3.386396344202870223e-02
-4.530734085707015246e-02
-1.248800645408740251e-01
-1.996486442800281258e-01
-2.628629649549641956e-01
-3.071308107900261875e-01
-3.259094160217720360e-01
-3.151843294549433461e-01
-2.747952759425044134e-01
-2.089025439838924081e-01
-1.253415698706246417e-01
-3.401889321959063184e-02
5.512884420118786821e-02
1.339459620400781370e-01
1.971039289655855398e-01
2.421663737542947281e-01
2.688139676460566951e-01
2.776442010107020852e-01
2.690805866245914446e-01
2.428592658161116968e-01
1.983187583242213281e-01
1.353804483739492470e-01
5.581663747527614711e-02
-3.571547329189041220e-02
-1.313212767742607812e-01
-2.204474265182002624e-01
-2.913911580507969057e-01
-3.334724448126695773e-01
-3.393589834111850889e-01
-3.068994511569158590e-01
-2.398827206586116312e-01
-1.474245900480319893e-01
-4.210504146558048666e-02
6.262571950230239048e-02
1.550382074902768581e-01
2.270077469826136118e-01
2.747393104442049649e-01
2.982656557480540815e-01
3.000435655705024907e-01
2.832375177241605591e-01
2.503261115864202635e-01
2.024936808218016637e-01
1.399635114918544032e-01
6.310425281009585108e-02
-2.611618314035742128e-02
-1.228922047180829730e-01
-2.190996593523628078e-01
-3.039171317335823130e-01
-3.655516317113257085e-01
-3.936836850161460899e-01
-3.819585686085083531e-01
-3.297765322820572775e-01
-2.428048544109088491e-01
-1.319982098211094912e-01
-1.136915006870860279e-02
1.048479620663967937e-01
2.048070763558373919e-01
2.807161254087726099e-01
3.292113908438673020e-01
3.505571415428567206e-01
3.471492355307846389e-01
3.219453192528712870e-01
2.773704681211995315e-01
2.150296815153278085e-01
1.362728774727210990e-01
4.336037539833902110e-02
-5.926227721973736928e-02
-1.641613762742474281e-01
-2.610481991248614353e-01
-3.380141389427221976e-01
-3.836593422075265103e-01
-3.895852211528489928e-01
-3.525531236836681459e-01
-2.756512237025301459e-01
-1.680710813841799212e-01
-4.351664797774354443e-02
8.229899517499957018e-02
1.943578522051725987e-01
2.805572250638672105e-01
3.330247071557912442e-01
3.484558926772758358e-01
3.276858003141089881e-01
2.748462068013616255e-01
1.964571679817073147e-01
1.006818311041002278e-01
-3.210644028223047508e-03
-1.052998092689429732e-01
-1.955831223242387451e-01
-2.647914742325078175e-01
-3.054266000387143021e-01
-3.128392000844145149e-01
-2.860784021464143345e-01
-2.282428508702486758e-01
-1.461519226166795860e-01
-4.933388611065275819e-02
5.144197790398270798e-02
1.456896031211813436e-01
2.243889504136265534e-01
2.806217503336242425e-01
3.097213517260637428e-01
3.091800717841656776e-01
2.785714901986491299e-01
2.196270455470893390e-01
1.364501218658288606e-01
3.572216195594374311e-02
-7.332405181271481331e-02
-1.793978749667933803e-01
-2.702520551647766833e-01
-3.343406615479748711e-01
-3.627567224095322729e-01
-3.510052768687114133e-01
-3.001234582160819397e-01
-2.167612888877241684e-01
-1.120796778065436955e-01
3.373491182019992124e-04
1.070286977060883882e-01
1.969624395022999408e-01
2.629927175398225070e-01
3.021758265052325032e-01
3.150559366709504983e-01
3.043433949235467839e-01
2.735243499568942305e-01
2.258608104341017775e-01
1.640401200224643752e-01
9.049115567965637652e-02
8.154970028634592194e-03
-7.866911850204258427e-02
-1.638264827773235344e-01
-2.394771736395307493e-01
-2.970256668251208265e-01
-3.286426031708995499e-01
-3.289968448020268443e-01
-2.966998946879370047e-01
-2.349831454392119212e-01
-1.513128978461908969e-01
-5.597965967394383235e-02
3.993786130179198535e-02
1.266094128626862880e-01
1.968962745171356499e-01
2.468660669029398846e-01
2.753944955921691085e-01
2.831615376870753042e-01
2.715043673706531990e-01
2.415895007044905896e-01
1.942202739175966919e-01
1.303381053642169995e-01
5.199229300196098191e-02
-3.664685586382052107e-02
-1.287027672171132953e-01
-2.147965059970709523e-01
-2.841761306051853730e-01
-3.266207240026337000e-01
-3.346831386009674336e-01
-3.056389988734605767e-01
-2.425000146872366702e-01
-1.536833274095815716e-01
-5.135181895945082481e-02
5.111724808759006422e-02
1.418076260235028863e-01
2.123498120430999669e-01
2.589060668601970150e-01
2.818945367862752405e-01
2.846635422463998921e-01
2.716180825755561412e-01
2.464284419779551594e-01
2.108815195112146157e-01
1.647058120860925567e-01
1.063946763315400668e-01
3.475305616143865156e-02
-4.933628932732783690e-02
-1.415368568251267611e-01
-2.336222840192270223e-01
-3.142912213628564766e-01
-3.711706410854389016e-01
-3.935411625955026471e-01
-3.750270053040743456e-01
-3.154382755210873301e-01
-2.211772252462709532e-01
-1.040582275221371145e-01
2.110922367488747564e-02
1.394476381352051653e-01
2.386069552753630751e-01
3.103706930886404036e-01
3.510109701172294816e-01
3.605653904849354663e-01
3.415151367841487429e-01
2.974395947661921391e-01
2.321247267712397422e-01
1.493753857467109147e-01
5.349341814222964564e-02
-4.989679508266278707e-02
-1.531761847909556551e-01
-2.467083586200675138e-01
-3.197445197606170741e-01
-3.621781580698050229e-01
-3.667196032672827011e-01
-3.308446843456560593e-01
-2.578694100099050424e-01
-1.567267052706212693e-01
-4.041593814260154016e-02
7.646898877673863337e-02
1.804262816653028900e-01
2.612077582251957630e-01
3.129541910254582948e-01
3.341827244355392579e-01
3.268513894436544942e-01
2.949358426807157096e-01
2.430150123682371099e-01
1.752977189493056809e-01
9.534548680192594938e-02
6.488670954914760314e-03
-8.732516363325784625e-02
-1.806709912463844714e-01
-2.662065394146514996e-01
-3.349706716181002908e-01
-3.775392804900076227e-01
-3.858973771118230367e-01
-3.555884304614503333e-01
-2.874623248293349254e-01
-1.883217578537852432e-01
-7.006587626373163291e-02
5.253566895534257652e-02
1.647900966162934300e-01
2.548595686038676589e-01
3.155924078794029586e-01
3.449973184776393698e-01
3.454002216044849138e-01
3.217128937636733466e-01
2.794728073826547865e-01
2.233201412732909730e-01
1.563598131085285059e-01
8.050173507380650739e-02
-2.477995785872079415e-03
-8.964328924289508005e-02
-1.759238495072581454e-01
-2.539110858752632871e-01
-3.146325748092757002e-01
-3.491868177148253483e-01
-3.508055433338747586e-01
-3.167221087030912541e-01
-2.492437316613148601e-01
-1.556607884206865910e-01
-4.699824217425647988e-02
6.401787914428955228e-02
1.651790205045199078e-01
2.465881815278551104e-01
3.016242856053389376e-01
3.270081872550369972e-01
3.222307375050043055e-01
2.887825449492734120e-01
2.295896289575460325e-01
1.488587761529938103e-01
5.228820553590968201e-02
-5.259732950053401523e-02
-1.563290505505240957e-01
-2.479264367268537439e-01
-3.160715956242388103e-01
-3.509502334033552939e-01
-3.463619507719394863e-01
-3.014707065756207505e-01
-2.215578167265134235e-01
-1.173901696075561052e-01
-3.243936725576379576e-03
1.059263951364120687e-01
1.973830507557038927e-01
2.627453914915339750e-01
2.988212594414291212e-01
3.070291253842453716e-01
2.917749331109714683e-01
2.584433052382497098e-01
2.116969197389367841e-01
1.545803657441167933e-01
8.861089587416903779e-02
1.472100201767774508e-02
-6.534216936494288697e-02
-1.477188751403843425e-01
-2.258108310215416747e-01
-2.907151069259645282e-01
-3.327549261315440599e-01
-3.437401705007089303e-01
-3.192855602820761085e-01
-2.604268607892527565e-01
-1.739469322996859135e-01
-7.121475340413649380e-02
3.416865685285572218e-02
1.292153776325844494e-01
2.040324380003459837e-01
2.532572232666485679e-01
2.761690929988702692e-01
2.756459529364629346e-01
2.564486444686854272e-01
2.234353869096739609e-01
1.802549492247500496e-01
1.288784459182280573e-01
7.004374072099897597e-02
4.373299646830614007e-03
-6.630869737025585353e-02
-1.380013421641613780e-01
-2.043152759046454048e-01
-2.571928845116047690e-01
-2.884315958090504783e-01
-2.916183813264560110e-01
-2.639185699510593897e-01
-2.071538035521547361e-01
-1.277901282097174684e-01
-3.580286642175037337e-02
5.724645725200022683e-02
1.403660392779310095e-01
2.049752082333987646e-01
2.460553442652515521e-01
2.624498340223138659e-01
2.563449977523511447e-01
2.321288791676223151e-01
1.949591254140694563e-01
1.494375681346805096e-01
9.874892198946930155e-02
4.448142195998172621e-02
-1.284648383805994665e-02
-7.273585335874857560e-02
-1.335032492550370931e-01
-1.914060487034927593e-01
-2.405397067007037371e-01
-2.737105633684740469e-01
-2.841079909378185775e-01
-2.672446090216542558e-01
-2.224858729356976594e-01
-1.536263450774824069e-01
-6.831406447482392397e-02
2.347844098766833920e-02
1.114311016646831465e-01
1.866778808263829803e-01
2.429250204349147069e-01
2.766865395604034550e-01
2.868025113067193543e-01
2.736542022354934711e-01
2.385204010494155480e-01
1.833577387440009088e-01
1.110440393198338371e-01
2.590132250374679868e-02
-6.582750073972121196e-02
-1.559042051839745202e-01
-2.346744442141249776e-01
-2.923259706272345881e-01
-3.205805901097920629e-01
-3.143752554180856973e-01
-2.730479597602873398e-01
-2.006753755441311182e-01
-1.054553300565754803e-01
1.695359983267419324e-03
1.089325776959004233e-01
2.051753611419833145e-01
2.812877205387794288e-01
3.305910567013226609e-01
3.488480218858883153e-01
3.340567278310304644e-01
2.863865737856567950e-01
2.084009953171696850e-01
1.054690413716769942e-01
-1.391510059521741671e-02
-1.382482777690861309e-01
-2.538447414446940442e-01
-3.464566520093911861e-01
-4.034978368380892078e-01
-4.164025486443038160e-01
-3.824865647483724485e-01
-3.057243060562403469e-01
-1.961317492062679135e-01
-6.786515125842268459e-02
6.344913259564138874e-02
1.834098368347332475e-01
2.808566016241184071e-01
3.487895469345888011e-01
3.841864737393874130e-01
3.870724505299006357e-01
3.593695255139148226e-01
3.040028174430062791e-01
2.245331848244128681e-01
1.253391435074057148e-01
1.216167146539937592e-02
-1.073173198404532014e-01
-2.232537029133623563e-01
-3.241140805738714215e-01
-3.979842643191967011e-01
-4.345537677735614168e-01
-4.273189306420654976e-01
-3.753742899650833742e-01
-2.841887906504805827e-01
-1.650006922637354267e-01
-3.286191623477541235e-02
9.619755453461253936e-02
2.081030674186436502e-01
2.929532007134033056e-01
3.459847812773070297e-01
3.671972292576963781e-01
3.599662729167291131e-01
3.292180318760518642e-01
2.797720109870712180e-01
2.153410334683074079e-01
1.384431731467121729e-01
5.117249476864124680e-02
-4.353628000403809289e-02
-1.407155042579808779e-01
-2.328109370204157758e-01
-3.101281585549361952e-01
-3.623102548727755168e-01
-3.805257576651804308e-01
-3.597641130644565477e-01
-3.005129898316588055e-01
-2.092093352354200131e-01
-9.722860731202659368e-02
2.131970487938154857e-02
1.323164111654108743e-01
2.240807830864149086e-01
2.889258326671961252e-01
3.235563617430637917e-01
3.284168138252510083e-01
3.063878115595372043e-01
2.613868316848506623e-01
1.974029690612488508e-01
1.182735171718830580e-01
2.816192346513293754e-02
-6.762603706769003409e-02
-1.620042563979887940e-01
-2.460996984472898497e-01
-3.101041757466929116e-01
-3.449087266264588836e-01
-3.441402303175555843e-01
-3.059925697525170962e-01
-2.341986916925207496e-01
-1.377038509589768311e-01
-2.903304943272872612e-02
7.818571122513209848e-02
1.717978399648876775e-01
2.430736849918246900e-01
2.875881782796291253e-01
3.049677542377477457e-01
2.977864172717096247e-01
2.700945860084971173e-01
2.260894908195177910e-01
1.693057733744598725e-01
1.024861812499074515e-01
2.806340104640592942e-02
-5.100136896428390798e-02
-1.303949851948426331e-01
-2.040429323381908466e-01
-2.644180906215600757e-01
-3.036470884745710030e-01
-3.151912130409736945e-01
-2.956112714405253472e-01
-2.458187661550378378e-01
-1.713394652936192086e-01
-8.143428063460508848e-02
1.269401595157462065e-02
1.000846936473197279e-01
1.719666556343344144e-01
2.229554896478420645e-01
2.512646739676571150e-01
2.580315410555694133e-01
2.461210941333112912e-01
2.188725404225695947e-01
1.791919330637503638e-01
1.292289720793248498e-01
7.066989103769127922e-02
5.471799337693025733e-03
-6.330162296694695490e-02
-1.309450062139525528e-01
-1.911882162299270438e-01
-2.369754482944407825e-01
-2.617775826869934153e-01
-2.610749685458357838e-01
-2.335729387221883724e-01
-1.817627444343459797e-01
-1.116098496538029672e-01
-3.141910290398089445e-02
4.978448058982502117e-02
1.238406904541384385e-01
1.845191497517037482e-01
2.278185968381715720e-01
2.515852970918180942e-01
2.548029776437300553e-01
2.370027086355319945e-01
1.981441283327401714e-01
1.390810671923657926e-01
6.243279096317831678e-02
-2.655980970435677796e-02
-1.196981812436489767e-01
-2.063777755699044425e-01
-2.750769104393095410e-01
-3.154739209190813298e-01
-3.206338013907748530e-01
-2.886415202479751252e-01
-2.231838189292852381e-01
-1.328608992060176797e-01
-2.938428562326014792e-02
7.482163163223336244e-02
1.688984935077743055e-01
2.450691545158909523e-01
2.990610513512343416e-01
3.295155073526724321e-01
3.367811708889651423e-01
3.216335478777901380e-01
2.844315245044573559e-01
2.250512693613044846e-01
1.436609336715284069e-01
4.207285927951915500e-02
-7.485720074493419640e-02
-1.984011874205081627e-01
-3.161771727866012349e-01
-4.135847202723554328e-01
-4.762622150762937379e-01
-4.930390906968639131e-01
-4.586255709784933798e-01
-3.752413349497316086e-01
-2.526116996803506876e-01
-1.062311635268855942e-01
4.566153953630208706e-02
1.855628121251003959e-01
2.997112270608379148e-01
3.798982820038869224e-01
4.237543590761239098e-01
4.336364125306798045e-01
4.146330835513052371e-01
3.724174351541715278e-01
3.116482075659212647e-01
2.353626183600511790e-01
1.454276635816414420e-01
4.376575067134264724e-02
-6.616076047179941799e-02
-1.782018179813950054e-01
-2.832260094315482979e-01
-3.699600069774702793e-01
-4.268794254749161965e-01
-4.446885794504845113e-01
-4.186688084982767566e-01
-3.501556078033616348e-01
-2.466489190392348596e-01
-1.204902226921401587e-01
1.349641871924583958e-02
1.406777198319711653e-01
2.488231635566129363e-01
3.293208539929426415e-01
3.772923726786889809e-01
3.909266373275298023e-01
3.705856082132515938e-01
3.181924961460009804e-01
2.371548296737540640e-01
1.327516598712762952e-01
1.267065771089635057e-02
-1.127177674535838336e-01
-2.307221279713266571e-01
-3.275412184628245793e-01
-3.902748271757413567e-01
-4.093649061268507250e-01
-3.808405354170662505e-01
-3.076684491903406982e-01
-1.996840002351208399e-01
-7.195987140246248859e-02
5.805230656858793858e-02
1.738645245676524731e-01
2.628660243936845053e-01
3.180513414365775393e-01
3.382326011145424527e-01
3.269124071845105339e-01
2.903664672201762276e-01
2.356123460591730834e-01
1.688458664417592792e-01
9.469951003709878301e-02
1.639646237081113234e-02
-6.340449252659223489e-02
-1.414940438571334058e-01
-2.132355913794505009e-01
-2.723562790538934797e-01
-3.116123291783111648e-01
-3.242362209395976969e-01
-3.057797448104677684e-01
-2.557623957310867224e-01
-1.785101998640777621e-01
-8.278762241202357319e-02
1.975833270529404190e-02
1.168801165814496029e-01
1.980239363987458256e-01
2.559772637002342144e-01
2.875111812743259554e-01
2.930290851833862176e-01
2.755150878945108461e-01
2.392142318192186368e-01
1.884863721898065170e-01
1.271671495071337588e-01
5.855358666300540527e-02
-1.412439843978958304e-02
-8.706879719013223273e-02
-1.554750080144739199e-01
-2.135579334438194588e-01
-2.551470867939804599e-01
-2.747660690445609677e-01
-2.689246078361489656e-01
-2.372131033067890193e-01
-1.827804599629997140e-01
-1.119540395572985320e-01
-3.307818530214300112e-02
4.505373812676080614e-02
1.146769049694261189e-01
1.700378013788758080e-01
2.077035015489205050e-01
2.262677600204775208e-01
2.257193175277863728e-01
2.068279570887378294e-01
1.708530964735266722e-01
1.196944732846631637e-01
5.636211649133267276e-02
-1.453663268207332215e-02
-8.662778794435192775e-02
-1.521448514641579319e-01
-2.028893172545498114e-01
-2.316257608640306942e-01
-2.335872051999901555e-01
-2.076581983107935181e-01
-1.568291709129418510e-01
-8.771929714011310331e-02
-9.285536693556573767e-03
6.888193464667334565e-02
1.381722476950544287e-01
1.920665031811033818e-01
2.265646994241499179e-01
2.399829986892904610e-01
2.323677738488205136e-01
2.048668758869000572e-01
1.593610492086968422e-01
9.848912008444138388e-02
2.597025736029458937e-02
-5.304614401821086678e-02
-1.319026196472964374e-01
-2.028221131368418972e-01
-2.577890792239647677e-01
-2.897840121423986837e-01
-2.940945168438506285e-01
-2.693394645523251585e-01
-2.178612766533876144e-01
-1.453102409939626138e-01
-5.952678268871376688e-02
3.090924921184487473e-02
1.179908428866797143e-01
1.950900092577618761e-01
2.571290114686756167e-01
3.002468752355452741e-01
3.212837717742970112e-01
3.174762277801883026e-01
2.866656099293031779e-01
2.280776764679588176e-01
1.434271990652500606e-01
3.789099371699330976e-02
-7.952091740662059483e-02
-1.964976681673541448e-01
-2.989072797001950943e-01
-3.730022384291548088e-01
-4.078986869461581621e-01
-3.977281610040933613e-01
-3.428716530483375546e-01
-2.499110225208568403e-01
-1.303234018982775688e-01
1.659391060428921927e-03
1.313810657797364057e-01
2.456733500851132346e-01
3.340026125524300227e-01
3.888545985334762034e-01
4.056548684978392161e-01
3.826355549903843745e-01
3.209453513675357139e-01
2.250235329896096148e-01
1.029757145327237500e-01
-3.344471068479826226e-02
-1.695720046233569200e-01
-2.893820114065195903e-01
-3.777043065287455370e-01
-4.227045898950217429e-01
-4.180921567580338505e-01
-3.644643415315945711e-01
-2.693359761923285189e-01
-1.457403756172567511e-01
-9.734976169838784749e-03
1.224968413998488576e-01
2.371612295963150818e-01
3.244010676734562226e-01
3.786715361672344238e-01
3.981370313354838930e-01
3.835588001668820968e-01
3.372268566234673526e-01
2.623705728191373376e-01
1.632114754979799853e-01
4.550882765654070544e-02
-8.277932511224053713e-02
-2.111652007383714169e-01
-3.269954288051216684e-01
-4.166959829870787724e-01
-4.678318181661354491e-01
-4.716071213176858401e-01
-4.251469035584717338e-01
-3.327937365228712530e-01
-2.058513273131096222e-01
-6.067928830126963213e-02
8.440554292154134330e-02
2.125757465412312364e-01
3.113569826110768046e-01
3.742002114316643757e-01
4.004855709337364345e-01
3.941699177022584544e-01
3.616694902037019821e-01
3.097132913648921737e-01
2.437901785674598532e-01
1.675335905064440911e-01
8.307291210984829588e-02
-7.884450450366176089e-03
-1.026674181900770200e-01
-1.964834540577205801e-01
-2.819932826472468235e-01
-3.499218489895967732e-01
-3.906651608943833009e-01
-3.964876174885114679e-01
-3.636625126479703374e-01
-2.938771964196151276e-01
-1.944172791472138506e-01
-7.701241658849708460e-02
4.434377918564798987e-02
1.559578545296404772e-01
2.466567512588871969e-01
3.091293874523419749e-01
3.402224961590684660e-01
3.403798128054305039e-01
3.126130905486986800e-01
2.614141716117058256e-01
1.919258548077110715e-01
1.095444865710905602e-01
1.994802874200773957e-02
-7.064170123171858995e-02
-1.552734169535450459e-01
-2.264516788753335452e-01
-2.768328714933907531e-01
-3.003524128062272092e-01
-2.935113618089800203e-01
-2.564409634664919779e-01
-1.933604830788287487e-01
-1.121664864531847355e-01
-2.314221426856722177e-02
6.291478547507883823e-02
1.366229352380403661e-01
1.914641488239923750e-01
2.244040235358166213e-01
2.356355126760105723e-01
2.276581405216244192e-01
2.040587185899590539e-01
1.683941984600860198e-01
1.235037690020791001e-01
7.141375531753563211e-02
1.378705543157740521e-02
-4.732098030676751277e-02
-1.087402484225269972e-01
-1.658271266501162855e-01
-2.126942210390697641e-01
-2.430812441640121668e-01
-2.517033003910187916e-01
-2.356979622945421515e-01
-1.956727241841562659e-01
-1.359293193053658366e-01
-6.371990186641640630e-02
1.225014257397100126e-02
8.359297504396456802e-02
1.437418914621235444e-01
1.887830556159742212e-01
2.174619543345966965e-01
2.304830457598858184e-01
2.294341149871468866e-01
2.157599110914228957e-01
1.901536352388066564e-01
1.525559626722298723e-01
1.027282327073809481e-01
4.118306081128549068e-02
-2.984953442704554871e-02
-1.057715065671812893e-01
-1.795843915239969113e-01
-2.426346761870356583e-01
-2.860648623467393348e-01
-3.026438962281624012e-01
-2.884753883131916385e-01
-2.440654458811315763e-01
-1.743950128185870474e-01
-8.794300780401874407e-02
5.050564395303158705e-03
9.453966511482028712e-02
1.722556184839267868e-01
2.325160929315912006e-01
2.721914660497872784e-01
2.900782989876012907e-01
2.860920921669687922e-01
2.606658701882761386e-01
2.145912730758663678e-01
1.493482167886720224e-01
6.778374889092614319e-02
-2.515684372718419992e-02
-1.220288540463490279e-01
-2.131516203063673620e-01
-2.876752552086133674e-01
-3.353083227232602215e-01
-3.483083063500755916e-01
-3.232009165607094281e-01
-2.617262750905713364e-01
-1.707106983363959607e-01
-6.088467987198159515e-02
5.499684439329088903e-02
1.641729223654685432e-01
2.555080414716364157e-01
3.204581097384766597e-01
3.534062174668878842e-01
3.516152294196073780e-01
3.150801944613300654e-01
2.464647885383934034e-01
1.511541961619198571e-01
3.730890460975815059e-02
-8.430394812437938534e-02
-2.009495865004345960e-01
-2.991836966579452528e-01
-3.666618122642542055e-01
-3.941758967861712648e-01
-3.774132127915873491e-01
-3.179179858300685280e-01
-2.229159936409707832e-01
-1.039927136177186268e-01
2.501455084576095778e-02
1.502942707797547683e-01
2.598755095946437832e-01
3.445886924700554133e-01
3.981637444659053005e-01
4.167931944664915456e-01
3.986299597239919001e-01
3.436087992254474588e-01
2.537539804389731257e-01
1.338711980067420482e-01
-7.700824600315139823e-03
-1.587324487228491399e-01
-3.035798588259436270e-01
-4.247485542923699620e-01
-5.054531409996938507e-01
-5.326931778079960766e-01
-5.000819241310414665e-01
-4.096152248738409996e-01
-2.717953723114886477e-01
-1.039748368668875628e-01
7.268829552728904575e-02
2.368648629230641900e-01
3.703605949093874417e-01
4.603809407575211177e-01
5.004570391583739175e-01
4.901587541733404829e-01
4.339982816876830629e-01
3.400167872815563763e-01
2.184801381150600075e-01
8.093400554755454668e-02
-6.036836746493497163e-02
-1.928747758675279089e-01
-3.042963287136847272e-01
-3.835662734773740978e-01
-4.222025934320335905e-01
-4.157982855571778491e-01
-3.651733449140289189e-01
-2.767197157969480958e-01
-1.616701128195374426e-01
-3.436239733745447000e-02
9.007702518716298457e-02
1.980062158240813996e-01
2.789299657461391524e-01
3.262753939540645187e-01
3.373733647376858658e-01
3.129891427417370586e-01
2.567729392945790057e-01
1.748428013303501005e-01
7.549465639686134266e-02
-3.112700956198405366e-02
-1.336162566728837375e-01
-2.203116563771774228e-01
-2.807346046845978216e-01
-3.072636025253662195e-01
-2.966411716990332570e-01
-2.508175992257219988e-01
-1.767530772467384159e-01
-8.511677173094656101e-02
1.179636505392034351e-02
1.023403181152611197e-01
1.773504651541911170e-01
2.310869456489925700e-01
2.611732674800091303e-01
2.677621495504666216e-01
2.523984489458539482e-01
2.170921209106001504e-01
1.639551965648216314e-01
9.547435182417247923e-02
1.520838366628293747e-02
-7.148022023566202865e-02
-1.570854127003507017e-01
-2.323295221567088786e-01
-2.873478229708860687e-01
-3.135015439952205107e-01
-3.053661965375499276e-01
-2.622964140497948682e-01
-1.890301798542067258e-01
-9.506621129056312680e-02
7.070513884690309350e-03
1.042179823638129110e-01
1.849798526128731968e-01
2.415224399564135926e-01
2.703616087611421248e-01
2.720731438406516212e-01
2.501968423538272202e-01
2.098067300263893320e-01
1.562253092303751423e-01
9.421154321832836409e-02
2.774464011056253232e-02
-3.967368445880903316e-02
-1.044406794012341239e-01
-1.623432103797513293e-01
-2.084547713169580541e-01
-2.376236807587746025e-01
-2.454813430432222221e-01
-2.296507415467048119e-01
-1.907086501540713186e-01
-1.325070537554753902e-01
-6.167204667737107016e-02
1.360760007455345290e-02
8.512849226986073103e-02
1.460622471556634050e-01
1.917708003478594825e-01
2.198851081777017380e-01
2.297918551824718325e-01
2.218804675870043319e-01
1.969309915671292599e-01
1.559013810873975947e-01
1.001817137039274358e-01
3.219000861695096860e-02
-4.396732440890296911e-02
-1.221193244004790679e-01
-1.942433876635338841e-01
-2.514001081067733234e-01
-2.852634498277573094e-01
-2.898667744584705330e-01
-2.630463800713371270e-01
-2.071057054321687185e-01
-1.284461959998421110e-01
-3.625175273247598084e-02
5.934999813876654096e-02
1.490459256425094026e-01
2.254866596574206516e-01
2.835976942808315360e-01
3.201885771513759416e-01
3.332480478723523487e-01
3.213621963504625922e-01
2.835707714811786517e-01
2.197712910462870650e-01
1.315610480467339360e-01
2.321403906245356197e-02
-9.762968969375412920e-02
-2.199711178333554895e-01
-3.303916588828943457e-01
-4.148779330004965238e-01
-4.611963930000801959e-01
-4.612811691815590920e-01
-4.130304718500169003e-01
-3.209943451701156580e-01
-1.956957198629941941e-01
-5.172148338801052514e-02
9.488589614668921368e-02
2.292005491786372195e-01
3.393033918974459606e-01
4.171673657245683065e-01
4.585909545232275675e-01
4.625005805427425676e-01
4.300461126038049864e-01
3.638844918468146505e-01
2.679231400718011247e-01
1.475904099315000217e-01
1.044424860963866220e-02
-1.332890035244674309e-01
-2.707253330014534054e-01
-3.872366099414210616e-01
-4.683355098637154157e-01
-5.022454518319181549e-01
-4.825452137748854620e-01
-4.100980541250758837e-01
-2.935510205288083263e-01
-1.480654312978537113e-01
7.486205607417140140e-03
1.540861567460930226e-01
2.758810726061329821e-01
3.623596465414031798e-01
4.089713840289512237e-01
4.163065046823056226e-01
3.883929414018822412e-01
3.308590923069095191e-01
2.496246752302845318e-01
1.504681854027172250e-01
3.940509111349212862e-02
-7.653632458265088867e-02
-1.887030664471426866e-01
-2.868529681102416351e-01
-3.600793539842088720e-01
-3.985439345403430922e-01
-3.956067031781953514e-01
-3.496989567321197590e-01
-2.652554002207759831e-01
-1.522804477325194195e-01
-2.460274771046627729e-02
1.026479330547647173e-01
2.155639639408638564e-01
3.032980848148605357e-01
3.588743677545307431e-01
3.790415994205014183e-01
3.635553773066266259e-01
3.143996886623951492e-01
2.353631819092176780e-01
1.321139436081405494e-01
1.258767506845510920e-02
-1.127311069797871657e-01
-2.310919368201265756e-01
-3.286132926332679394e-01
-3.922539042959469202e-01
-4.122649260534176352e-01
-3.844926586335161156e-01
-3.117979313210869075e-01
-2.040100096853428580e-01
-7.624269444248159278e-02
5.405587671481325296e-02
1.704981210159182137e-01
2.606343545465064637e-01
3.175786559362623884e-01
3.401137173619695475e-01
3.314924251204622863e-01
2.975033451056241507e-01
2.445049404143788130e-01
1.780427685924532988e-01
1.023813285043743138e-01
2.091278849897330872e-02
-6.290545880390685518e-02
-1.445786794138755327e-01
-2.180372024251663599e-01
-2.758582691151509336e-01
-3.103430199053359151e-01
-3.152440335503811086e-01
-2.876361434700852038e-01
-2.292625704132700282e-01
-1.467955367081665852e-01
-5.081567456822397300e-02
4.622452961619152173e-02
1.324432329282365095e-01
1.986709024336655027e-01
2.397369757585026129e-01
2.546610794531432020e-01
2.458661697203782803e-01
2.178170947315840600e-01
1.756077779008033413e-01
1.239379027379090004e-01
6.669076352892205906e-02
7.066644922433321097e-03
-5.195539515720809520e-02
-1.071248786804306075e-01
-1.546688099300489450e-01
-1.904538230619360617e-01
-2.105710809784297477e-01
-2.121672906099529576e-01
-1.942131507165685000e-01
-1.579043886009283693e-01
-1.065455494748736159e-01
-4.499107745847319428e-02
2.111336502522409217e-02
8.601319169625232242e-02
1.442701630410243852e-01
1.909126916863405909e-01
2.214514270171121790e-01
2.319875358314040792e-01
2.196054287313313202e-01
1.830800300779250323e-01
1.237139627708095935e-01
4.597045661059405430e-02
-4.243243549807243498e-02
-1.311591164351221528e-01
-2.086122616339574631e-01
-2.637963495207839570e-01
-2.883162350659789208e-01
-2.780354303608231770e-01
-2.339321865757590380e-01
-1.618740798783945833e-01
-7.135693646981822180e-02
2.640720455053417737e-02
1.204766067786902373e-01
2.017026645931504769e-01
2.634785022070491034e-01
3.017074564425544225e-01
3.142555436946895542e-01
3.003020849435810158e-01
2.599814968582569996e-01
1.945239105432781945e-01
1.068330862838710454e-01
2.207096136887305715e-03
-1.111976224087101728e-01
-2.225150484448848998e-01
-3.191306669038300181e-01
-3.884247962435573576e-01
-4.200010738898656282e-01
-4.078639740921753409e-01
-3.519075080412151779e-01
-2.582074312187372378e-01
-1.379628296526091424e-01
-5.372545167580462799e-03
1.249333935337887114e-01
2.401892589712503745e-01
3.309535861325093586e-01
3.915027812758371528e-01
4.193103849015953344e-01
4.140617792700068134e-01
3.767561069353321801e-01
3.093177792493289058e-01
2.148478096685580430e-01
9.832970453413511502e-02
-3.260711150516948376e-02
-1.673217508393776143e-01
-2.925722947606534396e-01
-3.938902283962052997e-01
-4.578114588320721934e-01
-4.745053200681781935e-01
-4.400739515032270899e-01
-3.577720253939591366e-01
-2.376861601249453948e-01
-9.491388662838692869e-02
5.322459787399472231e-02
1.901358360528339619e-01
3.022990015890269500e-01
3.805443931300968030e-01
4.202161094727245860e-01
4.205358245256551331e-01
3.836657746037766548e-01
3.139179935685029177e-01
2.173387967929064635e-01
1.016410611255526703e-01
-2.373393674954321630e-02
-1.477288056711613118e-01
-2.582382861689158648e-01
-3.432857885839990519e-01
-3.927328804878518209e-01
-4.001774266375860423e-01
-3.644971168682497598e-01
-2.904812989235853182e-01
-1.882116151332636766e-01
-7.123945343889109827e-02
4.598217917013541767e-02
1.506906323716346030e-01
2.337006576355150078e-01
2.901163511706138509e-01
3.188258991499037243e-01
3.211684134716470407e-01
2.994239102065273661e-01
2.557692990265431621e-01
1.920874370755629168e-01
1.106339301123914071e-01
1.520376240218218600e-02
-8.778704301190459747e-02
-1.889115331713118739e-01
-2.764402288034902844e-01
-3.381770383960627790e-01
-3.640140379361797573e-01
-3.484646465271759586e-01
-2.923553262623633242e-01
-2.030758541839910725e-01
-9.323169267053593723e-02
2.195073155935563583e-02
1.277242107071289989e-01
2.125478132358339656e-01
2.697255193377561810e-01
2.976395174663996057e-01
2.987355369077091538e-01
2.777806437587625465e-01
2.400447801102698064e-01
1.899579986505467444e-01
1.305595739983827497e-01
6.378339496890429727e-02
-8.627315639670070369e-03
-8.398071319458316752e-02
-1.577702311573244975e-01
-2.235078874685774708e-01
-2.734430735249667732e-01
-3.000335680687515327e-01
-2.977675717295990565e-01
-2.648023831132048644e-01
-2.039042433028941392e-01
-1.223416087100368949e-01
-3.068249306928254316e-02
5.920669619700524855e-02
1.364117426270279321e-01
1.928766613704511190e-01
2.245309244575986463e-01
2.314675356243710014e-01
2.172533652744662591e-01
1.876287219780165549e-01
1.489485329787539336e-01
1.067449918106010975e-01
6.474569407696695311e-02
2.455700184213092940e-02
-1.395372641664693880e-02
-5.172322806784707128e-02
-8.929901537320256155e-02
-1.257780665931020336e-01
-1.582786942538449981e-01
-1.822213346944983048e-01
-1.924184560536329469e-01
-1.846362155405712191e-01
-1.570636489610773845e-01
-1.111466867851700346e-01
-5.150567659462955417e-02
1.498843178360365069e-02
8.062434855714217807e-02
1.382862868568440762e-01
1.825200104694066350e-01
2.100103507780616829e-01
2.194679673068875292e-01
2.111135125671254609e-01
1.860543219127313574e-01
1.458388993983326110e-01
9.235899295244812124e-02
2.810321498880165303e-02
-4.338600942173348463e-02
-1.171021505876339852e-01
-1.864941690344221470e-01
-2.439363346774303665e-01
-2.817902160379067711e-01
-2.938500896921123484e-01
-2.767547063965488663e-01
-2.309004402529224176e-01
-1.605404538664881586e-01
-7.303220857154751888e-02
2.252433733288317086e-02
1.168382576477462603e-01
2.017224838167896162e-01
2.708104994520968423e-01
3.196131718081284823e-01
3.451010563490328198e-01
3.451736480157098774e-01
3.183825559087897772e-01
2.641255237748321161e-01
1.833088631356454001e-01
7.926995403069314605e-02
-4.139774092681751394e-02
-1.685364244765993336e-01
-2.889844086738231899e-01
-3.881381511327721689e-01
-4.523219527450669242e-01
-4.714494221355348680e-01
-4.412725052049643604e-01
-3.645447621001490224e-01
-2.506890649723620967e-01
-1.139902482889470769e-01
2.920737404312273577e-02
1.635008143294887639e-01
2.767925180700376298e-01
3.614519100642727412e-01
4.141703271591626878e-01
4.348508375928601954e-01
4.251257740224858028e-01
3.871013385470160606e-01
3.227528867311169614e-01
2.341297280860629437e-01
1.242436641947076564e-01
-1.737676361665302371e-03
-1.355315022490709842e-01
-2.655503159948284786e-01
-3.778195042695172146e-01
-4.579896444533896882e-01
-4.940409743220438576e-01
-4.789783311120874854e-01
-4.127176575910688205e-01
-3.025353338314462626e-01
-1.618745514482770320e-01
-7.843304457033364874e-03
1.418363004377762304e-01
2.715586195886166565e-01
3.696138109402669070e-01
4.288179889044428927e-01
4.462089490036584838e-01
4.222630416580165913e-01
3.601165694547686646e-01
2.651253288575579070e-01
1.448364512619031985e-01
9.167359687189333139e-03
-1.296013793474599385e-01
-2.574158457026973768e-01
-3.598243797114326070e-01
-4.240352695516887427e-01
-4.412511250312375899e-01
-4.086721264133182929e-01
-3.305215868572961013e-01
-2.176236004337052943e-01
-8.546150775253133491e-02
4.883851860785726196e-02
1.697470750009714702e-01
2.658602693831298991e-01
3.310737778480996041e-01
3.642661626527211594e-01
3.678423132722372646e-01
3.457820406724280149e-01
3.018969136518928620e-01
2.388601487918621258e-01
1.582919618282141450e-01
6.181312635265362454e-02
-4.737993824555999933e-02
-1.630851980474807283e-01
-2.754683147053606507e-01
-3.716684773650013041e-01
-4.377003777081587277e-01
-4.613096773086204916e-01
-4.350786721137147595e-01
-3.588689698719454979e-01
-2.407507792313877681e-01
-9.595964287388991654e-02
5.596223276470638219e-02
1.950873490974439350e-01
3.050055786658238399e-01
3.756695794086507556e-01
4.045022652360741322e-01
3.956165468638319638e-01
3.575414407577798825e-01
3.002519851752855629e-01
2.324418788516972589e-01
1.598161424934594343e-01
8.478724466202042231e-02
7.484309861659061563e-03
-7.241389814746294895e-02
-1.537364333380405457e-01
-2.324932417824129294e-01
-3.016870245061242795e-01
-3.524138011849715646e-01
-3.759562505924998188e-01
-3.662064395213583956e-01
-3.216135406438204170e-01
-2.460034867503992917e-01
-1.480044554092546649e-01
-3.928235777289179609e-02
6.783298860642406058e-02
1.625975748095358497e-01
2.373574439268015812e-01
2.880068892058564867e-01
3.134934894271399486e-01
3.147663428058499191e-01
2.936713769438651367e-01
2.522118230042142972e-01
1.923936692706360030e-01
1.166478792238400675e-01
2.861012846741683990e-02
-6.611868834986717181e-02
-1.596557362133409763e-01
-2.422766265737623381e-01
-3.036739080683196756e-01
-3.347992033818488200e-01
-3.298306474029087942e-01
-2.877197531662429864e-01
-2.128355520460096795e-01
-1.144359126911062008e-01
-5.026274285969245526e-03
1.019800496651667165e-01
1.946536192412183786e-01
2.643480088984280219e-01
3.064976876545130180e-01
3.203636839628161148e-01
3.080043106673977515e-01
2.729420725988572771e-01
2.190264292693877568e-01
1.498679471986752443e-01
6.897509068299068069e-02
-1.957240216865363536e-02
-1.103225820188800110e-01
-1.960158199448915894e-01
-2.678920734448335672e-01
-3.168480200888696974e-01
-3.352242420079094565e-01
-3.187208107349853714e-01
-2.677978663014659033e-01
-1.880033860132922785e-01
-8.900838304496594411e-02
1.739116567953713499e-02
1.196505012318744843e-01
2.084586547491202868e-01
2.777572059355990497e-01
3.246217499161658804e-01
3.482409291882913038e-01
3.485098913118851449e-01
3.248535659132656406e-01
2.758043969767083325e-01
1.995986690324875745e-01
9.568328369496903463e-02
-3.334815458746875905e-02
-1.801099273240356347e-01
-3.317986822205463149e-01
-4.710836384886860628e-01
-5.785923919887125955e-01
-6.365737335901060501e-01
-6.328665422840147325e-01
-5.640556024314495875e-01
-4.367985194647594493e-01
-2.668029302630465782e-01
-7.567044724301075220e-02
1.134972612331036634e-01
2.804948664094605859e-01
4.112732082821351498e-01
4.993538197963519609e-01
5.452618214314399747e-01
5.543827250731254708e-01
5.340358506104794234e-01
4.907024199575267254e-01
4.282197177298026070e-01
3.474135428547344695e-01
2.472107018193279160e-01
1.268599001332244569e-01
-1.144171653815106993e-02
-1.604106452668547789e-01
-3.068951911096888807e-01
-4.330093932220506758e-01
-5.191854185725297555e-01
-5.484990856328959552e-01
-5.111104623476769859e-01
-4.074813104927761387e-01
-2.492825354567882457e-01
-5.755216925991568644e-02
1.414811780255327278e-01
3.217402453289199826e-01
4.622851747594705074e-01
5.506122056732700720e-01
5.835634895729993055e-01
5.659336758600317374e-01
5.074997030126244812e-01
4.195192422900175799e-01
3.117293926366588863e-01
1.906126459857793165e-01
5.927784873077790451e-02
-8.117720151512930471e-02
-2.293894265389315734e-01
-3.813808033419299193e-01
-5.290070896553551449e-01
-6.598579482803206275e-01
-7.588476111413395842e-01
-8.112175464024993232e-01
-8.061724780745525010e-01
-7.400532910657950936e-01
-6.179882615147231917e-01
-4.534212325156445900e-01
-2.656393783511248330e-01
-7.609173175168137959e-02
9.539347534946251983e-02
2.335093455429220199e-01
3.289412514668477172e-01
3.783851656286643106e-01
3.835179329913289692e-01
3.495479584141154561e-01
2.839548954479018672e-01
1.957864472787584909e-01
9.551711904282722543e-02
-4.858358507554783046e-03
-9.198441521269273835e-02
-1.519765075256280795e-01
-1.720858930303315049e-01
-1.429924420265322738e-01
-6.115895755306155479e-02
