BVP Green Neck Signal
-4.375387793367522399e-03
4.787169752266106151e-03
1.116584176885074796e-02
1.258416981130050342e-02
7.846688009971907948e-03
-3.049395892305983326e-03
-1.894884882539260226e-02
-3.778943081506199592e-02
-5.698881440467707532e-02
-7.386947601380365602e-02
-8.603938013784225014e-02
-9.167943035357585535e-02
-8.972147588318758749e-02
-7.992377657677787739e-02
-6.286300047084027176e-02
-3.986424810900215943e-02
-1.288452866509752666e-02
1.564553632728983568e-02
4.302465635848967684e-02
6.652934202478315295e-02
8.369691466731829510e-02
9.261615912579880538e-02
9.218526268546982372e-02
8.228963455028666385e-02
6.385521941623095721e-02
3.875098979224422813e-02
9.548251730957501779e-03
-2.081659995572936184e-02
-4.940451638693076075e-02
-7.359257896120074971e-02
-9.130587357852407160e-02
-1.011516359408669158e-01
-1.024694670442576894e-01
-9.532263958204505172e-02
-8.045491019499283192e-02
-5.922840882022575859e-02
-3.354480297865629346e-02
-5.739207535023440124e-03
2.156930438346658235e-02
4.568125902737392441e-02
6.407035331882229845e-02
7.466521091329476889e-02
7.612247497553888131e-02
6.804514050293808403e-02
5.109934732294933030e-02
2.699531371941314706e-02
-1.675083413365864929e-03
-3.171946378735479577e-02
-5.969875481771204362e-02
-8.230593218893421381e-02
-9.673384971324675008e-02
-1.010064394276991989e-01
-9.424609540405155805e-02
-7.684091540997034508e-02
-5.047165256487193274e-02
-1.796985866718531916e-02
1.699450571089579365e-02
5.036415439321709209e-02
7.822166863304892692e-02
9.730966102972275766e-02
1.054563523959259064e-01
1.018344698752231547e-01
8.701424580733933822e-02
6.281203095610322917e-02
3.197390637799245316e-02
-2.237884692786415788e-03
-3.647334610207084160e-02
-6.766072418288153478e-02
-9.325979557171663881e-02
-1.113924921790433592e-01
-1.208772994864451694e-01
-1.212113944343337496e-01
-1.125398125655101556e-01
-9.563191293507337931e-02
-7.186341894693888677e-02
-4.318485222049453509e-02
-1.204720563954585384e-02
1.874422185296710508e-02
4.626358144275634354e-02
6.777562409669110610e-02
8.108364078920052287e-02
8.485110548530412633e-02
7.882800548813471975e-02
6.392485052027017944e-02
4.210498031888318393e-02
1.610536098714182573e-02
-1.096134898400192605e-02
-3.604075021734022555e-02
-5.652043246505360913e-02
-7.050077200157606194e-02
-7.692752219050728868e-02
-7.559559120938809385e-02
-6.705546525587954831e-02
-5.246231727688737551e-02
-3.340604192343433337e-02
-1.175055238663187847e-02
1.050525256106728776e-02
3.134920756391610525e-02
4.887475742741927143e-02
6.141046504608443923e-02
6.766323761605518017e-02
6.686383418908257992e-02
5.888927773385152498e-02
4.432767911462014154e-02
2.445276169003243738e-02
1.093476036418355654e-03
-2.358473962379667443e-02
-4.734113492938644280e-02
-6.810641122882608867e-02
-8.417057351082819772e-02
-9.429348467687521940e-02
-9.774517100152174676e-02
-9.429836005593943138e-02
-8.419953808769538306e-02
-6.813948306114499254e-02
-4.723233313264160738e-02
-2.299636052867350122e-02
2.684941183349205326e-03
2.764847420027657238e-02
4.960324479603278602e-02
6.634954054724853667e-02
7.604540673148969809e-02
7.748035454778443021e-02
7.030127541653778678e-02
5.513114421545424471e-02
3.353550764003355306e-02
7.827723696632817377e-03
-1.924987793054924040e-02
-4.489691504808578787e-02
-6.659840699151764465e-02
-8.237992397975341108e-02
-9.094573012608515861e-02
-9.170420322473608887e-02
-8.471080436984089468e-02
-7.057233382017319423e-02
-5.035334151376044676e-02
-2.550769133280812728e-02
2.166290484816172854e-03
3.056872058317301744e-02
5.736923824755123247e-02
8.013316410814434743e-02
9.651769423310703477e-02
1.045336454862842990e-01
1.028421443264940366e-01
9.102879699130628222e-02
6.978235545431681064e-02
4.091197434349017753e-02
7.169487692059195103e-03
-2.810743994071257523e-02
-6.146495853334055237e-02
-8.981569689411678103e-02
-1.108308689508534783e-01
-1.231656793041898817e-01
-1.264907164657259886e-01
-1.213548052644743414e-01
-1.089429650301631802e-01
-9.080545807588814855e-02
-6.862197662628326256e-02
-4.403976739391513712e-02
-1.859690074774532353e-02
6.282755168697936807e-03
2.925582578981545528e-02
4.903038218649694024e-02
6.438105747197192530e-02
7.422874932142368987e-02
7.777749713211890015e-02
7.467479139147704947e-02
6.514534415652691035e-02
5.004750154902849746e-02
3.081865616061910812e-02
9.308786444805315294e-03
-1.246185255746330191e-02
-3.256103521619552882e-02
-4.935964965835533402e-02
-6.166661012412979342e-02
-6.877672099039737474e-02
-7.044836061756061529e-02
-6.683917405111371168e-02
-5.842884615308950591e-02
-4.595233181176226755e-02
-3.035600179229602791e-02
-1.277416402753130641e-02
5.490757020652740558e-03
2.300755992183202425e-02
3.829409261760520489e-02
4.994071710322306457e-02
5.677187233029769298e-02
5.802268184910082394e-02
5.349240379099184234e-02
4.362723238574216927e-02
2.949124076201551509e-02
1.261156058965518835e-02
-5.275350462477157096e-03
-2.251410211573405540e-02
-3.778224604297976408e-02
-5.024175496300863769e-02
-5.955917278752390770e-02
-6.580065502895234009e-02
-6.924236886929252544e-02
-7.015957635587224961e-02
-6.866144682781671893e-02
-6.462160931113222762e-02
-5.772420212853846683e-02
-4.761342949387076251e-02
-3.410918344887244741e-02
-1.743366679228287863e-02
1.615311543093076938e-03
2.160520054374874543e-02
4.056315454788910618e-02
5.622584881829049974e-02
6.640320286820448892e-02
6.937956062306953331e-02
6.425992787825487995e-02
5.117776879597023265e-02
3.131468461052400176e-02
6.732530116239940007e-03
-1.993248118231075172e-02
-4.583564904591746342e-02
-6.827267406348078160e-02
-8.495881404541472115e-02
-9.421730061179761639e-02
-9.508160705078121111e-02
-8.733019626445565065e-02
-7.147582385412881711e-02
-4.872650364134906154e-02
-2.092345004474813197e-02
9.553452180243482070e-03
3.993194679210546050e-02
6.726199963157918071e-02
8.869889268084840683e-02
1.018319411224054977e-01
1.050146915072319304e-01
9.763811633163334280e-02
8.028386540198441390e-02
5.470505583524100379e-02
2.361288000371811885e-02
-9.704268954505547787e-03
-4.185341782210816319e-02
-6.979934024871264908e-02
-9.122325458971747292e-02
-1.047209116418853503e-01
-1.098290352653602947e-01
-1.069094187098647009e-01
-9.694629183458830513e-02
-8.132046631092922084e-02
-6.161291855461746569e-02
-3.946688804036232318e-02
-1.651166180636885750e-02
5.668376572596845950e-03
2.554633796466065226e-02
4.167642834063802620e-02
5.275277625870303244e-02
5.771387582467739363e-02
5.588223292387753394e-02
4.710876165572008140e-02
3.188271126230803748e-02
1.137569417981807406e-02
-1.259249812483123100e-02
-3.766061668400284140e-02
-6.109245082268466992e-02
-7.999394898423164979e-02
-9.157831076219627442e-02
-9.347790476116997482e-02
-8.409402072215539647e-02
-6.295662501297939750e-02
-3.103878916735684085e-02
9.056113569461293408e-03
5.312649381646433744e-02
9.569638564810253878e-02
1.306518650028208328e-01
1.521377225561631463e-01
1.555854002568519412e-01
1.386818111684522681e-01
1.020599099027298534e-01
4.951162233532778456e-02
-1.239809010590138712e-02
-7.530691304514806894e-02
-1.304592682874432807e-01
-1.702518477963988475e-01
-1.895804156567762744e-01
-1.866878515058194576e-01
-1.633350835343237717e-01
-1.242827171239611339e-01
-7.623348056157880359e-02
-2.649925099964886566e-02
1.830565905170496166e-02
5.328198626436107810e-02
7.580464250479236610e-02
8.557240256775822118e-02
8.421074976959803948e-02
7.457757568619262367e-02
5.996591051786349935e-02
4.339197311853222605e-02
2.710583318544657755e-02
1.238490688900901159e-02
-4.069451469921794157e-04
-1.156822256072942250e-02
-2.171508207792127026e-02
-3.143797522103694564e-02
-4.103180709325615627e-02
-5.034106264575344963e-02
-5.873116482115334908e-02
-6.517430195670191606e-02
-6.842533658260650797e-02
-6.725822731745212391e-02
-6.072891075485904733e-02
-4.842409324564449918e-02
-3.065148504528949353e-02
-8.531592443385064076e-03
1.603534527929548203e-02
4.053574916709738740e-02
6.213195289987653858e-02
7.804380628634992323e-02
8.597084141018741799e-02
8.448489493318524224e-02
7.331573223540990836e-02
5.346252475800049309e-02
2.709325916817498237e-02
-2.762224455497399103e-03
-3.267155367336686822e-02
-5.931866460257909784e-02
-7.997456714434082736e-02
-9.282894718445416915e-02
-9.713356190464726703e-02
-9.315932814499920667e-02
-8.201016839675034920e-02
-6.535727131680099666e-02
-4.515799633969715815e-02
-2.341087222775743715e-02
-1.977858012738713603e-03
1.751883527124432210e-02
3.374036194727340204e-02
4.564392559773081809e-02
5.249321339444950468e-02
5.388337665066970927e-02
4.978058636555601768e-02
4.056136150217740099e-02
2.702743633178215921e-02
1.037075945724152438e-02
-7.925749866556532422e-03
-2.624325053877615138e-02
-4.300525643702280548e-02
-5.683623355110870023e-02
-6.666787397333472087e-02
-7.178391930592072090e-02
-7.181700033607167633e-02
-6.672270292629164934e-02
-5.675556391231213749e-02
-4.246253075877510358e-02
-2.469524500174379023e-02
-4.626575646390735166e-03
1.625556047186584030e-02
3.620622824424096081e-02
5.335145403727347552e-02
6.588394619613235914e-02
7.230262077276589094e-02
7.165484454374139445e-02
6.373011937963619922e-02
4.915314442283588020e-02
2.933799631456013995e-02
6.296892603204975666e-03
-1.766058570332602884e-02
-4.026738830600157248e-02
-5.959826132054334841e-02
-7.426718695706170659e-02
-8.349661357266129069e-02
-8.706875631687528705e-02
-8.519798145506420062e-02
-7.837801906106772742e-02
-6.725485452683817311e-02
-5.255708069790697434e-02
-3.508852193060003205e-02
-1.576432046588473884e-02
4.341362438968736012e-03
2.397026208253531104e-02
4.170674868178354810e-02
5.607413433948853221e-02
6.569916045804087557e-02
6.951841520395631024e-02
6.697820916325690488e-02
5.817100432783484099e-02
4.386353293746120263e-02
2.540191163095073534e-02
4.516541539072002967e-03
-1.692037142860401688e-02
-3.712135896902357679e-02
-5.454399222240000067e-02
-6.796550432935594133e-02
-7.648811694250252924e-02
-7.951655090024188632e-02
-7.675199141665464686e-02
-6.822687228204482590e-02
-5.437375412890954607e-02
-3.609497397377348787e-02
-1.478843637367728038e-02
7.708189416759164345e-03
2.927048455667321386e-02
4.772304745272971938e-02
6.111661541980836776e-02
6.799256679176518547e-02
6.758623081450472470e-02
5.993605519322338371e-02
4.588007253427907328e-02
2.693221056950846626e-02
5.048110743413275134e-03
-1.768062081776731326e-02
-3.933443775139322529e-02
-5.839753557145416912e-02
-7.385857045712176938e-02
-8.517328703006020463e-02
-9.212928245327728360e-02
-9.468027633094455719e-02
-9.281756605767850499e-02
-8.652480311187073225e-02
-7.582869901833029502e-02
-6.092337169751878279e-02
-4.231999613306699354e-02
-2.096387268512997504e-02
1.730623035076468350e-03
2.395575600000757199e-02
4.369899953528291747e-02
5.901959137475856765e-02
6.836340505032285908e-02
7.084903331238061319e-02
6.645570421147871387e-02
5.606199259625015141e-02
4.132077364992878254e-02
2.439896794119102846e-02
7.644524086467404181e-03
-6.744395418799823197e-03
-1.698460341204598156e-02
-2.187317419922506223e-02
-2.085386635153033824e-02
-1.401414243851034809e-02
-2.052402839402011486e-03
1.375682390962591588e-02
3.159819099504364293e-02
4.917575916164781263e-02
6.383642187850219196e-02
7.279174386145402520e-02
7.345286448963581072e-02
6.385700362338624092e-02
4.311976216795219974e-02
1.180972820247220591e-02
-2.787096725873362824e-02
-7.219257682291002620e-02
-1.163231311087864345e-01
-1.550254989352851387e-01
-1.834985866294758794e-01
-1.981822071547394148e-01
-1.973408247662289117e-01
-1.812929778772354450e-01
-1.522462973687694898e-01
-1.138005558713084397e-01
-7.025779134296337991e-02
-2.590729745996590838e-02
1.556617465381930458e-02
5.145418412149216358e-02
8.014321249588909901e-02
1.010075700766530082e-01
1.141506296998597708e-01
1.200922082369642180e-01
1.194960420320203415e-01
1.130027864230146312e-01
1.011915948988181407e-01
8.465055288340751771e-02
6.410428606035097066e-02
4.053384042182654745e-02
1.523351058045137839e-02
-1.022176882857151088e-02
-3.408983544759332240e-02
-5.462273983850805814e-02
-7.023932312554199975e-02
-7.968360580607992960e-02
-8.215820873117465895e-02
-7.742897058935994947e-02
-6.589476495146501245e-02
-4.861122251531057453e-02
-2.725464980744015525e-02
-4.014460990847549052e-03
1.859154752810618372e-02
3.797374916033571107e-02
5.177712449365218239e-02
5.819720271434140890e-02
5.625234033903889208e-02
4.595817926710575596e-02
2.836271072009772382e-02
5.425043634685619218e-03
-2.024624236733468113e-02
-4.574657677398052263e-02
-6.825144583557361810e-02
-8.534653776422068683e-02
-9.526546672815754124e-02
-9.702061665610391128e-02
-9.043972166732099083e-02
-7.613300659104409174e-02
-5.541339175048552723e-02
-3.018296588781382850e-02
-2.789763089232401641e-03
2.414739123049212954e-02
4.795041571940071579e-02
6.612977221194898947e-02
7.665513056483430621e-02
7.821722062477030890e-02
7.043504916403037219e-02
5.396108705470498146e-02
3.045059103172000070e-02
2.386834155806196942e-03
-2.721473402867808505e-02
-5.517260820042103886e-02
-7.851086093649603526e-02
-9.477750711342741718e-02
-1.022734994642140044e-01
-1.001837472402584139e-01
-8.862072824529111659e-02
-6.859626035229027252e-02
-4.193198767632757423e-02
-1.111284447321989229e-02
2.091458282639110933e-02
5.099532046096247329e-02
7.606257398413278359e-02
9.345946128737650516e-02
1.012527851341311902e-01
9.849128436728982194e-02
8.535649678239433380e-02
6.316653100732268211e-02
3.422043406712145519e-02
1.505568884477606270e-03
-3.167872439673448393e-02
-6.211140707677623163e-02
-8.698762247529405467e-02
-1.041597634021257934e-01
-1.122696516843083303e-01
-1.107896259688473523e-01
-1.000049850206739116e-01
-8.096517919602599922e-02
-5.541376030148192910e-02
-2.568999853677904344e-02
5.413787086297658022e-03
3.485477115969883022e-02
5.960899804850140760e-02
7.699740947674850455e-02
8.503420867121140592e-02
8.273947063063648300e-02
7.034600138712986117e-02
4.933928223031792265e-02
2.229946929365065472e-02
-7.442232475544147477e-03
-3.627695754673649492e-02
-6.083488497052382676e-02
-7.845016647318707459e-02
-8.749419451407854098e-02
-8.753043475253256822e-02
-7.928283376306462238e-02
-6.444140154028525636e-02
-4.534708540381254815e-02
-2.460692752990482901e-02
-4.695835309014658246e-03
1.239600170834070057e-02
2.541490409847503573e-02
3.395261961385091093e-02
3.839096853907283946e-02
3.968652837061483613e-02
3.902934370660833541e-02
3.744156563969362750e-02
3.540957164203457908e-02
3.265502099781501799e-02
2.813512477721053645e-02
2.031542958537381482e-02
7.685779519682718955e-03
-1.059062955220682785e-02
-3.406933183015012356e-02
-6.065535778673632888e-02
-8.663689914122235658e-02
-1.071955631865409153e-01
-1.173386988796097513e-01
-1.130700035425122735e-01
-9.252461794738991996e-02
-5.677230211598953413e-02
-1.004530983060927980e-02
4.073363107387416304e-02
8.708735283957931561e-02
1.205821558567283097e-01
1.345560700169056989e-01
1.255910342376942712e-01
9.438086750405885739e-02
4.577207473390741688e-02
-1.206181720588438318e-02
-6.915277925776382173e-02
-1.156531277931650420e-01
-1.437203622151747850e-01
-1.489719869590581391e-01
-1.312171838782855149e-01
-9.434153296258340760e-02
-4.540673749066245768e-02
6.814032392322448214e-03
5.354290466020003580e-02
8.759397464218507401e-02
1.045515324311480920e-01
1.033279703240474190e-01
8.604269588627083687e-02
5.730770147466852926e-02
2.311714264773866156e-02
-1.040372066066099811e-02
-3.813508044774383682e-02
-5.677879922218193737e-02
-6.523020642765341159e-02
-6.447714470605205028e-02
-5.709063521051387091e-02
-4.644630151986339772e-02
-3.586048348735129676e-02
-2.783225079833948068e-02
-2.355072672519641780e-02
-2.276124461941275018e-02
-2.399680737317306037e-02
-2.509439722446552695e-02
-2.385285427900201566e-02
-1.866621248417136766e-02
-8.984685493077801746e-03
4.495541926013703685e-03
1.994671362016271765e-02
3.479104852562677624e-02
4.625144768628001307e-02
5.193647390903371325e-02
5.032340490480995132e-02
4.103840195399606483e-02
2.489287649170451866e-02
3.699902166927485428e-03
-2.005651844404510165e-02
-4.360652078548275107e-02
-6.425164825657922463e-02
-7.964499183592774201e-02
-8.798444486486341198e-02
-8.813829237302116260e-02
-7.972930889658109976e-02
-6.319043605027489796e-02
-3.978500796888320007e-02
-1.157032341698227725e-02
1.871999870981370245e-02
4.789284765336801475e-02
7.261379921330148035e-02
8.980429408726617324e-02
9.706695115296935794e-02
9.306600022476001211e-02
7.778499798923158015e-02
5.260122034969160615e-02
2.015125204203695175e-02
-1.599528943705002398e-02
-5.179963161169519326e-02
-8.327835189189827791e-02
-1.070071633775498410e-01
-1.205342458368070108e-01
-1.226543569238352643e-01
-1.135174418347278252e-01
-9.456457892903259721e-02
-6.830091944091579159e-02
-3.793418877628123437e-02
-6.928796514113032615e-03
2.145747509406594616e-02
4.458403085089349127e-02
6.072726271945060039e-02
6.923117797311909016e-02
7.048889640523596511e-02
6.575294854412040702e-02
5.679761164736553403e-02
4.549237422984586665e-02
3.338115912464954121e-02
2.137695917967893239e-02
9.661418322638294295e-03
-2.174647330739106280e-03
-1.478472858175149292e-02
-2.861561449965448201e-02
-4.349413979245048134e-02
-5.839269373718219969e-02
-7.146789244801758645e-02
-8.038818202003771007e-02
-8.288031165052260618e-02
-7.735715951748174668e-02
-6.345810454883238361e-02
-4.234562299554915643e-02
-1.665682674241007744e-02
9.904003830200019606e-03
3.324801072868180385e-02
4.969841359194986791e-02
5.671160596582978941e-02
5.336173150348950955e-02
4.049749790440755615e-02
2.056137793949885939e-02
-2.870096708937156307e-03
-2.572179435298170558e-02
-4.410968906065096395e-02
-5.496889232190205199e-02
-5.652753074562721913e-02
-4.856589728148021090e-02
-3.243282061682612599e-02
-1.082211061192314694e-02
1.265734471539330629e-02
3.405443524434033364e-02
4.970462742676964862e-02
5.681652781649354500e-02
5.392169346124464635e-02
4.111089516083883677e-02
2.001218065375740679e-02
-6.487019268517984008e-03
-3.471741181773665280e-02
-6.080571939212952443e-02
-8.124022295124502802e-02
-9.333110335633867938e-02
-9.551234528448061811e-02
-8.747217628713400972e-02
-7.012726312409379992e-02
-4.546985105868425747e-02
-1.632020261282750295e-02
1.398655441929456088e-02
4.195544011033192078e-02
6.430731297618973163e-02
7.834980096535519578e-02
8.230774788074170234e-02
7.556788713604443986e-02
5.879264348958776476e-02
3.387314575997746324e-02
3.719339408462382299e-03
-2.808375547748848816e-02
-5.770136583482823878e-02
-8.149543634598684083e-02
-9.643876873740950262e-02
-1.004596079542812992e-01
-9.269605920608765814e-02
-7.364801284664780623e-02
-4.521152676861209252e-02
-1.057362273735751486e-02
2.605420594521955235e-02
5.987062915605326219e-02
8.606627109741511739e-02
1.004974059473246056e-01
1.003623633144976046e-01
8.476494105345810937e-02
5.504040844873128724e-02
1.474074191830914392e-02
-3.076830639311653459e-02
-7.506490531389529985e-02
-1.116680707938224881e-01
-1.350992608285163654e-01
-1.418118212578620974e-01
-1.308083951516284815e-01
-1.038198727009766037e-01
-6.500275733996788152e-02
-2.020958294749596040e-02
2.402475527366360053e-02
6.158248535127411327e-02
8.773945072819339108e-02
9.984270234463346605e-02
9.757982995731830089e-02
8.281695881555492522e-02
5.907022486986159004e-02
3.074375129309289689e-02
2.298746387351802492e-03
-2.248983551568616013e-02
-4.106877670269047653e-02
-5.236163377948509917e-02
-5.672104955861242970e-02
-5.560825053423944231e-02
-5.108115721111313595e-02
-4.521229693588456333e-02
-3.957188506074941353e-02
-3.489363472456404047e-02
-3.099511178014149881e-02
-2.696155696877859664e-02
-2.153631754191219841e-02
-1.360870219651058241e-02
-2.666225638796230687e-03
1.090971597415086279e-02
2.578236079092294242e-02
3.984982423094009935e-02
5.064424167049896147e-02
5.584842737120560008e-02
5.380980258766904223e-02
4.392911273861171972e-02
2.683096811593291275e-02
4.281076157090573167e-03
-2.111622902096031706e-02
-4.635289819330513233e-02
-6.847769959978478038e-02
-8.499074219689151111e-02
-9.411641025440381503e-02
-9.493966296614532452e-02
-8.742358419654309987e-02
-7.234375267148578093e-02
-5.117473724351191688e-02
-2.595018634639972149e-02
8.990940619603548373e-04
2.673478868398239394e-02
4.893332569168476476e-02
6.513653859523228784e-02
7.351382470563269655e-02
7.300525252090285522e-02
6.350311909486505701e-02
4.592553908745580782e-02
2.214821965951117855e-02
-5.208653649319426940e-03
-3.310414904842307049e-02
-5.845126633648006081e-02
-7.847979802217176781e-02
-9.103907658798045255e-02
-9.481228413072519123e-02
-8.943116276110399387e-02
-7.549209927630275152e-02
-5.448156868542006898e-02
-2.862091642934502106e-02
-6.397498665507445753e-04
2.651108847089905796e-02
4.998801883585193145e-02
6.739326200435208358e-02
7.708104529226682267e-02
7.838429935339279175e-02
7.171662616589168093e-02
5.851383832870657442e-02
4.100116503235692877e-02
2.180996615038605091e-02
3.513988847575784738e-03
-1.181066291218390608e-02
-2.289621314934424390e-02
-2.939447454531072396e-02
-3.177615688964385843e-02
-3.106291368728617691e-02
-2.847706301558641795e-02
-2.510941184012296934e-02
-2.169432825622152894e-02
-1.854558091993458238e-02
-1.565528489973159326e-02
-1.290677559847001540e-02
-1.031694755646114618e-02
-8.215440250980372838e-03
-7.288861043299477496e-03
-8.462045441444269664e-03
-1.264356546317351934e-02
-2.041262863095844038e-02
-3.174967648058518721e-02
-4.589997733574497502e-02
-6.141263137434439801e-02
-7.633972665384512746e-02
-8.853837559041428940e-02
-9.600420973329019947e-02
-9.717360562617645414e-02
-9.115172165307855456e-02
-7.784514960169165720e-02
-5.799606157245620897e-02
-3.312551806172477076e-02
-5.396275139634922405e-03
2.259613819812705121e-02
4.809404146249560141e-02
6.849106843781423148e-02
8.165557908993086034e-02
8.621962228670494721e-02
8.178640399117166615e-02
6.901632200054690081e-02
4.956715710813730524e-02
2.588804804729070291e-02
8.977501210461046738e-04
-2.239391751879434012e-02
-4.125095927608603275e-02
-5.350470614317657386e-02
-5.774781996376627397e-02
-5.343024119209004857e-02
-4.087479307473534246e-02
-2.123115763523009125e-02
3.620858584370561725e-03
3.121701210421389677e-02
5.870746519405241337e-02
8.311250444315369801e-02
1.016288971895440707e-01
1.119616047136144515e-01
1.126345274998252488e-01
1.032219245072522468e-01
8.444692621543620215e-02
5.811560351803295166e-02
2.688881616931353830e-02
-6.069675868604485283e-03
-3.750315358376874603e-02
-6.445623550376386457e-02
-8.459361251413800853e-02
-9.641144178730200187e-02
-9.933873055145676922e-02
-9.374427178614742895e-02
-8.086818281264181174e-02
-6.269128088108599783e-02
-4.174937437935102164e-02
-2.089797180961280865e-02
-3.035557896756352694e-03
9.200509349696973579e-03
1.374159519345388540e-02
9.362294056336954370e-03
-4.124436380773062807e-03
-2.579619575872262732e-02
-5.370100678918988957e-02
-8.508397064975174728e-02
-1.167231053807258195e-01
-1.453142094047701338e-01
-1.678407555302731946e-01
-1.818785132209813638e-01
-1.858084907920538598e-01
-1.789362650133061450e-01
-1.615312870354659036e-01
-1.348008202000587907e-01
-1.008028540390163291e-01
-6.229113635113082970e-02
-2.248348636809423956e-02
1.524540405554147653e-02
4.772771626839242276e-02
7.238445417604583154e-02
8.757081165454196070e-02
9.282132229914162591e-02
8.893656705875473134e-02
7.787848670465459533e-02
6.248404676682892123e-02
4.605290156914046418e-02
3.189388537263876389e-02
2.291538619240394981e-02
2.131930487314841194e-02
2.842127388596109305e-02
4.458554713012079229e-02
6.924198210877459403e-02
1.009507561720904417e-01
1.374966568358681474e-01
1.760185103310367150e-01
2.131954220803591593e-01
2.455097862861168878e-01
2.695882816632494405e-01
2.825951025629679925e-01
2.826254419256876704e-01
2.690275022431894980e-01
2.425740907831851756e-01
2.054189191929312042e-01
1.608134931085671571e-01
1.126198523964075937e-01
6.471026067441600083e-02
2.037499364614818453e-02
-1.814421273594446493e-02
-4.990835890148014042e-02
-7.528407583600561781e-02
-9.571121643720086059e-02
-1.133014077484096188e-01
-1.303653835927427451e-01
-1.489706417625427382e-01
-1.706090022607367473e-01
-1.960174742918822932e-01
-2.251579932816464846e-01
-2.573295637893623367e-01
-2.913637595806782277e-01
-3.258450748116236140e-01
-3.593044455783007129e-01
-3.903546566674309104e-01
-4.177598880661429481e-01
-4.404476254783638578e-01
-4.574779829023272182e-01
-4.679897436601976324e-01
-4.711485436034832941e-01
-4.661268549655375737e-01
-4.521407258868900270e-01
-4.285524749942881684e-01
-3.950267263110271432e-01
-3.517067807353143616e-01
-2.993645546203311802e-01
-2.394731081484621493e-01
-1.741591518615848433e-01
-1.060159149104012016e-01
-3.779112886211763445e-02
2.799924386373060792e-02
8.945529653345181409e-02
1.455917663031654763e-01
1.964804652426225262e-01
2.431988294803188178e-01
2.875930808390390059e-01
3.319108935886845857e-01
3.783872731895037700e-01
4.288666447366389356e-01
4.845168601009673948e-01
5.456534214092279012e-01
6.116635328470528821e-01
6.810089760679550741e-01
7.512908688257353695e-01
8.193690058003274546e-01
8.815373238924346655e-01
9.337624224533596085e-01
9.719908751283339310e-01
9.925191818136201993e-01
9.923974075944125284e-01
9.698108304994839113e-01
9.243646329870673917e-01
8.571949686388555811e-01
7.708511783625174862e-01
6.689380590785352076e-01
5.555652471067078491e-01
4.347053321897552114e-01
3.095925184370480476e-01
1.822870393483773943e-01
5.349054760193035218e-02
-7.735948529621482217e-02
-2.117444131623718584e-01
-3.515398277055525322e-01
-4.984114983530325005e-01
-6.532434137177381972e-01
-8.157029802352088188e-01
-9.840221070833867767e-01
-1.155030229248777296e+00
-1.324424480953721783e+00
-1.487212962915664516e+00
-1.638230811527567665e+00
-1.772619854966898334e+00
-1.886189765019045783e+00
-1.975630635189654427e+00
-2.038594045313153913e+00
-2.073677168130144466e+00
-2.080333646200168918e+00
-2.058718012512876339e+00
-2.009467853613920774e+00
-1.933442902223288629e+00
-1.831460580246245140e+00
-1.704078253837558288e+00
-1.551466979770755650e+00
-1.373402625411498379e+00
-1.169373682148383109e+00
-9.387759547787356551e-01
-6.811404483848416680e-01
-3.963340444097673831e-01
-8.469047441121609066e-02
2.529344396289651131e-01
6.151508273223088574e-01
1.000007262560989041e+00
1.404880138158658864e+00
1.826223878630591768e+00
2.259161776021358037e+00
2.696956948028651713e+00
3.130474653873078772e+00
3.547809513821234884e+00
3.934280682091706893e+00
4.272976868590283139e+00
4.545954472013741920e+00
4.736061641203211714e+00
