BVP Signal
-1.875847447568396859e-02
-4.378609362885207967e-02
-6.784314389370620091e-02
-9.023735580587943783e-02
-1.102764599010046670e-01
-1.272682000207643604e-01
-1.405800392197378013e-01
-1.497764432666780221e-01
-1.544735954827026470e-01
-1.544567027536586368e-01
-1.496423151651963268e-01
-1.400301540100171993e-01
-1.258376626097111595e-01
-1.073324801464304312e-01
-8.494078194093951373e-02
-5.919271934859313133e-02
-3.067011985413228836e-02
-6.813177213116361486e-05
3.189881733477387127e-02
6.448205804194445667e-02
9.691426288374567488e-02
1.284478752990350359e-01
1.583732682930934499e-01
1.859981349648437976e-01
2.107298862373520598e-01
2.320230921673100133e-01
2.494129918716637140e-01
2.625631206649463589e-01
2.711741401120710826e-01
2.751061656695099056e-01
2.742827703449925991e-01
2.687237262471618982e-01
2.585779233767723229e-01
2.440290560085652816e-01
2.253920123671079301e-01
2.030255722519116457e-01
1.773521826969975956e-01
1.488665102168145182e-01
1.180792569412854598e-01
8.555206757143291041e-02
5.186020290287324253e-02
1.758424479921452677e-02
-1.669012403319675153e-02
-5.038631620257022492e-02
-8.295993205251038505e-02
-1.138767093325799284e-01
-1.426538017328755070e-01
-1.688500396278999616e-01
-1.920559314934195405e-01
-2.119492066750864323e-01
-2.282299857849221514e-01
-2.406850692587737539e-01
-2.491606247809806662e-01
-2.535467029714277842e-01
-2.538349679335890619e-01
-2.500408505240584445e-01
-2.422695344495592318e-01
-2.306780962935730539e-01
-2.154649500046025290e-01
-1.969093713110251498e-01
-1.753081197269896752e-01
-1.510217609564161734e-01
-1.244419109273370849e-01
-9.598379816514979179e-02
-6.610165803631279369e-02
-3.525597104073560639e-02
-3.923894868804803093e-03
2.741083241546951599e-02
5.827001262039732676e-02
8.818324239386043928e-02
1.166867831961779789e-01
1.433494692636055889e-01
1.677520828560998822e-01
1.895100570882644053e-01
2.082798266982137658e-01
2.237358927310002521e-01
2.356219170922627670e-01
2.437032184918836997e-01
2.478051890154507886e-01
2.478132943453708048e-01
2.436419013561139657e-01
2.353008454529761373e-01
2.228262972066696879e-01
2.063351701723336040e-01
1.860126237427999762e-01
1.620806844789003387e-01
1.348655326195091209e-01
1.047188527069486952e-01
7.207331074667949755e-02
3.741939526726787563e-02
1.278250999017654932e-03
-3.575576224349422128e-02
-7.307378593650203091e-02
-1.100321336332832911e-01
-1.459662419005760825e-01
-1.802159428501844685e-01
-2.121307855525893515e-01
-2.410689615529517105e-01
-2.664516469328808146e-01
-2.877324979578769759e-01
-3.044292075266340492e-01
-3.161704706280462629e-01
-3.226194608688657817e-01
-3.235999942896508053e-01
-3.190055531746311956e-01
-3.088385078201218437e-01
-2.932602666473668185e-01
-2.724761208366594523e-01
-2.468671454463617909e-01
-2.168784115973413917e-01
-1.830442845937045870e-01
-1.460092957372459144e-01
-1.064410329716557746e-01
-6.508223023055673129e-02
-2.269736287455906276e-02
1.994839918265452205e-02
6.208916392340446677e-02
1.029768359926364896e-01
1.419312741183781368e-01
1.782933898742616319e-01
2.114941814773279027e-01
2.410440627270826197e-01
2.665010350620051205e-01
2.875642230914808861e-01
3.039685966554121488e-01
3.155653541967984310e-01
3.222922710018903403e-01
3.241349387385050185e-01
3.211982261407652639e-01
3.136135080064402225e-01
3.015939754668288675e-01
2.854042564583355590e-01
2.653377336561464350e-01
2.417485162718704395e-01
2.150028110425734607e-01
1.855037819617264550e-01
1.536741728946613983e-01
1.199489752842211043e-01
8.478512857554099114e-02
4.864370421352720575e-02
1.199886159650170869e-02
-2.466944574016688430e-02
-6.087931304501180418e-02
-9.614589245577817578e-02
-1.299861418528220902e-01
-1.619291638737758443e-01
-1.915091105397488946e-01
-2.182830997745774937e-01
-2.418378223361863921e-01
-2.617758377832051786e-01
-2.777672955645720254e-01
-2.895054098067469939e-01
-2.967526761315389949e-01
-2.993469510714704684e-01
-2.971615092110017065e-01
-2.901961171709246390e-01
-2.784873365926281430e-01
-2.621744334907165630e-01
-2.414910953734082932e-01
-2.167129958816713664e-01
-1.882427342300955764e-01
-1.565142663280240654e-01
-1.220406801795230756e-01
-8.539652816031223503e-02
-4.717743271777236069e-02
-8.032154405842539813e-03
3.138123581829961595e-02
7.040083417294891455e-02
1.083623070132754829e-01
1.446194101066952675e-01
1.785670953922862958e-01
2.096139777596348619e-01
2.372439599909105246e-01
2.609828450290861412e-01
2.804110147366333239e-01
2.952117163714377823e-01
3.050958067541070240e-01
3.098969441498376498e-01
3.095064890771359045e-01
3.038908828450591626e-01
2.931358581905855742e-01
2.773586595915522590e-01
2.568060926495246976e-01
2.317763986313509661e-01
2.026407102704047003e-01
1.698679855622586554e-01
1.339525636546562981e-01
9.548314327578727445e-02
5.507981767659390904e-02
1.340339153558800511e-02
-2.883915195837662496e-02
-7.093462575536435555e-02
-1.121542708161588908e-01
-1.517665220366476997e-01
-1.890671362951669154e-01
-2.233780692627805320e-01
-2.540489760787995044e-01
-2.805217241656461358e-01
-3.022650665323022290e-01
-3.188601796862908788e-01
-3.299793618153731845e-01
-3.353580224854775249e-01
-3.349046731186464676e-01
-3.285711515301327212e-01
-3.164673310362932646e-01
-2.988112912951579325e-01
-2.758917204577371329e-01
-2.481602209855526542e-01
-2.161034627222800097e-01
-1.803216971138054125e-01
-1.414806880618876272e-01
-1.002778215602267431e-01
-5.747172908089862031e-02
-1.382821863571312426e-02
2.988731480426187748e-02
7.291010975344100475e-02
1.145073370134342683e-01
1.539993596789424046e-01
1.907269633985975155e-01
2.241315036841309838e-01
2.536963812334391277e-01
2.789814090588083051e-01
2.996534111429003389e-01
3.154120806343832517e-01
3.260902812997478195e-01
3.315679129999433150e-01
3.318088839137349755e-01
3.268764927542510135e-01
3.168652557970494943e-01
3.019819195524602318e-01
2.824670438936091599e-01
2.586280812838603893e-01
2.308393764432467299e-01
1.994981581928880199e-01
1.650741964638052228e-01
1.280560551439226535e-01
8.897261830049851827e-02
4.838684422837288834e-02
6.872377674308982609e-03
-3.496829372459020480e-02
-7.652715770763668379e-02
-1.171943398797988256e-01
-1.563586702396968509e-01
-1.934208275598561233e-01
-2.278110550495919817e-01
-2.589698028239246774e-01
-2.863975449541756868e-01
-3.096310914203930231e-01
-3.282551424513023841e-01
-3.419528119634123176e-01
-3.504342727171959604e-01
-3.535351980234002767e-01
-3.511553932319925742e-01
-3.432730985946823021e-01
-3.300021918592258574e-01
-3.114907729381360957e-01
-2.880288466287062588e-01
-2.599674759599009954e-01
-2.277290068918879640e-01
-1.918398203472940211e-01
-1.528486456675553495e-01
-1.113834305789285217e-01
-6.810034760235517126e-02
-2.367440652090585518e-02
2.119616161932291742e-02
6.581615903515553034e-02
1.095110610115341276e-01
1.516140605333045621e-01
1.915016772276142420e-01
2.285956188840270187e-01
2.623432124735360915e-01
2.922813553043828172e-01
3.179726343788789045e-01
3.390602477405052495e-01
3.552584539257048757e-01
3.663195208160900940e-01
3.721076130781799662e-01
3.725154541395970798e-01
3.675298742928400086e-01
3.572078131939702139e-01
3.416501132697429832e-01
3.210677137146586424e-01
2.956976774772785976e-01
2.658711251704442002e-01
2.319783636561315032e-01
1.944528137059360340e-01
1.538195474662217566e-01
1.106236081242436831e-01
6.548113290778889706e-02
1.904592440945412912e-02
-2.800466386189452705e-02
-7.495107474136908365e-02
-1.210688491842283332e-01
-1.656303946940060334e-01
-2.079072212014674848e-01
-2.471986434183210957e-01
-2.828464686001581629e-01
-3.142134646846272417e-01
-3.407651404975610143e-01
-3.620071581339701083e-01
-3.775417023691552965e-01
-3.870952121061730922e-01
-3.904405562287308618e-01
-3.875362731964081542e-01
-3.784021448803889243e-01
-3.631913720499058140e-01
-3.422022777330688825e-01
-3.157831443954028372e-01
-2.844528598456975144e-01
-2.487774411146250753e-01
-2.094118258551394551e-01
-1.670926968736702323e-01
-1.225741568989462404e-01
-7.665774880751086151e-02
-3.015329928664844950e-02
1.615186632407877854e-02
6.148794174507560273e-02
1.051187875743777728e-01
1.463989481841562745e-01
1.847080939132856314e-01
2.195419402229650263e-01
2.504724250529442031e-01
2.771356371839903687e-01
2.993104218271123718e-01
3.168086668810159989e-01
3.295680801762941314e-01
3.375960530393494752e-01
3.409532251187608054e-01
3.398000257139822677e-01
3.343167018700736737e-01
3.247495146892382945e-01
3.113753979238667036e-01
2.944891705397496562e-01
2.744139246343703653e-01
2.514760550813548434e-01
2.260067708286694343e-01
1.983390081123157511e-01
1.688006859378778368e-01
1.377129753106665078e-01
1.053950487005893000e-01
7.215830629681321828e-02
3.831170041973537554e-02
4.164862576126169419e-03
-2.997180393016667804e-02
-6.378531273794833811e-02
-9.695200799182435158e-02
-1.291449793304587923e-01
-1.600276047144342240e-01
-1.892539505326921168e-01
-2.164768703146073836e-01
-2.413463174310142012e-01
-2.635126845511838733e-01
-2.826436088081730746e-01
-2.984207150660527774e-01
-3.105455326538406613e-01
-3.187753987675548961e-01
-3.228838391401747110e-01
-3.227232625421583290e-01
-3.182001383083445378e-01
-3.092704872005770933e-01
-2.960056663785814446e-01
-2.785053267822666934e-01
-2.569841424506399408e-01
-2.317232983794872692e-01
-2.030579332370371082e-01
-1.714287556774997112e-01
-1.372980820006360070e-01
-1.012017404268990284e-01
-6.371117979343116078e-02
-2.541382981746190262e-02
1.307663616899601422e-02
5.114736916906992281e-02
8.820715349708974085e-02
1.236743276877816933e-01
1.570073689186265997e-01
1.877210137848596694e-01
2.153523439745674284e-01
2.395355788406368647e-01
2.599396370109358645e-01
2.763071255968025941e-01
2.884678381591549434e-01
2.962816266285226430e-01
2.997185759767039270e-01
2.987821814618600857e-01
2.935462094807737010e-01
2.841546973091489958e-01
2.707765837518365526e-01
2.536601414838266511e-01
2.330743361144277659e-01
2.093346337657021605e-01
1.827957994867475400e-01
1.538274694649690022e-01
1.228401827084232290e-01
9.025366765409746639e-02
5.650840585848775077e-02
2.205968592736923251e-02
-1.263345651508436529e-02
-4.710345152732078877e-02
-8.088220481293337261e-02
-1.135098720622981505e-01
-1.445316525441182054e-01
-1.735070319419215745e-01
-2.000250180744823081e-01
-2.236845763653677044e-01
-2.441379151842713036e-01
-2.610645697804130916e-01
-2.741873389716241172e-01
-2.833039439552676453e-01
-2.882341959548257448e-01
-2.888982063772665421e-01
-2.852595434530499907e-01
-2.773476625721914002e-01
-2.652882450543596615e-01
-2.492333007960973457e-01
-2.294399448177046885e-01
-2.062035640188246421e-01
-1.798731865911571692e-01
-1.508640204723492029e-01
-1.196056377410001231e-01
-8.657512754796507781e-02
-5.226350752988242337e-02
-1.716672381811712444e-02
1.821413858981177358e-02
5.338547529936374381e-02
8.788310880369343270e-02
1.212521247178484640e-01
1.530793293809908084e-01
1.829883079068420071e-01
2.106247039108747332e-01
2.356995799963284566e-01
2.579405935538616190e-01
2.771289734621200096e-01
2.930858539081579450e-01
3.056547767776272573e-01
3.147352208848146482e-01
3.202394018270257603e-01
3.221213299544555264e-01
3.203613109316554852e-01
3.149580109705483189e-01
3.059490905921002923e-01
2.933814699201017229e-01
2.773391365728360425e-01
2.579258285293846154e-01
2.352683677163865394e-01
2.095352219335573363e-01
1.809065739951072338e-01
1.496154909339673933e-01
1.159189416689475616e-01
8.011005172870680480e-02
4.253703664982207838e-02
3.563571403457782560e-03
-3.638273860956470901e-02
-7.684999542366968694e-02
-1.173526651693077433e-01
-1.573619342336907145e-01
-1.963407162001677975e-01
-2.337256165280207354e-01
-2.689456514656715092e-01
-3.014402129571026601e-01
-3.306599817804597996e-01
-3.560725654986526267e-01
-3.772110048703108398e-01
-3.936290521097777217e-01
-4.049669032141161029e-01
-4.109442295873296791e-01
-4.113300591910702408e-01
-4.060464924694588418e-01
-3.950562122008262622e-01
-3.784592571057979193e-01
-3.564623893044147618e-01
-3.293320815586405770e-01
-2.974902247864496529e-01
-2.613937249564837195e-01
-2.216029760157746942e-01
-1.787462183767708213e-01
-1.334793869451468273e-01
-8.651867097473900370e-02
-3.858854547052552320e-02
9.586867135467115608e-03
5.728388816757457730e-02
1.038067835125852656e-01
1.485129006800845197e-01
1.907778324859662478e-01
2.300710239896429088e-01
2.659061451718274793e-01
2.978623878261986713e-01
3.256230995005534590e-01
3.488994856930781041e-01
3.675180150863139317e-01
3.813508518581720241e-01
3.903323231256941028e-01
3.944801778091941991e-01
3.938331486814061200e-01
3.885070679060746435e-01
3.786435516808208668e-01
3.644213414176347698e-01
3.460612905817574414e-01
3.237960366002350932e-01
2.978981383674338956e-01
2.686517980313435361e-01
2.363661568493946041e-01
2.013742685070756822e-01
1.640202806039057215e-01
1.246834030416147931e-01
8.375230130281705043e-02
4.164597943598371405e-02
-1.191972384719242051e-03
-4.430468953625243955e-02
-8.719934429418535471e-02
-1.293751335266830060e-01
-1.703113289865552660e-01
-2.094735958741661408e-01
-2.463291045471997509e-01
-2.803492306074809037e-01
-3.110100568243336916e-01
-3.378285480453412370e-01
-3.603454959775881372e-01
-3.781454432356290418e-01
-3.908992524324373941e-01
-3.983037830620489439e-01
-4.001829295272284481e-01
-3.964229374721065513e-01
-3.869961418522271934e-01
-3.720176360853921227e-01
-3.516399307332529478e-01
-3.261717529732893195e-01
-2.959862912934821400e-01
-2.615360122051952341e-01
-2.233843272929406099e-01
-1.821178990811636866e-01
-1.384034711255555938e-01
-9.293483888533964066e-02
-4.641709079002198646e-02
4.313408784597239087e-04
4.690120256578941826e-02
9.232709022230173312e-02
1.360584657562224908e-01
1.775089854867442640e-01
2.161565007169650166e-01
2.515125008143593299e-01
2.832004947158224262e-01
3.108744918191175266e-01
3.342763220491893339e-01
3.532220394123389839e-01
3.675621943289344440e-01
3.772438158799285568e-01
3.822366547196955344e-01
3.825733989802467816e-01
3.783316716791002010e-01
3.696115033687518148e-01
3.565662966496164210e-01
3.393612197927183827e-01
3.181994644346064494e-01
2.933071664074727858e-01
2.649293332940812484e-01
2.333495100780259013e-01
1.988611958745473973e-01
1.618015964014677677e-01
1.225302622512660089e-01
8.143492791675333020e-02
3.895207559103641692e-02
-4.469296456004995255e-03
-4.832769919760337984e-02
-9.209911009934340642e-02
-1.352358251086197560e-01
-1.771555892386749709e-01
-2.172717196881964186e-01
-2.549880719935045947e-01
-2.897058786034450995e-01
-3.208501327986744145e-01
-3.478751680401134805e-01
-3.702569754728878282e-01
-3.875633387603263369e-01
-3.993926456190575736e-01
-4.054446462221236724e-01
-4.055248068969942166e-01
-3.994906692508549684e-01
-3.873793665598285751e-01
-3.692785507911088283e-01
-3.454191760345045603e-01
-3.161585156710194910e-01
-2.819097939348383930e-01
-2.432486119288098381e-01
-2.007888770491431385e-01
-1.552364479719341162e-01
-1.073656359452788006e-01
-5.796886959175802378e-02
-7.881558918207604014e-03
4.205600650893953629e-02
9.102629938908884943e-02
1.382262612671975588e-01
1.828906393507060413e-01
2.243358000790394713e-01
2.619020066078400211e-01
2.950474843701303418e-01
3.232933311377813035e-01
3.462359843913379587e-01
3.636078281828522551e-01
3.751756839340420480e-01
3.808514631061959421e-01
3.806123106955706659e-01
3.745148053199901517e-01
3.627364702715103473e-01
3.454850627957721243e-01
3.230867822788714427e-01
2.959128014147831554e-01
2.643953559585368041e-01
2.290452505911863834e-01
1.903931285351455893e-01
1.490408016900034716e-01
1.056127517929915938e-01
6.076294110144184191e-02
1.517739617729554902e-02
-3.045376417979789307e-02
-7.543051102714326550e-02
-1.190513887201263832e-01
-1.606358087819992897e-01
-1.995223699351759694e-01
-2.350713160551807790e-01
-2.667119418221232663e-01
-2.938936793895868260e-01
-3.161556697598639776e-01
-3.331067797973432110e-01
-3.444105249086008014e-01
-3.498746637242966528e-01
-3.493436960924145573e-01
-3.428084784790341732e-01
-3.303559703597834796e-01
-3.121473273332406873e-01
-2.885085028106433858e-01
-2.598028191420601041e-01
-2.265315216363092965e-01
-1.892722022325506737e-01
-1.486563549868656076e-01
-1.054163743362739325e-01
-6.030260391192564240e-02
-1.411620720084970360e-02
3.231831183559191745e-02
7.818036313312193286e-02
1.226557987515292103e-01
1.649412627288055488e-01
2.042968975666401565e-01
2.400088616527694674e-01
2.714329425762843084e-01
2.980184388137612217e-01
3.192504756944075650e-01
3.347633524420979834e-01
3.442427837106922239e-01
3.474909406433757675e-01
3.444421077914496809e-01
3.350808252888621830e-01
3.195726580738242895e-01
2.981366322189089590e-01
2.711190468648767005e-01
2.389882338492465008e-01
2.022602227004914321e-01
1.615991133264785828e-01
1.177061766367745732e-01
7.136615918529859437e-02
2.343143559227303663e-02
-2.522808766769540911e-02
-7.369790006672312377e-02
-1.210573520420814841e-01
-1.664082948918185201e-01
-2.088680951031448019e-01
-2.475955741112393915e-01
-2.818474118126499395e-01
-3.109097532762394867e-01
-3.342208262075280212e-01
-3.513070411551272310e-01
-3.617979889431023888e-01
-3.655260756097338248e-01
-3.623754556712814878e-01
-3.524537678367027360e-01
-3.359778985489027536e-01
-3.132836540847329099e-01
-2.849037937949392418e-01
-2.514148773150324256e-01
-2.135578589213288914e-01
-1.721408541693714156e-01
-1.280240543467826564e-01
-8.214043349041266762e-02
-3.542653734026229850e-02
1.119111721216209387e-02
5.679146854533789757e-02
1.005206478370757051e-01
1.416043085254103384e-01
1.793111572692270284e-01
2.130793519581043183e-01
2.423999634214469845e-01
2.669078338466647216e-01
2.863815769536595668e-01
3.006584364514938157e-01
3.097658684887934499e-01
3.137811519956352768e-01
3.128966693411044386e-01
3.074020765562371915e-01
2.976186426875780944e-01
2.839532931911399882e-01
2.668304458036602211e-01
2.466945599992905747e-01
2.240043597823010435e-01
1.992092794259947564e-01
1.727348643224796421e-01
1.449987740074225595e-01
1.163739855673500134e-01
8.720650113585037833e-02
5.781819492546763639e-02
2.848160360987639361e-02
-5.409783771060383550e-04
-2.902201534422182982e-02
-5.675156991848478993e-02
-8.352770747034149457e-02
-1.091621859696541436e-01
-1.334677187227116812e-01
-1.562541550441232940e-01
-1.773300422065889337e-01
-1.964988860311243646e-01
-2.135568191989006270e-01
-2.282997522801469281e-01
-2.405256434788136666e-01
-2.500336703423299278e-01
-2.566405287311112060e-01
-2.601845422613798808e-01
-2.605181079513155806e-01
-2.575525377722979181e-01
-2.512186151537226797e-01
-2.415079314983115122e-01
-2.284754978697902672e-01
-2.122053140285319328e-01
-1.928805368510697615e-01
-1.707117386827183836e-01
-1.459797799296284060e-01
-1.190274773088944582e-01
-9.022061256803198814e-02
-5.999052654605374624e-02
-2.878301474273681215e-02
2.933388308305570624e-03
3.467323921804142672e-02
6.595590562528551304e-02
9.631434592334123246e-02
1.252875971667512245e-01
1.524582212755890287e-01
1.774362348554970881e-01
1.998640993343221428e-01
2.194538187398521467e-01
2.359350080076452749e-01
2.491132002929612455e-01
2.588343052870672456e-01
2.649843491616016289e-01
2.675216340602275533e-01
2.664212854366789784e-01
2.617248130383902360e-01
2.535035141723739338e-01
2.418616059866830481e-01
2.269534107345484997e-01
2.089456698882743435e-01
1.880535656992903815e-01
1.645107507034454519e-01
1.385787875957876780e-01
1.105551546896069437e-01
8.074829969316404954e-02
4.950843402722142350e-02
1.719940459221696444e-02
-1.578870614167082742e-02
-4.903727916482612109e-02
-8.211929231915175709e-02
-1.145798590522376370e-01
-1.459568693502533432e-01
-1.757831025594601970e-01
-2.035866417346686996e-01
-2.289032948912050891e-01
-2.512949294475455009e-01
-2.703323630722751503e-01
-2.856407366183094654e-01
-2.968874235592557365e-01
-3.037796368327116969e-01
-3.061303600482362386e-01
-3.037804394129512420e-01
-2.966889597351629604e-01
-2.848926581849641759e-01
-2.684911297477228231e-01
-2.477237317187015175e-01
-2.228617237551538399e-01
-1.942953224421555825e-01
-1.624805848281892506e-01
-1.279192070896891797e-01
-9.119829452923136626e-02
-5.291945755461477385e-02
-1.372207563736383210e-02
2.573722522993013989e-02
6.481122015027823702e-02
1.028678287110811745e-01
1.392869059620762684e-01
1.735140759509549990e-01
2.050216762361679324e-01
2.333443901689852551e-01
2.581006210523821842e-01
2.789374596004029483e-01
2.956182731317603118e-01
3.079460444779912320e-01
3.158010573193773540e-01
3.191512862565435427e-01
3.179933190253754205e-01
3.124239814803744242e-01
3.025691526298198708e-01
2.886134520598212516e-01
2.707978210727016721e-01
2.493827100151123355e-01
2.246882393002582468e-01
1.970495401852651041e-01
1.668358928757940618e-01
1.344442476708816447e-01
1.002827432228482335e-01
6.478925788232664518e-02
2.840821978075176377e-02
-8.400038132552679199e-03
-4.516431030925220635e-02
-8.141129323948299856e-02
-1.166631952455635390e-01
-1.504429619137508389e-01
-1.822874119897450185e-01
-2.117414879355343227e-01
-2.383699898064953193e-01
-2.617769602164903842e-01
-2.815795669863727091e-01
-2.974632288398229019e-01
-3.091469685567518888e-01
-3.164037890014531618e-01
-3.190962647103746663e-01
-3.171132689551744988e-01
-3.104601367395902756e-01
-2.991905769285895800e-01
-2.834321350506582293e-01
-2.634157311348776509e-01
-2.394001426099044427e-01
-2.117519322383683844e-01
-1.808752045772400729e-01
-1.472252542038858247e-01
-1.113179315474076558e-01
-7.368099783971528149e-02
-3.487926498991563568e-02
4.512379887946227353e-03
4.392198193618362945e-02
8.278051918544920840e-02
1.205295993256089715e-01
1.566489681571230919e-01
1.906298032524336716e-01
2.220112912722824183e-01
2.503732001082167313e-01
2.753213401514896796e-01
2.965358136826043989e-01
3.137156826203246762e-01
3.266280347615312385e-01
3.350885517195838492e-01
3.389467395115274284e-01
3.381337001249750118e-01
3.326002449880866574e-01
3.223734996506182893e-01
3.075266571020980888e-01
2.881735471296651974e-01
2.645110769732198497e-01
2.367564105032695654e-01
2.052107466552969273e-01
1.702181483511048254e-01
1.321685978469414047e-01
9.153141521661810331e-02
4.879470044690714658e-02
4.521046519066651559e-03
-4.069502561169574539e-02
-8.622800997215657182e-02
-1.314072063877534946e-01
-1.755557929117879112e-01
-2.179827146236077429e-01
-2.579926196846877295e-01
-2.949136916524373597e-01
-3.281031780924618113e-01
-3.569402756718710323e-01
-3.808974006089344000e-01
-3.994780376492893526e-01
-4.122883289764629478e-01
-4.190414835242818326e-01
-4.195034950146934172e-01
-4.136224117386926302e-01
-4.013975637065789193e-01
-3.829748480681688938e-01
-3.586293597900773733e-01
-3.286944957817686253e-01
-2.936731146090649225e-01
-2.541083527997732849e-01
-2.106435816625019386e-01
-1.639967980432450456e-01
-1.149088470208419061e-01
-6.417550457033839584e-02
-1.260042021240058777e-02
3.902353644607260003e-02
8.991041757833324877e-02
1.393052515016609538e-01
1.865201064389767904e-01
2.308871439905573753e-01
2.718395770052345339e-01
3.088644682700457667e-01
3.415125480653469769e-01
3.694494196657266416e-01
3.923690428321321422e-01
4.100826002829668915e-01
4.224539060590829509e-01
4.294067378090050124e-01
4.309561505930725178e-01
4.271390017950831841e-01
4.180755340156218636e-01
4.039176410598684375e-01
3.848597962915506487e-01
3.611512589915016336e-01
3.330568928344871948e-01
3.008997881505357519e-01
2.650221281386802019e-01
2.258048894322120803e-01
1.836712447050498354e-01
1.390606812446130713e-01
9.246944511889865215e-02
4.440996808685004904e-02
-4.565682160171335990e-03
-5.386899929715477375e-02
-1.028986343076311871e-01
-1.510153410790504580e-01
-1.975716560787624254e-01
-2.419138417808016639e-01
-2.833833102202993892e-01
-3.213349644826873908e-01
-3.551608964608989893e-01
-3.842662614750449457e-01
-4.081365166757924268e-01
-4.263099437694745641e-01
-4.383875449276912750e-01
-4.441107495166095043e-01
-4.432582673163837916e-01
-4.357776855928316428e-01
-4.217103476903890646e-01
-4.011943248447319421e-01
-3.745496077912685573e-01
-3.421385915867016236e-01
-3.044918691784078146e-01
-2.622185651229065884e-01
-2.159980731128252618e-01
-1.666212252034955377e-01
-1.148978410733048072e-01
-6.169382092263697714e-02
-7.896312372678626623e-03
4.561869018324771208e-02
9.799024110041709701e-02
1.483751545762378443e-01
1.960154156028122152e-01
2.401831807692941245e-01
2.802409310224931449e-01
3.156536198527672976e-01
3.459294350323930400e-01
3.707348342964282839e-01
3.897832779207422438e-01
4.029050828870813228e-01
4.100426115757895840e-01
4.111837527861159636e-01
4.064583428067697346e-01
3.960325234999297894e-01
3.801633229585987817e-01
3.591814130745096811e-01
3.334480195556053794e-01
3.034057409853330167e-01
2.695151045309897020e-01
2.322802471016968129e-01
1.922351335818329732e-01
1.499241444477242835e-01
1.059150537744592002e-01
6.077925789339166940e-02
1.509035644096590190e-02
-3.057683957768686511e-02
-7.565471234566967240e-02
-1.195899576721746738e-01
-1.618347230122250124e-01
-2.018713876422195130e-01
-2.391972616749476477e-01
-2.733369369464729304e-01
-3.038602970547029658e-01
-3.303524298967290829e-01
-3.524697735325534875e-01
-3.698986894614527676e-01
-3.823841246050474485e-01
-3.897530801215411955e-01
-3.918608666437906063e-01
-3.886815427048395666e-01
-3.802314769791583782e-01
-3.666136620810187541e-01
-3.480335807575720142e-01
-3.247311774671635121e-01
-2.970721327656731248e-01
-2.654598511754563406e-01
-2.303690337631280338e-01
-1.923456775395076535e-01
-1.519538443743427003e-01
-1.098119410654502248e-01
-6.655073860748539349e-02
-2.280155885699461371e-02
2.080382217454633531e-02
6.364999360453305055e-02
1.051706767196848996e-01
1.448141417377477869e-01
1.821005207000422621e-01
2.166012942038490485e-01
2.479290502230161453e-01
2.757959545873298057e-01
2.999378094781344206e-01
3.201791497852033430e-01
3.363980180859196256e-01
3.485109250116349422e-01
3.565127451679513948e-01
3.604147766343476222e-01
3.602848430957645842e-01
3.562194816806585340e-01
3.483361690676960443e-01
3.367884390345479151e-01
3.217372588228688546e-01
3.033698751453327014e-01
2.818848600176537822e-01
2.574949103302388576e-01
2.304333416654151256e-01
2.009401990125679882e-01
1.692841696363706072e-01
1.357446235732841511e-01
1.006243557365765484e-01
6.425506920132043054e-02
2.697890147546200268e-02
-1.082201051878375897e-02
-4.875299443226882579e-02
-8.639509456614678784e-02
-1.233040294205995924e-01
-1.590300520946472396e-01
-1.931071077752260223e-01
-2.250658661317452569e-01
-2.544482667970694445e-01
-2.808061892987873676e-01
-3.037092264829736044e-01
-3.227816135670113495e-01
-3.376638900400302790e-01
-3.480760942967424665e-01
-3.537975173769676296e-01
-3.546572830866949744e-01
-3.506107441722874363e-01
-3.416447598528811747e-01
-3.278714169220230401e-01
-3.094816122086396226e-01
-2.867255179773752771e-01
-2.599793996965154008e-01
-2.296464076520596531e-01
-1.962222164982387884e-01
-1.602514825962831346e-01
-1.223059118003917145e-01
-8.300559014849955008e-02
-4.297587982343669538e-02
-2.843250995147567073e-03
3.676578477022401925e-02
7.525048342905818477e-02
1.120494748099835902e-01
1.466180202208655636e-01
1.784900799848475050e-01
2.072300703790692922e-01
2.324648525351892259e-01
2.539016644936851197e-01
2.712745143982469020e-01
2.844216625238791818e-01
2.932155252498814257e-01
2.975972023052957938e-01
2.975825009606917204e-01
2.932132782277675487e-01
2.846205415214064782e-01
2.719604687147075817e-01
2.554464846656110399e-01
2.353446438622310843e-01
2.119421036644726641e-01
1.855891818630688028e-01
1.566518791110504960e-01
1.255367741155880568e-01
9.268196799821290521e-02
5.853914409662523688e-02
2.359481951195121358e-02
-1.165735318524002695e-02
-4.670897242835163332e-02
-8.104199655865053364e-02
-1.141411938417888350e-01
-1.454980962412775747e-01
-1.746088099532215332e-01
-2.010038151648374516e-01
-2.242328169918680059e-01
-2.438810306699161212e-01
-2.596007561381257212e-01
-2.710650850716208593e-01
-2.780484367768860099e-01
-2.803730073194964922e-01
-2.779336353621570388e-01
-2.707406454118142514e-01
-2.588368174478055672e-01
-2.424024737018753428e-01
-2.216725847134537741e-01
-1.969613570825483329e-01
-1.686893410340460919e-01
-1.373035936976852722e-01
-1.033482186452391038e-01
-6.739935384969072962e-02
-3.006758683090129947e-02
7.997421744336957738e-03
4.614433880187829295e-02
8.372367226003929463e-02
1.200881915654012921e-01
1.546286318923381087e-01
1.867721323015001378e-01
2.159734389227168094e-01
2.417777685994484393e-01
2.637555127798284493e-01
2.815679036473173191e-01
2.949497949205758252e-01
3.036805043950302485e-01
3.076605304299938615e-01
3.068199174574154364e-01
3.011894703429439657e-01
2.908689810149619470e-01
2.760023244738452064e-01
2.568350223379655128e-01
2.336352172495484991e-01
2.067493202998680890e-01
1.765689602881691522e-01
1.435171969887031884e-01
1.080784371102443131e-01
7.074938349757833866e-02
3.206736687170441691e-02
-7.410578977235571241e-03
-4.711736816192846344e-02
-8.646937849201913329e-02
-1.248827817874166302e-01
-1.617826393997172651e-01
-1.965981107044019183e-01
-2.287828431887705127e-01
-2.578248141208834276e-01
-2.832285992811788278e-01
-3.045739199138612907e-01
-3.214678163458454252e-01
-3.335894724792679567e-01
-3.407034361912919529e-01
-3.426099730380042230e-01
-3.392449850953818125e-01
-3.305863399378464740e-01
-3.167180521918544489e-01
-2.978302835761320044e-01
-2.741564799132521490e-01
-2.460705120021793868e-01
-2.139832372713092457e-01
-1.783940288681291897e-01
-1.398770653292855937e-01
-9.903221581432157528e-02
-5.652935921144708331e-02
-1.305264627704749714e-02
3.069772748305787946e-02
7.401016003934179910e-02
1.161853550979781713e-01
1.565552598769319181e-01
1.944629898616107022e-01
2.293191239639847945e-01
2.605750523098269156e-01
2.877315878565493978e-01
3.103910130782880916e-01
3.281821880610340525e-01
3.408521732752605171e-01
3.482083829352956572e-01
3.501280953524394390e-01
3.466093620267005626e-01
3.376807725608410027e-01
3.234977262251005348e-01
3.042703037398327703e-01
2.802783990384504209e-01
2.519038220020935470e-01
2.195540394347204882e-01
1.837352995496225050e-01
1.449897126413977888e-01
1.039060771310274245e-01
6.113078944045443469e-02
1.732189439655534152e-02
-2.682515403488298922e-02
-7.060421719721558798e-02
-1.133122539189919398e-01
-1.542494547962958706e-01
-1.927295626883376023e-01
-2.281173927555928682e-01
-2.597939790468322130e-01
-2.872153955172068729e-01
-3.099038700537730118e-01
-3.274278772873095433e-01
-3.394942256085125565e-01
-3.458464907293961610e-01
-3.463653736474482381e-01
-3.410337409431179467e-01
-3.299021370529769959e-01
-3.131911917026147796e-01
-2.911612736179944871e-01
-2.642111382548292253e-01
-2.328265691696456141e-01
-1.975469249470923616e-01
-1.590250027891303430e-01
-1.179351433833775165e-01
-7.501129093411103288e-02
-3.101878159617587824e-02
1.327520424796606313e-02
5.710064360078777324e-02
9.969445941071561346e-02
1.403460384236165093e-01
1.783688462885490988e-01
2.131334108535250793e-01
2.440972932091983461e-01
2.707470944123164802e-01
2.926977116980200577e-01
3.096133941588041227e-01
3.212488283456842453e-01
3.274750987113922429e-01
3.282003404128643331e-01
3.234753255904860847e-01
3.133974270596321943e-01
2.981544539250865489e-01
2.780325833209950637e-01
2.533507158502069090e-01
2.245388314269118613e-01
1.920578725668747322e-01
1.564321830032853466e-01
1.182443928222291218e-01
7.809543400127812174e-02
3.663946519658602130e-02
-5.457440371518743755e-03
-4.751474219473315885e-02
-8.884067975483329882e-02
-1.287510842033404990e-01
-1.665833213950671243e-01
-2.016831245300614861e-01
-2.334522435345489089e-01
-2.613292869314168820e-01
-2.847987802761273168e-01
-3.034481258542104931e-01
-3.168927883381618682e-01
-3.248790421447602661e-01
-3.272258403314802222e-01
-3.238334034956693586e-01
-3.147549150352038083e-01
-3.000816468513464730e-01
-2.800648531609553626e-01
-2.550307163369003316e-01
-2.253873432242874397e-01
-1.916729040842379550e-01
-1.544541447733234485e-01
-1.144031349217507765e-01
-7.223311591231679207e-02
-2.868962598509834649e-02
1.543850279320785855e-02
5.936103632718395251e-02
1.022961120157150627e-01
1.434660605295798863e-01
1.821379498238501760e-01
2.176296071627241702e-01
2.492887823010961901e-01
2.765773368239032859e-01
2.989921339173083337e-01
3.161380497518824773e-01
3.277235272518517761e-01
3.335084865752892536e-01
3.334165712194527287e-01
3.274149264316684738e-01
3.156018336729428109e-01
2.981818439142263633e-01
2.754147825318945531e-01
2.477099037497681733e-01
2.155114043416840597e-01
1.793689711172342660e-01
1.399044804051318147e-01
9.777565996775247625e-02
5.372216340780702759e-02
8.498858033976763870e-03
-3.710643564699306340e-02
-8.228702111853236634e-02
-1.262442216944453244e-01
-1.681957345987519226e-01
-2.073698028359824974e-01
-2.430638800318024595e-01
-2.746096677798594010e-01
-3.014062002630462089e-01
-3.229643216770328173e-01
-3.388303371571597111e-01
-3.487131385282229434e-01
-3.523893807740965389e-01
-3.497495209158369978e-01
-3.408433695204932667e-01
-3.257676365276175323e-01
-3.048063762767223017e-01
-2.783094480351626654e-01
-2.467332670373813541e-01
-2.106603102453202814e-01
-1.707058147827301975e-01
-1.275972468523332848e-01
-8.209451822632768403e-02
-3.499298134054124043e-02
1.287657178554013626e-02
6.068628873539005930e-02
1.076245876838337612e-01
1.528869120721058072e-01
1.957263228791693566e-01
2.354445901288111376e-01
2.713833937085562420e-01
3.029995360815262995e-01
3.297800812255716751e-01
3.513292931024905030e-01
3.673351590306509484e-01
3.775448118241752082e-01
3.818481302030564128e-01
3.801687108074128796e-01
3.725556067327975285e-01
3.591335524451970684e-01
3.400861152613237071e-01
3.157168858433034297e-01
2.863563886067357900e-01
2.524368004288183309e-01
2.144420266142040843e-01
1.729013201679964751e-01
1.284221596806175425e-01
8.162833695456539473e-02
3.320193864569920272e-02
-1.615011246260156241e-02
-6.570435754815218132e-02
-1.147132582051860750e-01
-1.624292348816009923e-01
-2.081152451597281239e-01
-2.510389730197929437e-01
-2.905044111869607981e-01
-3.258603755834970084e-01
-3.564812873772713608e-01
-3.818471924767945502e-01
-4.014729566717335496e-01
-4.149802482632445333e-01
-4.221021251529889495e-01
-4.226252473284950462e-01
-4.165206724127454851e-01
-4.038114104854717001e-01
-3.846691238087335263e-01
-3.593965109331823671e-01
-3.283566567025432703e-01
-2.920884654382852608e-01
-2.511730053460066170e-01
-2.063006710008314371e-01
-1.582432577720718214e-01
-1.078006476924461832e-01
-5.584088898529715461e-02
-3.242914736559798783e-03
4.911525902137214850e-02
1.003563481692665293e-01
1.496326048531202435e-01
1.961604011753894650e-01
2.391768921012084048e-01
2.780298735402705335e-01
3.121261809112589880e-01
3.409499949496209714e-01
3.641251514750049045e-01
3.813123064680037366e-01
3.923316130382578093e-01
3.970750193476375589e-01
3.955266441706216107e-01
3.878109699884672024e-01
3.740883913163280949e-01
3.546616322057327686e-01
3.298874631776964050e-01
3.001961455516115596e-01
2.661125003109860998e-01
2.281843640413961649e-01
1.870410472539880409e-01
1.433376419240312005e-01
9.775839048902093542e-02
5.101923988996802384e-02
3.838058260530047283e-03
-4.306598782708265238e-02
-8.897487589275168696e-02
-1.331997485286552929e-01
-1.750785639958136186e-01
-2.139732980236653259e-01
-2.493218674668440937e-01
-2.805835919640739529e-01
-3.073051737881974943e-01
-3.291012266343240067e-01
-3.456353348433225392e-01
-3.566999505976460316e-01
-3.621196738791196967e-01
-3.618418344153220279e-01
-3.558943403703488384e-01
-3.443649393701316841e-01
-3.274741682768521622e-01
-3.054725763210352496e-01
-2.787209175226471602e-01
-2.476409682688182068e-01
-2.126997001912576679e-01
-1.744487457378235407e-01
-1.334562151049827894e-01
-9.034366638854673948e-02
-4.575743458794828689e-02
-3.546329130196951285e-04
4.519064051105739499e-02
9.020515023063846449e-02
1.340304634383865379e-01
1.760144944971461234e-01
2.155332532620967689e-01
2.520004928335383143e-01
2.848469360264837547e-01
3.135763110988056823e-01
3.377178530363262876e-01
3.568678413724881704e-01
3.706986158835291478e-01
3.789162694995836800e-01
3.813513508025618837e-01
3.778720768829852972e-01
3.684536699914528479e-01
3.531739526585088718e-01
3.321604852939610275e-01
3.056986667375150568e-01
2.741156417183343574e-01
2.378618687530484332e-01
1.974877331135646563e-01
1.535921104040623986e-01
1.069044136224752695e-01
5.818314719168388160e-02
8.260933228115607818e-03
-4.197893830144433513e-02
-9.164320194345076942e-02
-1.398172042994329511e-01
-1.855882234748208459e-01
-2.280938592048761815e-01
-2.665011173409883583e-01
-3.000410568479660034e-01
-3.280712425060565707e-01
-3.499879466499931646e-01
-3.653785020760246249e-01
-3.739240283912556584e-01
-3.754358997562446953e-01
-3.699414921406423140e-01
-3.575250904220604875e-01
-3.385092699988430098e-01
-3.133149873390820295e-01
-2.824865794110632544e-01
-2.467410545270868893e-01
-2.068328117833886370e-01
-1.636473329887656036e-01
-1.181145793210184591e-01
-7.118932090041807381e-02
-2.385565445493126324e-02
2.291390732035297750e-02
6.820537497481443667e-02
1.111251752092335954e-01
1.508786468594554009e-01
1.867700419677574275e-01
2.181591321016068397e-01
2.445916884040852946e-01
2.656646853456140489e-01
2.811305925327231559e-01
2.908733029683471805e-01
2.948409021484775239e-01
2.931616387533921286e-01
2.860063516883705192e-01
2.736655504269222550e-01
2.565151743145388519e-01
2.349699986159433651e-01
2.095368966596059535e-01
1.807408208922627879e-01
1.491488554788564791e-01
1.153533975824135860e-01
7.995055492648314721e-02
4.354342463640942240e-02
6.733478350785332411e-03
-2.989895631106675999e-02
-6.578447260861414181e-02
-1.003766042485340071e-01
-1.331686597390744353e-01
-1.636664598262215775e-01
-1.914344719468470402e-01
-2.160626886700010851e-01
-2.371855904980324503e-01
-2.545026504140474044e-01
-2.677347617375972488e-01
-2.766942745071606646e-01
-2.812274826106901937e-01
-2.812496713960672134e-01
-2.767612639506398797e-01
-2.677927192441840187e-01
-2.544890854997269303e-01
-2.370316376434673522e-01
-2.156790551745183526e-01
-1.907707454609544051e-01
-1.626735325496694307e-01
-1.318443164545362034e-01
-9.876380060990341825e-02
-6.395615515119379424e-02
-2.798386120743578953e-02
8.584292721790731662e-03
4.516380529459818050e-02
8.116859870830417378e-02
1.160339998700872233e-01
1.492113101076274484e-01
1.801754361709478891e-01
2.084618289427785376e-01
2.336225380445410837e-01
2.552863063686123257e-01
2.731301892716289648e-01
2.868763327125274931e-01
2.963431905907994990e-01
3.013726941062710996e-01
3.019037600695084755e-01
2.979268893012193553e-01
2.894841147655506930e-01
2.767103170472402507e-01
2.597626331639903974e-01
2.388881468757153570e-01
2.143743375818714103e-01
1.865553262276822277e-01
1.558362357451045233e-01
1.226391474769424894e-01
8.745099992027260960e-02
5.078320155460974705e-02
1.317461966862115696e-02
-2.480055582451773377e-02
-6.256297267903668247e-02
-9.951952663846075353e-02
-1.350735497255387829e-01
-1.686446476749780543e-01
-1.996701301201378453e-01
-2.276047009722700354e-01
-2.519690751054632916e-01
-2.723045205965346494e-01
-2.882327384759747479e-01
-2.994493786527128165e-01
-3.056949280400806934e-01
-3.068487145231478808e-01
-3.028268636062217967e-01
-2.936699094186725478e-01
-2.795150511395472215e-01
-2.605545766903011318e-01
-2.371242906944700524e-01
-2.095927758112023920e-01
-1.784294453366717104e-01
-1.441698363151944773e-01
-1.073809476783815497e-01
-6.869866030741739182e-02
-2.877036809318836430e-02
1.173766525357294865e-02
5.214891588617787122e-02
9.180019774351849682e-02
1.300538668094269878e-01
1.662834299303702634e-01
1.999256361451414721e-01
2.304471453922398716e-01
2.573659109124883937e-01
2.802814635314557767e-01
2.988176320640110184e-01
3.127039304805832032e-01
3.217120908667303603e-01
3.256842769634122892e-01
3.245571971912011300e-01
3.182968946638673469e-01
3.069851091668484022e-01
2.907429897109435890e-01
2.697683463841147322e-01
2.443459543734270989e-01
2.147904894828418509e-01
1.815224355444591264e-01
1.449931375187519800e-01
1.057200774943360122e-01
6.428415117047733829e-02
2.128738084499323668e-02
-2.260393114145786697e-02
-6.670823398708902729e-02
-1.103221025948873946e-01
-1.527244017352306082e-01
-1.932002740861671342e-01
-2.310542847488618046e-01
-2.655994154535445961e-01
-2.962111105487710283e-01
-3.223076663755779503e-01
-3.433595195997753979e-01
-3.589591151049931206e-01
-3.687318634938847595e-01
-3.724551489745637767e-01
-3.699943797158358194e-01
-3.613055126951429941e-01
-3.465222391037829919e-01
-3.258209752755418798e-01
-2.995529011139163034e-01
-2.681544801381203769e-01
-2.321443255971565867e-01
-1.921770009334861640e-01
-1.489345215045406456e-01
-1.031941939344843129e-01
-5.577200150991333538e-02
-7.502339412546021880e-03
4.075472082163722476e-02
8.814421889908008456e-02
1.338488559010366230e-01
1.770659149127721266e-01
2.170571597952674070e-01
2.531606593861461807e-01
2.847510652513607354e-01
3.113447867834868710e-01
3.325024709408980206e-01
3.479043997379213105e-01
3.573504904954882821e-01
3.606931103735668831e-01
3.579562068615812498e-01
3.492098872302226154e-01
3.346491314707919495e-01
3.145744586979331014e-01
2.893344217771414151e-01
2.594117068646182300e-01
2.253203356592816675e-01
1.876584351418803531e-01
1.470841646503058819e-01
1.042799008564948837e-01
5.998508894018297899e-02
1.494898396301558297e-02
-3.006776048521053735e-02
-7.429775035505226111e-02
-1.169894093232758947e-01
-1.574241958476641501e-01
-1.948967882645450955e-01
-2.287790462987671636e-01
-2.584824802069299876e-01
-2.834844387613296712e-01
-3.033763132986824762e-01
-3.177834606119540051e-01
-3.264862558239546853e-01
-3.293322659366458294e-01
-3.262723077959617246e-01
-3.174079957034911526e-01
-3.028828800747622729e-01
-2.830090276718832953e-01
-2.581599820816485868e-01
-2.287992911384085226e-01
-1.955015486305157757e-01
-1.588676098651296831e-01
-1.195880496173814256e-01
-7.838024164327059284e-02
-3.598328258263913670e-02
6.841077148523500018e-03
4.933693357302415539e-02
9.077470851728380863e-02
1.304341225547386851e-01
1.676509487923666386e-01
2.018103756138898697e-01
2.323328486836240270e-01
2.587443853210723566e-01
2.805989486004049627e-01
2.975535319303186932e-01
3.093418936455772372e-01
3.157495594169589803e-01
3.166922402960806737e-01
3.121170813699011282e-01
3.020885270625493502e-01
2.867448538849166617e-01
2.662820354627030150e-01
2.410188774780877563e-01
2.113025720612644043e-01
1.775900876618841939e-01
1.403967010532640725e-01
1.002884326693440631e-01
5.792260780428646477e-02
1.397538159220143572e-02
-3.081076796958633068e-02
-7.566393119360315112e-02
-1.197982657807248330e-01
-1.624068350608443012e-01
-2.026864259722352957e-01
-2.398663631734620494e-01
-2.731895032993999495e-01
-3.019603803195253233e-01
-3.255629491987911406e-01
-3.434195198373022340e-01
-3.551132217511676070e-01
-3.602813144660546585e-01
-3.587057608759278149e-01
-3.503259234450057935e-01
-3.351469916518677317e-01
-3.134057575709103260e-01
-2.854051305036994779e-01
-2.516111822878840942e-01
-2.126399863597022710e-01
-1.691642585673243104e-01
-1.220251726078930288e-01
-7.210360750291197607e-02
-2.035649243674889086e-02
3.220019763990014661e-02
8.454673487249175778e-02
1.356573701198528492e-01
1.845112032584926565e-01
2.301568906366340539e-01
2.716888942581706101e-01
3.082674521059733386e-01
3.392004479116733640e-01
3.638360869121513019e-01
3.817107541900810475e-01
3.924653632451102214e-01
3.958548982609543798e-01
3.918489991590591304e-01
3.804702095565206665e-01
3.619614113448381132e-01
3.366686915810822578e-01
3.050515619296991221e-01
2.677496116560798001e-01
2.254431604601068728e-01
1.789656030469699011e-01
1.292103661203214959e-01
7.712596500793675314e-02
2.373478928656992670e-02
-2.993350075448598935e-02
-8.283865238631929473e-02
-1.339387269741327269e-01
-1.822409109673857885e-01
-2.268081315317368452e-01
-2.667423009713836835e-01
-3.012963616297443248e-01
-3.297701957299817854e-01
-3.516197579153179653e-01
-3.664506510254688099e-01
-3.739459584393505787e-01
-3.740360589839186733e-01
-3.667170609249163493e-01
-3.521835082348276358e-01
-3.307907479351371305e-01
-3.029736787202405024e-01
-2.693816125912276149e-01
-2.307123830458399638e-01
-1.877948447995251846e-01
-1.415474647432942712e-01
-9.291911791627144312e-02
-4.292686014248828924e-02
7.404018849624622450e-03
5.706499707352325618e-02
1.050575444348948312e-01
1.504298665425040094e-01
1.923227443887568500e-01
2.299067273308561254e-01
2.625037724797789074e-01
2.895102000595755065e-01
3.104285517724693633e-01
3.249375395906401454e-01
3.327639830523423381e-01
3.338401163548720962e-01
3.281833034583507280e-01
3.159322259631396901e-01
2.973953939207292785e-01
2.729265551054935734e-01
2.430537057318183369e-01
2.083656915594650771e-01
1.695391578816775047e-01
1.273546163952094523e-01
8.261633925318695448e-02
3.620682661256426765e-02
-1.096942768986053363e-02
-5.799753542303601184e-02
-1.039522150705432524e-01
-1.479225229611670356e-01
-1.890512237273497265e-01
-2.264986974847594814e-01
-2.595191507065862657e-01
-2.874461066807558751e-01
-3.096742321152369803e-01
-3.257741234259490248e-01
-3.353627417516616971e-01
-3.382377466805222554e-01
-3.343258827186493809e-01
-3.236453039481237415e-01
-3.064347953561096793e-01
-2.829843089694351055e-01
-2.537676933908791232e-01
-2.193696473067699437e-01
-1.804478217476738755e-01
-1.378082153481992589e-01
-9.228487903284270100e-02
-4.479312510323488206e-02
3.710765760890771814e-03
5.226639830255579156e-02
9.990676041588725242e-02
1.456739858117434838e-01
1.886776665886889803e-01
2.280572830387209149e-01
2.630307606521489761e-01
2.929307023910517893e-01
3.171306659290031305e-01
3.351833566416641541e-01
3.467079269047343981e-01
3.514571740050093096e-01
3.493488165642720800e-01
3.403568072511692355e-01
3.246680560675091476e-01
3.025366431810646017e-01
2.743566499754800381e-01
2.406681697096879902e-01
2.020612592470261426e-01
1.592903253511205319e-01
1.131534796277077204e-01
6.453321046212676104e-02
1.438637607557467779e-02
-3.631498352458754214e-02
-8.655908614819961266e-02
-1.353287226307272328e-01
-1.816403442177204897e-01
-2.245355430799030050e-01
-2.631027847538940367e-01
-2.965511657305032189e-01
-3.241245961499041872e-01
-3.452392688038831703e-01
-3.594199526645004972e-01
-3.663016877913635172e-01
-3.657553598969044417e-01
-3.577103344569581012e-01
-3.423423068841338068e-01
-3.199579203567347596e-01
-2.909881088159427254e-01
-2.560876399121295721e-01
-2.159592515882316210e-01
-1.714813680884331726e-01
-1.236106247678077225e-01
-7.335487669925896959e-02
-2.179972585413032793e-02
2.996560258548519595e-02
8.086923764994183306e-02
1.298476290788774801e-01
1.759122085890456044e-01
2.181709768116779635e-01
2.557787090372402594e-01
2.880863953606304095e-01
3.145105933503264395e-01
3.346316047481781020e-01
3.482078412563749947e-01
3.550660409177915922e-01
3.552703699212629296e-01
3.489519117509388701e-01
3.363918794182997329e-01
3.180095046538065073e-01
2.942710516459793868e-01
2.657810103106570399e-01
2.331759579683619910e-01
1.971474134992809990e-01
1.584295515781609098e-01
1.177585018369856351e-01
7.587267872466543772e-02
3.350734752014482287e-02
-8.644140173957953754e-03
-4.991601320336291892e-02
-8.967721568727352044e-02
-1.273744822906246466e-01
-1.624747075173416655e-01
-1.945336914946861340e-01
-2.231565847693281202e-01
-2.479986205445989245e-01
-2.688092083117081810e-01
-2.853607626097022232e-01
-2.975208006326375276e-01
-3.052014400647050096e-01
-3.083673231011830884e-01
-3.070665091055512219e-01
-3.013684142827792178e-01
-2.914288363740908938e-01
-2.774378495576649284e-01
-2.596334137700280764e-01
-2.383177535224120513e-01
-2.138096459514821635e-01
-1.864892386402154933e-01
-1.567570830490737088e-01
-1.250397772284413955e-01
-9.179346342983082940e-02
-5.747862962758790162e-02
-2.256730758137394377e-02
1.246594541407097800e-02
4.715731924038572137e-02
8.105330913136245263e-02
1.137111033044808650e-01
1.447234605050790046e-01
1.736932789706011060e-01
2.002630795231004068e-01
2.241074967479951274e-01
2.449222642051052112e-01
2.624608498773832177e-01
2.764912973426890686e-01
2.868359322483177154e-01
2.933542614228141776e-01
2.959342077727873388e-01
2.945295513503580209e-01
2.891102436438581225e-01
2.797120708307278547e-01
2.664089349183154654e-01
2.493118645594049609e-01
2.286047146619882842e-01
2.044894194840710666e-01
1.772441249371064509e-01
1.471842475081953372e-01
1.146668863467798782e-01
8.011818565749474763e-02
4.398038772638773047e-02
6.758224022280455434e-03
-3.101797467052018475e-02
-6.879482122265576094e-02
-1.059866884912272489e-01
-1.420053806900642424e-01
-1.762618608445148949e-01
-2.081677460862244589e-01
-2.371643869006582750e-01
-2.627283244474236668e-01
-2.843592752440907145e-01
-3.016501120511292933e-01
-3.142235739812717643e-01
-3.217993173980577826e-01
-3.241939164809627405e-01
-3.212723276114665683e-01
-3.130599028938262363e-01
-2.996257363853410127e-01
-2.811658737938708685e-01
-2.579836575053259251e-01
-2.304319863731963958e-01
-1.990022944277390349e-01
-1.642178786896485998e-01
-1.266822051415105732e-01
-8.705594602942884341e-02
-4.601678642949331988e-02
-4.281697193798061907e-03
3.742763942615978667e-02
7.840325481079185588e-02
1.179455971544429715e-01
1.553840205485685910e-01
1.901076621450614734e-01
2.215240509912378974e-01
2.491335152497055061e-01
2.724838750513929320e-01
2.911868710338711974e-01
3.049648448481803165e-01
3.135700995003544156e-01
3.168847897825995963e-01
3.148472191103051099e-01
3.074752066041640530e-01
2.949026825339158275e-01
2.772955993913791550e-01
2.549481573447476834e-01
2.282014957983605208e-01
1.974705682791491612e-01
1.632614036270500779e-01
1.261049915274540800e-01
8.662173647509334440e-02
4.545939779246688933e-02
3.303451809740585998e-03
-3.912128982282570000e-02
-8.108622771231741022e-02
-1.218553494024719741e-01
-1.606927570453067777e-01
-1.968973576947105064e-01
-2.297987464035106675e-01
-2.587589627989498320e-01
-2.832387880936456659e-01
-3.027268275365946892e-01
-3.168320368328685355e-01
-3.252530582713193397e-01
-3.277572508519255301e-01
-3.242855413205079085e-01
-3.148213468573954898e-01
-2.995109747156295410e-01
-2.786032327080094073e-01
-2.524218152952721894e-01
-2.214496208047102566e-01
-1.862033780961978024e-01
-1.473156174470622304e-01
-1.054801839884608461e-01
-6.142578442617931123e-02
-1.594350765165309519e-02
3.016799683983859004e-02
7.610316733744031115e-02
1.210538771471968145e-01
1.642395572636903833e-01
2.049217647136868659e-01
2.423812734049894946e-01
2.759914703346504905e-01
3.051617570435133375e-01
3.293816551633991785e-01
3.482438201257165300e-01
3.613782335800510004e-01
3.685631024633879149e-01
3.696256264227634203e-01
3.645022166204359149e-01
3.532480759253943114e-01
3.359636940697097174e-01
3.129067796724278039e-01
2.843798001770280193e-01
2.507935290886333934e-01
2.126583103794296159e-01
1.705244948394629700e-01
1.250621978976755866e-01
7.697064965332378605e-02
2.701658015133548418e-02
-2.398085756694501303e-02
-7.518874720940309231e-02
-1.257403406605135110e-01
-1.747649625433991827e-01
-2.214132122200069552e-01
-2.648497746739663095e-01
-3.042768274755592861e-01
-3.389811800242287787e-01
-3.682756707977501431e-01
-3.916085461347972307e-01
-4.085033885495024109e-01
-4.185794031196191645e-01
-4.216359776620567379e-01
-4.175199743370032746e-01
-4.062865913686499741e-01
-3.880887710594518314e-01
-3.631971332724732715e-01
-3.320692068078233694e-01
-2.952068530562724780e-01
-2.532836011434075330e-01
-2.070404725664615198e-01
-1.572873597497721487e-01
-1.049265323980200226e-01
-5.087363064243843880e-02
3.920641060396079514e-03
5.849537401986135143e-02
1.119172364488118382e-01
1.632841915939562127e-01
2.117208029364897048e-01
2.564562125962293049e-01
2.967521168917114927e-01
3.319793781841276492e-01
3.616135313560411291e-01
3.851837942131939307e-01
4.023905872950168661e-01
4.129799411305743462e-01
4.168369691956211875e-01
4.139594955422158939e-01
4.044051437543431105e-01
3.883933853835083161e-01
3.661821191404875941e-01
3.381508047654784299e-01
3.047621143853544989e-01
2.665272624678948210e-01
2.240690587289940749e-01
1.780340641521901413e-01
1.291439507008674270e-01
7.816372092958884243e-02
2.588027502073375619e-02
-2.687702740912188693e-02
-7.927371764383220332e-02
-1.304745378354769114e-01
-1.796442157751076407e-01
-2.259743499141784462e-01
-2.687013052674769309e-01
-3.070812420954302513e-01
-3.404720055505477960e-01
-3.682742854916387087e-01
-3.899815241000836874e-01
-4.052170888657646852e-01
-4.136497750983581523e-01
-4.151396306856993124e-01
-4.096147835294141060e-01
-3.971408491363366267e-01
-3.779461123347561124e-01
-3.523127014877810437e-01
-3.207185503261140713e-01
-2.837003333460469956e-01
-2.419056213973969083e-01
-1.960928807997308343e-01
-1.470503631776351738e-01
-9.565697506359338576e-02
-4.281299178731799021e-02
1.056753800249216058e-02
6.355894003886150556e-02
1.152523469785982080e-01
1.647904021173828004e-01
2.113321793519682412e-01
2.541278331441342297e-01
2.924926184898191672e-01
3.258010214913962255e-01
3.535714847488702350e-01
3.753587126555987252e-01
3.908677737486547232e-01
3.998945032730636395e-01
4.023145805528060004e-01
3.981669101970770064e-01
3.875286720637405313e-01
3.706292418836840685e-01
3.477755156958078908e-01
3.193482832742434718e-01
2.858558921485956361e-01
2.478350326622142941e-01
2.059294323880618838e-01
1.608286517775472657e-01
1.132645165025699396e-01
6.403048795617355404e-02
1.392965843658326708e-02
-3.620825538376042096e-02
-8.554468781356663887e-02
-1.332568926757482231e-01
-1.785416671271448930e-01
-2.206141638133257699e-01
-2.587688546564024250e-01
-2.923268726467249667e-01
-3.207022964322795433e-01
-3.434061426543661977e-01
-3.599997717582241186e-01
-3.702191041511057601e-01
-3.738498450038481580e-01
-3.708296008760353923e-01
-3.612298810930640869e-01
-3.451894622737924911e-01
-3.230442742753713570e-01
-2.951788225584304759e-01
-2.621186333572696481e-01
-2.244942562990258628e-01
-1.829841548052811295e-01
-1.383851786727716415e-01
-9.151761546647571577e-02
-4.325085939796671775e-02
5.514942706958458896e-03
5.388495932351415607e-02
1.009769309894060774e-01
1.459181939062034195e-01
1.879071436835862419e-01
2.261802535295470706e-01
2.600390243446112359e-01
2.889025592276171506e-01
3.122243584349009282e-01
3.296167839511697228e-01
3.407639452426845517e-01
3.454555233271339176e-01
3.436420403070790663e-01
3.353190571672043929e-01
3.206682155487237673e-01
2.999421806546047065e-01
2.735035674958300467e-01
2.418564811108601109e-01
2.055437736901193913e-01
1.652511327266300845e-01
1.217100023966065647e-01
7.571794443835067057e-02
2.814443417872425357e-02
-2.012857173828019874e-02
-6.818367716726170258e-02
-1.150959038451211391e-01
-1.599656468666046383e-01
-2.019166333219539755e-01
-2.401051461202424742e-01
-2.737920032259902881e-01
-3.022685225323482605e-01
-3.249620444104771577e-01
-3.414056269727905324e-01
-3.512117183297940315e-01
-3.542019974155287132e-01
-3.502502748539003674e-01
-3.394288707791334181e-01
-3.219404187146820417e-01
-2.980801009677153113e-01
-2.683482501862543002e-01
-2.332897435936646113e-01
-1.936025065255435051e-01
-1.500690875484390618e-01
-1.035211258374419963e-01
-5.488185662945468946e-02
-5.087343958458952209e-03
4.490663592210963895e-02
9.413569716852762670e-02
1.416657847342531473e-01
1.866113052203133282e-01
2.281097174477487166e-01
2.654148286851782945e-01
2.978274846698036882e-01
3.247496239105408522e-01
3.457189252921113454e-01
3.603199064189919198e-01
3.683272739947175412e-01
3.695807897768037531e-01
3.640541749906870406e-01
3.518731176327483112e-01
3.332163538128266600e-01
3.084508654195950994e-01
2.779985406434516415e-01
2.423989440998751688e-01
2.023044709804129870e-01
1.584056083841940410e-01
1.115089521415942864e-01
6.244910461410824176e-02
1.210767270355436742e-02
-3.859566732402140710e-02
-8.874235239965017064e-02
-1.374201379010009383e-01
-1.837229171437415876e-01
-2.268076785727505817e-01
-2.658747092286923297e-01
-3.001806180985314154e-01
-3.291139449902366065e-01
-3.520991689233015642e-01
-3.687280215590897359e-01
-3.786891206909046570e-01
-3.817723731357713368e-01
-3.779665388259637604e-01
-3.673088755667559546e-01
-3.500377632016865581e-01
-3.264897934950145020e-01
-2.971009128247727449e-01
-2.624715429405512501e-01
-2.232372233777634718e-01
-1.801612372428051945e-01
-1.340589802534174479e-01
-8.578281180080038482e-02
-3.623673604823118843e-02
1.367371421337537640e-02
6.305550908515711317e-02
1.110214422116309052e-01
1.567369756789986912e-01
1.994299030849799870e-01
2.383614120287458338e-01
2.729239582320006630e-01
3.025512003423016516e-01
3.267930723116407865e-01
3.453157837275051545e-01
3.578375938945062007e-01
3.642474198769771743e-01
3.644802163427349750e-01
3.585973177150089120e-01
3.467668722417601712e-01
3.292070866511446203e-01
3.062762542243036012e-01
2.783659054663975008e-01
2.459622392908257238e-01
2.096190413354890314e-01
1.699227685830800305e-01
1.275375863837041601e-01
8.314316239734970138e-02
3.745733136784254458e-02
-8.779153308139248102e-03
-5.482410600255004096e-02
-9.993301480373217860e-02
-1.433655394550189255e-01
-1.844191410771572337e-01
-2.224108374149724177e-01
-2.567013594683673072e-01
-2.867272461386463078e-01
-3.119501472000202891e-01
-3.319521780340451422e-01
-3.463678832836298849e-01
-3.549231036154323338e-01
-3.574770539356290078e-01
-3.539299506375065407e-01
-3.443530596074123595e-01
-3.288805420957171544e-01
-3.077551088310704897e-01
-2.813534118985225874e-01
-2.500909311402952362e-01
-2.145244463887336916e-01
-1.752542910941972676e-01
-1.329484866464140658e-01
-8.834564723752164062e-02
-4.219836286341194231e-02
4.700115866959841959e-03
5.154751141826408034e-02
9.755372595895356325e-02
1.419394048730542868e-01
1.839466117102984133e-01
2.228836185383143986e-01
2.580778949370651221e-01
2.889453014572456180e-01
3.149675736364413448e-01
3.356793455542335103e-01
3.507490612683153985e-01
3.598788598198304767e-01
3.629069421879252966e-01
3.597571811870633463e-01
3.504260062869033465e-01
3.350645536858778417e-01
3.138606717916236910e-01
2.871490521231132576e-01
2.553424272247954985e-01
2.189256913707462449e-01
1.785136612695368274e-01
1.347495156545566175e-01
8.838215940675042681e-02
4.020763956211981238e-02
-8.942811553272367320e-03
-5.818450987459167223e-02
-1.066283816802970907e-01
-1.533860581711330440e-01
-1.975706042659008954e-01
-2.383399265003884882e-01
-2.749096895572800126e-01
-3.065282892079299604e-01
-3.325845704376717560e-01
-3.525150244416084266e-01
-3.658925400371426662e-01
-3.724383719423618455e-01
-3.719390210651627449e-01
-3.644120872899652142e-01
-3.499416721783239481e-01
-3.287851743122656156e-01
-3.013593120340327669e-01
-2.681460812515530368e-01
-2.298232789386702724e-01
-1.871160922589903963e-01
-1.408568973283648162e-01
-9.196131564091647448e-02
-4.136576351253240524e-02
9.942515633969195576e-03
6.096996033844903629e-02
1.107500166749426640e-01
1.583339970011909958e-01
2.028173703948258355e-01
2.433952304281465084e-01
2.792917513683296216e-01
3.098757760763903302e-01
3.345965633398202410e-01
3.529974139406280020e-01
3.647987084023634474e-01
3.697660106590518470e-01
3.678583989966504597e-01
3.591257174529350893e-01
3.437255256396875014e-01
3.219864583431505389e-01
2.942790089987215030e-01
2.611387623756299403e-01
2.231664990809858473e-01
1.810413744791328217e-01
1.355477008434951003e-01
8.749178355316922229e-02
3.775438186996782353e-02
-1.275975899192727248e-02
-6.313672050085417098e-02
-1.124521869237300464e-01
-1.597936750560704500e-01
-2.043007368775267008e-01
-2.451305756268058467e-01
-2.815257358192513326e-01
-3.128105914988419389e-01
-3.383622837339423928e-01
-3.577291691156827547e-01
-3.705068999226830417e-01
-3.764574294763813889e-01
-3.754774881736406833e-01
-3.675442672097304353e-01
-3.528541144529082629e-01
-3.316561511778437499e-01
-3.043734081879025943e-01
-2.715479515258034660e-01
-2.337880193547960950e-01
-1.918537168345681998e-01
-1.465351884064900467e-01
-9.870200500438341962e-02
-4.926942080199836482e-02
8.421272116430067456e-04
5.070299223362484398e-02
9.938987671159305037e-02
1.460392343026004625e-01
1.898171749856238932e-01
2.299544945398364071e-01
2.657894382611445394e-01
2.966938030516446112e-01
3.221921909281104668e-01
3.418728140369293733e-01
3.554272963839952837e-01
3.626920587450417344e-01
3.635461414783986989e-01
3.580388392917801532e-01
3.462794772796757847e-01
3.284814816594812115e-01
3.049814396287162666e-01
2.761536293558632948e-01
2.425070261524746584e-01
2.045909387014144265e-01
1.630292333948637484e-01
1.185203337504456833e-01
7.178386725912799804e-02
2.360469100192941205e-02
-2.521665087968094632e-02
-7.386432047854718519e-02
-1.215095651377613439e-01
-1.673339166372349585e-01
-2.105509738797382013e-01
-2.503858088497963319e-01
-2.861368314309089556e-01
-3.171548921923452724e-01
-3.428466057212830598e-01
-3.627545906028390998e-01
-3.764574807001063173e-01
-3.836945180754668949e-01
-3.843019408214153887e-01
-3.782083738332135958e-01
-3.655315352776701276e-01
-3.464340343405979405e-01
-3.212594556525191214e-01
-2.904435081639764604e-01
-2.545051809593310566e-01
-2.141071609238047735e-01
-1.699409082404728100e-01
-1.227967604221105180e-01
-7.350701478620491613e-02
-2.292342931989166388e-02
2.807396423991370682e-02
7.860909896437728861e-02
1.278408603354401762e-01
1.749420584976455473e-01
2.191449808991694503e-01
2.597553318005774159e-01
2.961117134056183708e-01
3.276839089574679065e-01
3.539838996490392020e-01
3.746303093378404725e-01
3.893529839780081048e-01
3.979279172092526906e-01
4.002871206178033603e-01
3.964059433000768351e-01
3.863740465852201211e-01
3.703818575169108840e-01
3.486661209450367949e-01
3.215984119458852319e-01
2.895834425664176592e-01
2.531211837822695543e-01
2.127825552996771563e-01
1.691737050002943832e-01
1.229882122395027366e-01
7.493805611390591537e-02
2.578367521631808046e-02
-2.368408638812180556e-02
-7.266870001274750024e-02
-1.203623086905656336e-01
-1.659597138596957677e-01
-2.086927734573658100e-01
-2.478133584156321234e-01
-2.826222870963421840e-01
-3.125090395652447839e-01
-3.368925683456565068e-01
-3.553372214897176917e-01
-3.674732399907716385e-01
-3.730406099542911136e-01
-3.719465747148840151e-01
-3.641477992732298219e-01
-3.498097433142017820e-01
-3.291776352880413370e-01
-3.026229611812620846e-01
-2.706796862341604992e-01
-2.339247924904297449e-01
-1.930921069678852575e-01
-1.489652578897375790e-01
-1.023885490157399047e-01
-5.427227671429779576e-02
-5.531456669818801686e-03
4.291331125588015993e-02
9.014283592633098863e-02
1.352936225455070307e-01
1.775533854959965296e-01
2.161533627572471694e-01
2.504620894140112686e-01
2.798857860735178837e-01
3.039733568876566427e-01
3.223845817756950116e-01
3.348498610065508974e-01
3.412845081170261530e-01
3.416479216832621901e-01
3.360513743445632251e-01
3.247058028695017917e-01
3.078848844980734967e-01
2.860009260200677694e-01
2.594951615032132786e-01
2.289011642452867257e-01
1.948035315231475550e-01
1.578128825917159972e-01
1.185882684052685931e-01
7.779481349521955025e-02
3.610265414578162080e-02
-5.816061284395601660e-03
-4.730837910741936270e-02
-8.775198515263049615e-02
-1.265375701106723483e-01
-1.631196282026099453e-01
-1.969783784753795786e-01
-2.276465250759365233e-01
-2.547272419126258569e-01
-2.778477754153634294e-01
-2.967328653819585327e-01
-3.111406798324161116e-01
-3.209003977482698389e-01
-3.259217551152264747e-01
-3.261448250394582971e-01
-3.216187746884191512e-01
-3.124251186741968667e-01
-2.987248315111159513e-01
-2.807550761232544545e-01
-2.587848721346706071e-01
-2.331828741487189660e-01
-2.043432466231642763e-01
-1.727243761658385779e-01
-1.388366850234952210e-01
-1.032096667605539864e-01
-6.642310752322089229e-02
-2.906661618129113833e-02
8.259073408421357954e-03
4.494566539492339530e-02
8.039581901140024911e-02
1.140385907913525898e-01
1.453127116452428425e-01
1.737151666593845789e-01
1.987767598779459632e-01
2.200732188774630060e-01
2.372686831257606599e-01
2.500512973278148365e-01
2.582182540726964959e-01
2.616201900854004947e-01
2.601758576053665450e-01
2.539169181996836500e-01
2.429047725656054979e-01
2.273253258712379932e-01
2.074160253371264417e-01
1.834852387993954892e-01
1.559406067120772121e-01
1.252153455212443589e-01
9.183988149264266099e-02
5.637843313063406470e-02
1.943928370610237266e-02
-1.831715776650710836e-02
-5.622157618732437356e-02
-9.357869770224969130e-02
-1.296868043380237090e-01
-1.638603742053108547e-01
-1.954300823446257773e-01
-2.237478756192672336e-01
-2.482403913414144569e-01
-2.683568230192145965e-01
-2.836432900092435982e-01
-2.937278440706498905e-01
-2.982950368604000424e-01
-2.971911742910329224e-01
-2.903042357650740257e-01
-2.776755666399184364e-01
-2.594560570431561075e-01
-2.358687412088471547e-01
-2.073103735407180181e-01
-1.742168123235394717e-01
-1.371562093141971417e-01
-9.677641426220517928e-02
-5.377050245008163643e-02
-8.923204440645093882e-03
3.696580951858763342e-02
8.306693250864327638e-02
1.285357110755036558e-01
1.725468058770402990e-01
2.143083355968116166e-01
2.530459194514129706e-01
2.880824820787779572e-01
3.187835705378567752e-01
3.446025787178044197e-01
3.651212755646113806e-01
3.799635970360419890e-01
3.889333221236093152e-01
3.919006323451803553e-01
3.888593583482844451e-01
3.799559106822982812e-01
3.653850530127940033e-01
3.455215805246893979e-01
3.207965007875515084e-01
2.917449568434165030e-01
2.590106973782937416e-01
2.232680819012742290e-01
1.852887421750182284e-01
1.458688272976260691e-01
1.058294399418002740e-01
6.601367015379366876e-02
2.725288565199690538e-02
-9.660783058642152810e-03
-4.394931725008888179e-02
-7.492598095873148623e-02
-1.019720921955240556e-01
-1.245352002349662257e-01
-1.422312852829357155e-01
-1.547201859513194222e-01
-1.618491705294538008e-01
-1.635835279791244545e-01
-1.599894318606409627e-01
-1.513482006451987161e-01
-1.379904241016447486e-01
-1.204349577825674089e-01
-9.930052639990805119e-02
-7.528042169064264044e-02
-4.920187590888502882e-02
-2.191443516237256972e-02
5.673493832970777362e-03
3.262794628619047899e-02
5.803505092245409003e-02
8.101180942809182994e-02
1.007006788337614367e-01
1.163792281334345979e-01
1.273776371977441979e-01
1.331456326917299648e-01
1.332868288949935476e-01
1.274805767520099664e-01
1.157247276701269811e-01
9.811368298004552457e-02
7.474186552472872336e-02
4.570369814721431112e-02
