BVP Signal
-1.875777213474507515e-02
-7.856567977239832523e-02
-1.262754768072016642e-01
-1.522284803639926409e-01
-1.505331249929832416e-01
-1.200342946465087768e-01
-6.441057633187685649e-02
8.593580136322651053e-03
8.860226167762756677e-02
1.643771327229383572e-01
2.255598887787402529e-01
2.640955723572765979e-01
2.751630486605656789e-01
2.575569561000770058e-01
2.135565945049759939e-01
1.483794231163679811e-01
6.935392148185237637e-02
-1.504298455545277635e-02
-9.615548469047933977e-02
-1.660301395753968068e-01
-2.181448724101207048e-01
-2.479420541978738513e-01
-2.531387937146075684e-01
-2.338112916823859022e-01
-1.922758232321845062e-01
-1.328004014641787633e-01
-6.117706031588540649e-02
1.581456567519703982e-02
9.100370938943230792e-02
1.574193522583331450e-01
2.088197406076680585e-01
2.401396707248574236e-01
2.478667799029700136e-01
2.303640040163908997e-01
1.881352509371146953e-01
1.240009346080509223e-01
4.312385674136487435e-02
-4.718820836767520510e-02
-1.379718388215639968e-01
-2.194230737905807360e-01
-2.820023664597398061e-01
-3.177025348975168750e-01
-3.212737388259652715e-01
-2.911637940000479374e-01
-2.299533834197104443e-01
-1.441437383064324007e-01
-4.328358132158743876e-02
6.141858502446179147e-02
1.587115953386102896e-01
2.388057276559888698e-01
2.944759055805762915e-01
3.216147762363186779e-01
3.192452621401959401e-01
2.891239388682367295e-01
2.351262022288338471e-01
1.626029860750279332e-01
7.784724621936023325e-02
-1.227891349245702202e-02
-1.006020542014152835e-01
-1.798921351372151090e-01
-2.432310965155620730e-01
-2.845549319291728052e-01
-2.993376615172848032e-01
-2.852967859171890996e-01
-2.429442551488130153e-01
-1.758086871713171462e-01
-9.022224891381794287e-02
5.322057030911625519e-03
1.011276018986136394e-01
1.873891516681041591e-01
2.552501390772398682e-01
2.976936307324287712e-01
3.101994131588087789e-01
2.911473843617818913e-01
2.419718753115352450e-01
1.670775855699769274e-01
7.352409578245985844e-02
-2.952134495515795071e-02
-1.315657331716484635e-01
-2.217944786165935711e-01
-2.902416196676430582e-01
-3.290051875660879865e-01
-3.333275728736045385e-01
-3.023368435909705720e-01
-2.392746783418379097e-01
-1.511224426369402185e-01
-4.766413499911253959e-02
5.984212074527331393e-02
1.601224224464239398e-01
2.432040495122026469e-01
3.013920527843819697e-01
3.298236356897573107e-01
3.266279366940161855e-01
2.927845867347418363e-01
2.317922910717963303e-01
1.492435624952359319e-01
5.236718304439852423e-02
-5.044595520505573694e-02
-1.501624095241556600e-01
-2.377204728825118574e-01
-3.047668775515280926e-01
-3.444843625627634909e-01
-3.524091714716540147e-01
-3.270891772683567345e-01
-2.704255349516080376e-01
-1.875818177255127450e-01
-8.643273848706140017e-02
2.336166272811102118e-02
1.314752622501033641e-01
2.280147359686579556e-01
3.044266967226142429e-01
3.541324357698912850e-01
3.729015544010103045e-01
3.590297511496822747e-01
3.133905404629220848e-01
2.394003962188829271e-01
1.428943155643873641e-01
3.187025249896974222e-02
-8.396199144438135087e-02
-1.938850304161814087e-01
-2.871424957117134635e-01
-3.541059552491402918e-01
-3.874939025027293593e-01
-3.834406809485143564e-01
-3.421958811860478789e-01
-2.682652164320091792e-01
-1.698928211458114457e-01
-5.792814756553354982e-02
5.572087163972123947e-02
1.597358207003126418e-01
2.448073931402107162e-01
3.045749273378471900e-01
3.359701337222961715e-01
3.389949643245446786e-01
3.160810780893008598e-01
2.712472050208039054e-01
2.092830918902510717e-01
1.351442068088845594e-01
5.365126446066455224e-02
-3.052012318550462872e-02
-1.126685355400573740e-01
-1.878786197181946394e-01
-2.509850624518727980e-01
-2.968108925457572100e-01
-3.207090588265620323e-01
-3.193192323298870705e-01
-2.913508081038304054e-01
-2.381596830819085187e-01
-1.639223194114663718e-01
-7.531514156709387398e-02
1.925850962039624137e-02
1.107354464047293763e-01
1.905317442530503613e-01
2.515339440392651560e-01
2.887834860685670746e-01
2.997916956636432761e-01
2.845176353801240343e-01
2.451029145552565680e-01
1.854752353208368176e-01
1.109154033637221315e-01
2.764567448393066840e-02
-5.754778388006437373e-02
-1.376872646185610394e-01
-2.060215842934381425e-01
-2.565274729978667123e-01
-2.844832777584420103e-01
-2.870402070743474088e-01
-2.636680992265717505e-01
-2.163446889895149217e-01
-1.493983198831203285e-01
-6.899505143601818158e-02
1.764210460670610769e-02
1.031163465752792940e-01
1.806523130493100648e-01
2.446548495948740465e-01
2.909723548384005598e-01
3.169010681870417789e-01
3.210296795426309524e-01
3.030417396871365465e-01
2.635767708986803126e-01
2.042134702788134248e-01
1.275857336293215183e-01
3.757955680309901791e-02
-6.049781523848109244e-02
-1.599119727305162719e-01
-2.527754516371990556e-01
-3.306577754860633434e-01
-3.855015108876921337e-01
-4.107230862005133432e-01
-4.022987672811910720e-01
-3.595938571075623091e-01
-2.857134114450105566e-01
-1.872484298276795300e-01
-7.344082607458836398e-02
4.506143190581295838e-02
1.575962430647626089e-01
2.547514643806034762e-01
3.292825637122898108e-01
3.765668947058395388e-01
3.945993525077225450e-01
3.836445457434010664e-01
3.457267623557567782e-01
2.841419461631037313e-01
2.031211484283358681e-01
1.076883289033309932e-01
3.667789925718006883e-03
-1.022704421621317972e-01
-2.026733692561379363e-01
-2.896124029665295141e-01
-3.553085354148344255e-01
-3.930394411024893397e-01
-3.981726068464814805e-01
-3.690838397451557396e-01
-3.077055173273147703e-01
-2.195149452703388515e-01
-1.129073250024435204e-01
1.936843220605805049e-03
1.144391527797944397e-01
2.149521753889898634e-01
2.957570861338848500e-01
3.515808998280164355e-01
3.796369302055169204e-01
3.793165683379367548e-01
3.517235183700128109e-01
2.992398442545629589e-01
2.252597372837945588e-01
1.341388568687086891e-01
3.130531814815082359e-02
-7.660736596679784682e-02
-1.817823425756150968e-01
-2.755457448707251955e-01
-3.490644911287636987e-01
-3.943724126595115620e-01
-4.055680772766261377e-01
-3.799361772754060729e-01
-3.187080580372707583e-01
-2.272277140565043818e-01
-1.144297548521912428e-01
8.281313749195995388e-03
1.285120302732141728e-01
2.344220334037756537e-01
3.160582445497157056e-01
3.663008643313701018e-01
3.813529080982169805e-01
3.608102796546042157e-01
3.074193929719364893e-01
2.266458941572506158e-01
1.261463108485319506e-01
1.518071832930931175e-02
-9.604081533193320475e-02
-1.971030526189221921e-01
-2.782334143061303555e-01
-3.312265711075367824e-01
-3.503671952694452085e-01
-3.332195897420565101e-01
-2.811214486928311773e-01
-1.992350372585686424e-01
-9.608618647184853645e-02
1.736153554650092523e-02
1.289456015341850226e-01
2.266577583344492330e-01
2.999297742406472067e-01
3.407213093043086616e-01
3.443344514509740217e-01
3.099189328947783983e-01
2.406479591393579365e-01
1.435398620326954755e-01
2.889363218127380395e-02
-9.067803905612138726e-02
-2.015837286445987253e-01
-2.908458838059200247e-01
-3.477643628444687662e-01
-3.654113067492163469e-01
-3.417029601060289079e-01
-2.798243473404150583e-01
-1.878624711645346945e-01
-7.763561633345211765e-02
3.712069270852574876e-02
1.428792752891047402e-01
2.283258711028465504e-01
2.858324380260063857e-01
3.121302905379452208e-01
3.081213797437665214e-01
2.779744287691253701e-01
2.278095692546725504e-01
1.643420439076195283e-01
9.381457970802153934e-02
2.141543668775347520e-02
-4.879476218135975207e-02
-1.135780711784179359e-01
-1.700576045112757451e-01
-2.153364287970552793e-01
-2.463830109281985314e-01
-2.602669539295445755e-01
-2.546983193447671656e-01
-2.287028236454875518e-01
-1.831996897815876268e-01
-1.212694744991372753e-01
-4.799807849403467386e-02
3.008372678275696849e-02
1.058317493347707278e-01
1.723959652134750553e-01
2.240091573680140780e-01
2.565152347666282417e-01
2.675861250738100772e-01
2.566720891899336165e-01
2.247947557691896137e-01
1.743033721110795464e-01
1.086797547252842389e-01
3.242016841540422412e-02
-4.903689765197657979e-02
-1.294175186703002689e-01
-2.018601429295172889e-01
-2.593944172359421985e-01
-2.956717557616663772e-01
-3.058626888743256056e-01
-2.875370000222288169e-01
-2.412977145323787764e-01
-1.709738658400876410e-01
-8.327946989899018271e-02
1.301973734795199705e-02
1.082688303873448610e-01
1.931784976245410346e-01
2.599272594086717847e-01
3.029258158153940728e-01
3.191646148161247365e-01
3.081785987248092384e-01
2.717421045786907463e-01
2.134341801003713790e-01
1.381965197921783961e-01
5.195790866340516123e-02
-3.866490225310602324e-02
-1.266407928162987528e-01
-2.048558785490015577e-01
-2.665721938604457830e-01
-3.060243665198902896e-01
-3.190892100240323437e-01
-3.039008066742056036e-01
-2.612574586315204450e-01
-1.946891535575186183e-01
-1.101270348432842883e-01
-1.522251888105069506e-02
8.153808083994928957e-02
1.717338760389791052e-01
2.477653025512908669e-01
3.033871236284270134e-01
3.340248306342075146e-01
3.369335988595392739e-01
3.112731372500213700e-01
2.581580577010615385e-01
1.807099458126165681e-01
8.408788506782988170e-02
-2.457770649665894092e-02
-1.364513677968082206e-01
-2.415466022462303131e-01
-3.295959844995086652e-01
-3.911808349033129018e-01
-4.189742891869819852e-01
-4.088778729611072249e-01
-3.607997659960517356e-01
-2.788612200418592035e-01
-1.709356765405225242e-01
-4.759165238029995637e-02
7.933856222736554442e-02
1.982641294016210809e-01
2.991272891000343326e-01
3.742793259011440998e-01
4.188636703668219274e-01
4.307577475931589350e-01
4.102241589468951233e-01
3.594642730762478422e-01
2.822426686407569774e-01
1.836715935041518810e-01
7.014366793736959149e-02
-5.068487451885334005e-02
-1.700056514470252300e-01
-2.782091189122346542e-01
-3.655684320332979187e-01
-4.232516355292881283e-01
-4.445335212553833681e-01
-4.259667413309040640e-01
-3.682196205898260466e-01
-2.763291572917757621e-01
-1.592488397626733443e-01
-2.874772859855412310e-02
1.021240918731194380e-01
2.206984961765321440e-01
3.161726471345674971e-01
3.806791678937735401e-01
4.098326295484046033e-01
4.027707204003251329e-01
3.618013540332846723e-01
2.918046117195570721e-01
1.995315052514682330e-01
9.291239367556081152e-02
-1.955149820471047128e-02
-1.292880815901508162e-01
-2.280708520840793452e-01
-3.084121974674601252e-01
-3.639973166912274793e-01
-3.901874903644523829e-01
-3.845567097672448198e-01
-3.473536600265876295e-01
-2.817334596576698269e-01
-1.936116499257994061e-01
-9.107203080860690192e-02
1.660837509011640900e-02
1.201245765430036527e-01
2.112419122402136307e-01
2.835991259156936950e-01
3.330902176228804912e-01
3.578271678402076272e-01
3.577939768874099369e-01
3.343628598224238635e-01
2.898468149541091332e-01
2.272150567745171990e-01
1.500163288388421945e-01
6.246656036995121286e-02
-3.040916220770854828e-02
-1.227157486727646213e-01
-2.078273641727243770e-01
-2.787988020276825352e-01
-3.290526692480645332e-01
-3.532606952683631785e-01
-3.482495072949373105e-01
-3.137060314894822288e-01
-2.524745182639205332e-01
-1.703350636034232091e-01
-7.529552540680115036e-02
2.344564893968452413e-02
1.166436541883822120e-01
1.960423715085277130e-01
2.551441864052945707e-01
2.896482045297159580e-01
2.975796634771460392e-01
2.791925702413349253e-01
2.367429501490784516e-01
1.742097736016798293e-01
9.700359515874906746e-02
1.166496367435092274e-02
-7.447561421207785082e-02
-1.537218127482335162e-01
-2.185628290290873854e-01
-2.623629716521122535e-01
-2.801384152324320476e-01
-2.692988886410764282e-01
-2.301879335371397328e-01
-1.662656361426639862e-01
-8.384432999059922287e-02
8.611209281735449084e-03
1.015057246701439597e-01
1.852737132649021068e-01
2.514752182068957786e-01
2.936600751918783114e-01
3.079074555002294655e-01
2.930303287470127360e-01
2.504969567722741819e-01
1.841495527147162525e-01
9.979776186457425813e-02
4.743606474412020990e-03
-9.273562151489739280e-02
-1.839513138389787805e-01
-2.604378269572418247e-01
-3.146703441523444056e-01
-3.408360274697217474e-01
-3.355684307302785330e-01
-2.985098092619570265e-01
-2.325604483562628277e-01
-1.437167286962083013e-01
-4.048097568192721152e-02
6.707786242625995987e-02
1.684560509765398173e-01
2.538520757965004870e-01
3.151461954592518211e-01
3.466234641918307657e-01
3.454114424242633041e-01
3.116516248184826865e-01
2.484389262196186055e-01
1.615573558015180322e-01
5.902941946674342133e-02
-4.950981723428962700e-02
-1.536043027570796748e-01
-2.429150747963643442e-01
-3.082569320217351527e-01
-3.426389264553339475e-01
-3.421672684794941355e-01
-3.066480198749954589e-01
-2.397479029228171132e-01
-1.486377703435308173e-01
-4.314364829972422433e-02
6.546262327065760500e-02
1.658242640057876471e-01
2.477847537273078771e-01
3.034148081052697177e-01
3.276838259975703438e-01
3.187660281205695889e-01
2.780289026755821125e-01
2.097711356839686569e-01
1.207725614991285862e-01
1.970429356440841356e-02
-8.357213450480381611e-02
-1.788068744683161126e-01
-2.562595027741235709e-01
-3.076618133598337246e-01
-3.271642439384495060e-01
-3.121315254411403117e-01
-2.636292989315535684e-01
-1.864698719134436911e-01
-8.876089959116507944e-02
1.899850909632297760e-02
1.251387300164545635e-01
2.181683783631453988e-01
2.880562439458668189e-01
3.272895317491943956e-01
3.316136314167769106e-01
3.004182045900246623e-01
2.367715142977023235e-01
1.471202518298940221e-01
4.068125907934386221e-02
-7.143411894085688330e-02
-1.773043619285230021e-01
-2.654147204352420575e-01
-3.259098081623340581e-01
-3.517545091106799582e-01
-3.396445042776298218e-01
-2.905010756938672389e-01
-2.094277812956322760e-01
-1.051004135326975286e-01
1.132174288589871125e-02
1.275773897046550420e-01
2.317432855837243677e-01
3.135094173257273464e-01
3.651268792427273535e-01
3.819584739412626995e-01
3.626562834864763829e-01
3.090528757834086759e-01
2.258646450866085842e-01
1.202765047918940011e-01
1.434066406598488719e-03
-1.201649288612436361e-01
-2.334055951652588279e-01
-3.274397154171826418e-01
-3.927083402274331725e-01
-4.220281485836003821e-01
-4.115882011821154207e-01
-3.616518134450506516e-01
-2.767694163967543419e-01
-1.653921982096928089e-01
-3.890881061894657655e-02
8.973888508139982179e-02
2.076169059724334298e-01
3.032744484454380496e-01
3.679190575228367122e-01
3.961698033324415613e-01
3.863674015615383150e-01
3.404926027590248760e-01
2.637727629401781515e-01
1.640554024683741619e-01
5.102016410608688213e-02
-6.470401466640168797e-02
-1.724559842393160181e-01
-2.624423151519080233e-01
-3.265718498992682961e-01
-3.591669334920648549e-01
-3.574785070798663922e-01
-3.219307322594260889e-01
-2.560465876094611404e-01
-1.660575681515053803e-01
-6.026065436415760368e-02
5.177185000863249176e-02
1.600178785024920503e-01
2.547842972639581816e-01
3.274048565538243416e-01
3.708683337865620322e-01
3.804057855890664586e-01
3.540414870466729869e-01
2.930538882763082942e-01
2.022346704710469290e-01
8.981117910052568987e-02
-3.307650653045390854e-02
-1.533861444734555546e-01
-2.576218122892739437e-01
-3.335663782701510094e-01
-3.720447016404939689e-01
-3.683981893247445516e-01
-3.233524745262087996e-01
-2.430486717851526590e-01
-1.381749940547377931e-01
-2.233787474983028876e-02
9.001033749279424567e-02
1.856732986845672229e-01
2.544427023055358394e-01
2.901780586002093432e-01
2.911303575063335924e-01
2.595866579325619705e-01
2.010409291850049907e-01
1.231430069901491009e-01
3.464881393166588386e-02
-5.547931068431033452e-02
-1.387626956819822399e-01
-2.077092040106450488e-01
-2.562044123712733934e-01
-2.798705717548219951e-01
-2.764229672902524526e-01
-2.459753732370980606e-01
-1.911870471805688920e-01
-1.171410993494588215e-01
-3.090200947834120804e-02
5.921188476315975002e-02
1.445283903667350378e-01
2.169432060283913166e-01
2.697193198591230079e-01
2.980648213607796082e-01
2.994565051876779682e-01
2.737383543626676907e-01
2.230549258551357550e-01
1.516721549314972162e-01
6.570617636308528908e-02
-2.725305742446640367e-02
-1.186550537470303646e-01
-1.996654721041825620e-01
-2.620013285570222950e-01
-2.988640342493442681e-01
-3.058423316553149363e-01
-2.816080459255373425e-01
-2.282313833311389040e-01
-1.510131858387395165e-01
-5.784691975254818708e-02
4.176295287232040243e-02
1.378303059898056127e-01
2.209633768659555741e-01
2.832381344582508564e-01
3.188026435968239758e-01
3.242275725440006973e-01
2.986666817775168736e-01
2.438906911298864832e-01
1.642191433636402964e-01
6.632887970566279934e-02
-4.110888045442895322e-02
-1.480112456672068033e-01
-2.437120335393875292e-01
-3.180162583694935430e-01
-3.623934272277244961e-01
-3.711467690344909531e-01
-3.423424078229581058e-01
-2.782850723469072474e-01
-1.854002980685739987e-01
-7.350896608270016119e-02
4.538681990289999968e-02
1.585930664542237745e-01
2.542419839986187480e-01
3.226172652069019264e-01
3.571300314631338235e-01
3.548715755624296531e-01
3.167442836201339040e-01
2.472205642686784721e-01
1.537991812938629410e-01
4.623152664408775037e-02
-6.441288035125558586e-02
-1.667806544497318910e-01
-2.503164655617127199e-01
-3.063352866906068339e-01
-3.289963262116579745e-01
-3.160442262623314735e-01
-2.691599444361248983e-01
-1.938012567995363034e-01
-9.851727098427109919e-02
6.146863038209215979e-03
1.089427019519791928e-01
1.991774873712699456e-01
2.677615256916437425e-01
3.079553328320105976e-01
3.158147784047571904e-01
2.903910720398358847e-01
2.337580160421928177e-01
1.509099316850425754e-01
4.951849817778460755e-02
-6.051034855886913699e-02
-1.677482268217765637e-01
-2.602595727822549221e-01
-3.268875734749736583e-01
-3.586905805261809133e-01
-3.503188937939355485e-01
-3.010606100410054831e-01
-2.152931102424858190e-01
-1.021761020155022293e-01
2.541013686279043615e-02
1.525062696720244082e-01
2.640104449896991667e-01
3.466016345959173073e-01
3.903843253935402879e-01
3.900634208153724858e-01
3.455399216270236273e-01
2.618954589087270080e-01
1.487976048084759806e-01
1.940116811411268793e-02
-1.111504940128725111e-01
-2.274887759833715550e-01
-3.158701620087103201e-01
-3.658951456563013793e-01
-3.718604781073845955e-01
-3.335329119478254167e-01
-2.561992410733942571e-01
-1.499522208586589467e-01
-2.830369908488569730e-02
9.365166291498729090e-02
2.012109317477012993e-01
2.818595668590262449e-01
3.266523209525788451e-01
3.310606065814888921e-01
2.952760884976980971e-01
2.240223444449533641e-01
1.259458833319523074e-01
1.265870559403727696e-02
-1.024935437087569345e-01
-2.058556268474915352e-01
-2.849797024816655422e-01
-3.301034753705153757e-01
-3.354137576087511952e-01
-2.998913466134707773e-01
-2.275565390933716181e-01
-1.270251163656915261e-01
-1.041974903707063721e-02
1.081878037674164905e-01
2.145482866387795062e-01
2.959539645563640242e-01
3.426876543665840491e-01
3.490666839422043588e-01
3.140277777004587545e-01
2.412493087402458880e-01
1.388205055536241295e-01
1.846433544032646812e-02
-1.056662859084907119e-01
-2.185546224043850017e-01
-3.061179166153504272e-01
-3.570401552561342506e-01
-3.643928478239403801e-01
-3.267724628548357990e-01
-2.487032500879358676e-01
-1.401447757060451937e-01
-1.511034983686872224e-02
1.103948879990210852e-01
2.207425200092442696e-01
3.029146173376521811e-01
3.482042436088794157e-01
3.531136822941701725e-01
3.193605990492985880e-01
2.530910161422950111e-01
1.635506276517221524e-01
6.154170138574743820e-02
-4.202571969139556884e-02
-1.372755905886846872e-01
-2.161171396988711135e-01
-2.726351040576688867e-01
-3.032141020052994129e-01
-3.065057484716552372e-01
-2.833181182485255412e-01
-2.364521098508013119e-01
-1.704552603217096840e-01
-9.124640869428835011e-02
-5.602284121659764637e-03
7.943644273544861467e-02
1.571399352532641958e-01
2.215578474620299443e-01
2.678470937536622243e-01
2.924776561714009793e-01
2.933647204434521316e-01
2.699763934340870253e-01
2.234450273258635766e-01
1.566733700554185649e-01
7.438381802836049883e-02
-1.697246214422802602e-02
-1.095301720784629673e-01
-1.945949011910255710e-01
-2.634838795386699184e-01
-3.085418503358504094e-01
-3.241922544462561007e-01
-3.078388873817636262e-01
-2.604196427943947789e-01
-1.864572604896325425e-01
-9.356004916589298614e-02
8.534837111199053417e-03
1.091743424586425482e-01
1.980272630733705963e-01
2.661624651695205790e-01
3.068667939709309733e-01
3.161781184103569231e-01
2.931557140206451639e-01
2.399250983999659526e-01
1.615231821682975022e-01
6.554374749587307813e-02
-3.843742679345632518e-02
-1.396740231443775460e-01
-2.272782067247844373e-01
-2.913940937437485834e-01
-3.243872435825811973e-01
-3.218784273658834572e-01
-2.834318782003724668e-01
-2.127358141982016448e-01
-1.172016774841541653e-01
-7.042260261791270792e-03
1.059872284851702540e-01
2.099471555894313890e-01
2.939654131157160011e-01
3.492607520460384030e-01
3.698930678019438645e-01
3.532406479710192837e-01
3.002174818916202303e-01
2.152399858935168941e-01
1.059421929905657866e-01
-1.737266282531024775e-02
-1.425589144366462002e-01
-2.567287354587387549e-01
-3.475722380007773560e-01
-4.047762718941156912e-01
-4.213583963180229652e-01
-3.946973403831377514e-01
-3.270484536302602496e-01
-2.253951306853086978e-01
-1.006101770867336986e-01
3.394079277053224653e-02
1.640905529253651185e-01
2.765482796608438321e-01
3.603083477232505993e-01
4.076392682502342213e-01
4.146101656138949654e-01
3.811952672518205132e-01
3.110464059643840429e-01
2.110354231379386603e-01
9.064359747014322233e-02
-3.877131668581139390e-02
-1.648405291543244555e-01
-2.752005518594674571e-01
-3.586447110564939811e-01
-4.063289367874610147e-01
-4.128807073543815376e-01
-3.772133401706000977e-01
-3.028494071490334671e-01
-1.976242622244209490e-01
-7.276978578423531907e-02
5.847144236899562419e-02
1.824456049445342953e-01
2.866282218674836568e-01
3.608972956079072314e-01
3.984274490251449863e-01
3.961778371708487012e-01
3.550001312871126080e-01
2.794196406621338724e-01
1.771507084372813123e-01
5.839998620081821024e-02
-6.500719577511622493e-02
-1.806566848570036188e-01
-2.767025646345288026e-01
-3.430841243383926376e-01
-3.726810644186037136e-01
-3.622414787331815766e-01
-3.129084159670792453e-01
-2.302105828633213558e-01
-1.234709698981030779e-01
-4.704741338646289961e-03
1.128158202964315571e-01
2.160993454217562948e-01
2.938637396856969564e-01
3.377058701321702383e-01
3.429320817554382672e-01
3.090134852449736291e-01
2.396496122192717237e-01
1.424361036714874296e-01
2.814916043824994274e-02
-9.031832134002426571e-02
-1.993073072859865569e-01
-2.859301276093672017e-01
-3.396415421019403080e-01
-3.536346856914056591e-01
-3.258269437643248612e-01
-2.592331930801476947e-01
-1.616232114761108063e-01
-4.450350068505184997e-02
7.839615406071208381e-02
1.928637854369516513e-01
2.858970490502191764e-01
3.471272407255155956e-01
3.698487252265578729e-01
3.516119371092172319e-01
2.943885003038562154e-01
2.043305672642068416e-01
9.114542045587664676e-02
-3.288329419256470765e-02
-1.541660377140496307e-01
-2.592675216559734985e-01
-3.364171030664923623e-01
-3.769009399604787425e-01
-3.761505344865254119e-01
-3.343505614573719087e-01
-2.564391281576950954e-01
-1.514690879911182453e-01
-3.141924540766882767e-02
9.034842353250238656e-02
2.007302558356243161e-01
2.883688085304991766e-01
3.447911733250876853e-01
3.650914543145131752e-01
3.481506647113703501e-01
2.964681063539362782e-01
2.157150129648581771e-01
1.141090727953052997e-01
1.669625781641995155e-03
-1.106204752843013978e-01
-2.117318667698818713e-01
-2.915606175630986452e-01
-3.419068155695244027e-01
-3.573747822042605549e-01
-3.360691504650726857e-01
-2.799412690420779448e-01
-1.946726239249114143e-01
-8.907266213698700197e-02
2.591785767436510790e-02
1.384453658660663722e-01
2.369943563769829620e-01
3.115192165671517577e-01
3.543657061426279675e-01
3.609449534401080184e-01
3.301563947861541060e-01
2.645626783154704231e-01
1.703019218933330414e-01
5.669789329792584986e-02
-6.447680546157541492e-02
-1.800966041661344885e-01
-2.770819411489506834e-01
-3.439646965283160718e-01
-3.724143071642258551e-01
-3.584777664484601889e-01
-3.032893121476067932e-01
-2.130704261673042055e-01
-9.837271192505991912e-02
2.731635180410074693e-02
1.493455333250630068e-01
2.537359335267002081e-01
3.288063099956666790e-01
3.664067700633548141e-01
3.626768170413149361e-01
3.183146425030077831e-01
2.383881259076047199e-01
1.317430611627178338e-01
1.007670715289643582e-02
-1.132504798030202764e-01
-2.245864525504155385e-01
-3.114471268914482671e-01
-3.639371638269606191e-01
-3.759692708849726728e-01
-3.460974107393437471e-01
-2.777923464074283366e-01
-1.790537212536569278e-01
-6.137417415864954151e-02
6.178161864171771711e-02
1.767051412456721593e-01
2.710718948134620554e-01
3.352269589816083695e-01
3.630094152085674430e-01
3.521178651623428912e-01
3.040932685659778478e-01
2.240124047945490915e-01
1.199643508643277734e-01
2.349415780457775327e-03
-1.169866336256966122e-01
-2.257790576758527124e-01
-3.125088876549703132e-01
-3.676341744156365610e-01
-3.847492947031254662e-01
-3.614813009890707196e-01
-2.999277110523300705e-01
-2.065006088633545289e-01
-9.115818012661414116e-02
3.385764584961092893e-02
1.555474832054817291e-01
2.616696148699406699e-01
3.420045225737782246e-01
3.892288051069545673e-01
3.993778547647597321e-01
3.719648048052288658e-01
3.098515113928774767e-01
2.189450258669838334e-01
1.077505550028643455e-01
-1.322656775606478874e-02
-1.322595095360084017e-01
-2.373835801946233559e-01
-3.175678600015752195e-01
-3.639854157103616927e-01
-3.712132911705463556e-01
-3.381398469052632194e-01
-2.683573438687929524e-01
-1.698860582705039590e-01
-5.420670772332059073e-02
6.526151554945291977e-02
1.749639718984288272e-01
2.629622197529544181e-01
3.203388873145777138e-01
3.420695537238942485e-01
3.273064329945056805e-01
2.791245571813281146e-01
2.038434839884679661e-01
1.100677538981864600e-01
7.603208608312428396e-03
-9.359755207119402343e-02
-1.843386810930063291e-01
-2.568678162810442700e-01
-3.053425126870870088e-01
-3.261189219654898608e-01
-3.179189496965069139e-01
-2.819077283706423742e-01
-2.216632051453597541e-01
-1.429773872360318165e-01
-5.342969509724149191e-02
3.827630353474376079e-02
1.231500999720260836e-01
1.928113684610845979e-01
2.403246372500547068e-01
2.608788793851051224e-01
2.522625339006623335e-01
2.151151999676290671e-01
1.529470640836478879e-01
7.191700135278189521e-02
-1.963522556405017383e-02
-1.118944361011768862e-01
-1.944874563190626127e-01
-2.575630256922027406e-01
-2.929469688817603057e-01
-2.952354617040846563e-01
-2.626493473033972847e-01
-1.974728826250995439e-01
-1.059550972905984878e-01
2.351164043826514671e-03
1.157289732573225649e-01
2.217450655127244374e-01
3.087896033501635884e-01
3.674922800650328725e-01
3.918365364917733018e-01
3.798531318947411251e-01
3.338365022716800468e-01
2.600764728477784615e-01
1.681320270075801204e-01
6.970423239422274264e-02
-2.279678415793995327e-02
-9.785135442419345964e-02
-1.464155163016442884e-01
-1.632820119575129070e-01
-1.479960329279954578e-01
-1.051249304997803335e-01
-4.375302285503934741e-02
2.379606223781571828e-02
8.384320247934251569e-02
1.235366457428527243e-01
1.329574069993970653e-01
1.067839278816897775e-01
4.523171341899967501e-02
