BVP Signal
-1.877023874897865152e-02
-4.057891769199076237e-02
-6.669374234163148729e-02
-9.148537201191422885e-02
-1.117920611002602982e-01
-1.273087421566039545e-01
-1.400063435016104529e-01
-1.496669930047060948e-01
-1.550502517830314453e-01
-1.551231364502132226e-01
-1.496353568875140316e-01
-1.397939769095950802e-01
-1.257501321302449682e-01
-1.074613109990590898e-01
-8.503455135808121734e-02
-5.895818819139889144e-02
-3.028910925346578464e-02
2.657643156709077470e-04
3.220324358552743849e-02
6.486004606801047678e-02
9.737189098390354458e-02
1.290247757076640189e-01
1.588739418522286950e-01
1.865186617555975312e-01
2.112838691138037295e-01
2.324873405518023128e-01
2.499551741598664556e-01
2.629359740430697312e-01
2.716013474442875997e-01
2.754632122617520218e-01
2.744954506046844434e-01
2.689633725837764500e-01
2.585422296146857590e-01
2.440528441510098068e-01
2.252760556709503259e-01
2.027734284972246837e-01
1.770689965980801750e-01
1.483461561627864578e-01
1.175760092864909789e-01
8.493731026348894098e-02
5.115237091994762064e-02
1.682925400208196143e-02
-1.750456703598909924e-02
-5.126813388020974582e-02
-8.382501718919022071e-02
-1.147920355516895696e-01
-1.435724014095519641e-01
-1.696412398358675411e-01
-1.929534231307566960e-01
-2.126616722280156857e-01
-2.289662249730901600e-01
-2.413450639724232794e-01
-2.495768585683181273e-01
-2.540452691266309460e-01
-2.540286021184209320e-01
-2.502415799323435275e-01
-2.423297393972158043e-01
-2.304810502104098768e-01
-2.152864592137589961e-01
-1.964260369482624391e-01
-1.748078762474275516e-01
-1.503796287001106791e-01
-1.236171694782821073e-01
-9.511802305462097040e-02
-6.507401587620267880e-02
-3.416909957946927950e-02
-2.776315837709583678e-03
2.862052764010020178e-02
5.953699690014069290e-02
8.936524636755377449e-02
1.179815966450644127e-01
1.445612258681621132e-01
1.689076047648276901e-01
1.906803560665975006e-01
2.091117770372608042e-01
2.247108286426227064e-01
2.363607005006699291e-01
2.443021597512355925e-01
2.483341160792147395e-01
2.479001791500523577e-01
2.437962183746100742e-01
2.351284839383431802e-01
2.224774917762694093e-01
2.058393269891471977e-01
1.851267813990238875e-01
1.611530229995267738e-01
1.336523104207469337e-01
1.033423955376636949e-01
7.054918356012909730e-02
3.569233937349226837e-02
-5.510529757172671905e-04
-3.766895036137901664e-02
-7.508834710083822639e-02
-1.120746020296201073e-01
-1.479518824693567824e-01
-1.822578434724293484e-01
-2.139454941506506724e-01
-2.428899852663036207e-01
-2.680924556548339166e-01
-2.890794654974053746e-01
-3.057024037828495189e-01
-3.169340072206852654e-01
-3.233026903995988577e-01
-3.239236152276398495e-01
-3.189227578564092225e-01
-3.085683986503772180e-01
-2.923913090587573205e-01
-2.714975380144073469e-01
-2.455134679757522420e-01
-2.151827023581043274e-01
-1.811676212800670815e-01
-1.437288956062467427e-01
-1.040818576257725447e-01
-6.254535870175728651e-02
-2.001508397209278423e-02
2.266804049607451521e-02
6.482470148536466359e-02
1.057297392093802108e-01
1.445390094935672942e-01
1.808408357327732641e-01
2.138812001484011738e-01
2.431009984135626412e-01
2.684995434747183829e-01
2.891298855006239621e-01
3.053644831593432252e-01
3.166565080556061340e-01
3.228884155979436232e-01
3.246250780856337892e-01
3.211279824226484503e-01
3.133697580739949196e-01
3.010134971027867423e-01
2.843607408579696960e-01
2.641740804437193724e-01
2.400983208421055837e-01
2.132185088111435145e-01
1.834685933112766287e-01
1.513356531320178000e-01
1.175115388513831571e-01
8.211205814462457786e-02
4.586727401750675948e-02
9.159538745919765246e-03
-2.759971611081550591e-02
-6.382925859123403378e-02
-9.896515311902562284e-02
-1.328807915277398777e-01
-1.646265706607303314e-01
-1.940794370140012659e-01
-2.207244526756115266e-01
-2.437838706202651307e-01
-2.637295051122777179e-01
-2.792666077960549442e-01
-2.907020823496645479e-01
-2.976552734528651323e-01
-2.995772046632977359e-01
-2.972642991490372921e-01
-2.897166537675206488e-01
-2.776381453190491788e-01
-2.609599044395106704e-01
-2.396715679634983109e-01
-2.146929095649519059e-01
-1.857514908525245145e-01
-1.537339524999530860e-01
-1.190026648122191888e-01
-8.205168820323849310e-02
-4.369219419574285612e-02
-4.425249979142148460e-03
3.508866586904339085e-02
7.409626539368584230e-02
1.119616301103620315e-01
1.481858265286906673e-01
1.817987359196140129e-01
2.127466151060924404e-01
2.400437972416760712e-01
2.633490355711866626e-01
2.825403997066011641e-01
2.966361264568699863e-01
3.062910336879544060e-01
3.105295750612460659e-01
3.095558318043517554e-01
3.035657554678158343e-01
2.919914833449221980e-01
2.759519046052782976e-01
2.548166217294439151e-01
2.292781389019794003e-01
1.997806249146452384e-01
1.664239002122021027e-01
1.302924226833399035e-01
9.148332364097130909e-02
5.082962009836969330e-02
8.996170391744412465e-03
-3.333340063107714801e-02
-7.549660869660712592e-02
-1.166012819208324114e-01
-1.561175652174307538e-01
-1.932238022334845096e-01
-2.270903973524713015e-01
-2.575786417215285562e-01
-2.834451375727179978e-01
-3.047949998752182976e-01
-3.208535873028175445e-01
-3.311828360635207247e-01
-3.361617883132387852e-01
-3.348217772819825910e-01
-3.279834075339590482e-01
-3.152138732209436300e-01
-2.967674810316077161e-01
-2.734188445855339489e-01
-2.449129668567022744e-01
-2.124786726310391727e-01
-1.762271706516934378e-01
-1.369333689989583880e-01
-9.550709017823158509e-02
-5.241128519605880998e-02
-8.665877507915920042e-03
3.507515247850878648e-02
7.806386508166157645e-02
1.195483901475786204e-01
1.586958830461623338e-01
1.952739779961050193e-01
2.282250467991066567e-01
2.573604982965309595e-01
2.822334320443258271e-01
3.020779000497901823e-01
3.175511779386276934e-01
3.274662922570096835e-01
3.323463803533506788e-01
3.320295913543387378e-01
3.261507836887083678e-01
3.158006756176102714e-01
3.001211225789314208e-01
2.800636260908457853e-01
2.557164760151405258e-01
2.271906272027613971e-01
1.955629598970659022e-01
1.605981444846650286e-01
1.232421603080532529e-01
8.389058981044070218e-02
4.299602542988617548e-02
1.363614628014653274e-03
-4.053454936163636280e-02
-8.214934904077730859e-02
-1.226960970005168128e-01
-1.616589716747851568e-01
-1.985640825624636618e-01
-2.324333201465494381e-01
-2.633572476662632278e-01
-2.902362892136832739e-01
-3.128303678366309848e-01
-3.310026178430586219e-01
-3.437159952272467178e-01
-3.517586375361241302e-01
-3.540268348538867516e-01
-3.508029054488210341e-01
-3.423137955822495027e-01
-3.279361632751413569e-01
-3.089659186100177091e-01
-2.847066593529051781e-01
-2.559237121863417452e-01
-2.231892860604169915e-01
-1.865365211961372283e-01
-1.472440467593871538e-01
-1.053708918985338250e-01
-6.175560172868382880e-02
-1.719086397880720263e-02
2.779844272156262175e-02
7.243922572412542227e-02
1.159500285455759006e-01
1.579230135006924329e-01
1.975008651855328368e-01
2.340768911941913943e-01
2.675384346665516944e-01
2.967331197440405965e-01
3.219464939239277124e-01
3.423578595556571180e-01
3.576296841076043176e-01
3.681776835587855512e-01
3.728902187292909565e-01
3.726669025907950461e-01
3.668399256292772526e-01
3.555041098609874606e-01
3.393528324101877103e-01
3.177093257260277803e-01
2.917509321114385989e-01
2.611942621538114739e-01
2.265205269286593159e-01
1.885290112099632098e-01
1.472381752486246476e-01
1.036763064127297629e-01
5.821955854526017493e-02
1.149363064402027235e-02
-3.565449773245302212e-02
-8.253822433539079184e-02
-1.286576568719093872e-01
-1.728915611310360700e-01
-2.148509366469166237e-01
-2.537122708693678175e-01
-2.885219929672493411e-01
-3.194706301771499390e-01
-3.450624893154859985e-01
-3.654904546608933047e-01
-3.801439433730112172e-01
-3.884007623920391894e-01
-3.910259067275078659e-01
-3.868628195715116957e-01
-3.767699928489925409e-01
-3.605854878380879147e-01
-3.383729201272983045e-01
-3.112848082379524040e-01
-2.789415626820159200e-01
-2.426025701533970902e-01
-2.026439951986134802e-01
-1.596761798194920035e-01
-1.149063360768335929e-01
-6.868012662162770177e-02
-2.207051741241733422e-02
2.415586827422189220e-02
6.938063307484008957e-02
1.127219664361751306e-01
1.535108724162489724e-01
1.914423342397444383e-01
2.255947506805852376e-01
2.558584629578281033e-01
2.818719963579207621e-01
3.030254715439446023e-01
3.199750216794917668e-01
3.317837866335553998e-01
3.389812571582107026e-01
3.416392106100735182e-01
3.393494854932436189e-01
3.334344056562174030e-01
3.230003947795048180e-01
3.089372933185557946e-01
2.915280531710913170e-01
2.705641016024176171e-01
2.473657364724432539e-01
2.213202074825866283e-01
1.932072356143784142e-01
1.633950680240359721e-01
1.318197788481951793e-01
9.936292351779360543e-02
6.591589729431920897e-02
3.185457543779070255e-02
-2.305643475507122842e-03
-3.651304874540577811e-02
-7.032785414543446523e-02
-1.032912329805197871e-01
-1.354548808544946137e-01
-1.660419477736972405e-01
-1.949101210899649161e-01
-2.218951255844470172e-01
-2.461040245657175607e-01
-2.679388521160580572e-01
-2.864166936130316254e-01
-3.014312120162389030e-01
-3.130095820389784400e-01
-3.201940829837060520e-01
-3.236941717003277708e-01
-3.226235807269087208e-01
-3.171183183638371927e-01
-3.074615473140436817e-01
-2.930697556257501057e-01
-2.748993593923051426e-01
-2.525337581948459142e-01
-2.264335860499523123e-01
-1.971885741790265212e-01
-1.648090165935101048e-01
-1.302608756219294228e-01
-9.378350768598556209e-02
-5.594769846568124760e-02
-1.753936651846119132e-02
2.097730671469463792e-02
5.902082875179512356e-02
9.578298856918809889e-02
1.309926765349568867e-01
1.638770537411070038e-01
1.939137647358001315e-01
2.210896153187009161e-01
2.443951758206866498e-01
2.641208946781780642e-01
2.796577270434571494e-01
2.907543968386111510e-01
2.978919322422192151e-01
3.002002455591303298e-01
2.984810735966439976e-01
2.923438549431505162e-01
2.819033515109772292e-01
2.678815697605965163e-01
2.497691070089198273e-01
2.285637001877268148e-01
2.041490794277245613e-01
1.768917791711414056e-01
1.475154666542367321e-01
1.159782986582373471e-01
8.308522816459068538e-02
4.910657425982237895e-02
1.444262048634034623e-02
-2.028286857633027074e-02
-5.466556816254605766e-02
-8.838081236390146755e-02
-1.206875005875227003e-01
-1.513807205072794371e-01
-1.799462378086766901e-01
-2.057101833476300823e-01
-2.289579976338718126e-01
-2.485709482818208027e-01
-2.647271909745445018e-01
-2.770698706504729492e-01
-2.849983722348507498e-01
-2.892675242932712942e-01
-2.888144109328314446e-01
-2.842316696184058467e-01
-2.754316560389505897e-01
-2.621715765504987194e-01
-2.454559598163847389e-01
-2.246782644280728991e-01
-2.006860146860173777e-01
-1.737248520059689605e-01
-1.439297491363504822e-01
-1.123107601038833697e-01
-7.881298691706842274e-02
-4.419926579634179259e-02
-8.990036598412409763e-03
2.653276849670044291e-02
6.162206044032424168e-02
9.591450302123361027e-02
1.291105239666474613e-01
1.605147508265248324e-01
1.899774421025510196e-01
2.171608357582043847e-01
2.414590270396595462e-01
2.632244938063375006e-01
2.816230868637725759e-01
2.967680044034761710e-01
3.086806794214353999e-01
3.166385314706896548e-01
3.215560295781859090e-01
3.224883584665385050e-01
3.197745433850645025e-01
3.136528643625158264e-01
3.034187361861356846e-01
2.902624744374262544e-01
2.732943458016924843e-01
2.529603039553090515e-01
2.296386582391772568e-01
2.028761409916312319e-01
1.736930728953370584e-01
1.417083916641899144e-01
1.073094528128706870e-01
7.106768711288080631e-02
3.293657972536524758e-02
-6.372826068702264202e-03
-4.649980907210147368e-02
-8.720997402651479991e-02
-1.276516543592480790e-01
-1.674902744528891374e-01
-2.063111447512891994e-01
-2.431016993645467306e-01
-2.779030423801682748e-01
-3.096408005271324981e-01
-3.378658176294206394e-01
-3.624814986994459587e-01
-3.822346070413917829e-01
-3.976119054277504894e-01
-4.075924592732744767e-01
-4.120034004727096688e-01
-4.111558576492104766e-01
-4.040966302470487270e-01
-3.918348806838030107e-01
-3.737667428715109597e-01
-3.502266138275123009e-01
-3.219630355397260502e-01
-2.886625818549831690e-01
-2.516403765208513610e-01
-2.109221445679820561e-01
-1.671798243687201146e-01
-1.214355232724721734e-01
-7.395528179154617354e-02
-2.583337751638886681e-02
2.230322193868001374e-02
6.994312630940124897e-02
1.160746078395076680e-01
1.602019239213482993e-01
2.019467004792276366e-01
2.402804369309365917e-01
2.753033187051665553e-01
3.062120683603865023e-01
3.326500902915443536e-01
3.549957207622069788e-01
3.721360138076433843e-01
3.848410625208070757e-01
3.925388082039634741e-01
3.951450187944867132e-01
3.935093392634564924e-01
3.866550353087989667e-01
3.757238768979626053e-01
3.603433687512059280e-01
3.406319103916706781e-01
3.175435416013165368e-01
2.904235030038035958e-01
2.603600444164888006e-01
2.272725399284411529e-01
1.913616201523249960e-01
1.534883760849944656e-01
1.135025869680110211e-01
7.211518357711238503e-02
2.975691094830980321e-02
-1.338651056452561799e-02
-5.653788928028236072e-02
-9.926464548402411103e-02
-1.413897171341790826e-01
-1.818281889228957060e-01
-2.205257344038212275e-01
-2.567469267536415245e-01
-2.896429284030407336e-01
-3.196346798302918124e-01
-3.451470743080061743e-01
-3.664461557192112418e-01
-3.829510395763292552e-01
-3.938799108221855416e-01
-4.000728793459087385e-01
-4.001485225990228933e-01
-3.947936778436288430e-01
-3.838205797854568058e-01
-3.669344642876930518e-01
-3.452904726010088687e-01
-3.182048222295509876e-01
-2.867051109703193656e-01
-2.511339866317806591e-01
-2.117430676196985773e-01
-1.697766474972519646e-01
-1.253291819904283344e-01
-7.937273034854276654e-02
-3.267700114352109497e-02
1.430559792944299802e-02
6.059440625000594993e-02
1.055933293540640694e-01
1.489126682258897216e-01
1.895691291317782023e-01
2.273628902020032871e-01
2.618167068293728028e-01
2.921659888912382375e-01
3.188861709150755397e-01
3.409013766159536551e-01
3.584784993967690125e-01
3.716021294325146940e-01
3.795339617669656329e-01
3.834660055946294555e-01
3.822849957136056354e-01
3.766203790215472136e-01
3.667164559341350993e-01
3.519735001203672664e-01
3.338494003105899610e-01
3.113820101299943355e-01
2.852966671926614461e-01
2.559828073452109498e-01
2.231687033298035694e-01
1.879619560112176513e-01
1.500827169924877080e-01
1.100551429393775704e-01
6.848954532121334648e-02
2.551501422162083532e-02
-1.819467415558159717e-02
-6.207627498428103241e-02
-1.059149486868479761e-01
-1.487635232538657148e-01
-1.901826668824227462e-01
-2.298487808022864898e-01
-2.665402870569993921e-01
-3.004428702604733936e-01
-3.303618540933599412e-01
-3.558685949448401886e-01
-3.769610799809540724e-01
-3.922986886031942788e-01
-4.025730351902243598e-01
-4.067092234316941335e-01
-4.046937477195302058e-01
-3.969161934950155568e-01
-3.825469543171735598e-01
-3.627575889406446930e-01
-3.370401953674174722e-01
-3.059604112167780832e-01
-2.703042554491204563e-01
-2.300787290620345815e-01
-1.865846564393742746e-01
-1.401123564622807072e-01
-9.150432796160487547e-02
-4.175173558843092714e-02
8.468589799369874438e-03
5.833255185934618781e-02
1.068240375227667571e-01
1.534233739394677554e-01
1.972049384877527789e-01
2.373381824555024777e-01
2.738113546883003679e-01
3.052815429033715611e-01
3.319672941277340694e-01
3.531760876244598446e-01
3.684192533123433200e-01
3.783660505678761443e-01
3.818483585398259050e-01
3.797878148422323408e-01
3.717850579090372642e-01
3.579030916606860124e-01
3.391156098014119769e-01
3.148081071604329484e-01
2.862043018752688517e-01
2.532822190083182101e-01
2.165633933256855270e-01
1.769853406826147890e-01
1.346785014340309838e-01
9.064959176788001116e-02
4.539954444319158067e-02
-3.955184576280856845e-04
-4.598480201030585857e-02
-9.057315902096951810e-02
-1.337806117081529744e-01
-1.745354185322849361e-01
-2.124025834482524688e-01
-2.468490024786011428e-01
-2.767966357774539476e-01
-3.026704128742309097e-01
-3.230642305543331427e-01
-3.381174683600768893e-01
-3.475667556468550745e-01
-3.506102848939581795e-01
-3.483450176929732134e-01
-3.395756467556663716e-01
-3.250905030032786303e-01
-3.049962230899804227e-01
-2.792429418551933273e-01
-2.490563949635029584e-01
-2.141428420067817973e-01
-1.755872257625371025e-01
-1.339088765417130178e-01
-8.976801089730103433e-02
-4.413859664099079733e-02
2.317390055414772498e-03
4.875111955212202419e-02
9.431377186627060150e-02
1.381003184551428398e-01
1.796377790497716287e-01
2.176993767998633422e-01
2.521378569684935012e-01
2.819549169948353806e-01
3.065767103913120684e-01
3.260500785141905999e-01
3.391925654656406941e-01
3.466770942693038204e-01
3.476293461630087234e-01
3.421706098286860231e-01
3.307335340291747139e-01
3.127477445961404090e-01
2.894257900317500631e-01
2.603813427626094357e-01
2.264061814530204386e-01
1.881853115420799583e-01
1.460383712752388319e-01
1.011880189987526824e-01
5.404518250267917323e-02
5.655532330109902528e-03
-4.314388045395331495e-02
-9.133623614200964136e-02
-1.382364057083126374e-01
-1.826543731655038694e-01
-2.239204081498668009e-01
-2.612098272623782913e-01
-2.934686620325683837e-01
-3.207500004972750896e-01
-3.416941504069491709e-01
-3.564665503112641187e-01
-3.645238092396859697e-01
-3.654669485046909694e-01
-3.600278590485690988e-01
-3.474089745836408949e-01
-3.286477961995163954e-01
-3.037284849683403731e-01
-2.731445794569211105e-01
-2.380508699046759991e-01
-1.985290677612101540e-01
-1.560157758847280918e-01
-1.110406016174658173e-01
-6.458239124187831193e-02
-1.778180585482491693e-02
2.867658518363647158e-02
7.374851814892297019e-02
1.166137445525084748e-01
1.565777333816212591e-01
1.929478338436763085e-01
2.250106157686813935e-01
2.527337897174115611e-01
2.753003236116157160e-01
2.928351975808827223e-01
3.052355478529306110e-01
3.121318970314245766e-01
3.145209471737941964e-01
3.116944382011262449e-01
3.045155354339907361e-01
2.932593816500976835e-01
2.778843660443625074e-01
2.598099450015224354e-01
2.384644822211803294e-01
2.148824753728203474e-01
1.894148508117718954e-01
1.621463744314250999e-01
1.341484245743669312e-01
1.051521160083926931e-01
7.578635425888657906e-02
4.639164482174779058e-02
1.700598032292288675e-02
-1.185632681328946392e-02
-4.008007728785173418e-02
-6.760037995068024497e-02
-9.394258905926952674e-02
-1.191109594104269864e-01
-1.429729022312538067e-01
-1.649958818683768813e-01
-1.855355013587864088e-01
-2.038659905100520531e-01
-2.199883269696738530e-01
-2.339245561774223048e-01
-2.448848467301151244e-01
-2.534637702411419724e-01
-2.588179755692298079e-01
-2.610067359678114318e-01
-2.601727776669819914e-01
-2.556145883034711686e-01
-2.480878134969910498e-01
-2.369723195372486213e-01
-2.225107566617986476e-01
-2.050676086374344509e-01
-1.843470187084181866e-01
-1.611796632435598120e-01
-1.354549936938237997e-01
-1.075831459589432493e-01
-7.816122171907285976e-02
-4.736217707870746252e-02
-1.583696823958255506e-02
1.595666334374876150e-02
4.769015489880411296e-02
7.868214131306208725e-02
1.085159454185167238e-01
1.369651885607247876e-01
1.632176710768905303e-01
1.873115577383668851e-01
2.086492272299936834e-01
2.268717684731527684e-01
2.422302109498790657e-01
2.538486658534928053e-01
2.622234345837947123e-01
2.669054588887138646e-01
2.677611069868637839e-01
2.653609156890349152e-01
2.589828445342955421e-01
2.494181342692528003e-01
2.363849925050374168e-01
2.199825002323707035e-01
2.008619314980229498e-01
1.786353280415194367e-01
1.540870413183654253e-01
1.272084927126500842e-01
9.824986946787975239e-02
6.780900810375739551e-02
3.597394570464060304e-02
3.247338401486610238e-03
-2.992103960682795591e-02
-6.325598812306115759e-02
-9.620677119252704634e-02
-1.282031479079741021e-01
-1.591901028665305418e-01
-1.881794461400662088e-01
-2.150467562425402990e-01
-2.392798700949247681e-01
-2.600783733828807009e-01
-2.778530509499609891e-01
-2.913553864620140876e-01
-3.008041763182748851e-01
-3.058548179633558961e-01
-3.059361996023532981e-01
-3.017891520312249165e-01
-2.925036576977767533e-01
-2.787053409171190155e-01
-2.604159340381119181e-01
-2.375994697118162524e-01
-2.112063621919701151e-01
-1.810188218605000565e-01
-1.478991406254202279e-01
-1.123068158466158650e-01
-7.466783589021683265e-02
-3.589777645150352137e-02
3.566301591583766369e-03
4.305315873950896904e-02
8.178547576361575033e-02
1.192716010543646843e-01
1.549109877953490644e-01
1.879344563566953674e-01
2.182914210785952547e-01
2.450760835920496594e-01
2.681411666670872052e-01
2.873262726889092011e-01
3.018789248115323898e-01
3.124933090696717652e-01
3.182795466299528919e-01
3.195776484154425057e-01
3.165781611821841257e-01
3.087636824399062618e-01
2.973084181855785157e-01
2.814823194790720962e-01
2.619493340153049576e-01
2.390946060665655459e-01
2.127538599584674894e-01
1.840486306625531976e-01
1.527008472284545060e-01
1.193588597535907986e-01
8.454365800631102879e-02
4.844327982846528130e-02
1.176811749961135904e-02
-2.510929036456270580e-02
-6.184000539102342542e-02
-9.773035553352682481e-02
-1.323840127351975093e-01
-1.655227867532192421e-01
-1.962466131628600174e-01
-2.246469974257292168e-01
-2.498817405146042114e-01
-2.715937880431135154e-01
-2.898760427282587315e-01
-3.036622130713942935e-01
-3.135367179382056446e-01
-3.187025091004512811e-01
-3.191061111083032809e-01
-3.151710631100639315e-01
-3.061071123836687224e-01
-2.929076693629665828e-01
-2.751008610909505547e-01
-2.530364311137308642e-01
-2.273994287995812213e-01
-1.979525547084536041e-01
-1.657935933771605141e-01
-1.309695285294897871e-01
-9.404134328923194341e-02
-5.579310720321709050e-02
-1.652510316771133025e-02
2.303553455383949844e-02
6.227640817248947247e-02
1.008126886968538916e-01
1.379388976237859166e-01
1.730431661466116378e-01
2.061115137377807494e-01
2.360556654793952713e-01
2.629703291130979781e-01
2.863004850002012214e-01
3.054259813791747602e-01
3.209399786234624630e-01
3.316000423970284494e-01
3.379936266756584651e-01
3.397207832194187871e-01
3.363877921353701783e-01
3.288982252746561752e-01
3.162338908650493274e-01
2.992798876484267789e-01
2.778662200854220554e-01
2.519584632533127255e-01
2.224977040529672045e-01
1.890537731178031089e-01
1.525175602921326479e-01
1.131422404837504614e-01
7.124561763108222534e-02
2.768034588865780909e-02
-1.720168830534860027e-02
-6.280270384159808428e-02
-1.082736675720402386e-01
-1.531424286612214636e-01
-1.966865411333983404e-01
-2.379144972180760043e-01
-2.767945242381359972e-01
-3.119541997149774537e-01
-3.431363234796976913e-01
-3.698473094211524037e-01
-3.909328560105144179e-01
-4.071160394837296526e-01
-4.168913586522365877e-01
-4.205762716919403399e-01
-4.180836863761865363e-01
-4.086993364179211108e-01
-3.937316679875983438e-01
-3.721931404012201461e-01
-3.449926967789145871e-01
-3.125560284313995130e-01
-2.748891648600257365e-01
-2.334693512501249679e-01
-1.881842198189001281e-01
-1.401220055583776714e-01
-9.011885648264481019e-02
-3.865517363848498811e-02
1.307931640187838529e-02
6.448800802151795353e-02
1.149123649620902576e-01
1.633275332434010740e-01
2.092761555595919476e-01
2.521908188961885511e-01
2.911243503865655891e-01
3.262802875388601254e-01
3.565991413352698203e-01
3.820127574508999091e-01
4.025881091788742761e-01
4.173366547220850875e-01
4.273070007988422625e-01
4.314693522715825069e-01
4.301902356486745904e-01
4.239294239437133571e-01
4.118728912937233977e-01
3.954993765034758857e-01
3.739488239477707920e-01
3.478274460371882926e-01
3.177589571476270303e-01
2.833012934544291150e-01
2.458256805887485408e-01
2.049774957498122219e-01
1.613450957833418298e-01
1.156823812431973797e-01
6.809258556860539602e-02
1.940476841242427808e-02
-2.982617692088884720e-02
-7.927025446782803852e-02
-1.279637259033076790e-01
-1.753422232280476556e-01
-2.211216619398893579e-01
-2.639541897660554470e-01
-3.039157100192080296e-01
-3.398770871008619521e-01
-3.711763385540454152e-01
-3.979816160045187567e-01
-4.187176489301740467e-01
-4.339979720300236044e-01
-4.428283767726746145e-01
-4.449331200008434517e-01
-4.409206940918389828e-01
-4.296893437166671159e-01
-4.124031450353648487e-01
-3.886064411539835728e-01
-3.586730875867595869e-01
-3.235992433115311706e-01
-2.831681949652834485e-01
-2.387837542627944121e-01
-1.907395338781129324e-01
-1.398341073080401342e-01
-8.721863968158383162e-02
-3.345271462122278994e-02
2.043115695088104644e-02
7.347896921090923961e-02
1.250612325058580998e-01
1.741918190365598917e-01
2.199946980520243178e-01
2.623745242679672574e-01
2.999641476925540839e-01
3.328385343623763148e-01
3.603714608978878520e-01
3.818764547723771940e-01
3.981863986850340265e-01
4.079399044193605106e-01
4.119826559027156554e-01
4.100545293735407548e-01
4.019239217585998669e-01
3.888872277837930880e-01
3.699872619142816621e-01
3.464676162856810682e-01
3.183831457458113912e-01
2.859131814800085492e-01
2.503377371986910127e-01
2.113043209405119915e-01
1.699347298828115527e-01
1.266153704030628102e-01
8.171294703753340105e-02
3.620460511673129211e-02
-9.631396001976266774e-03
-5.521027271297718197e-02
-9.974769721740522899e-02
-1.429516921998496004e-01
-1.841923730297548301e-01
-2.227159224768688328e-01
-2.586472174296756688e-01
-2.908247687693956141e-01
-3.192426222563146121e-01
-3.435642133167524648e-01
-3.628781781080772095e-01
-3.779823447262378178e-01
-3.875744908161747881e-01
-3.920619395205052204e-01
-3.914173861858683545e-01
-3.849548924157599750e-01
-3.739795576444192582e-01
-3.574522535750766505e-01
-3.361751666605149458e-01
-3.105071420201756527e-01
-2.802752258774873773e-01
-2.468600016221194349e-01
-2.099448397353255169e-01
-1.704230044093405227e-01
-1.290131699001098031e-01
-8.594768689588788702e-02
-4.234093171447485954e-02
1.457707485987350116e-03
4.488816040442836913e-02
8.705741786582149588e-02
1.276961113917255142e-01
1.662127288862111918e-01
2.019191440332075704e-01
2.349160040954056949e-01
2.643200297459969428e-01
2.901202974688643077e-01
3.122944092984510367e-01
3.300829042143998970e-01
3.442590996083637611e-01
3.540093782540674194e-01
3.596138253122917461e-01
3.614359922884554099e-01
3.587728255398032196e-01
3.527777522940631627e-01
3.427328322619565548e-01
3.290497459383208145e-01
3.122482870983928072e-01
2.917775056001157830e-01
2.687773777141531095e-01
2.427766013513058541e-01
2.141423932482182657e-01
1.834599604889873281e-01
1.504730921135839505e-01
1.160058375666051522e-01
8.011058436203383204e-02
4.300236969415779931e-02
5.384020587911070299e-03
-3.260391713490454896e-02
-7.058302160837769124e-02
-1.078048679956835759e-01
-1.442785321751119398e-01
-1.791460861551102679e-01
-2.119916217623038501e-01
-2.427803066686315958e-01
-2.703305973714353883e-01
-2.949312963917416486e-01
-3.156949293132484957e-01
-3.322349129363104114e-01
-3.448207000183853843e-01
-3.523258919219626750e-01
-3.554010206952347151e-01
-3.534115335706046190e-01
-3.463242219023306978e-01
-3.347270216637094342e-01
-3.180055545660391281e-01
-2.971255279850201769e-01
-2.719563937915577823e-01
-2.428944557106289537e-01
-2.107599961830634028e-01
-1.756015586903040826e-01
-1.383837378004596219e-01
-9.952902868350099741e-02
-5.958442297106014696e-02
-1.938204035523347080e-02
2.055814436842753890e-02
5.973399703015713769e-02
9.728558983077970068e-02
1.329457884940938028e-01
1.660710600714170038e-01
1.960033405182742827e-01
2.230024059842571071e-01
2.459348434550346074e-01
2.650866268163021289e-01
2.800613939369555050e-01
2.903961376344844636e-01
2.968799947709045428e-01
2.984798373098446200e-01
2.959367572771476329e-01
2.890754186124718794e-01
2.777884752082431241e-01
2.630138529012603921e-01
2.441364091704031347e-01
2.220490323683935174e-01
1.968205313650880917e-01
1.686904512486760987e-01
1.384561722923570160e-01
1.061160159818529403e-01
7.237558560108872663e-02
3.764508604886227655e-02
2.363984534368521184e-03
-3.291611575018874025e-02
-6.759273084440589607e-02
-1.014005261392678658e-01
-1.335363185357881510e-01
-1.636078242110793890e-01
-1.912983358366818487e-01
-2.156680757717177321e-01
-2.370142166207658552e-01
-2.542892319933152678e-01
-2.674263874982070743e-01
-2.763529352552484553e-01
-2.802437589680434882e-01
-2.799350725210417168e-01
-2.745017978979371609e-01
-2.643689810981391108e-01
-2.497633448723962091e-01
-2.303772600245738433e-01
-2.073561432230222323e-01
-1.802944199702405936e-01
-1.499862986922025909e-01
-1.169556335537317304e-01
-8.153342353275011556e-02
-4.466459808488250360e-02
-6.728041199302869924e-03
3.156021149242715929e-02
6.949784634123915006e-02
1.064271446972140378e-01
1.418908517719241758e-01
1.749874948940631225e-01
2.055036241299959543e-01
2.327228602518074396e-01
2.561064774782878528e-01
2.757712236457854349e-01
2.907055876207642608e-01
3.013781213249190349e-01
3.071883292695992695e-01
3.080136864035227795e-01
3.043946386892613098e-01
2.955825336235335943e-01
2.825486262923424530e-01
2.649301712428897004e-01
2.430450379972812214e-01
2.176089387173260892e-01
1.883800804886736624e-01
1.564076846774919427e-01
1.217369157794343931e-01
8.491693591512025630e-02
4.666350393173529509e-02
7.308130373451460216e-03
-3.247204435038270054e-02
-7.205779993168182074e-02
-1.109912708986902641e-01
-1.486147119227766433e-01
-1.841711209113011671e-01
-2.176459953461967745e-01
-2.478529699341783799e-01
-2.747330227851202400e-01
-2.977290866854321871e-01
-3.160655805474874569e-01
-3.302780996578867923e-01
-3.390999519755393266e-01
-3.429886242528844553e-01
-3.416168758760703694e-01
-3.346102066854123036e-01
-3.228596819022276909e-01
-3.055679471943110737e-01
-2.836181128479613456e-01
-2.570802188250193021e-01
-2.261590947526632145e-01
-1.918617169289691393e-01
-1.541663213897686013e-01
-1.140329488493943555e-01
-7.200104107573715440e-02
-2.865700421712596979e-02
1.514260343099299577e-02
5.872691880012886889e-02
1.015459687866578364e-01
1.426676086307287483e-01
1.815689150282951969e-01
2.177386104630801289e-01
2.501816713202879017e-01
2.791038445353042352e-01
3.033626444270375311e-01
3.228926491908641339e-01
3.375653491902758097e-01
3.465014117832664331e-01
3.506469599376933477e-01
3.489196695163506723e-01
3.418290528061870837e-01
3.295646765891019903e-01
3.117186033231553188e-01
2.895908983295854000e-01
2.625444113666210999e-01
2.314553614497939504e-01
1.967837028183653525e-01
1.587621047792878992e-01
1.184530958825498193e-01
7.608078551723918004e-02
3.244599789970221970e-02
-1.172833470992452887e-02
-5.577433249837196461e-02
-9.907994876022749309e-02
-1.406843702988726796e-01
-1.802373233552929110e-01
-2.168152108390024591e-01
-2.497489040835694785e-01
-2.789188484665249823e-01
-3.030950635382657632e-01
-3.226099998375395739e-01
-3.365575027008524955e-01
-3.447212906971445778e-01
-3.474329007459746044e-01
-3.437925165806840488e-01
-3.347830478416819466e-01
-3.198451821507716231e-01
-2.994141600019599725e-01
-2.741660760738044988e-01
-2.439323207903352220e-01
-2.099802494373659567e-01
-1.723571958850625696e-01
-1.319204481524279826e-01
-8.949783414035977769e-02
-4.563467148332912837e-02
-1.287414101969093505e-03
4.284165918032095677e-02
8.602113463298599605e-02
1.274941201452636508e-01
1.663782038057761981e-01
2.025217617705584727e-01
2.347443539986839856e-01
2.629432052782748608e-01
2.865732523187149994e-01
3.049378709813373445e-01
3.186171151827541514e-01
3.264486392285598781e-01
3.290426042439715260e-01
3.261153163420688617e-01
3.174910409132478684e-01
3.041189105167821372e-01
2.853117510590656436e-01
2.621045110424751190e-01
2.345313799403280497e-01
2.029701656841650936e-01
1.683606093496120004e-01
1.307515124994130529e-01
9.112689204608451221e-02
4.993737779886665840e-02
7.868658808220950832e-03
-3.436544885559919549e-02
-7.602048807021685728e-02
-1.166021738155086362e-01
-1.552085579790515313e-01
-1.912521212379972302e-01
-2.243063714863414715e-01
-2.532922249783378654e-01
-2.784485824272301402e-01
-2.986100326656622728e-01
-3.136811972266034809e-01
-3.235494826646282962e-01
-3.273518489120928465e-01
-3.260275125142238495e-01
-3.185777742184124350e-01
-3.055666938256711984e-01
-2.872337617882954608e-01
-2.633932233469247208e-01
-2.352969906049977578e-01
-2.026200963517871823e-01
-1.663452824090449200e-01
-1.270466531712985681e-01
-8.528344176298505164e-02
-4.204724405286444644e-02
2.074987023538710403e-03
4.623929730633052904e-02
8.965151023247650008e-02
1.314263567351126594e-01
1.711239726972582365e-01
2.075913790800983927e-01
2.406092364459412325e-01
2.693369406938155297e-01
2.931295610763265946e-01
3.121394158167392630e-01
3.252091066799833174e-01
3.329120725146075821e-01
3.345654538241981668e-01
3.301456568141164505e-01
3.202229079745109730e-01
3.041584283631451613e-01
2.830749666504203677e-01
2.566925226774790514e-01
2.256204051639381369e-01
1.906176624436420330e-01
1.518410027486628844e-01
1.104387970726560253e-01
6.676368471547418360e-02
2.170438197013260795e-02
-2.396257490237349574e-02
-6.938111988862064039e-02
-1.139363341765047277e-01
-1.565855073163732736e-01
-1.967033672064480432e-01
-2.336183458970200189e-01
-2.662301267366684598e-01
-2.947616547800199216e-01
-3.177815854834041831e-01
-3.353691365677402558e-01
-3.470987033465857685e-01
-3.522612056927689750e-01
-3.517300886410618110e-01
-3.443974673302633849e-01
-3.310909264128123475e-01
-3.117845209929662187e-01
-2.865245726485277644e-01
-2.565025846658247621e-01
-2.214139419250170382e-01
-1.824722943762445981e-01
-1.401155826291972939e-01
-9.501874352571887394e-02
-4.827262367267526333e-02
-4.149280798206866905e-04
4.759639553240013754e-02
9.493080907332074325e-02
1.407959210679601281e-01
1.845355341157853823e-01
2.251059984607434172e-01
2.623639085659322800e-01
2.952377101621710409e-01
3.233535844158860195e-01
3.465843637059985438e-01
3.638492085304365631e-01
3.759598801235262133e-01
3.818036077500848169e-01
3.816639771980426810e-01
3.758200840861515291e-01
3.635540299655960483e-01
3.462926464517688263e-01
3.231811004887393812e-01
2.950197487868256863e-01
2.623421069033864406e-01
2.250525133413554535e-01
1.845343609089691028e-01
1.406435650061342857e-01
9.427776778653396139e-02
4.617934248671096142e-02
-3.137929719680188079e-03
-5.281437347905604263e-02
-1.020709475524730347e-01
-1.503593050018497967e-01
-1.967292459856037068e-01
-2.403978707774225843e-01
-2.810958466930646438e-01
-3.174556632760450192e-01
-3.495638151432536311e-01
-3.763896395275130313e-01
-3.973759641401958254e-01
-4.127870668989129799e-01
-4.213046427792588311e-01
-4.237414812179534085e-01
-4.193097035241568626e-01
-4.080766911411438658e-01
-3.907548565818547148e-01
-3.666890883686746427e-01
-3.372097065198841892e-01
-3.021258035961894572e-01
-2.621398682110590017e-01
-2.182484934560850742e-01
-1.706821735458990408e-01
-1.207485561306380628e-01
-6.900410423931901960e-02
-1.633357378516653302e-02
3.624250713655496892e-02
8.787241365952536132e-02
1.379214620518799395e-01
1.852000616081079798e-01
2.292746181226450464e-01
2.693385299291574109e-01
3.044600173771505602e-01
3.349784085625187036e-01
3.594388813604356692e-01
3.782241608934849841e-01
3.908531584995945662e-01
3.968247455079838559e-01
3.971456227045525034e-01
3.906747642332945025e-01
3.784672570516443568e-01
3.603987680815671779e-01
3.365799141439678177e-01
3.082346224647658506e-01
2.749057958974850391e-01
2.378596380196328630e-01
1.973723045272256504e-01
1.540088873453835938e-01
1.088327983431490870e-01
6.216257495475105421e-02
1.492174192826101198e-02
-3.217065356633143358e-02
-7.847780856169439545e-02
-1.232900968572705203e-01
-1.657208321226898429e-01
-2.056003409997929077e-01
-2.418233756730354123e-01
-2.740951889007460229e-01
-3.021020071057121115e-01
-3.248052530196374188e-01
-3.429097448356688282e-01
-3.551589819381307800e-01
-3.618500267512799740e-01
-3.630420474802428243e-01
-3.579907375441233608e-01
-3.480549192307393902e-01
-3.322043302299382272e-01
-3.112701439350329391e-01
-2.856317011846546405e-01
-2.551404690096091832e-01
-2.212063707959371905e-01
-1.834964531627144568e-01
-1.429700360364103140e-01
-1.002542709691887635e-01
-5.576219452786009695e-02
-1.043623649383544627e-02
3.519583746502943922e-02
8.052744864898536692e-02
1.247419086160628243e-01
1.671830244989147563e-01
2.075156661221101428e-01
2.446064008503778808e-01
2.784827574588938925e-01
3.082007718355256332e-01
3.332488900877363935e-01
3.537860143505605626e-01
3.685500330707626171e-01
3.782123674203190511e-01
3.818835866998023798e-01
3.795086846038950301e-01
3.715584664813161853e-01
3.572139482953766709e-01
3.375658645415984260e-01
3.121448194312982927e-01
2.814602437383708078e-01
2.462025916963423988e-01
2.064126286704888458e-01
1.632217282127546576e-01
1.169557771347415620e-01
6.847454156482338239e-02
1.864971551446503728e-02
-3.164220261036299053e-02
-8.167439318834107675e-02
-1.302598955347273879e-01
-1.767009071819429233e-01
-2.200765407205936830e-01
-2.592333725110700926e-01
-2.941359677475847145e-01
-3.232402031088879024e-01
-3.465433594442606791e-01
-3.633643155892958276e-01
-3.730704162055692996e-01
-3.762930550496443871e-01
-3.719917308991247396e-01
-3.610371594284499941e-01
-3.432869659030466369e-01
-3.190625451107836907e-01
-2.894494177509561172e-01
-2.543901510893536999e-01
-2.152737498053102772e-01
-1.725640585183232378e-01
-1.272797334944122394e-01
-8.052499594267209515e-02
-3.306803897283411287e-02
1.395762438934999849e-02
5.969805622443624671e-02
1.031914601965090994e-01
1.437569967654537262e-01
1.803816463302711504e-01
2.128735508174084412e-01
2.402930532831045185e-01
2.624073308651851955e-01
2.791150220258551418e-01
2.897040509832312649e-01
2.950380163089340591e-01
2.943073667193704113e-01
2.881398967542685430e-01
2.768404606944805946e-01
2.602296448950202068e-01
2.397246236410335851e-01
2.148082717331545322e-01
1.865618500420436199e-01
1.554412148821094353e-01
1.217680536452865891e-01
8.670663663689584522e-02
5.030349717018933742e-02
1.346385705506186747e-02
-2.331032330645402273e-02
-5.944408487613753178e-02
-9.440929389465096966e-02
-1.275806907991742789e-01
-1.586328381741797522e-01
-1.869905874775839583e-01
-2.121380854260294102e-01
-2.341194730399710211e-01
-2.520049775904872891e-01
-2.661267938355130203e-01
-2.758727962268788803e-01
-2.810480980056232481e-01
-2.820715952035123264e-01
-2.781388889764292438e-01
-2.700908485895071598e-01
-2.574872396436871380e-01
-2.405762926360381915e-01
-2.199943620451317861e-01
-1.954353903163530415e-01
-1.679309473231526129e-01
-1.374645591473431239e-01
-1.046004593501377311e-01
-7.005359438840919051e-02
-3.410666978776810687e-02
2.455371761097002725e-03
3.911846520281125894e-02
7.535736369730861028e-02
1.105303818149000472e-01
1.439759323161042825e-01
1.755448215007173185e-01
2.042743691776063297e-01
2.300506616769173451e-01
2.524151702067779501e-01
2.707028453939076540e-01
2.854126540107723708e-01
2.954659209870115211e-01
3.012760005171974398e-01
3.026039731168159719e-01
2.991002137334253241e-01
2.916002689457516395e-01
2.793336989560835093e-01
2.630623300220366056e-01
2.427989724491953494e-01
2.186281077747437296e-01
1.914075533615424707e-01
1.609640859183789630e-01
1.280894769682158207e-01
9.313775880328584167e-02
5.654108169842153586e-02
1.899338724256710575e-02
-1.900646873839961781e-02
-5.696784902642196280e-02
-9.412623121158877892e-02
-1.299683265086110096e-01
-1.640303216956761623e-01
-1.953595157921980130e-01
-2.240175550729534559e-01
-2.489359769292283087e-01
-2.698778403452865016e-01
-2.866585848115112967e-01
-2.983289712239347580e-01
-3.055967029934969492e-01
-3.074225951126988710e-01
-3.041096413462267556e-01
-2.958149313341280617e-01
-2.820533460175772555e-01
-2.640074650858530436e-01
-2.410727806327439549e-01
-2.140373191649679319e-01
-1.833869379234061014e-01
-1.493065061709809571e-01
-1.129032615153822416e-01
-7.434672332443521825e-02
-3.446216284796456419e-02
6.059211617723686549e-03
4.659368166978089532e-02
8.651437230208020024e-02
1.250020806938557660e-01
1.616785434447753911e-01
1.957863874874052890e-01
2.266895772248416208e-01
2.543670757482321410e-01
2.777107275466774716e-01
2.970299478756738276e-01
3.115972104109675511e-01
3.211110664196090703e-01
3.260095061942939187e-01
3.253116849009023426e-01
3.199041322104113627e-01
3.092253686402394175e-01
2.934477843616164483e-01
2.732303428807684176e-01
2.481017277385277886e-01
2.191630922402505455e-01
1.862746523444118729e-01
1.499935883681417503e-01
1.110526256814523549e-01
6.970268272781475483e-02
2.681739709631462271e-02
-1.705979452136494046e-02
-6.128316823048596262e-02
-1.050985076052601830e-01
-1.476391785427804137e-01
-1.886329297651119230e-01
-2.268290911491087636e-01
-2.619045148907866993e-01
-2.931648356205940331e-01
-3.196198309010228611e-01
-3.416417615626270443e-01
-3.577904050020850324e-01
-3.683562753904516818e-01
-3.728986303081429643e-01
-3.709005727421885723e-01
-3.632231980505831181e-01
-3.489446956791468768e-01
-3.289711665555133946e-01
-3.033314165814618990e-01
-2.722696360314594832e-01
-2.368789257782910607e-01
-1.971446678418786180e-01
-1.542130504930491197e-01
-1.086523404465816189e-01
-6.124069624575928517e-02
-1.296164078247383222e-02
3.540174747823832124e-02
8.307259172986902751e-02
1.290630722784885109e-01
1.726378669966320833e-01
2.131955603518612685e-01
2.496271354214023575e-01
2.819967741247705328e-01
3.091373525989374871e-01
3.308871495679580610e-01
3.471037053461500932e-01
3.568973180239688459e-01
3.612066508008524579e-01
3.589958964199452263e-01
3.508405292514087392e-01
3.369767922142891670e-01
3.171117188576080825e-01
2.926386037066477930e-01
2.630113077539533717e-01
2.292705710248376105e-01
1.919309761438242612e-01
1.514038197855369083e-01
1.088287749610238331e-01
6.453054839925942421e-02
1.944596071833881723e-02
-2.569126227532747553e-02
-7.007542612678457905e-02
-1.131132064288562500e-01
-1.537871521581378742e-01
-1.917231300296944885e-01
-2.260553113792291846e-01
-2.560917592066836446e-01
-2.818173906352551272e-01
-3.020396449792777105e-01
-3.171677899835198544e-01
-3.264183666062716038e-01
-3.296632728842915361e-01
-3.273664849418871925e-01
-3.187593383110197687e-01
-3.049177482009784446e-01
-2.854392513781200957e-01
-2.608793299271471300e-01
-2.319916406682359100e-01
-1.987720535893339191e-01
-1.624796912156991624e-01
-1.232954137166798192e-01
-8.212329189116043815e-02
-3.974648557142163030e-02
3.164195903682276434e-03
4.581958409718328573e-02
8.743858092241985069e-02
1.273459177642357054e-01
1.649314623518382539e-01
1.992321485145587823e-01
2.303618683757372443e-01
2.570835503595341187e-01
2.793840475200357054e-01
2.968805329516643887e-01
3.088243003504476669e-01
3.159919080849949435e-01
3.172140720418298865e-01
3.131257957120595070e-01
3.035724444424051094e-01
2.883658216112705563e-01
2.684983180549430637e-01
2.433910144525567587e-01
2.140151225605840812e-01
1.805400718217564648e-01
1.434168906918875663e-01
1.035157411364925895e-01
6.116379459687736747e-02
1.723809261616113947e-02
-2.761109362565147829e-02
-7.253020546081334619e-02
-1.169080925744804822e-01
-1.596137320607470822e-01
-2.002691713452368627e-01
-2.377573125485589189e-01
-2.713228376238558948e-01
-3.006636134216714162e-01
-3.244114365499578545e-01
-3.429422326842127555e-01
-3.550327406293706245e-01
-3.605594968535504319e-01
-3.596091342143985514e-01
-3.513436209265211052e-01
-3.368528193955003247e-01
-3.154025408609903436e-01
-2.877064176891541147e-01
-2.542972062371108843e-01
-2.153543699342864715e-01
-1.722320118371633568e-01
-1.251518661825784529e-01
-7.529144122039843623e-02
-2.352971475069087770e-02
2.908154680635796629e-02
8.161353015858201221e-02
1.328775489318400060e-01
1.819966854275946178e-01
2.279922020843243302e-01
2.696737862558674648e-01
3.068400349135092520e-01
3.380000008636034892e-01
3.631442640921082599e-01
3.814758531110135631e-01
3.924269905141855030e-01
3.964873308145399067e-01
3.926321209869743645e-01
3.817869988357280309e-01
3.635991105258710165e-01
3.384623840795080163e-01
3.072776986482395611e-01
2.699862110963418549e-01
2.279819079562439565e-01
1.815637008246558937e-01
1.318313116599429957e-01
7.977621250229163796e-02
2.629847105070724778e-02
-2.747121759128853813e-02
-8.054209678366702763e-02
-1.318044029122445726e-01
-1.804267273610316857e-01
-2.250769295538989634e-01
-2.655041374467975723e-01
-3.002989806945526863e-01
-3.290857384765317195e-01
-3.513851365149378569e-01
-3.662185557300703387e-01
-3.743785044580382193e-01
-3.746224930582643387e-01
-3.676392339096616890e-01
-3.534329158739194510e-01
-3.320067414889385504e-01
-3.046515245966026630e-01
-2.710512345995353956e-01
-2.325750549873328299e-01
-1.897187824132702816e-01
-1.434052772656218000e-01
-9.484591951736745519e-02
-4.473415670878534700e-02
5.657503720624547372e-03
5.549064334007983851e-02
1.035734505594472221e-01
1.492304330435466342e-01
1.912259792775356237e-01
2.291159187325727542e-01
2.619585636564990550e-01
2.890638935154702938e-01
3.104090929751003869e-01
3.249026790674159892e-01
3.331518871976458795e-01
3.343817589983295036e-01
3.288104495839627717e-01
3.168872571477995836e-01
2.982201613009670127e-01
2.740962929564497719e-01
2.442166999246743742e-01
2.095677272073125652e-01
1.708279572402111035e-01
1.285002706468605926e-01
8.385232321486446594e-02
3.732611664576802185e-02
-9.894824619374825714e-03
-5.706675897923910168e-02
-1.030550699500596967e-01
-1.472561377137613925e-01
-1.884941454393055937e-01
-2.260828088575714268e-01
-2.593466589522619437e-01
-2.871939737421828620e-01
-3.098267929348932359e-01
-3.259290243598000902e-01
-3.357134407260731757e-01
-3.387697989561409551e-01
-3.347275101595076352e-01
-3.243907024433530517e-01
-3.070621136597405099e-01
-2.837691452087257038e-01
-2.545774943002622748e-01
-2.200624806634343400e-01
-1.812565024524920854e-01
-1.384659294878177460e-01
-9.296464991816799639e-02
-4.536636606090686807e-02
3.203216080738084670e-03
5.188614977144109797e-02
9.957618400112164259e-02
1.454999443887685096e-01
1.886259616720095122e-01
2.280183169348638517e-01
2.632390060124458198e-01
2.930022361356314775e-01
3.174921094601360072e-01
3.355656518985712933e-01
3.470720999600487855e-01
3.520190679088777697e-01
3.496238724943661613e-01
3.409284315513710917e-01
3.251266257227284351e-01
3.029642963772755659e-01
2.748245338361013923e-01
2.408614454998084520e-01
2.023919554036081592e-01
1.594533132896644445e-01
1.132689640687135346e-01
6.454510659957024554e-02
1.430085826314633421e-02
-3.650321243996250409e-02
-8.682822020058920953e-02
-1.356754497962849026e-01
-1.821188098970233926e-01
-2.249175730050877176e-01
-2.637174423293470182e-01
-2.970532548374884563e-01
-3.247299300394831389e-01
-3.458753946096748688e-01
-3.598358313065717073e-01
-3.669164032324732094e-01
-3.660761492015618956e-01
-3.581260294981466474e-01
-3.426450823843423255e-01
-3.200266978993449585e-01
-2.911180768272939590e-01
-2.558871949612548935e-01
-2.157984522002311112e-01
-1.711458415923787224e-01
-1.231235210081636638e-01
-7.280602480669097487e-02
-2.108545676527423529e-02
3.072885856533971727e-02
8.171970665513336729e-02
1.307283282050194506e-01
1.768785811638306504e-01
2.190051573201486357e-01
2.567565232110232687e-01
2.889593709238418850e-01
3.153221872640677992e-01
3.354596073433595005e-01
3.486486164089104278e-01
3.557012225297055408e-01
3.556284855363508468e-01
3.492222174618501151e-01
3.365902717539838163e-01
3.177861687120768774e-01
2.941837330204608580e-01
2.653784670029559756e-01
2.327049040912747835e-01
1.965734058402020534e-01
1.575714169187343028e-01
1.169436316163253858e-01
7.487025496329685614e-02
3.245183941269931538e-02
-9.747786871217301030e-03
-5.109787600366302862e-02
-9.088905289879808946e-02
-1.285374787518488715e-01
-1.637077179004105543e-01
-1.956993319607779336e-01
-2.242253727925392348e-01
-2.491177714390181153e-01
-2.696369072756119589e-01
-2.862905928978771719e-01
-2.982640009607399056e-01
-3.057487225880617387e-01
-3.089348205114390011e-01
-3.071927284231432131e-01
-3.016054714915969437e-01
-2.914181247338631375e-01
-2.772073813064275249e-01
-2.593785584674678790e-01
-2.376283350943684258e-01
-2.131937634785041058e-01
-1.856645736508512057e-01
-1.557458401486519484e-01
-1.239891113640305409e-01
-9.048904753732953110e-02
-5.616021655021293663e-02
-2.117910567301072022e-02
1.397549925227965090e-02
4.867194768064882215e-02
8.256291570783504119e-02
1.153102436848890133e-01
1.461979385073964299e-01
1.752193732565236750e-01
2.017217452909753073e-01
2.253418792728385522e-01
2.462539360394023213e-01
2.634821068669897515e-01
2.775043484873028210e-01
2.876976098680189553e-01
2.938626626974548128e-01
2.964847480230921595e-01
2.946566332723477011e-01
2.891768050815665125e-01
2.795676019288181879e-01
2.658899818148302563e-01
2.487500604440178176e-01
2.276361074077505320e-01
2.034127961468480961e-01
1.759672361621637815e-01
1.456155475439171731e-01
1.130007831429234028e-01
7.822547109895605644e-02
4.194987144009982433e-02
4.648227440469561433e-03
-3.325407445346996449e-02
-7.109370511460108566e-02
-1.081912709424966978e-01
-1.443391677854415633e-01
-1.784520951731281002e-01
-2.102816335055637809e-01
-2.392098797791744058e-01
-2.643449194989533901e-01
-2.860328575263573203e-01
-3.029386488313963177e-01
-3.152693207243529305e-01
-3.226184600974533190e-01
-3.244179019701336486e-01
-3.214247962907065270e-01
-3.127033988750848037e-01
-2.989678353494368834e-01
-2.802089533900508633e-01
-2.564975907250722775e-01
-2.288009884134989957e-01
-1.969632414095037476e-01
-1.619476455165854423e-01
-1.242017830631676895e-01
-8.431908049497935376e-02
-4.316917722462213641e-02
-1.343900169812062284e-03
4.045272433603461226e-02
8.140926988551827614e-02
1.208600057427763885e-01
1.582852510077661923e-01
1.926922240711245737e-01
2.240625418061247820e-01
2.513816741797270660e-01
2.743684767744596908e-01
2.929033731379436789e-01
3.060445098208156578e-01
3.145259293048167093e-01
3.173576691353343637e-01
3.148506914361484110e-01
3.071955055483718833e-01
2.939019219333635635e-01
2.761448708846919731e-01
2.533024315797600678e-01
2.261587936775927843e-01
1.951415105991038956e-01
1.604482535007007993e-01
1.231375320651592609e-01
8.337674814805819123e-02
4.202616206549711353e-02
-2.609419832990435284e-04
-4.272084345090862434e-02
-8.476229956468642190e-02
-1.254068088308977480e-01
-1.641645913115432620e-01
-2.002156756576133900e-01
-2.326929296664607683e-01
-2.615509490518579394e-01
-2.854763583868418775e-01
-3.046606216446183790e-01
-3.183253750107223334e-01
-3.260405733867669520e-01
-3.282628284872037838e-01
-3.239983054723145628e-01
-3.141469587574090006e-01
-2.982792504340315287e-01
-2.766875873045932521e-01
-2.501721818347045767e-01
-2.185226939828077142e-01
-1.829783157459762832e-01
-1.436901704476942765e-01
-1.014801476103754929e-01
-5.722547194541151294e-02
-1.152408666528233899e-02
3.469203637412677371e-02
8.064279217371395081e-02
1.255314075945966612e-01
1.686500081945028484e-01
2.089389141707685138e-01
2.463164071367461294e-01
2.794922273733682627e-01
3.082312426627986102e-01
3.320969164607876500e-01
3.500969225542566732e-01
3.629966668540573482e-01
3.694235316008099290e-01
3.698780755465984615e-01
3.642163002127000171e-01
3.519937476196846049e-01
3.343658580807769010e-01
3.105104321799002642e-01
2.814253008259424149e-01
2.473251880547896464e-01
2.084836716670382395e-01
1.660369395267934922e-01
1.200891112041252429e-01
7.168227129538901066e-02
2.149793155270254830e-02
-2.967656761702382184e-02
-8.097949667974968513e-02
-1.314167623738752289e-01
-1.804041340287275141e-01
-2.268016857458755586e-01
-2.698151078665211866e-01
-3.089829682392555843e-01
-3.429098126563315807e-01
-3.718360502800387435e-01
-3.944395805265978883e-01
-4.104827482827239082e-01
-4.199822462669249301e-01
-4.218521014759091248e-01
-4.172075847055577436e-01
-4.050344799917755534e-01
-3.859225018608459790e-01
-3.603831026069387322e-01
-3.281635760057839413e-01
-2.908642361309048407e-01
-2.482278360030143460e-01
-2.014009914889623998e-01
-1.512649478772680744e-01
-9.843393452243337505e-02
-4.420840435206091490e-02
1.070249590321159516e-02
6.532105641569926902e-02
1.186368880387428243e-01
1.696778953829331527e-01
2.179392637433956725e-01
2.620959795269691694e-01
3.019593110097805733e-01
3.365984630183547766e-01
3.653119734070811031e-01
3.884176535083371240e-01
4.045556485275798586e-01
4.144809287165812650e-01
4.174800102286030379e-01
4.134922687575013356e-01
4.033519290598626128e-01
3.861839308143794058e-01
3.633465313716638390e-01
3.345073310096571273e-01
3.002314542569946010e-01
2.615048778331154899e-01
2.182517184438699243e-01
1.718255690171388017e-01
1.225054871786193655e-01
7.115044007836329731e-02
1.869002718363815818e-02
-3.415040197557539514e-02
-8.659628810008240807e-02
-1.376122487776298420e-01
-1.865364611685756402e-01
-2.325727355240077843e-01
-2.745546224951410652e-01
-3.126335251598165721e-01
-3.451972567959066263e-01
-3.722399503212026062e-01
-3.932044279147474675e-01
-4.071429431858215597e-01
-4.149917970436476367e-01
-4.152811732927047528e-01
-4.087978479808868637e-01
-3.954014245924592497e-01
-3.749039839354010861e-01
-3.486329050689245812e-01
-3.159701855600232645e-01
-2.782069882138037409e-01
-2.357354461900324771e-01
-1.891519371510552161e-01
-1.397472483445892921e-01
-8.791858276168573738e-02
-3.484194179674156289e-02
1.862126827557322728e-02
7.157328333915471963e-02
1.231443675676155147e-01
1.722582563429467528e-01
2.184887038684393823e-01
2.606942385158770858e-01
2.983055481953212351e-01
3.310265615994790744e-01
3.576644135060225715e-01
3.787994160039714897e-01
3.932586771485841459e-01
4.011855295513293007e-01
4.027680484970836416e-01
3.972212387582311210e-01
3.858809891808807069e-01
3.678740091345919505e-01
3.440185011456918240e-01
3.148223377699580494e-01
2.802187671851215089e-01
2.416993737426729738e-01
1.990738941914999005e-01
1.534265974911477592e-01
1.054866626561636322e-01
5.590297346309683335e-02
5.660696119677233185e-03
-4.447293681289830880e-02
-9.372507518296055440e-02
-1.411990220376661276e-01
-1.859523797837437376e-01
-2.276852354129195177e-01
-2.650311312366060434e-01
-2.979277995714419980e-01
-3.254575031722846123e-01
-3.469820564699702681e-01
-3.628153987052247231e-01
-3.716937526277572790e-01
-3.743730166434138251e-01
-3.702041590831695594e-01
-3.592867746708395260e-01
-3.423661852032480746e-01
-3.189169900048936523e-01
-2.902329390280152244e-01
-2.562326576060320327e-01
-2.177290182483774816e-01
-1.756400886183395738e-01
-1.303875094850303895e-01
-8.319001287287727808e-02
-3.465712561809472514e-02
1.418739286146328271e-02
6.252257158539432924e-02
1.092803711265283167e-01
1.539550079940477934e-01
1.953666869105066262e-01
2.329369004480907612e-01
2.661109696933087188e-01
2.937639054409754702e-01
3.163823390672006464e-01
3.325645420081018155e-01
3.425763772320897238e-01
3.461891748160547677e-01
3.428553690419613997e-01
3.336514411383054157e-01
3.176632610454330208e-01
2.958690411740296788e-01
2.684122225229629288e-01
2.356063056311546444e-01
1.986073668223015953e-01
1.574595571087900325e-01
1.133696171641894734e-01
6.690748436946764022e-02
1.903613860374159250e-02
-2.936794005963799803e-02
-7.733925785843875911e-02
-1.240447028565219156e-01
-1.685339530819587317e-01
-2.097882049445948249e-01
-2.473960754062607403e-01
-2.800000799185902167e-01
-3.076042433639072371e-01
-3.291474286759235035e-01
-3.442163039081378439e-01
-3.529230156261500273e-01
-3.542752098591176457e-01
-3.491972453641674079e-01
-3.369603642941019217e-01
-3.180726391128302355e-01
-2.931054671291337677e-01
-2.619645483300627187e-01
-2.260706560990694558e-01
-1.854060092444321795e-01
-1.411117559922201448e-01
-9.401641690365886150e-02
-4.491290808137464452e-02
5.050720456313273488e-03
5.506960105927965338e-02
1.041046772364860873e-01
1.513209737488218909e-01
1.955580161797894623e-01
2.365093312087621635e-01
2.728329630789804727e-01
3.042524069252130481e-01
3.301076437270374919e-01
3.495668908307864031e-01
3.631272712686424153e-01
3.695569382401304726e-01
3.694996241766104195e-01
3.625986569655246239e-01
3.487909700312197270e-01
3.290325482198367402e-01
3.027768031959232609e-01
2.712588474285474449e-01
2.345783811771803284e-01
1.934328467241331340e-01
1.488589110518300229e-01
1.012442061466278798e-01
5.179629689524459235e-02
1.192296179371138409e-03
-4.955427818117585231e-02
-9.959290351520658224e-02
-1.478258362986377139e-01
-1.936933924831886478e-01
-2.360183949925267477e-01
-2.741225062898597908e-01
-3.075011414799750376e-01
-3.349455645878532950e-01
-3.568836850324540455e-01
-3.719975329691634358e-01
-3.804374854998637256e-01
-3.821409045077570621e-01
-3.764331921024465788e-01
-3.646125560417974865e-01
-3.457407191887839071e-01
-3.208149772078006667e-01
-2.902298403382254088e-01
-2.542041472245080147e-01
-2.141852429789924961e-01
-1.701775020286395157e-01
-1.234456388105233948e-01
-7.473449270707233083e-02
-2.488519675677769438e-02
2.505680720189995547e-02
7.426073250415221594e-02
1.219078117338443512e-01
1.670892643060311045e-01
2.089558367766428670e-01
2.471591919620617084e-01
2.805178082561361474e-01
3.091301201711724733e-01
3.321082969988973232e-01
3.491294094194030695e-01
3.604862392385503878e-01
3.651837647179549950e-01
3.642001454906198532e-01
3.568476547780116137e-01
3.434929421429491203e-01
3.247936086608577133e-01
3.003275672233842730e-01
2.714701869099404030e-01
2.379629369544070672e-01
2.006340560454509259e-01
1.602539127931027485e-01
1.171098277264220888e-01
7.234132745082960669e-02
2.635892428683117572e-02
-2.000645745774635303e-02
-6.598817723209464414e-02
-1.107486342000622154e-01
-1.538813393362821746e-01
-1.942474978662864227e-01
-2.314934735623062623e-01
-2.649206904360407178e-01
-2.936168261761278875e-01
-3.179253152898220969e-01
-3.364462571608622943e-01
-3.495368870730324318e-01
-3.566982936350311384e-01
-3.574678883112806238e-01
-3.527058472135711220e-01
-3.414158328531030628e-01
-3.245790170564334387e-01
-3.020870588281825420e-01
-2.741795746773773024e-01
-2.419174686061210111e-01
-2.051421525526854195e-01
-1.650373439630369865e-01
-1.220042778378375159e-01
-7.679044640872895178e-02
-3.032510025607582094e-02
1.672117485121221714e-02
6.355625077019100289e-02
1.092942090446316628e-01
1.531858929469334107e-01
1.946501550903976252e-01
2.325635168327125912e-01
2.669540819087322658e-01
2.966141038100233995e-01
3.212820008779944114e-01
3.407571917523193328e-01
3.539991381821692151e-01
3.618768043486626507e-01
3.631901403854721488e-01
3.583741947288624496e-01
3.475563417556125634e-01
3.302735875472011529e-01
3.078420228756111321e-01
2.795772713424962141e-01
2.464434149485001946e-01
2.088908017437738351e-01
1.673006250835920028e-01
1.227968104593073484e-01
7.574016233585201263e-02
2.713188632283425328e-02
-2.223351873676704393e-02
-7.138417638309868529e-02
-1.196445903209883976e-01
-1.657878329530630968e-01
-2.092774507380636972e-01
-2.490877142571812364e-01
-2.842754728075018722e-01
-3.147183334448750980e-01
-3.389803119660892428e-01
-3.573517130857710722e-01
-3.689040492038015984e-01
-3.733645992198342256e-01
-3.711568181168409808e-01
-3.614170154391112000e-01
-3.452465902069532522e-01
-3.222285682696213183e-01
-2.929949074056352742e-01
-2.583684931235217253e-01
-2.184894966259960380e-01
-1.747689991799509235e-01
-1.275501236884504230e-01
-7.798287145399207532e-02
-2.700338255649137320e-02
2.440966425324231359e-02
7.530968518916814070e-02
1.246413851400307027e-01
1.715014448545892911e-01
2.151232117123475784e-01
2.542848534689141626e-01
2.890445074274851645e-01
3.179553042877127922e-01
3.409709774443385744e-01
3.576424596700457648e-01
3.672122844482118564e-01
3.705353931629769004e-01
3.664675355624851250e-01
3.558474464516049318e-01
3.386040080899681559e-01
3.148163619304040761e-01
2.856657789843848327e-01
2.508271726348419994e-01
2.115877200918114820e-01
1.683163951887716170e-01
1.218189433807013167e-01
7.316028227619586488e-02
2.296306220073474069e-02
-2.769020884930828430e-02
-7.796176096097662267e-02
-1.268318512766763995e-01
-1.736060043795843999e-01
-2.170538078316472941e-01
-2.568535551001693840e-01
-2.918455217653608269e-01
-3.214427388085783210e-01
-3.454191485628268499e-01
-3.625993554299722366e-01
-3.736411872355005492e-01
-3.774533636984727103e-01
-3.743082854092301126e-01
-3.644639476239919240e-01
-3.474294492343981133e-01
-3.245965406855213509e-01
-2.954240172089477312e-01
-2.609582542004709182e-01
-2.218584911539971394e-01
-1.785409868327345606e-01
-1.324367866740860933e-01
-8.387586656478651648e-02
-3.405135363232414392e-02
1.617962355325675006e-02
6.583461349354235992e-02
1.141454511295387775e-01
1.600215419991726229e-01
2.028748979104673111e-01
2.418700942103346740e-01
2.761172044455464381e-01
3.056842527962935208e-01
3.292708110612490024e-01
3.472313207016943792e-01
3.588935311135488249e-01
3.639519368707309077e-01
3.630812617792669172e-01
3.553277761254594047e-01
3.417999448684585495e-01
3.221255611786202344e-01
2.966998481356042383e-01
2.664306419167239426e-01
2.310997271958057375e-01
1.920273368072140663e-01
1.493497423418470582e-01
1.039128912606219757e-01
5.659563415431345668e-02
7.998444684607086685e-03
-4.095314346800260630e-02
-8.944790615680164869e-02
-1.366745015185482082e-01
-1.818983536274594304e-01
-2.239948606145150123e-01
-2.628690658943449998e-01
-2.971350527262131003e-01
-3.265306377490699852e-01
-3.505619162647331533e-01
-3.681757685989689444e-01
-3.801761297204478973e-01
-3.851188289055699765e-01
-3.835596176232463073e-01
-3.753897374744444848e-01
-3.602332644294702346e-01
-3.393748586486849961e-01
-3.120788146287222231e-01
-2.794987158172503872e-01
-2.420029969852566243e-01
-2.000139006830117250e-01
-1.548491949639161369e-01
-1.067274387795227319e-01
-5.682797841235176506e-02
-5.933171102746381820e-03
4.513084422027358045e-02
9.544403126349765287e-02
1.440741336189872435e-01
1.904708737737927926e-01
2.336075912167068225e-01
2.728540861758470548e-01
3.078875948959924891e-01
3.375532574902564420e-01
3.622541849309399709e-01
3.809098029210913339e-01
3.934917050245383408e-01
4.001810732058466158e-01
4.000883288525498571e-01
3.943863295155543014e-01
3.821940120121753992e-01
3.641151121867833851e-01
3.406358501857944532e-01
3.114831509586686309e-01
2.780645833201846884e-01
2.400654472459500255e-01
1.984237386973983774e-01
1.538265000691696471e-01
1.067318984746874477e-01
5.817117259884785341e-02
8.738888881996587088e-03
-4.077570924190077051e-02
-8.950324441607548920e-02
-1.365302729917559077e-01
-1.814607973785031803e-01
-2.229595722594881479e-01
-2.608043622817692864e-01
-2.940474891496682730e-01
-3.218967973240705049e-01
-3.445513889256863749e-01
-3.606114754683211743e-01
-3.706272165526875995e-01
-3.738623716481077608e-01
-3.701856025469432154e-01
-3.602821812850249827e-01
-3.434010391612281055e-01
-3.207494357219804471e-01
-2.921395756693296875e-01
-2.582362629956476141e-01
-2.200157506867075341e-01
-1.776857265466258440e-01
-1.326064227538665818e-01
-8.527058373318752160e-02
-3.671700699135094226e-02
1.209420279501793871e-02
6.026088001617857515e-02
1.069715330455656144e-01
1.512128601218210022e-01
1.922868967459372413e-01
2.295425840577902665e-01
2.619710715176812865e-01
2.897861707986385538e-01
3.117696256975691638e-01
3.280681616481324614e-01
3.384546953370412004e-01
3.423451478744969911e-01
3.408348479565195266e-01
3.329209654445761668e-01
3.195438520526723281e-01
3.008468648060751427e-01
2.768915906243512026e-01
2.490205786983650249e-01
2.168521168249544218e-01
1.815915530588156912e-01
1.436567161301960383e-01
1.035594788997382665e-01
6.238183900016647243e-02
2.039515140431547024e-02
-2.153187496442043880e-02
-6.276679528777862060e-02
-1.027467882657786546e-01
-1.408932549401757939e-01
-1.764895761218951975e-01
-2.093842758923338820e-01
-2.387723572091697832e-01
-2.643945087533445815e-01
-2.861347016605844118e-01
-3.031701092504146544e-01
-3.160782124713925612e-01
-3.240058112270158830e-01
-3.271552128877495136e-01
-3.257192742767092142e-01
-3.191328619115019194e-01
-3.084215952015192386e-01
-2.929621654752452287e-01
-2.733569858881956804e-01
-2.500109252035755958e-01
-2.228814759433923598e-01
-1.930202978006452241e-01
-1.603691723052342866e-01
-1.256649690219973081e-01
-8.948416677152515319e-02
-5.232304035057389058e-02
-1.481485036772767216e-02
2.236451810016149011e-02
5.874459286986422057e-02
9.364724502865229283e-02
1.263572936217798315e-01
1.568077893307737725e-01
1.838781455714944002e-01
2.076448580582432868e-01
2.274458618358607964e-01
2.427789844743752923e-01
2.540350596540434935e-01
2.601611883813248483e-01
2.617974242734515400e-01
2.584556025243607280e-01
2.501386033159853639e-01
2.374710328085498645e-01
2.199352520240740461e-01
1.984849646954245372e-01
1.730081731205448392e-01
1.440325110333358083e-01
1.122116843128910801e-01
7.780524233865371286e-02
4.166746631296902592e-02
4.241847003766174851e-03
-3.369055979523771782e-02
-7.156820295179944225e-02
-1.084623921665572865e-01
-1.440287544988247959e-01
-1.772618221388206905e-01
-2.075768579725185692e-01
-2.345809444263544652e-01
-2.571218667284526083e-01
-2.756059860527355632e-01
-2.887546110743022254e-01
-2.965888509923155780e-01
-2.989881261524462985e-01
-2.951975784491631671e-01
-2.862181282926909986e-01
-2.711259113971351553e-01
-2.506241957059334169e-01
-2.249740784438092334e-01
-1.942080541313959685e-01
-1.595226690752085119e-01
-1.208408256525874691e-01
-7.921086386687470338e-02
-3.528458393510192082e-02
1.026462029929220421e-02
5.640524275520775177e-02
1.024446496779525262e-01
1.475417859378858054e-01
1.907989326051762191e-01
2.314529364771154007e-01
2.688959228918506028e-01
3.021608341713353241e-01
3.310711088756406184e-01
3.547492481788587781e-01
3.729244920030048149e-01
3.854796566734464136e-01
3.917870406769310421e-01
3.924110648920162703e-01
3.868167354639737709e-01
3.754706519176593815e-01
3.586682254310034068e-01
3.365171493909571154e-01
3.099935706958234505e-01
2.791822953716334155e-01
2.450557081886586275e-01
2.082037865461927595e-01
1.694215534163561188e-01
1.295841383375133660e-01
8.944906190544088531e-02
4.992337100437538311e-02
1.175268126245754274e-02
-2.410660095482342058e-02
-5.723356787903810527e-02
-8.658380563250034356e-02
-1.118768829886995775e-01
-1.324282445196054425e-01
-1.478637624186909250e-01
-1.582153689776255590e-01
-1.629032517367612343e-01
-1.625197156696636114e-01
-1.566602301424637744e-01
-1.458476770062624439e-01
-1.307141852338951082e-01
-1.113678351959279667e-01
-8.910048326950459341e-02
-6.400044815408278964e-02
-3.718583466483416089e-02
-9.689983082644459955e-03
1.783566755758769773e-02
4.402079941040071276e-02
6.851943896579104631e-02
9.026886585130355911e-02
1.083129980540413762e-01
1.219387963133490016e-01
1.304235615905886547e-01
1.336915417448594212e-01
1.315348239458113966e-01
1.233644381303822257e-01
1.084412269189769518e-01
8.682415905103368914e-02
6.032369883023136481e-02
3.365100154924505205e-02
1.232151399829994887e-02
1.551228246740588013e-04
