BVP Green Neck Signal
-3.011543488582305028e-03
8.856890514326153790e-04
4.557319003545829209e-03
7.845414635272782503e-03
1.059204421412892304e-02
1.263927966722118261e-02
1.384492431972121802e-02
1.411852374468884098e-02
1.338308334283730937e-02
1.160435837526240833e-02
8.781193628996425762e-03
4.932547186743499804e-03
1.296532158416088820e-04
-5.544457894824678795e-03
-1.197140602668841231e-02
-1.900978375113543742e-02
-2.650795757205166858e-02
-3.429213626463960968e-02
-4.218512421861415895e-02
-5.000624705547661308e-02
-5.757299505926676692e-02
-6.470933319077305790e-02
-7.125142885035513907e-02
-7.704009342282069905e-02
-8.194092008420182649e-02
-8.583107192526867602e-02
-8.860651974056522884e-02
-9.019275087668179869e-02
-9.052378356882800903e-02
-8.956992409041528158e-02
-8.731574094906247030e-02
-8.376845135979413270e-02
-7.896520262236936261e-02
-7.295185398203797578e-02
-6.580754942319017031e-02
-5.762249905772799663e-02
-4.850617358517923805e-02
-3.858949969887572051e-02
-2.800973015136248856e-02
-1.692547105376040334e-02
-5.501252592795585067e-03
6.089229458445208701e-03
1.766367193094366128e-02
2.903906619341338480e-02
4.003114756507716865e-02
5.045597608089839176e-02
6.013880509117122686e-02
6.891217254777154411e-02
7.661750413671651605e-02
8.312041602021710829e-02
8.829326787252909925e-02
9.203954986589467369e-02
9.428353939896728930e-02
9.496834893906802577e-02
9.407970814691186956e-02
9.161377081035555758e-02
8.760926944371225100e-02
8.212886688005624491e-02
7.525593766882963942e-02
6.711321432294922729e-02
5.783177797932892439e-02
4.757267719902401326e-02
3.651105590975739501e-02
2.483100375193841858e-02
1.273089722782091808e-02
4.103702790163206438e-04
-1.193117635593575303e-02
-2.409464122419638366e-02
-3.588985028927688808e-02
-4.713871312761366145e-02
-5.766883481826855923e-02
-6.733265248399265823e-02
-7.599125378124256536e-02
-8.352647126213334772e-02
-8.984377674428591087e-02
-9.485774323120411966e-02
-9.851587197961271525e-02
-1.007754436512441620e-01
-1.016174670703881011e-01
-1.010457447603183290e-01
-9.907372796922435387e-02
-9.574509315489347638e-02
-9.111140562203801085e-02
-8.524604797594412253e-02
-7.824006981350065115e-02
-7.019332936717732896e-02
-6.122938656040818883e-02
-5.147732529623912090e-02
-4.108277724481970011e-02
-3.020265991847181225e-02
-1.899937089660840017e-02
-7.647760831854450748e-03
3.675161583121326972e-03
1.478884766896399090e-02
2.551075403193989177e-02
3.566180041670522632e-02
4.506977785025328975e-02
5.356565937868915106e-02
6.099932720111884976e-02
6.722993299452638405e-02
7.213410520919477653e-02
7.561720090185393428e-02
7.759366714551929611e-02
7.801926636731418285e-02
7.686679830965741089e-02
7.413794128382490689e-02
6.987431086545024816e-02
6.412935057455131094e-02
5.700338427944817710e-02
4.861298589763766304e-02
3.910126731050675430e-02
2.864226930742050370e-02
1.741806067916349537e-02
5.637876501774974000e-03
-6.481344184124355513e-03
-1.871460223325781963e-02
-3.082897916313785680e-02
-4.259289538567297140e-02
-5.378071463599634616e-02
-6.416917241314457065e-02
-7.355261614634313327e-02
-8.173998629583288655e-02
-8.855321762830795085e-02
-9.385100773160538756e-02
-9.750195757213070413e-02
-9.941618418017163228e-02
-9.953280120005418563e-02
-9.781417437677152049e-02
-9.427762123044182430e-02
-8.895372681907005863e-02
-8.192514127045308348e-02
-7.330513214100277397e-02
-6.323139306989757069e-02
-5.189014405592982937e-02
-3.947779339595734044e-02
-2.622631576631326983e-02
-1.238519641512696341e-02
1.786646850861849101e-03
1.601457340756082953e-02
3.002333579409574571e-02
4.354370442861719981e-02
5.630926905895641821e-02
6.807131404338555292e-02
7.860618804170237117e-02
8.770115173202128189e-02
9.519222282920325462e-02
1.009330767624957020e-01
1.048174665177816073e-01
1.067869276375509185e-01
1.068000945545982544e-01
1.048790823326645749e-01
1.010653613787580035e-01
9.544096020578471395e-02
8.812866944789124468e-02
7.926457028911919334e-02
6.902669264818195316e-02
5.760365675073135516e-02
4.520195829168516949e-02
3.204323409931377625e-02
1.835071580898239851e-02
4.350988452753043467e-03
-9.729559976763422352e-03
-2.367555468586745454e-02
-3.727949844015051445e-02
-5.034358457579384688e-02
-6.269366955071803416e-02
-7.416174758350409235e-02
-8.460636816287607498e-02
-9.390206841405084048e-02
-1.019376989613605539e-01
-1.086312575066790270e-01
-1.139076661105059424e-01
-1.177197491013750735e-01
-1.200344831776953142e-01
-1.208337209250367333e-01
-1.201248407813701041e-01
-1.179216462331496434e-01
-1.142644393306213174e-01
-1.092048819186505343e-01
-1.028103505657968209e-01
-9.517095526083842183e-02
-8.638315898422960215e-02
-7.656882064433216672e-02
-6.585900368151804962e-02
-5.439947475417008377e-02
-4.235392870201242638e-02
-2.989074001323395458e-02
-1.719464690558042061e-02
-4.455220273325259314e-03
8.133741537651175205e-03
2.037409459287936597e-02
3.206967466372025177e-02
4.303247022594119259e-02
5.307740599654982294e-02
6.203793303512208923e-02
6.976356068790667830e-02
7.611681760922618667e-02
8.099870652270584059e-02
8.432056447093645712e-02
8.603447059636977479e-02
8.612227097128181963e-02
8.458658099468968627e-02
8.148120531545959000e-02
7.687185849923025560e-02
7.086631981590331419e-02
6.359823425994652613e-02
5.521720490981504859e-02
4.590584085861758312e-02
3.585275312968177336e-02
2.526212486582420785e-02
1.434610826928301754e-02
3.315406268855293839e-03
-7.621957188499219223e-03
-1.826102733780472775e-02
-2.841641799619244735e-02
-3.791145480016724217e-02
-4.658820090160904065e-02
-5.431647554201890493e-02
-6.097496187608256873e-02
-6.648009736544994996e-02
-7.076237975188824636e-02
-7.377679897650438190e-02
-7.550889410659986090e-02
-7.595335791185379992e-02
-7.513870935474985246e-02
-7.310409699073165679e-02
-6.990756438199681455e-02
-6.562702296953316916e-02
-6.034632698726869610e-02
-5.416853293012063864e-02
-4.720179564662758259e-02
-3.956338990182087928e-02
-3.137867409886398867e-02
-2.277512085546447990e-02
-1.388600040136091923e-02
-4.845758163775689548e-03
4.210694642183781047e-03
1.314810263419596663e-02
2.183291049304764836e-02
3.013602453726909464e-02
3.792987153915348270e-02
4.509584280073464235e-02
5.152099035730283577e-02
5.709972061638947383e-02
6.174220698101869076e-02
6.536308695345301178e-02
6.789838473721063195e-02
6.929550905504480718e-02
6.951646379500707462e-02
6.854950783278365711e-02
6.638992586444256161e-02
6.306364987304741154e-02
5.861034204131321257e-02
5.308732413450732018e-02
4.657864685854605502e-02
3.917482287669803165e-02
3.099113730157455199e-02
2.215212956438106923e-02
1.279194539988835581e-02
3.056980066102107235e-03
-6.904906696623388900e-03
-1.694265359356033479e-02
-2.690445230101081581e-02
-3.664408927496877466e-02
-4.602136903332213619e-02
-5.490059204622992073e-02
-6.316261242405386833e-02
-7.069319425044492955e-02
-7.739422091265554804e-02
-8.318219155021260025e-02
-8.798117756962663127e-02
-9.173808859380251646e-02
-9.440568695352782869e-02
-9.595494560191841771e-02
-9.637075595077003454e-02
-9.564600788570212786e-02
-9.379406739461076947e-02
-9.083315872513643419e-02
-8.679844467728553559e-02
-8.173599832301815804e-02
-7.570004997671413161e-02
-6.876256398674729375e-02
-6.099968170389196559e-02
-5.250395891623248906e-02
-4.337685780512308409e-02
-3.372803194764772972e-02
-2.368216867674314413e-02
-1.336723934872149737e-02
-2.923438948568914814e-03
7.503496004145447998e-03
1.776436235336034675e-02
2.770461021081680603e-02
3.716982334313302661e-02
4.600916887879347855e-02
5.407339743949034216e-02
6.122306088202579544e-02
6.733151148435201350e-02
7.227868203350752696e-02
7.597268370237625357e-02
7.833126007303334304e-02
7.929874134231335026e-02
7.884870705192272011e-02
7.696723504199338983e-02
7.368490210814018782e-02
6.904513313379470607e-02
6.312348057377882571e-02
5.602529269138016577e-02
4.786725490131588101e-02
3.880002282020400539e-02
2.898232806976766551e-02
1.858851465619924120e-02
7.805124159787875729e-03
-3.180142045551396374e-03
-1.417728844195082633e-02
-2.499688947581051729e-02
-3.546095963699247983e-02
-4.539907264344619081e-02
-5.465131747783887745e-02
-6.308143207520987283e-02
-7.055938818553514347e-02
-7.698312736723235405e-02
-8.226613025251693079e-02
-8.633736455292966017e-02
-8.915490374173583310e-02
-9.068366301040452215e-02
-9.091586064542686585e-02
-8.985647346094480237e-02
-8.752388324639691353e-02
-8.395768646097724608e-02
-7.920252584890423442e-02
-7.332256741709858305e-02
-6.638968388427203549e-02
-5.848620406120231402e-02
-4.970841126461537224e-02
-4.015655266344778790e-02
-2.994600694567611798e-02
-1.919724653933504305e-02
-8.039933154616027422e-03
3.385931388200789233e-03
1.493722964551295017e-02
2.646019367257007593e-02
3.779810890591675521e-02
4.879044570804001724e-02
5.927305565473545146e-02
6.908268605962943065e-02
7.805962953734751908e-02
8.604570840084063699e-02
9.289500375127521248e-02
9.847140593508312001e-02
1.026491794650071648e-01
1.053310252100311123e-01
1.064274950600845038e-01
1.058846032410583060e-01
1.036722806745378617e-01
9.978142032443410026e-02
9.425080296592448781e-02
8.713074559741584846e-02
7.851751256715622240e-02
6.853344075181951045e-02
5.732157322520468890e-02
4.506465476582488527e-02
3.195321624743151928e-02
1.820296784788219546e-02
4.041519033891180154e-03
-1.030062612252958393e-02
-2.458836442157570634e-02
-3.858875578834331660e-02
-5.208528859542840145e-02
-6.486836411819453529e-02
-7.674947433279541431e-02
-8.756893037075869080e-02
-9.717772636566932021e-02
-1.054715516025721833e-01
-1.123615905984164109e-01
-1.177899719024097513e-01
-1.217344402193786257e-01
-1.241840354054230960e-01
-1.251675453119117376e-01
-1.247252984995709524e-01
-1.229183689810061375e-01
-1.198279601436907510e-01
-1.155406350652140035e-01
-1.101588300428366085e-01
-1.037887031986846759e-01
-9.654048352993595261e-02
-8.852772762508859250e-02
-7.986337458430822767e-02
-7.065829869843015532e-02
-6.102264550345892075e-02
-5.106200902251415569e-02
-4.087884511290412748e-02
-3.057339718787285832e-02
-2.024076456971027338e-02
-9.974979991948056818e-03
1.330720701027427594e-04
9.994331028522972574e-03
1.952065400591627281e-02
2.862568213743501427e-02
3.722355028766335255e-02
4.523066708043135126e-02
5.256458144888084133e-02
5.914603959666644983e-02
6.490110344405586318e-02
6.975816617473927506e-02
7.365755308658046563e-02
7.654463318247327341e-02
7.837659734946164636e-02
7.912715855991075964e-02
7.877611329001643625e-02
7.732913323512767556e-02
7.480108753411189582e-02
7.122594852405414456e-02
6.666017921351859166e-02
6.116760064991032253e-02
5.483857910780436107e-02
4.777133970266143892e-02
4.007774854854857793e-02
3.188321020842638243e-02
2.331584095274756574e-02
1.451141787395162329e-02
5.607243416498512364e-03
-3.262704965480169722e-03
-1.196723440346195502e-02
-2.037992568923925954e-02
-2.838824255954526532e-02
-3.588348762708962192e-02
-4.277377737175028921e-02
-4.897908890421726058e-02
-5.442831747422333805e-02
-5.907161471145979531e-02
-6.286411638428891779e-02
-6.577944110593467175e-02
-6.780218412328563315e-02
-6.892518977277689585e-02
-6.915784068169131271e-02
-6.851312450211197169e-02
-6.701719400606574728e-02
-6.470278092227010891e-02
-6.160845631447267601e-02
-5.778267261154075574e-02
-5.327616646989317972e-02
-4.814852542893729298e-02
-4.246307695445555863e-02
-3.628802240558046122e-02
-2.969852456135271823e-02
-2.277165127774351261e-02
-1.559196610756618390e-02
-8.246703792735194521e-03
-8.270137644631756282e-04
6.571241014589739374e-03
1.385133546983056095e-02
2.091393252196217800e-02
2.765905025676149154e-02
3.398878805431120032e-02
3.980735829967306516e-02
4.502184558246397766e-02
4.954958271911790585e-02
5.331107144406898452e-02
5.624103143700610874e-02
5.828635198943636631e-02
5.940262972472089287e-02
5.957071845306610713e-02
5.877805731343015150e-02
5.703660113108317831e-02
5.437598955044583432e-02
5.083716900854279297e-02
4.648851799962205877e-02
4.140441300709283429e-02
3.567797729044851207e-02
2.941369945083160964e-02
2.272050523578796749e-02
1.571626235634399071e-02
8.519537827569827540e-03
1.245301975232992325e-03
-5.993389097090845788e-03
-1.309145047968373818e-02
-1.995769141947124903e-02
-2.650544407706329625e-02
-3.266958506956196134e-02
-3.839433325639766970e-02
-4.363741599596750176e-02
-4.837630289084970947e-02
-5.259324680098472621e-02
-5.628856420502848651e-02
-5.946905645281276576e-02
-6.214761863109748152e-02
-6.434464775596736297e-02
-6.608091664009160815e-02
-6.737679815616572088e-02
-6.825231761302529010e-02
-6.872177399087636696e-02
-6.879351993013302358e-02
-6.847263536423514596e-02
-6.775285525893007255e-02
-6.662484468265340853e-02
-6.507221925400168139e-02
-6.307242455677079807e-02
-6.060197259254639784e-02
-5.763511541772094876e-02
-5.414611764502242491e-02
-5.011557523188716473e-02
-4.552876497195399580e-02
-4.037794032617451900e-02
-3.467304522817025308e-02
-2.842892914979602143e-02
-2.168349417109837612e-02
-1.448898662646149263e-02
-6.910733961860769485e-03
9.583902834369578683e-04
9.019328548429466838e-03
1.714993783675718142e-02
2.521603384002762266e-02
3.307640300223768648e-02
4.057744672857575841e-02
4.756467914333798591e-02
5.388642734038681659e-02
5.939245572422892361e-02
6.394473377560114247e-02
6.742352029123070689e-02
6.971693482472057779e-02
7.074981415754499903e-02
7.046096654264265291e-02
6.881904830001529805e-02
6.583032673284432146e-02
6.151356526992542151e-02
5.593528679102788281e-02
4.917721339618617155e-02
4.134903621339183766e-02
3.259015237240966978e-02
2.304806840507998833e-02
1.289622307983510734e-02
2.314716342821532963e-03
-8.509459831081214731e-03
-1.938314401006785426e-02
-3.011506371759880424e-02
-4.052068138415174103e-02
-5.041788780672044890e-02
-5.964031790072234912e-02
-6.803349616675903599e-02
-7.545341710033151572e-02
-8.178295397329451988e-02
-8.691181070361084227e-02
-9.075743343792362638e-02
-9.325491990183802649e-02
-9.435400599262297461e-02
-9.403591669858954449e-02
-9.228936117391134397e-02
-8.913292245301718264e-02
-8.460119511831248884e-02
-7.874424181756758956e-02
-7.164017010733506052e-02
-6.337377010306476099e-02
-5.405669853659453294e-02
-4.381273789379100392e-02
-3.277931561991927895e-02
-2.111471110740036766e-02
-8.981925933478374438e-03
3.438520125081575771e-03
1.595953537911284914e-02
2.838875321407105523e-02
4.052701588299387897e-02
5.217559866306890198e-02
6.314006088942775152e-02
7.322775430629845095e-02
8.225927742958381861e-02
9.006962105041978195e-02
9.650310866546329969e-02
1.014384020965701516e-01
1.047645074053967229e-01
1.064056377394361902e-01
1.063182517960599149e-01
1.044764079301895021e-01
1.009079841143974005e-01
9.565475290529310004e-02
8.880168015812302251e-02
8.046707470294275910e-02
7.078590052938059374e-02
5.993588459229724774e-02
4.810385446530344999e-02
3.549927715380971072e-02
2.234630985914368151e-02
8.871277566529755729e-03
-4.695181469086900927e-03
-1.812346606744924885e-02
-3.119909421509707570e-02
-4.371595123368120228e-02
-5.548404983077650371e-02
-6.634347455703513974e-02
-7.614289792142565905e-02
-8.477055360095546443e-02
-9.213299831839806553e-02
-9.816047996464198622e-02
-1.028203033982530989e-01
-1.060889708537307158e-01
-1.079792584158374286e-01
-1.085180276998538168e-01
-1.077492837982827883e-01
-1.057396219100201484e-01
-1.025606366513318324e-01
-9.830114267306309939e-02
-9.305551513668214314e-02
-8.692385744369870992e-02
-8.001263736447192243e-02
-7.242921251364768664e-02
-6.428322307491687870e-02
-5.568485824029749398e-02
-4.674358992554386583e-02
-3.756821804546500027e-02
-2.826688617323836611e-02
-1.894561630151580384e-02
-9.709857710610163284e-03
-6.630878781671931815e-04
8.092773322957725821e-03
1.645701921000788936e-02
2.433219384444394034e-02
3.162181357687385980e-02
3.823438198872095017e-02
4.408173024244511906e-02
4.908011327820260145e-02
5.315583403928240275e-02
5.623820114279202975e-02
5.827182034079417261e-02
5.920990723473679163e-02
5.901708240507096137e-02
5.767967862172142246e-02
5.519000412578552173e-02
5.156746328296262644e-02
4.684430402002742050e-02
4.106958965903371311e-02
3.431929345000312576e-02
2.667636120549248674e-02
1.825217074780838972e-02
9.169427509678850299e-03
-4.342744970256178297e-04
-1.040127138545112254e-02
-2.056918793924894517e-02
-3.075880418807826894e-02
-4.078535619053089145e-02
-5.045913365996258781e-02
-5.958480570617873812e-02
-6.796778484171643597e-02
-7.541788683865907617e-02
-8.174671373461303570e-02
-8.677930190835067559e-02
-9.035356115705532598e-02
-9.231773647918616044e-02
-9.255397417495371537e-02
-9.095421529466964083e-02
-8.745034722112854375e-02
-8.200653129806248498e-02
-7.461025018739395054e-02
-6.531276205671483759e-02
-5.418162020701038084e-02
-4.134702140130812331e-02
-2.698181323010478277e-02
-1.128929240882133207e-02
5.457318316093679941e-03
2.296937432768682980e-02
4.090550099227564101e-02
5.889417036194129207e-02
7.654929368285731672e-02
9.345684961498570975e-02
1.092007911997928404e-01
1.233748218878678860e-01
1.355777197618171226e-01
1.454389681023917913e-01
1.526385078562677022e-01
1.568763359469906860e-01
1.579512044929412273e-01
1.557027490084516574e-01
1.500511882547256870e-01
1.410279246378874085e-01
1.286997304256929375e-01
1.132764971826101114e-01
9.501772703667553388e-02
7.426764040985428528e-02
5.146894735261380027e-02
2.708915320597492932e-02
1.678802736835495468e-03
-2.418857288468544836e-02
-4.992595898433707657e-02
-7.493312696691326047e-02
-9.862412224978495123e-02
-1.204655337645025720e-01
-1.399409879788360012e-01
-1.566242224497433888e-01
-1.701634419975955603e-01
-1.802609136934659739e-01
-1.867702497143046703e-01
-1.895830568594863985e-01
-1.887265110042766758e-01
-1.843221757423382512e-01
-1.765480051761052771e-01
-1.657137035416633986e-01
-1.521562041700552093e-01
-1.362908611682802085e-01
-1.185788554159253605e-01
-9.949426031716052110e-02
-7.953595186783492255e-02
-5.920199287240838354e-02
-3.895955797788597241e-02
-1.926020921590979040e-02
-5.135998011515261960e-04
1.694100643797313843e-02
3.278638076621016167e-02
4.680623843825933161e-02
5.882657679464831091e-02
6.873640850825443738e-02
7.651364977234528797e-02
8.215898064906057563e-02
8.575962803779763055e-02
8.743300985144529525e-02
8.733289038989966446e-02
8.565624673436222913e-02
8.260677536928148768e-02
7.840675851572709298e-02
7.328318271556065466e-02
6.745295976885741507e-02
6.112290091258709701e-02
5.448943626641077065e-02
4.771284898980514971e-02
4.094317432143819435e-02
3.429529583127755715e-02
2.785438924183510773e-02
2.169086179399506986e-02
1.583368529773957617e-02
1.030222623650785090e-02
5.090798766378827264e-03
1.758870266468336163e-04
-4.471871596260824228e-03
-8.895386323224209468e-03
-1.313948380242258539e-02
-1.724746938081005501e-02
-2.126169844800267217e-02
-2.521819078621084786e-02
-2.913992845430917605e-02
-3.304597458536850940e-02
-3.693601572070730893e-02
-4.079992082761441791e-02
-4.461606778885794655e-02
-4.834315240010145232e-02
-5.193536323701575252e-02
-5.532950935502266993e-02
-5.845505571590024069e-02
-6.123557035770293977e-02
-6.358612670625723995e-02
-6.542124835413513917e-02
-6.665609094791082045e-02
-6.720626965995731006e-02
-6.699555518733453507e-02
-6.595764285613907318e-02
-6.403209663894368631e-02
-6.118241618983037700e-02
-5.737986028155999535e-02
-5.261893062467843524e-02
-4.691796307172958758e-02
-4.030629018659379059e-02
-3.285024074313819265e-02
-2.462630218166853013e-02
-1.573838406563091846e-02
-6.314100347683689572e-03
3.509092204960430686e-03
1.356589519554076036e-02
2.368477585509865674e-02
3.368173676717972631e-02
4.336371330879375957e-02
5.253828438364691739e-02
6.101518411960657473e-02
6.860622587736547873e-02
7.514205677912035031e-02
8.046493850217495414e-02
8.443480615263113109e-02
8.694857302880125427e-02
8.791346229804591905e-02
8.728517344964253910e-02
8.504453756150558152e-02
8.120200476567134007e-02
7.581993406731359075e-02
6.897329304065678846e-02
6.078810372285400887e-02
5.141257076468663118e-02
4.101757146461406517e-02
2.980741930844914983e-02
1.799228598838981119e-02
5.800319495888866389e-03
-6.534082591826542719e-03
-1.878004988936426284e-02
-3.071111220605594883e-02
-4.210687376970382451e-02
-5.277397992693096118e-02
-6.252813224810246928e-02
-7.121466198903488032e-02
-7.870997848556385290e-02
-8.490463915876278467e-02
-8.973776168051020297e-02
-9.316198623745250429e-02
-9.516525605762787832e-02
-9.576672932016494499e-02
-9.499844873042269378e-02
-9.292967496496284951e-02
-8.963843583438030338e-02
-8.522345032660204323e-02
-7.979885035563186180e-02
-7.348375972181553362e-02
-6.640934700377434940e-02
-5.870881806886401461e-02
-5.051650883252387786e-02
-4.196744647275400114e-02
-3.319378213469724448e-02
-2.432142083688133144e-02
-1.547431015073012436e-02
-6.766250289906786640e-03
1.694341543804083611e-03
9.805483541332352462e-03
1.747673508759264166e-02
2.462060926753499579e-02
3.116211183627764364e-02
3.703183897370972144e-02
4.216801236188189028e-02
4.652036841124602279e-02
5.004204415828513580e-02
5.270044150990264853e-02
5.446840770676382448e-02
5.532915672510264893e-02
5.527909668279298860e-02
5.431931406491909836e-02
5.246919312929435031e-02
4.975409624785608748e-02
4.621273583517718914e-02
4.189814678773035039e-02
3.686860297345203458e-02
3.120020421687613732e-02
2.497395196041961307e-02
1.828092636487031047e-02
1.122132255118162523e-02
3.897573377717377871e-03
-3.581714420430599788e-03
-1.110680102664368674e-02
-1.856960198760678610e-02
-2.586329962987395092e-02
-3.288451419733004477e-02
-3.953896113770195841e-02
-4.573491737314515360e-02
-5.139285097951375864e-02
-5.644106790192893880e-02
-6.081481956199899508e-02
-6.446447120792833663e-02
-6.734397225709577717e-02
-6.942149600322955472e-02
-7.067291396407691939e-02
-7.108118559769535660e-02
-7.064224615220472681e-02
-6.935511836049242096e-02
-6.723124301146987669e-02
-6.428773639193534339e-02
-6.054886286607429752e-02
-5.604992598897517303e-02
-5.082936773888866583e-02
-4.493876852001529865e-02
-3.843481716687859040e-02
-3.138316548019499941e-02
-2.386113340386461501e-02
-1.594973140926716354e-02
-7.744255172239416542e-03
6.553198962536317673e-04
9.140830676650496880e-03
1.759512941491464533e-02
2.589905835435801079e-02
3.392720272625994460e-02
4.155266711805737090e-02
4.865050747262202741e-02
5.509758562759208000e-02
6.077489530748131363e-02
6.557691210570337770e-02
6.940220693790181972e-02
7.216921368668292869e-02
7.381186162276054397e-02
7.427651539378171686e-02
7.354246559436988795e-02
7.159733942008758567e-02
6.846144165042852836e-02
6.417655279438129468e-02
5.879994172614239067e-02
5.242321163732966555e-02
4.514533324444072737e-02
3.709002852699563868e-02
2.839467207789848208e-02
1.920328197424277239e-02
9.672193394123776086e-03
-4.116095632280322020e-05
-9.781433728916127945e-03
-1.939437028785619480e-02
-2.873445549976313268e-02
-3.767003031244687411e-02
-4.607459437511757239e-02
-5.384587285960070607e-02
-6.089123043880124292e-02
-6.713514290343511326e-02
-7.252487264175738746e-02
-7.701426681028698817e-02
-8.058240471365475666e-02
-8.321676203835323693e-02
-8.491791847760368772e-02
-8.570116138147564067e-02
-8.558550072722102831e-02
-8.460212931402667780e-02
-8.278561601073652909e-02
-8.017518000958011315e-02
-7.681444077599612619e-02
-7.274811948193782296e-02
-6.802409920687714495e-02
-6.269108676962635573e-02
-5.680018073923177174e-02
-5.040438840231037387e-02
-4.355846392466945771e-02
-3.632191708486336157e-02
-2.875558767154913486e-02
-2.092646383267145541e-02
-1.290566974621434188e-02
-4.767915930280312159e-03
3.403917071666817673e-03
1.152509345567130465e-02
1.950412597486800292e-02
2.724571817272467694e-02
3.465299492953223537e-02
4.162610123275762436e-02
4.806535087251901511e-02
5.387504141223728449e-02
5.896145032630149829e-02
6.323828801981698500e-02
6.663131592738059938e-02
6.907093132349516329e-02
7.050990903822167144e-02
7.091016958905109469e-02
7.025147458902186726e-02
6.853789247970548670e-02
6.578113938579055464e-02
6.202349485622955794e-02
5.731769465109209927e-02
5.173418443936316641e-02
4.536374171003122041e-02
3.830236070904954188e-02
3.066344726675178378e-02
2.256523965807884918e-02
1.413047515052959398e-02
5.486245249474214561e-03
-3.241405304648167091e-03
-1.193071116422659075e-02
-2.046139887879644403e-02
-2.872231772756028700e-02
-3.660976178911019840e-02
-4.402527120514564823e-02
-5.088486548544078614e-02
-5.710812943096443828e-02
-6.262699081472597462e-02
-6.738186449065577954e-02
-7.131866140202541837e-02
-7.439600655397816953e-02
-7.657552233814515774e-02
-7.783025637097563953e-02
-7.813988457545427424e-02
-7.749085973451529108e-02
-7.588293940954389527e-02
-7.331951305723934109e-02
-6.982051113269323317e-02
-6.541397638536833314e-02
-6.013922178130916979e-02
-5.405420640763879125e-02
-4.722200381169598671e-02
-3.972751876991651582e-02
-3.166465523911318053e-02
-2.313940663387458255e-02
-1.427460549856558736e-02
-5.196818598734917298e-03
3.954181233212419183e-03
1.303419444574002890e-02
2.189731306306517272e-02
3.039562551301751986e-02
3.838342717658909525e-02
4.572514083275020652e-02
5.228866183968346876e-02
5.795796080090588609e-02
6.263292309929639756e-02
6.622288907858694951e-02
6.866865519041417953e-02
6.991974734468021924e-02
6.995421992532062372e-02
6.877393738358336672e-02
6.639363648486741598e-02
6.286391432843219107e-02
5.824392939477145148e-02
5.261865398847830749e-02
4.609120785889914140e-02
3.877302213549287113e-02
3.079492811524287693e-02
2.229118753452456053e-02
1.340143425703086040e-02
4.268442033161626986e-03
-4.968730388250861343e-03
-1.417866543621827159e-02
-2.323300283041149911e-02
-3.202096105094889844e-02
-4.044057827645329561e-02
-4.840218267080829279e-02
-5.583690730528542701e-02
-6.268099792608956833e-02
-6.889135334125781607e-02
-7.443352445191120381e-02
-7.928185705178540654e-02
-8.342321888180100065e-02
-8.684671412122607626e-02
-8.954841018199773128e-02
-9.152675913988514433e-02
-9.278087149644467790e-02
-9.331064664733827729e-02
-9.311578686064631016e-02
-9.219490238662501891e-02
-9.054633840697948188e-02
-8.816939195729282808e-02
-8.506432401766222950e-02
-8.123340198824635650e-02
-7.668611656686466493e-02
-7.143425035165165693e-02
-6.550067599570859322e-02
-5.891773472429814168e-02
-5.172456103748773737e-02
-4.397994621387470854e-02
-3.574771959905805735e-02
-2.710969078884679223e-02
-1.816060465902945981e-02
-9.002548784256551168e-03
2.446994082940662230e-04
9.457827787162085761e-03
1.850492970428383593e-02
2.724892189079768101e-02
3.555393820288586804e-02
4.328679810948909967e-02
5.031654234032872930e-02
5.652823335099999014e-02
6.181520736518524017e-02
6.608654337569415393e-02
6.927862962846037531e-02
7.133607263513518093e-02
7.224114223050288885e-02
7.199240435962894757e-02
7.061227488002716490e-02
6.815793863037826472e-02
6.469554206164561394e-02
6.032602022945374176e-02
5.516286088912535079e-02
4.933458580946555039e-02
4.298818303278095776e-02
3.627351069124319649e-02
2.934840538825291695e-02
2.237278794440834828e-02
1.550151517707551961e-02
8.884198304258258613e-03
2.665121578299249963e-03
-3.030625772344233172e-03
-8.083599236511139138e-03
-1.239468389589433797e-02
-1.588251704079597648e-02
-1.847564316612926305e-02
-2.013153735521430732e-02
-2.081497142411151482e-02
-2.051438750942639194e-02
-1.923564937306388584e-02
-1.699524227774839441e-02
-1.383590051260119927e-02
-9.806549478864874311e-03
-4.978418168384304843e-03
5.634315742751114936e-04
6.723117015053587525e-03
1.338208918875694216e-02
2.041659837071831129e-02
2.768289853305175297e-02
3.502681431617566538e-02
4.228571935104656621e-02
4.928207352310352146e-02
5.583586626434247635e-02
6.176052161576994770e-02
6.686671981762841444e-02
7.096975251471286661e-02
7.389182312584836876e-02
7.546038777646188467e-02
7.552988887116937611e-02
7.396525662452639593e-02
7.066214304993086170e-02
6.555482087246358724e-02
5.859393999503710593e-02
4.979582171647031763e-02
3.919817309348113538e-02
2.689083426371506602e-02
1.301887829640830004e-02
-2.251829240126262087e-03
-1.868515788340979408e-02
-3.602591377423246255e-02
-5.398018288139624921e-02
-7.221947148331023247e-02
-9.040812233492812044e-02
-1.081915168765659879e-01
-1.252123737035380213e-01
-1.411294068685391423e-01
-1.556134000218354629e-01
-1.683563910002351394e-01
-1.791056151196723789e-01
-1.876237067613464593e-01
-1.937458875292513982e-01
-1.973534636375663398e-01
-1.983690638248599147e-01
-1.968041105681911096e-01
-1.926905178677639219e-01
-1.861389800960884244e-01
-1.773022161393091878e-01
-1.663646396064474842e-01
-1.535678303257355104e-01
-1.391635457457051639e-01
-1.234332674449976491e-01
-1.066715843118259399e-01
-8.917227708851764578e-02
-7.122780156120939177e-02
-5.312578771135133965e-02
-3.512598874712494906e-02
-1.747720274748647273e-02
-3.998800251879090772e-04
1.592198119591531347e-02
3.131711569297700865e-02
4.566429399128239808e-02
5.885857440257495632e-02
7.082604728431503294e-02
8.152643104116509554e-02
9.092936305368688743e-02
9.903723564169959748e-02
1.058612762989267764e-01
1.114263401031443113e-01
1.157697309261696422e-01
1.189308964502434618e-01
1.209548002634038832e-01
1.218874219867899511e-01
1.217730999854952922e-01
1.206549077218775912e-01
1.185745944295875376e-01
1.155704215440278709e-01
1.116800644812208504e-01
1.069411609673753261e-01
1.013913363295301795e-01
9.507080570614576120e-02
8.802558839388002765e-02
8.030365478794479484e-02
7.196374746060298089e-02
6.307051532357868528e-02
5.369577360810603300e-02
4.392462523184134660e-02
3.384528448429246356e-02
2.355832385898586068e-02
1.316997547921596422e-02
2.790792459574387499e-03
-7.461948255836164251e-03
-1.747033160112647712e-02
-2.711612905813901714e-02
-3.628111038484247569e-02
-4.485169077677113314e-02
-5.272040040117573906e-02
-5.978310641089024796e-02
-6.595019333689791652e-02
-7.113705056437240326e-02
-7.527307770892041616e-02
-7.830320443422346399e-02
-8.017935338331154405e-02
-8.087869547286785643e-02
-8.038587738594499266e-02
-7.870667108305107185e-02
-7.586658911202572020e-02
-7.190067720983608912e-02
-6.687343005445850475e-02
-6.085696570815870426e-02
-5.394589527964077647e-02
-4.625254659585158884e-02
-3.789798044481709066e-02
-2.902611027368661584e-02
-1.978584440084554114e-02
-1.033900863818405444e-02
-8.559857268250403370e-04
8.491205240299110404e-03
1.752713833791842701e-02
2.607688519014687151e-02
3.397481685902201121e-02
4.106056866109764752e-02
4.718566311513776312e-02
5.222427070594738013e-02
5.605767759013514928e-02
5.860218887809214017e-02
5.979071258394744182e-02
5.958086140517471208e-02
5.796970308178381326e-02
5.496516669777044839e-02
5.062080257022990443e-02
4.500832518169466806e-02
3.822475108478225192e-02
3.040112157473659482e-02
2.167660976840669190e-02
1.221964665250766142e-02
2.208280085901362377e-03
-8.170486765854582251e-03
-1.871949993118699612e-02
-2.924199360365847822e-02
-3.954512339417565886e-02
-4.943772709994790487e-02
-5.874255771132075310e-02
-6.729566882346316170e-02
-7.494220756559180630e-02
-8.155679937212780006e-02
-8.702215594824545819e-02
-9.124898156760576085e-02
-9.417053659039927027e-02
-9.573340449841057087e-02
-9.592017683302903053e-02
-9.472218144850332033e-02
-9.216045345510960607e-02
-8.827619853061187405e-02
-8.312376345255914623e-02
-7.678751808120778954e-02
-6.935854472826948058e-02
-6.095151555137442306e-02
-5.169458216261478556e-02
-4.172545037747071167e-02
-3.120025179709916968e-02
-2.027871404917631903e-02
-9.132060431482208473e-03
2.063006022681638726e-03
1.312819121230838181e-02
2.388264493776808689e-02
3.414651244540805458e-02
4.374784217644309137e-02
5.251807715235035090e-02
6.030092173169766812e-02
6.695696452581809122e-02
7.235413897486943358e-02
7.639241442461179588e-02
7.898313111547791698e-02
8.006552432893389304e-02
7.961118072997182271e-02
7.760439980808100935e-02
7.407635285660429947e-02
6.907230756380808301e-02
6.267068976964612625e-02
5.498234238194955881e-02
4.613010011061294269e-02
3.627438946212474535e-02
2.558507899592298712e-02
1.425102622659117808e-02
2.476734098937817541e-03
-9.530326640631726909e-03
-2.155540175053459115e-02
-3.338304359573773111e-02
-4.480582997435327702e-02
-5.562193249236785375e-02
-6.563916363046978786e-02
-7.468831462459248061e-02
-8.260656687208518811e-02
-8.926147551346433340e-02
-9.453839898273797004e-02
-9.834129681854232585e-02
-1.006110329985455548e-01
-1.012976567172161335e-01
-1.003900026801270717e-01
-9.789604928828979369e-02
-9.384512090004373808e-02
-8.830217694720512989e-02
-8.134090322897115366e-02
-7.307000850441787432e-02
-6.361274674382386141e-02
-5.311005960197313913e-02
-4.172776944230784796e-02
-2.963740117539193086e-02
-1.703107167770581687e-02
-4.107989363194881546e-03
8.926347080532309394e-03
2.185898067866513111e-02
3.447736012635892189e-02
4.657263647578529370e-02
5.793755164171873751e-02
6.837795346691297182e-02
7.771279597529005823e-02
8.577055925723055252e-02
9.241219929213570494e-02
9.750803800899830731e-02
1.009629532624676529e-01
1.027109564091937405e-01
1.027039453709767264e-01
1.009445171990738938e-01
9.744793821060358796e-02
9.227254400760488695e-02
8.550726796933239005e-02
7.725906964048179226e-02
6.767785758172721600e-02
5.692269509194324006e-02
4.518018448553375033e-02
3.265336929324031551e-02
1.955181989300038697e-02
6.098079734626076290e-03
-7.484142096530228307e-03
-2.097473734788066549e-02
-3.415551453837482876e-02
-4.681823980206145652e-02
-5.877177436053950682e-02
-6.983091906898757084e-02
-7.983927093106270301e-02
-8.865278647724104955e-02
-9.614827678849210968e-02
-1.022325826137819998e-01
-1.068215236506823845e-01
-1.098676054990015000e-01
-1.113366336294317471e-01
-1.112179227189783182e-01
-1.095293110029121469e-01
-1.062978529589456850e-01
-1.015845712395199163e-01
-9.546102153995716932e-02
-8.802079492875031219e-02
-7.938002142509542614e-02
-6.966303921942493260e-02
-5.902093506027743242e-02
-4.761190418019616011e-02
-3.560998994946661111e-02
-2.320290006231260499e-02
-1.058254410668015531e-02
2.047666801494837582e-03
1.448214993617348047e-02
2.651564254874053117e-02
3.794312821150053888e-02
4.856536218346604178e-02
5.819770898637245671e-02
6.666033582489733211e-02
7.380060463614059041e-02
7.948257583665764570e-02
8.359071817461857790e-02
8.605199116010826821e-02
8.680462335956329323e-02
8.583754094959046566e-02
8.316586773875657423e-02
7.883397831229309316e-02
7.293736099708660048e-02
6.558356650382853037e-02
5.692792811734713465e-02
4.714646013110339318e-02
3.643495601032657738e-02
2.501829792574691846e-02
1.312589649351579048e-02
9.995797993730057285e-04
-1.111465022414861135e-02
-2.297782388415862964e-02
-3.435971020165731749e-02
-4.503753730466634325e-02
-5.482068087161633130e-02
-6.352918583800425123e-02
-7.101640000340747605e-02
-7.717051429097819548e-02
-8.189558200551677603e-02
-8.514997122951305231e-02
-8.690718680680797892e-02
-8.718097079094587476e-02
-8.602055384380506708e-02
-8.349018405629403394e-02
-7.969748144304762694e-02
-7.476026361696007372e-02
-6.882045134222650185e-02
-6.203787259081133126e-02
-5.457723026261687704e-02
-4.661478714036067228e-02
-3.832817226224500412e-02
-2.988961206048555003e-02
-2.146790925635438940e-02
-1.322211295749631775e-02
-5.290336123354395792e-03
2.195521379854964081e-03
9.134454938679427774e-03
1.544180770957820879e-02
2.105244322455830652e-02
2.593614323915020836e-02
3.007117145429340221e-02
3.347030731954744875e-02
3.616162993774994783e-02
3.818824966210097871e-02
3.961589049045358829e-02
4.051397518983413520e-02
4.096253525471576368e-02
4.104530314319643908e-02
4.084117328818553244e-02
4.042288729313345264e-02
3.985761352437097033e-02
3.918781745863785665e-02
3.844765242300322156e-02
3.764649045384694387e-02
3.676718336026343209e-02
3.578208993130374549e-02
3.462752917016355403e-02
3.323005909700935123e-02
3.149831931023394649e-02
2.932478613010791602e-02
2.660135952704178325e-02
2.321994896224173488e-02
1.907413565237695008e-02
1.408199758588607638e-02
8.180261722846788805e-03
1.327573103479962741e-03
-6.460298259165240219e-03
-1.515242344282798082e-02
-2.465189920422179715e-02
-3.481953584935681273e-02
-4.548322776780262811e-02
-5.639960987297060885e-02
-6.731055165801634599e-02
-7.791026690401606225e-02
-8.786742799020329231e-02
-9.684574334158457809e-02
-1.045002083757719524e-01
-1.104906025604680680e-01
-1.145187991964430607e-01
-1.163063640108329966e-01
-1.156290071192198621e-01
-1.123460124767319268e-01
-1.063457738580729367e-01
-9.764802330788815987e-02
-8.632346568469395631e-02
-7.253352121128511798e-02
-5.655740951179386716e-02
-3.870748287991578745e-02
-1.941982580378783657e-02
8.298148517879404273e-04
2.151590321705088016e-02
4.205840843207924590e-02
6.187474791760323722e-02
8.038323242334820262e-02
9.700541083628054506e-02
1.112230532480003725e-01
1.225735057866871869e-01
1.306408605832377334e-01
1.351569603361573446e-01
1.358941708695693695e-01
1.327768874222051421e-01
1.258477729387977584e-01
1.152209173851220098e-01
1.011969425696473690e-01
8.411911025964625976e-02
6.446198330648804375e-02
4.278608331213564625e-02
1.968800629095614207e-02
-4.157289881869707243e-03
-2.806459637927654488e-02
-5.135374740828439755e-02
-7.334774587958094172e-02
-9.341418321773740929e-02
-1.110048267257539717e-01
-1.256006245648375319e-01
-1.368324972970020315e-01
-1.444016005114268641e-01
-1.481149410745432882e-01
-1.479464520679057704e-01
-1.439143922190885272e-01
-1.362187493382042980e-01
-1.251306946177790369e-01
-1.110106243292381251e-01
-9.433740176362113983e-02
-7.561342674782167705e-02
-5.541824711213373666e-02
-3.435559753811666395e-02
-1.302877276125749377e-02
7.959434738575851126e-03
2.802415233323244520e-02
4.665439275620317933e-02
6.336278308258432024e-02
7.775639163094476281e-02
8.953142929068660938e-02
9.843245156236586635e-02
1.043562797511147500e-01
1.072394634114509915e-01
1.071357020327951548e-01
1.041918980448901660e-01
9.859729062361675955e-02
9.065244011527660850e-02
8.068158692737810445e-02
6.906205706793035193e-02
5.620668717181810659e-02
4.253097959371886227e-02
2.845511385500108792e-02
1.439555989255744857e-02
7.264874486247394070e-04
-1.220199265911618876e-02
-2.407998289258915514e-02
-3.467486947704532391e-02
-4.377504995494812395e-02
-5.126360899644186869e-02
-5.706874983125020256e-02
-6.117069070798674540e-02
-6.363347597421553647e-02
-6.453989079616243019e-02
-6.404277801298909056e-02
-6.232276309474304998e-02
-5.958251350197740076e-02
-5.605460067098045479e-02
-5.197307423672860999e-02
-4.756856434410042939e-02
-4.306973925945233733e-02
-3.867962521241950086e-02
-3.457187674868506672e-02
-3.090417177062795839e-02
-2.777330840850835564e-02
-2.525769505175825408e-02
-2.338681218699217162e-02
-2.214290278719129035e-02
-2.149025532009384704e-02
-2.133733163890503409e-02
-2.157889549734193224e-02
-2.208445033502725099e-02
-2.270295070600004267e-02
-2.328224618668513213e-02
-2.366872620450589937e-02
-2.371037764477834653e-02
-2.327861907079117887e-02
-2.226097335616821285e-02
-2.056497856659179196e-02
-1.814504152067208942e-02
-1.496754578502130020e-02
-1.105030448540361351e-02
-6.440847983423308477e-03
-1.211398947725541089e-03
4.517597483685168239e-03
1.061598715931697488e-02
1.692134473584248205e-02
2.325569262901027584e-02
2.943612617921701619e-02
3.527173550127631063e-02
4.057352258763287367e-02
4.516978335271870648e-02
4.889623952104420884e-02
5.161255327560711897e-02
5.321168679820529462e-02
5.359891682182924694e-02
5.273174514649490302e-02
5.058606646538330726e-02
4.717366021184184188e-02
4.254834117405520422e-02
3.677678253510754947e-02
2.997118086037316859e-02
2.225707791652842965e-02
1.378183533185752159e-02
4.714362041781413118e-03
-4.772044107183156907e-03
-1.449167145548885954e-02
-2.425621187454725380e-02
-3.388032550514198660e-02
-4.318114703631786844e-02
-5.198133336491212592e-02
-6.011958109215700258e-02
-6.743911136325263234e-02
-7.380381968777598167e-02
-7.909211586897141322e-02
-8.319455079369748873e-02
-8.603054776230573131e-02
-8.752675104996640587e-02
-8.763964582054832586e-02
-8.634337393528802862e-02
-8.362884985796104065e-02
-7.952056621725997476e-02
-7.405128476770098112e-02
-6.728835783866897458e-02
-5.931638079905597605e-02
-5.023877711887157760e-02
-4.019071802574266522e-02
-2.931489099670052390e-02
-1.778356919705180450e-02
-5.781385864793727944e-03
6.494551684001995118e-03
1.882942073813462236e-02
3.100579610131769248e-02
4.279946025935866399e-02
5.398411755677080121e-02
6.434072228338366672e-02
7.365892112289222637e-02
8.173570548043355977e-02
8.839856806122009525e-02
9.348497790801366114e-02
9.686676906829683187e-02
9.845048778503337483e-02
9.816054453411125758e-02
9.598124081399476981e-02
9.191341795418532523e-02
8.600709968658863669e-02
7.835418952421975558e-02
6.906667834941487838e-02
5.831319280187394205e-02
4.627562930738161190e-02
3.317114386099503931e-02
1.924217996182610996e-02
4.739945975158180516e-03
-1.006382224439273006e-02
-2.489445319197193529e-02
-3.947958647258124898e-02
-5.354832537200170800e-02
-6.684123870343783302e-02
-7.912268553003927452e-02
-9.016480811888122338e-02
-9.978056408673056932e-02
-1.078038068759489126e-01
-1.140975852571347315e-01
-1.185753903882750537e-01
-1.211643418649657883e-01
-1.218503986611474826e-01
-1.206448510414330072e-01
-1.175929490415215523e-01
-1.127893146223483967e-01
-1.063409524145167845e-01
-9.840228334075452887e-02
-8.914479483831412587e-02
-7.876048107815734889e-02
-6.746646163568849330e-02
-5.548390093148347635e-02
-4.304545588039135340e-02
-3.038679614759339648e-02
-1.773681964858821181e-02
-5.317427306740716599e-03
6.657299853504857270e-03
1.800150551237454655e-02
2.853774226577979189e-02
3.812065720735035440e-02
4.663285313335467641e-02
5.397340674797782706e-02
6.008954232157596997e-02
6.494061206000877051e-02
6.852537708825688634e-02
7.087152606315681724e-02
7.202226354087108706e-02
7.205883714871461065e-02
7.107040943548860457e-02
6.916699888953380115e-02
6.647147966961328147e-02
6.310876540820478664e-02
5.920771111324932279e-02
5.489606320123593258e-02
5.028749962634172788e-02
4.548827860331952633e-02
4.058966611269121394e-02
3.565637371816690604e-02
3.074573008284880310e-02
2.588232494958517954e-02
2.107638892055821445e-02
1.632223123265758025e-02
1.159049662358268597e-02
6.847906979220096460e-03
2.049747794897015599e-03
-2.852602077573579593e-03
-7.901763456504853900e-03
-1.313282395038997685e-02
-1.857427580043817528e-02
-2.422583217087267288e-02
-3.007765255061113641e-02
-3.609191086273846188e-02
-4.220120553143937719e-02
-4.832676509674679183e-02
-5.435136574522440173e-02
-6.014755585224325352e-02
-6.557013035291858749e-02
-7.045807022811645393e-02
-7.465041051652686332e-02
-7.798811566680706464e-02
-8.031429695419257941e-02
-8.149746484156183968e-02
-8.142522345092483016e-02
-8.000647648356579156e-02
-7.720484878417535612e-02
-7.299825100262231914e-02
-6.742555983124683128e-02
-6.056423710270320698e-02
-5.252181132047020751e-02
-4.347008025577240448e-02
-3.359434669898505449e-02
-2.312507948191988572e-02
-1.231668598658814014e-02
-1.432692918102237631e-03
9.247161076229198570e-03
1.944389316132769802e-02
2.889645060871738613e-02
3.735218320919424934e-02
4.458774455841630485e-02
5.042446148788862909e-02
5.469974101335334932e-02
5.732361698918843340e-02
5.823399773630073828e-02
5.741980556449391426e-02
5.493538044823043087e-02
5.085435836062595499e-02
4.532282359687396511e-02
3.851004132768689331e-02
3.062095042690376329e-02
2.189904984707118779e-02
1.259544020136120317e-02
2.983747207398730270e-03
-6.657165404842341552e-03
-1.605517645050650449e-02
-2.494431137457420178e-02
-3.307025431261276238e-02
-4.021597694296354802e-02
-4.617524501774172840e-02
-5.078957314935917539e-02
-5.393716392756999628e-02
-5.552276703692445720e-02
-5.552008926349529666e-02
-5.391961711403994023e-02
-5.077335323805022560e-02
-4.617310959273845938e-02
-4.023730261455142621e-02
-3.314232491274973769e-02
-2.507652083657044284e-02
-1.626605551350972928e-02
-6.957613924855406314e-03
2.594306084517310901e-03
1.212101438308035330e-02
2.135392443210453600e-02
3.003676828392307097e-02
3.791919403870711025e-02
4.477286789430019037e-02
5.040380651931139488e-02
5.463071541279913151e-02
5.733106504416574101e-02
5.840543870004032134e-02
5.779844745186786537e-02
5.551245770114156264e-02
5.156781609746367845e-02
4.605455533762782550e-02
3.908567181353327785e-02
3.081334625013922024e-02
2.143308245517737409e-02
1.115134048724152234e-02
2.100442898007462769e-04
-1.113953422575755282e-02
-2.263947721860708889e-02
-3.402567350574794980e-02
-4.503879433113571612e-02
-5.543630401266885083e-02
-6.498113575048224122e-02
-7.346645107208010783e-02
-8.070917085407693092e-02
-8.654498573458607735e-02
-9.085964520052440541e-02
-9.355151328738293970e-02
-9.456753222445099527e-02
-9.388681466814381704e-02
-9.151207074874748160e-02
-8.749874350608914664e-02
-8.191421180894188636e-02
-7.486950704607348017e-02
-6.649998133538363720e-02
-5.695907052891796551e-02
-4.643424495581386507e-02
-3.511964825554111241e-02
-2.323120056891650465e-02
-1.099494718879276758e-02
1.359066102582882213e-03
1.359448491793537571e-02
2.547588695649939672e-02
3.677716906625569382e-02
4.727618874210107874e-02
5.676685698209138486e-02
6.506463934475839594e-02
7.199456585369100325e-02
7.742263338604567224e-02
8.122905766148093287e-02
8.332947278435477723e-02
8.367957002426128221e-02
8.225103880365458586e-02
7.907340269804583044e-02
7.419322615130924392e-02
6.769812036843600445e-02
5.971483068078388412e-02
5.038507903830142381e-02
3.989665556379030920e-02
2.844875066320141227e-02
1.626484228180896663e-02
3.587921743312693507e-03
-9.334577139972401877e-03
-2.224420336047634728e-02
-3.488118525773279549e-02
-4.699337637341510776e-02
-5.833382412875510320e-02
-6.866692451992278956e-02
-7.778347575658678403e-02
-8.548199355355964868e-02
-9.159957602195847870e-02
-9.599539421461024402e-02
-9.855447955979890207e-02
-9.921193330119408571e-02
-9.791593867627049197e-02
-9.467203542397281679e-02
-8.951340393109817606e-02
-8.250711576045703655e-02
-7.377543345551479392e-02
-6.345457789584774133e-02
-5.173736137110859085e-02
-3.883950650055923576e-02
-2.500487811061042481e-02
-1.051594565120188805e-02
4.336847875024122181e-03
1.923605269830305081e-02
3.385540444177900787e-02
4.786791527699589543e-02
6.094576578783844623e-02
7.276796358057441294e-02
8.304298530002708623e-02
9.148920221102559147e-02
9.786893749643896245e-02
1.019873769515896728e-01
1.036759342922370097e-01
1.028521575265489152e-01
9.945738883917812356e-02
9.351294021864964279e-02
8.510586873398351404e-02
7.435951677811326876e-02
6.149692525671669741e-02
4.676460026732449926e-02
3.047906381186800406e-02
1.300531138255186549e-02
-5.271269871846995941e-03
-2.391857665119195148e-02
-4.249735060365265882e-02
-6.056554759698562496e-02
-7.767966230091180591e-02
-9.341717849093000847e-02
-1.073976458839525500e-01
-1.192557527623422930e-01
-1.287082121052019190e-01
-1.355123416048306106e-01
-1.394870834878911003e-01
-1.405541580039448568e-01
-1.386633935517412874e-01
-1.338848523748172870e-01
-1.263385143005964217e-01
-1.162101858302654889e-01
-1.037780536149986443e-01
-8.934148528193359973e-02
-7.327625904593917938e-02
-5.598430507048047372e-02
-3.788789277167847053e-02
-1.943334461356759774e-02
-1.063957196162628599e-03
1.679641203634846258e-02
3.373126769139824649e-02
4.937028521702009620e-02
6.338919576639898135e-02
7.549197350500792825e-02
8.547750180705186718e-02
9.317097868200176214e-02
9.848112955669897917e-02
1.013869178544500593e-01
1.019024330513931126e-01
1.001398697522258574e-01
9.623433678608658837e-02
9.038351755679295552e-02
8.282941080735915784e-02
7.383053828215575820e-02
6.368384394597259579e-02
5.269224228574637819e-02
4.116027137431914340e-02
2.939333576673625048e-02
1.768231997397289729e-02
6.288304194606726336e-03
-4.537546661594185626e-03
-1.459624921876082060e-02
-2.371518178423668438e-02
-3.175706133331821640e-02
-3.864487417875776820e-02
-4.431684733115603264e-02
-4.877408512939555157e-02
-5.204429307748377476e-02
-5.418482802892932854e-02
-5.529559444932057033e-02
-5.548462603036981994e-02
-5.488655000676827267e-02
-5.364510397686621246e-02
-5.190412648582441724e-02
-4.980756857160122814e-02
-4.749415186403239258e-02
-4.507894749402192175e-02
-4.266918624016895895e-02
-4.034428238866950150e-02
-3.815526903031895428e-02
-3.614040333642161429e-02
-3.429528187496258540e-02
-3.260412866806745857e-02
-3.102485556949916706e-02
-2.949274559559386666e-02
-2.793719163442814207e-02
-2.627184557082074684e-02
-2.440777325289272826e-02
-2.226163141308620808e-02
-1.975415042959328266e-02
-1.681677162800470152e-02
-1.340776955727606898e-02
-9.492981395398416428e-03
-5.074644390250216373e-03
-1.772466057932313779e-04
5.154683835778953171e-03
1.083517635516124088e-02
1.676921417943091908e-02
2.282903544688981434e-02
2.887011632186176069e-02
3.473906422849577097e-02
4.026715091020443421e-02
4.528501811042365960e-02
4.962971512888577491e-02
5.314134096529452012e-02
5.567751577965628085e-02
5.712164422388738005e-02
5.736760257595874268e-02
5.635681160223694752e-02
5.404842009169465861e-02
5.043761405052009372e-02
4.556419495123514851e-02
3.948198805972123748e-02
3.229698144595250647e-02
2.413135030048609714e-02
1.513415804801608068e-02
5.482528514886241683e-03
-4.640350809334824536e-03
-1.503321182890915951e-02
-2.549060966181566912e-02
-3.580943552248622153e-02
-4.578863838970530925e-02
-5.523386971135842843e-02
-6.397156483135607585e-02
-7.183414689115399931e-02
-7.868127082731470046e-02
-8.439279259121515442e-02
-8.886368411707400161e-02
-9.202683774429455676e-02
-9.382431871945715041e-02
-9.423268120490523037e-02
-9.325002930931731993e-02
-9.089067762579973453e-02
-8.720312948549190091e-02
-8.224355933224546111e-02
-7.609669852199058004e-02
-6.886229286322079202e-02
-6.065271879397960558e-02
-5.160282022111697953e-02
-4.185216613495175431e-02
-3.155729787836523970e-02
-2.088222494297734683e-02
-9.996345225387984548e-03
9.228693450389208186e-04
1.169735077987433224e-02
2.214945004051467603e-02
3.210186939784612226e-02
4.138468451766370848e-02
4.983731427892625077e-02
5.730470181012926878e-02
6.365521837172244402e-02
6.876512542116396121e-02
7.253477401919476708e-02
7.489023058048797921e-02
7.576983699766334790e-02
7.515501309752634085e-02
7.303954216891819784e-02
6.945245647933756539e-02
6.445450893279203175e-02
5.812104909962705068e-02
5.057071721379551715e-02
4.193272174589363771e-02
3.236383050605865647e-02
2.204170826454886906e-02
1.115152174047939933e-02
-1.030185567145371767e-04
-1.151501193346564540e-02
-2.287588300242549694e-02
-3.397602070366939619e-02
-4.461201807506708777e-02
-5.459418480124770406e-02
-6.373748117363532695e-02
-7.188250466124686267e-02
-7.888371730048458763e-02
-8.461429598127508112e-02
-8.898161679738667007e-02
-9.190226811798439532e-02
-9.333342288887865046e-02
-9.325072656402386140e-02
-9.165415306725287203e-02
-8.858106470407617339e-02
-8.407857469895485547e-02
-7.823292197568333661e-02
-7.114532972090015228e-02
-6.293768825449509718e-02
-5.375865096329345699e-02
-4.376333598085122706e-02
-3.312973223856890970e-02
-2.204305913994056981e-02
-1.069550410411441999e-02
7.131383761115675513e-04
1.198385298647681486e-02
2.292229683724496953e-02
3.333605130685520640e-02
4.304767713408353541e-02
5.189352416983078475e-02
5.972069269216127851e-02
6.641004875282090214e-02
7.185177468163800318e-02
7.597180841045407529e-02
7.872383566784774134e-02
8.007990237178719273e-02
8.006006981116851884e-02
7.869589481247832308e-02
7.605902313361727340e-02
7.224729952474023831e-02
6.737421823743340588e-02
6.158761514510868729e-02
5.504184250103140441e-02
4.790813619786134236e-02
4.036694427180304023e-02
3.259748818121201847e-02
2.477650210118759883e-02
1.707755663339938224e-02
9.652448921300455301e-03
2.642721285829005215e-03
-3.830677693076203413e-03
-9.679220609377354664e-03
-1.482397433724521631e-02
-1.922729569666963706e-02
-2.286774481963676359e-02
-2.574702765443123709e-02
-2.789751017412606809e-02
-2.935863307019130619e-02
-3.019471673166112397e-02
-3.047807438265801722e-02
-3.028696394810729414e-02
-2.970628055444600457e-02
-2.881964732592672690e-02
-2.770401157347241600e-02
-2.643399153180155808e-02
-2.507156427546580746e-02
-2.366680489437974350e-02
-2.226345964933618138e-02
-2.088542185967013493e-02
-1.955161555635924475e-02
-1.826885622964774872e-02
-1.703435317138789901e-02
-1.584327800839205325e-02
-1.468585042616098180e-02
-1.355188208297357366e-02
-1.243665422009099242e-02
-1.133912105349785954e-02
-1.026444951295839812e-02
-9.232034212228014750e-03
-8.264872639155268139e-03
-7.401349123046331580e-03
-6.688501948740971544e-03
-6.178995341362967034e-03
-5.936165962467944077e-03
-6.024536104964312022e-03
-6.508389728579902847e-03
-7.451779271054838685e-03
-8.910675880913057623e-03
-1.092799807449158257e-02
-1.354122606845409478e-02
-1.676106959479834596e-02
-2.058736583426331104e-02
-2.499933494608237022e-02
-2.994825068230508314e-02
-3.537721447920699064e-02
-4.119751109089246632e-02
-4.730969776476522115e-02
-5.359902495360926999e-02
-5.993325909141123536e-02
-6.617711228171795079e-02
-7.218642710070383162e-02
-7.781492168635283091e-02
-8.292100497462188968e-02
-8.736760369027773976e-02
-9.102360823599647821e-02
-9.377798405193764342e-02
-9.552553511809959430e-02
-9.618512170306954545e-02
-9.569513662565380663e-02
-9.400699261504218140e-02
-9.110776616319413157e-02
-8.699341487378742244e-02
-8.169180326248150215e-02
-7.525262619074742088e-02
-6.774017975762371135e-02
-5.925239958139966873e-02
-4.989470709974762330e-02
-3.979842867401740814e-02
-2.910979743569769296e-02
-1.798440145639742388e-02
-6.595967041638032755e-03
4.878769857237102298e-03
1.625604087026638611e-02
2.734876108208245810e-02
3.797334689613209718e-02
4.795203842120140947e-02
5.711080421311182098e-02
6.529620146683880189e-02
7.236343547775754559e-02
7.818833330303373574e-02
8.267532520349525627e-02
8.573917662761078307e-02
8.733814001385123427e-02
8.744580921205091784e-02
8.606756618438916873e-02
8.324593669753016512e-02
7.903600718265248182e-02
7.353820946912563439e-02
6.686643161987983197e-02
5.916064739978764420e-02
5.058652595720712630e-02
4.131678193887237949e-02
3.154536560567831188e-02
2.147113894658638639e-02
1.129603772748528391e-02
1.224545571432643018e-03
-8.543042844114941831e-03
-1.781896026927141941e-02
-2.641940297110436514e-02
-3.418232202103330813e-02
-4.096090666455222407e-02
-4.662230300417825185e-02
-5.106683412229456875e-02
-5.420311539204539925e-02
-5.597403698480883649e-02
-5.634271083847564032e-02
-5.529045318941823439e-02
-5.283490448183684324e-02
-4.900228509452263237e-02
-4.385323237071332009e-02
-3.746547771566920843e-02
-2.993399812738507110e-02
-2.138276124760298338e-02
-1.194234733664688124e-02
-1.768666233634234690e-03
8.971823963424765611e-03
2.010231087717458121e-02
3.143131527590820040e-02
4.276512116215213516e-02
5.390393769834746912e-02
6.464607576759942575e-02
7.479481981447873296e-02
8.415940275711294993e-02
9.255449597942810858e-02
9.981742495244058655e-02
1.057929515272157672e-01
1.103522913550630952e-01
1.133933141506991843e-01
1.148280710935889876e-01
1.146161862597831621e-01
1.127304838574870183e-01
1.091843291673362110e-01
1.040255228224200024e-01
9.731912010956854375e-02
8.917885308931627897e-02
7.972999098735539247e-02
6.913012952518726717e-02
5.755999317508114776e-02
4.520961471457746877e-02
3.229097727319597128e-02
1.901975931754086580e-02
5.615155310057429530e-03
-7.701570720689134703e-03
-2.071540729227348832e-02
-3.322436297156642487e-02
-4.503116516281552295e-02
-5.596472790305946632e-02
-6.586734798372353983e-02
-7.460082901871867289e-02
-8.206059927605666160e-02
-8.815134126542398252e-02
-9.281807552067443401e-02
-9.602317066697062253e-02
-9.775354972232849771e-02
-9.803174856746008081e-02
-9.689000664225755344e-02
-9.439902249558164427e-02
-9.064344428234881457e-02
-8.572938872246931019e-02
-7.978921519234671855e-02
-7.296233874848606638e-02
-6.541310810854074342e-02
-5.731341227517693093e-02
-4.884540803916013335e-02
-4.020183381202913075e-02
-3.157647848567783633e-02
-2.316525194498118834e-02
-1.516407089056079002e-02
-7.759981591141298235e-03
-1.132321188094721591e-03
4.547986188144798742e-03
9.135217360857391874e-03
1.249076019566407007e-02
1.450733357248731696e-02
1.510061052188414916e-02
1.420460791577131919e-02
1.179886431978449841e-02
7.874132533678737320e-03
2.465247952177760521e-03
-4.365753298731057247e-03
-1.253578326760427901e-02
-2.191788974445280785e-02
-3.237566106232842716e-02
-4.373918927460818118e-02
-5.582122235749094330e-02
-6.842369932037023483e-02
-8.132963844906851425e-02
-9.431963739102043609e-02
-1.071709358014533708e-01
-1.196594753425241908e-01
-1.315687768381979816e-01
-1.426936440882115575e-01
-1.528344220452760860e-01
-1.618179224307970954e-01
-1.694810057356984090e-01
-1.756837330452204193e-01
-1.803151812998098902e-01
-1.832750989368452099e-01
-1.845046967407219796e-01
-1.839585254123941027e-01
-1.816213989088444059e-01
-1.775100331360954242e-01
-1.716535823473394617e-01
-1.641232544780520664e-01
-1.550019339899285364e-01
-1.444015981266209003e-01
-1.324600775966842392e-01
-1.193259426960318059e-01
-1.051789523887785710e-01
-9.020623692678053640e-02
-7.461223164540727038e-02
-5.861432560046740681e-02
-4.243296706871509810e-02
-2.629579828531782015e-02
-1.043092663060581939e-02
4.941378378263222571e-03
1.960583557083966921e-02
3.335866202804015773e-02
4.602092060744989582e-02
5.742124734137708797e-02
6.742681620133403331e-02
7.592537183293528169e-02
8.283145318165420490e-02
8.810792774096250224e-02
9.173036041534982088e-02
9.372908392536352662e-02
9.415899932372435999e-02
9.310488806845536314e-02
9.069686323454174970e-02
8.707546107457603268e-02
8.242012567973974746e-02
7.692482040856134240e-02
7.079660806059240308e-02
6.425929362955495883e-02
5.753778640564845281e-02
5.085704370874186836e-02
4.444155137808488559e-02
3.850294263147469725e-02
3.323899130941946473e-02
2.883860518202763235e-02
2.545835425485520886e-02
2.324526351921213374e-02
2.231609429114837090e-02
2.276009815702307454e-02
2.465244380835959065e-02
2.802575858059754704e-02
3.290175589001798073e-02
3.926829440381847391e-02
4.708729250499085056e-02
5.630593105027115186e-02
6.683358799426020180e-02
7.857078392884843387e-02
9.138817153487251155e-02
1.051371248711899103e-01
1.196563523791920880e-01
1.347570433374925547e-01
1.502445993342816088e-01
1.659053662548335695e-01
1.815153709324321962e-01
1.968459773417146064e-01
2.116600647219619991e-01
2.257203503495341934e-01
2.387952089946378531e-01
2.506557776004794125e-01
2.610863995708705421e-01
2.698919749413032920e-01
2.768859352395796614e-01
2.819224761079086594e-01
2.848719046060996796e-01
2.856396779884763371e-01
2.841772525153673512e-01
2.804522293977169678e-01
2.744966263734489043e-01
2.663638884077749736e-01
2.561505971400665493e-01
2.440009087274450650e-01
2.300738293508179100e-01
2.145786774047201417e-01
1.977385615491360493e-01
1.797974221395384209e-01
1.610185666679315730e-01
1.416661539361898925e-01
1.220047283709470021e-01
1.022975142211332011e-01
8.278622654612510789e-02
6.369571064983715891e-02
4.523325504558584759e-02
2.755905159666968696e-02
1.082098243802755676e-02
-4.884178847060263381e-03
-1.949342228671258406e-02
-3.296919513739982044e-02
-4.533072688801161043e-02
-5.660978796101018978e-02
-6.688227494652554395e-02
-7.624857592087602720e-02
-8.482389616318500303e-02
-9.275116630638542692e-02
-1.001774843243886243e-01
-1.072580238416948883e-01
-1.141515829239683616e-01
-1.210106267121444645e-01
-1.279774903741024150e-01
-1.351894188635103244e-01
-1.427576982047338849e-01
-1.507831665616473638e-01
-1.593454505028322477e-01
-1.684957826261243852e-01
-1.782764918698530876e-01
-1.886948129133691476e-01
-1.997461744606407741e-01
-2.114057230793057740e-01
-2.236257260247194179e-01
-2.363522037712871837e-01
-2.495102588476683370e-01
-2.630191724163550293e-01
-2.767903127339573222e-01
-2.907275230395345855e-01
-3.047337908497422254e-01
-3.187101954703537854e-01
-3.325576151801004632e-01
-3.461802201721231320e-01
-3.594848210906856911e-01
-3.723807869492040123e-01
-3.847845004804114066e-01
-3.966140936637864711e-01
-4.077941209813988888e-01
-4.182534746321804886e-01
-4.279236023277811496e-01
-4.367417426962920124e-01
-4.446462808743390505e-01
-4.515787231581129824e-01
-4.574823437764753420e-01
-4.623008852765987386e-01
-4.659789643913924695e-01
-4.684612824314329793e-01
-4.696924123796377692e-01
-4.696168776004238099e-01
-4.681799614023821610e-01
-4.653281879757986128e-01
-4.610091177088873060e-01
-4.551761855956794611e-01
-4.477853138438872005e-01
-4.388004035810054160e-01
-4.281962866996730788e-01
-4.159526560329973033e-01
-4.020704056381637637e-01
-3.865579391620181937e-01
-3.694426428627651804e-01
-3.507738078887868149e-01
-3.306094314473161933e-01
-3.090395271379186570e-01
-2.861636639355717993e-01
-2.621033374383315295e-01
-2.370013723426353247e-01
-2.110076290423465173e-01
-1.842935870782765329e-01
-1.570358266504215117e-01
-1.294167882712633777e-01
-1.016237125558600851e-01
-7.384048664420278518e-02
-4.624087773895905334e-02
-1.899498329827314230e-02
7.750668493119275068e-03
3.386585937098385984e-02
5.923739548830730950e-02
8.379213942986055152e-02
1.074671143457087696e-01
1.302424426278645520e-01
1.521233469709939445e-01
1.731366720881861165e-01
1.933518340586070361e-01
2.128473580752704986e-01
2.317344842437666919e-01
2.501404068190986041e-01
2.682020074979598045e-01
2.860721793547979508e-01
3.039052096111954371e-01
3.218545491196767583e-01
3.400730817084487434e-01
3.587029744679056109e-01
3.778713636206588733e-01
3.976985630441503550e-01
4.182744108923461823e-01
4.396777964249954374e-01
4.619622199371144489e-01
4.851512144152477779e-01
5.092570771887440229e-01
5.342503824202390339e-01
5.600889512529761971e-01
5.867006850076772473e-01
6.139837150959367440e-01
6.418242036502089798e-01
6.700697849478257639e-01
6.985578920436796846e-01
7.270999716041970373e-01
7.554856745776098448e-01
7.834954858174345560e-01
8.108846715631875535e-01
8.374028839710332406e-01
8.627872055768216475e-01
8.867658471543802268e-01
9.090662923728448641e-01
9.294146950959956133e-01
9.475383074492326196e-01
9.631778634465385514e-01
9.760821876172252054e-01
9.860154651523683755e-01
9.927730857834261569e-01
9.961599512296078762e-01
9.960283012176825990e-01
9.922542498427141533e-01
9.847474698702085583e-01
9.734747362341409360e-01
9.584183643707210321e-01
9.396275955587699569e-01
9.171800409681424293e-01
8.911911413709120433e-01
8.618305091136313489e-01
8.292806100090074350e-01
7.937715013916974982e-01
7.555499460834120828e-01
7.148777364717725513e-01
6.720348002610209148e-01
6.273007324482948732e-01
5.809487504228849630e-01
5.332492552111565143e-01
4.844483863936060453e-01
4.347675913691023131e-01
3.844126180725260244e-01
3.335352262238294174e-01
2.822719687137972833e-01
2.307111690235092993e-01
1.788997713619113195e-01
1.268645582510805336e-01
7.457498173832838306e-02
2.198705345334459743e-02
-3.097811299598081380e-02
-8.442462004467136960e-02
-1.384640689380972345e-01
-1.932255466469716687e-01
-2.488400667507435771e-01
-3.054302498374555919e-01
-3.631135284909832173e-01
-4.219913270824415807e-01
-4.821316801813555486e-01
-5.435924273368940574e-01
-6.063801411676480457e-01
-6.704749867600497959e-01
-7.358234219807299192e-01
-8.023132503118812764e-01
-8.698174948333835532e-01
-9.381479166750501530e-01
-1.007089811837709847e+00
-1.076398679759807298e+00
-1.145786393644196322e+00
-1.214955922765793339e+00
-1.283579668354089209e+00
-1.351319189393402675e+00
-1.417831308918232613e+00
-1.482767012642150162e+00
-1.545780064203894355e+00
-1.606538739393154502e+00
-1.664716381016688729e+00
-1.720008027632006220e+00
-1.772131303426464299e+00
-1.820815435919963310e+00
-1.865829709457828001e+00
-1.906954720037123296e+00
-1.944004233588713770e+00
-1.976821125719012029e+00
-2.005262722885074567e+00
-2.029228421818315642e+00
-2.048628059928755185e+00
-2.063403086127692632e+00
-2.073518329296151652e+00
-2.078951023152376898e+00
-2.079709029347239557e+00
-2.075806809514487483e+00
-2.067277821004015248e+00
-2.054167335732869137e+00
-2.036525132979278396e+00
-2.014410286958290275e+00
-1.987882842323102306e+00
-1.957000800035524346e+00
-1.921821032232175153e+00
-1.882394258358402794e+00
-1.838760186238147298e+00
-1.790954961014521674e+00
-1.738997543881299457e+00
-1.682899263313603511e+00
-1.622660958748870730e+00
-1.558267750165183818e+00
-1.489701191309650286e+00
-1.416929687910072122e+00
-1.339916847554407653e+00
-1.258623508540704039e+00
-1.173007016603078378e+00
-1.083025799471135198e+00
-9.886444817023704035e-01
-8.898299410268297738e-01
-7.865598245784740650e-01
-6.788232470637126648e-01
-5.666153533979040313e-01
-4.499526198427925561e-01
-3.288576521415938481e-01
-2.033708644945951272e-01
-7.354865694068830895e-02
6.054469951853429233e-02
1.988215197000283707e-01
3.411880779227002281e-01
4.875308743491959529e-01
6.377214428269275537e-01
7.916203815713170888e-01
9.490603079408935772e-01
1.109866244974077487e+00
1.273828885552282131e+00
1.440716988138773580e+00
1.610274033037182084e+00
1.782188683618163072e+00
1.956134029405526720e+00
2.131708124625841805e+00
2.308468558139311178e+00
2.485919455271087930e+00
2.663467507695965075e+00
2.840492686868627548e+00
3.016255977476398176e+00
3.189964333501166482e+00
3.360752956443366468e+00
3.527647052809941730e+00
3.689645829761716733e+00
3.845649522760657746e+00
3.994520936427842894e+00
4.135085188705183157e+00
4.266118737782996106e+00
4.386408644361575959e+00
4.494809346914903969e+00
4.590195769045276819e+00
4.671442839120425461e+00
4.737425485507996470e+00
