BVP Signal
7.721290790253680647e-03
-6.620603923122095336e-04
-9.123817678165831863e-03
-1.762558482036593807e-02
-2.612896557197126254e-02
-3.459556368604060211e-02
-4.298176402528033208e-02
-5.119317635289442892e-02
-5.910680600925914685e-02
-6.658628385702825003e-02
-7.345357440190278253e-02
-7.952198961200578065e-02
-8.459339354576021763e-02
-8.845605601983913546e-02
-9.090063233101505769e-02
-9.174180411746929442e-02
-9.080530100409124616e-02
-8.794264477934252144e-02
-8.307126839607847923e-02
-7.612221527010863686e-02
-6.709699670422056283e-02
-5.606580088559881547e-02
-4.311842228978196578e-02
-2.844451618768117918e-02
-1.227082278390884129e-02
5.138101242534082180e-03
2.343955731807756404e-02
4.227881127490309976e-02
6.126390398347947297e-02
7.997310942967243708e-02
9.798406422869906929e-02
1.148753294606753572e-01
1.302260907427385539e-01
1.436421483517968112e-01
1.547740971643087049e-01
1.632836209810069050e-01
1.689129250937828619e-01
1.714569301152514824e-01
1.707440004136258627e-01
1.667251433021523510e-01
1.593820426083603914e-01
1.487753066034090688e-01
1.350741088959643565e-01
1.184673828379156357e-01
9.925197510456490457e-02
7.778235447234296829e-02
5.444185111203320160e-02
2.969909004445814293e-02
4.039610737647775229e-03
-2.202444925256255570e-02
-4.795095678545652218e-02
-7.319834337934788548e-02
-9.724044240053456023e-02
-1.195578422953745557e-01
-1.396597592094729612e-01
-1.571246514625870561e-01
-1.715456517360825772e-01
-1.826043344808398750e-01
-1.900641409605417220e-01
-1.937171270493216468e-01
-1.934985291122569007e-01
-1.893940204401093896e-01
-1.814587223798870830e-01
-1.698837596829100571e-01
-1.548829637059454256e-01
-1.367714130257593752e-01
-1.159410541137854689e-01
-9.280404467992039996e-02
-6.785411975506848437e-02
-4.160798019791103752e-02
-1.459771249579337737e-02
1.262004081586431958e-02
3.948848834715240619e-02
6.547346362409406373e-02
9.005485162616197470e-02
1.127330519680871113e-01
1.330806242518964289e-01
1.506878090061868902e-01
1.652100325696854721e-01
1.763878409300317363e-01
1.839807563749772390e-01
1.878610692229021883e-01
1.879581399206844416e-01
1.842448588704278523e-01
1.768166197975331588e-01
1.657934838585006787e-01
1.513749797120717555e-01
1.338457517399965213e-01
1.135079159104498414e-01
9.075229209359442217e-02
6.600610061884126800e-02
3.972091596723983931e-02
1.240382465572992254e-02
-1.542973593115243292e-02
-4.325299174114524692e-02
-7.052920218301320099e-02
-9.672752920402302723e-02
-1.213500940080749213e-01
-1.439102288605677293e-01
-1.639597816507928907e-01
-1.811220974754396140e-01
-1.950352331262316663e-01
-2.054314466003248074e-01
-2.121108851548886287e-01
-2.149066155848007864e-01
-2.137837457431221999e-01
-2.087433707832646590e-01
-1.998603250720368263e-01
-1.873210948876204429e-01
-1.713308881991577048e-01
-1.521919348536716621e-01
-1.302636046732942865e-01
-1.059276698525449811e-01
-7.963851485090017723e-02
-5.186624310364745805e-02
-2.309940535660473526e-02
6.150576680692326770e-03
3.537250812362333074e-02
6.406836187346408307e-02
9.174644620122997252e-02
1.179331463633378069e-01
1.422032795945091521e-01
1.641419898181339654e-01
1.833885634039393864e-01
1.996373664176491203e-01
2.125997452621431749e-01
2.220780488511381323e-01
2.279100685562042983e-01
2.299789566703271115e-01
2.282659705416494322e-01
2.227701246782539113e-01
2.135739785028975546e-01
2.008298423310872771e-01
1.847121645050326388e-01
1.654948535509738750e-01
1.434831627508399432e-01
1.190244698213377139e-01
9.254025765888118649e-02
6.446315344329023311e-02
3.527131555026452592e-02
5.474044009499981489e-03
-2.441519220641277105e-02
-5.386880636582495885e-02
-8.235611007832904784e-02
-1.093658004927878236e-01
-1.344144271935850121e-01
-1.570282484738735884e-01
-1.768061735923013300e-01
-1.933876843948949542e-01
-2.064500022621261199e-01
-2.157882469644109014e-01
-2.212236835252105183e-01
-2.226690411436158812e-01
-2.201447301866748529e-01
-2.136944625661878205e-01
-2.034901300972171978e-01
-1.897618163248590561e-01
-1.727821379092434884e-01
-1.529308921793577358e-01
-1.306069638671396305e-01
-1.062599576879995900e-01
-8.038848683639626680e-02
-5.349633835860029274e-02
-2.610601359081478334e-02
1.253243101446283037e-03
2.806636689461510653e-02
5.384739259871727801e-02
7.811769989968334049e-02
1.004577472260770460e-01
1.204948289299777736e-01
1.378794013281271491e-01
1.523644181600899983e-01
1.637336527118434804e-01
1.718318439095683492e-01
1.766054292553197458e-01
1.780187094460691788e-01
1.761322448171465660e-01
1.710690637037087236e-01
1.629786272727978824e-01
1.521051266177054773e-01
1.387157776003583032e-01
1.231179356963736371e-01
1.056736932164800136e-01
8.675215758645005160e-02
6.675017942257738257e-02
4.607928381359893688e-02
2.514833673181046669e-02
4.357874296634506317e-03
-1.589416384837478990e-02
-3.523963465903741377e-02
-5.334371014115382031e-02
-6.988288404929539344e-02
-8.460086519753144685e-02
-9.727029196536565725e-02
-1.076977803742167061e-01
-1.157711770307973120e-01
-1.213935112483773837e-01
-1.245322869770502661e-01
-1.252141792372173379e-01
-1.234813944015235587e-01
-1.194501948320944029e-01
-1.132626107227082679e-01
-1.050865904712170451e-01
-9.514037270719200023e-02
-8.364958541013994830e-02
-7.086316860463681699e-02
-5.704760833708366619e-02
-4.247041113953031743e-02
-2.740169568774636355e-02
-1.211214956122236286e-02
3.137170550335771635e-03
1.810044540266887714e-02
3.253556090821625724e-02
4.622613538658575105e-02
5.897162753304132504e-02
7.058148770906944036e-02
8.089951415670054713e-02
8.977764331708720791e-02
9.709042156240563215e-02
1.027416648645774755e-01
1.066413135903128695e-01
1.087345029346599712e-01
1.089840212376843587e-01
1.073670693177934399e-01
1.039010619632543264e-01
9.861164464170374400e-02
9.155538263884449579e-02
8.282167558922698403e-02
7.250823995318034232e-02
6.075722583862380732e-02
4.772887634502084864e-02
3.360165886477858854e-02
1.859526654192193706e-02
2.936469822074239122e-03
-1.312265267020228804e-02
-2.930796336872086225e-02
-4.534209303523051293e-02
-6.093463984328786887e-02
-7.579102707587780097e-02
-8.962366007940407442e-02
-1.021577957650252610e-01
-1.131227921294907651e-01
-1.222844653700491391e-01
-1.294346789103102968e-01
-1.343824717561822868e-01
-1.370060084683391022e-01
-1.372022989966646400e-01
-1.349162008538618562e-01
-1.301643878349590389e-01
-1.229769281502795797e-01
-1.134600855681613674e-01
-1.017646031157262709e-01
-8.806362552825046375e-02
-7.260279257778326500e-02
-5.564365627904720862e-02
-3.747854291690422279e-02
-1.843760486521467401e-02
1.144804500807963810e-03
2.091950340995252233e-02
4.053028555890886286e-02
5.962695693255389007e-02
7.787542747537179455e-02
9.494559190982267138e-02
1.105385752361803531e-01
1.243870018809088707e-01
1.362346583080662754e-01
1.458859855175698161e-01
1.531688426655634094e-01
1.579429597637477811e-01
1.601363797078624862e-01
1.596895196533325567e-01
1.566019274171500664e-01
1.509220948286366104e-01
1.427143254055407984e-01
1.321135208302502140e-01
1.192766412793691139e-01
1.043915568379172321e-01
8.770003375882741425e-02
6.945224447979302107e-02
4.993559092911751401e-02
2.946271705888451470e-02
8.352534366965855273e-03
-1.305334482953637854e-02
-3.440777337216492648e-02
-5.536502529337149203e-02
-7.558139881456664433e-02
-9.471617818594114946e-02
-1.124555788819639468e-01
-1.285007249695809262e-01
-1.425707865094479332e-01
-1.544409328122434422e-01
-1.638989180441326465e-01
-1.707837163958793036e-01
-1.749940867205379558e-01
-1.764432555102173894e-01
-1.751265511391475738e-01
-1.710762486554146256e-01
-1.643562033279257206e-01
-1.551092027052003997e-01
-1.434924186411892233e-01
-1.297094910787410793e-01
-1.140085762995067253e-01
-9.664574073489988482e-02
-7.791279423028243944e-02
-5.811450986860215717e-02
-3.755935614970620090e-02
-1.656327509181449581e-02
4.557739152674551708e-03
2.550088858191944946e-02
4.597374670304278654e-02
6.569133649345151871e-02
8.440194391694036402e-02
1.018638011911062319e-01
1.178572510017127095e-01
1.321991946515772565e-01
1.447131559139418766e-01
1.552596416281711300e-01
1.637229490774620710e-01
1.699989366528527057e-01
1.740247452096160552e-01
1.757476366022186209e-01
1.751397508975752748e-01
1.722068603411047727e-01
1.669615920389821428e-01
1.594563435083457270e-01
1.497643751845404159e-01
1.379748472024842076e-01
1.242233486188722286e-01
1.086551758133975365e-01
9.144840253931324492e-02
7.281743675586463405e-02
5.298448907163996746e-02
3.221289687157109782e-02
1.078350856589715967e-02
-1.101077796509246365e-02
-3.284858390456946164e-02
-5.440409868114916281e-02
-7.534578739445702000e-02
-9.533690662253083148e-02
-1.140444281987183506e-01
-1.311567880976060030e-01
-1.463699758816875141e-01
-1.594055147485086421e-01
-1.700340600536328073e-01
-1.780364474290896948e-01
-1.832591718678588388e-01
-1.855977208022440150e-01
-1.849702627581212844e-01
-1.813889901567747875e-01
-1.748925946265004194e-01
-1.655700806483756671e-01
-1.535893561809817953e-01
-1.391311718987298385e-01
-1.224404322641116927e-01
-1.038011856427530910e-01
-8.351106660778158386e-02
-6.191311062481547056e-02
-3.936048392639567711e-02
-1.621569260461820650e-02
7.146770517191036731e-03
3.035312893129361866e-02
5.304212801143615152e-02
7.485874760878984124e-02
9.546082857962412405e-02
1.145419587324579824e-01
1.318033677359113920e-01
1.469831474625532541e-01
1.598581998627532919e-01
1.702165209978083182e-01
1.779065256936799289e-01
1.828010266858536292e-01
1.848019257882012600e-01
1.838763597584775478e-01
1.800035061694619798e-01
1.732188113762638260e-01
1.636063462172276384e-01
1.512660408198936990e-01
1.363716247733839371e-01
1.191209878753633766e-01
9.974671809806154310e-02
7.854465871008461941e-02
5.582089042960283742e-02
3.192799999928062904e-02
7.251511948438094102e-03
-1.781495864893915468e-02
-4.284733473146044164e-02
-6.741373766317931837e-02
-9.108459024695653161e-02
-1.134337395117420294e-01
-1.340391283713041892e-01
-1.525171279907441557e-01
-1.685063470266183194e-01
-1.816700364857273264e-01
-1.917515418317311537e-01
-1.985127204121715783e-01
-2.017858664586020812e-01
-2.014891078875012120e-01
-1.975603733827619168e-01
-1.900516305611858470e-01
-1.790685422226062362e-01
-1.647594948440822271e-01
-1.473846174588478719e-01
-1.272250418376051073e-01
-1.046266788042030105e-01
-8.000021823565262036e-02
-5.376755172837470453e-02
-2.640209264207479811e-02
1.603163075439340002e-03
2.975047967482109812e-02
5.753211940739491603e-02
8.444054599608218081e-02
1.099926868650460826e-01
1.337255448539425295e-01
1.551906267848458254e-01
1.740072548565149424e-01
1.898159986734445359e-01
2.023076936020007377e-01
2.112600524844283068e-01
2.164674462268441346e-01
2.178229650665729766e-01
2.152860492181035146e-01
2.088488066204933769e-01
1.986254215096047715e-01
1.847611351253582446e-01
1.674686626016215207e-01
1.470559878466269343e-01
1.238471645855578479e-01
9.824971945885820068e-02
7.071696101798793932e-02
4.172087143641876883e-02
1.178986927118919059e-02
-1.853648805129563815e-02
-4.871151567577160224e-02
-7.818028080858577256e-02
-1.063926396079752923e-01
-1.328369162987545204e-01
-1.570186419136460620e-01
-1.784774919867044563e-01
-1.968379640650946283e-01
-2.117418209930160833e-01
-2.229208079264080045e-01
-2.301921361298805424e-01
-2.333994951084806813e-01
-2.325200966649622059e-01
-2.275794512467775310e-01
-2.186623613590739368e-01
-2.059729083557331752e-01
-1.897348741255681370e-01
-1.702540986218412933e-01
-1.479003600627604165e-01
-1.230586548047552659e-01
-9.617612035214706534e-02
-6.771786637065457803e-02
-3.815887524851780538e-02
-7.990307957138537143e-03
2.229673606734346170e-02
5.222902048414490572e-02
8.134469954623724242e-02
1.091954813905710864e-01
1.353820133940329407e-01
1.595170949394226767e-01
1.812534904577485784e-01
2.002975252878000378e-01
2.163669224203675356e-01
2.292467036874687447e-01
2.387568795763405083e-01
2.447438694620054367e-01
2.471304915996620499e-01
2.458554749010420371e-01
2.409127200112487488e-01
2.323567630450657506e-01
2.202566600153137433e-01
2.047600123632795643e-01
1.860475941149619117e-01
1.643326451296028279e-01
1.399045664906626851e-01
1.130664864643916301e-01
8.417492407888185757e-02
5.363456258925217157e-02
2.186127987646373921e-02
-1.067752532115034264e-02
-4.349691966710815538e-02
-7.610116914220452222e-02
-1.079739647872882125e-01
-1.385977352310872046e-01
-1.674697166543538118e-01
-1.940980985998331243e-01
-2.180061505561899926e-01
-2.387813056987118099e-01
-2.560293312708873947e-01
-2.694150509773321489e-01
-2.786950941015860495e-01
-2.836450788341307039e-01
-2.841585613511805053e-01
-2.802004271009997938e-01
-2.717769741762663949e-01
-2.590339908042265660e-01
-2.421494163171077352e-01
-2.213785139025600257e-01
-1.970749294658219464e-01
-1.696085393443958478e-01
-1.394304777404177798e-01
-1.070318852515564634e-01
-7.291940097618057615e-02
-3.764171194034816870e-02
-1.754649329300680960e-03
3.418735534238571266e-02
6.963133159718827569e-02
1.040303935157309706e-01
1.368765639512569687e-01
1.676774845927631319e-01
1.959698837020887596e-01
2.213551776536535898e-01
2.434473118147880699e-01
2.619273091289072708e-01
2.765336607087703902e-01
2.870257607625441576e-01
2.932605913967598621e-01
2.951268689773058895e-01
2.925663459662118937e-01
2.856166062380660620e-01
2.743323429153096682e-01
2.588602374095069214e-01
2.394115564664691109e-01
2.162249564849352546e-01
1.896453766119209072e-01
1.600458487252181261e-01
1.278516792938219071e-01
9.356527463667810296e-02
5.770071915507282712e-02
2.082667971767973580e-02
-1.645687788029558812e-02
-5.354460867572423399e-02
-8.981486803759529403e-02
-1.246434714742789274e-01
-1.574318198422046400e-01
-1.876122243888047880e-01
-2.146307183714344369e-01
-2.380250961332205928e-01
-2.573760095354844513e-01
-2.723186723498292050e-01
-2.826300751411082723e-01
-2.881155031037335723e-01
-2.887037861177680909e-01
-2.844462431153528814e-01
-2.754258023994156090e-01
-2.618857473911086475e-01
-2.441299922229470398e-01
-2.225190596301370727e-01
-1.975325557662503950e-01
-1.696684971796842412e-01
-1.394790671679959349e-01
-1.075605176124810880e-01
-7.451104435474337206e-02
-4.093205079917615341e-02
-7.425556317812359586e-03
2.543443030588327103e-02
5.712188919471899995e-02
8.712202525982021273e-02
1.149991554723493736e-01
1.403703051933396229e-01
1.628818156857094746e-01
1.822890759087568147e-01
1.983750321466081212e-01
2.109851049576607629e-01
2.200521598967770109e-01
2.255242455599117402e-01
2.274299659228523063e-01
2.258417161781970661e-01
2.208547733562553905e-01
2.126333319689903689e-01
2.013559771906376361e-01
1.872373490343136049e-01
1.705334531565702583e-01
1.515081472800528795e-01
1.304657270403092872e-01
1.077283493678205112e-01
8.363075138281295118e-02
5.853850931872739416e-02
3.282248737833198815e-02
6.866317136232619189e-03
-1.893434691096884670e-02
-4.418417146297384801e-02
-6.849233932049081375e-02
-9.146975136457413669e-02
-1.127426023756410434e-01
-1.319676039981907967e-01
-1.488085459877027672e-01
-1.629811863666406069e-01
-1.742414271615698174e-01
-1.823665122661973226e-01
-1.872260182993438771e-01
-1.887166233074804023e-01
-1.867941378613820758e-01
-1.815104334036931333e-01
-1.729346008458657324e-01
-1.612309202834443789e-01
-1.466238374743573103e-01
-1.293636151912407328e-01
-1.097906546026622548e-01
-8.826660305596906175e-02
-6.518708470608763905e-02
-4.099286606999923144e-02
-1.612924242252414264e-02
8.946231551703875962e-03
3.376969758191081250e-02
5.788648194853018847e-02
8.086867930062568988e-02
1.022947459796406666e-01
1.217847027121454484e-01
1.390038600702825367e-01
1.536315976647686932e-01
1.654275392496363795e-01
1.741849157930203118e-01
1.797365757082732829e-01
1.820075146671761845e-01
1.809398230386080886e-01
1.765511024988238864e-01
1.689264911730860297e-01
1.581706326764623916e-01
1.444804252934201449e-01
1.280840430572948163e-01
1.092478559418125494e-01
8.831039373514466828e-02
6.562153445942865704e-02
4.157748187301767845e-02
1.660841132124160624e-02
-8.849001511365464298e-03
-3.433356935860177456e-02
-5.937767946338096126e-02
-8.352201136594425424e-02
-1.063200227401087383e-01
-1.273310357254897052e-01
-1.461646919622837104e-01
-1.624607998949302301e-01
-1.758870335637752191e-01
-1.862048961302244787e-01
-1.931979651940619047e-01
-1.967244298493329713e-01
-1.967365939835150623e-01
-1.932067451408024383e-01
-1.862210625015466303e-01
-1.759213178524387522e-01
-1.624878072849216259e-01
-1.462052283880177217e-01
-1.273781082684971311e-01
-1.063631752102333627e-01
-8.357118167598934222e-02
-5.941995811710668041e-02
-3.435666186748666251e-02
-8.839978550827201631e-03
1.667760471635258701e-02
4.175734027629884881e-02
6.596460405672147087e-02
8.890465962307281256e-02
1.102166510230893626e-01
1.295553018255868882e-01
1.466489134383886783e-01
1.612495143978737444e-01
1.731504999194586614e-01
1.822193484853999457e-01
1.883364219589928612e-01
1.914490138941116748e-01
1.915510028879899296e-01
1.886549158633433754e-01
1.828447965173017054e-01
1.742234303162836229e-01
1.629289050432187747e-01
1.491509228450720315e-01
1.330877981776755481e-01
1.149822860721293472e-01
9.510240120553062337e-02
7.372778518342745779e-02
5.117461524172678411e-02
2.776685009327448800e-02
3.842633110191350648e-03
-2.024290250056315354e-02
-4.413322293695266102e-02
-6.746874448817505310e-02
-8.988849159853753990e-02
-1.110388707717867712e-01
-1.305853933660420241e-01
-1.481981205372316923e-01
-1.635806466055010622e-01
-1.764695284466337444e-01
-1.866144184884074297e-01
-1.938354447751641785e-01
-1.979792383963901725e-01
-1.989333355351702026e-01
-1.966706101713525390e-01
-1.911794643805151961e-01
-1.825259708125263058e-01
-1.708388498141562573e-01
-1.562673067353274603e-01
-1.390499164860780068e-01
-1.194523836210916179e-01
-9.777630467731870945e-02
-7.438421577102979909e-02
-4.964732598027143951e-02
-2.396992991702789205e-02
2.221826887574491864e-03
2.850035225524303814e-02
5.443402161747754736e-02
7.959065243351812202e-02
1.035562524052274086e-01
1.259420694975132982e-01
1.463671317143599160e-01
1.645049287407467364e-01
1.800582997232775262e-01
1.927567413031652521e-01
2.024099507117073093e-01
2.088449419344949320e-01
2.119511890193480075e-01
2.116892126405871544e-01
2.080360869020964065e-01
2.010600155588674331e-01
1.908691098363340388e-01
1.776069799934364979e-01
1.615035784108494188e-01
1.428044953744596057e-01
1.218102684546255171e-01
9.887273624222941981e-02
7.435401424382277746e-02
4.866330809543931157e-02
2.222643771233136223e-02
-4.524170265889249087e-03
-3.114305991053348960e-02
-5.718450336812283541e-02
-8.222145256867591234e-02
-1.058411646800409001e-01
-1.276441525801036148e-01
-1.472889864094417967e-01
-1.644512725246929652e-01
-1.788533073869948142e-01
-1.902925699332164988e-01
-1.985813593661113763e-01
-2.036215087613990893e-01
-2.053709464908020643e-01
-2.038176620041335096e-01
-1.990544405733999933e-01
-1.911989647924261237e-01
-1.804248869142918987e-01
-1.669795801184663919e-01
-1.511221079326821037e-01
-1.331688694429387920e-01
-1.134655287760366615e-01
-9.236679769707215049e-02
-7.025268661918665503e-02
-4.750743351895683753e-02
-2.450775389764370260e-02
-1.622236629775786199e-03
2.078669152657576513e-02
4.239541303843909897e-02
6.289643741954863143e-02
8.200647341038762306e-02
9.949803524709090186e-02
1.151541212858486207e-01
1.288068161660232969e-01
1.403317309751100639e-01
1.496171045033078961e-01
1.566104789903385586e-01
1.612793133976193616e-01
1.636151508575027225e-01
1.636546290310659790e-01
1.614416323396334896e-01
1.570515211363709418e-01
1.505825380356263232e-01
1.421404450953996923e-01
1.318607284068071261e-01
1.198870057591438498e-01
1.063771823082131640e-01
9.151098685774557151e-02
7.547195140100244892e-02
5.846406070576793540e-02
4.070345235506193232e-02
2.241208507324782273e-02
3.831073829614090043e-03
-1.479422694952807482e-02
-3.321162552634464304e-02
-5.116037976670748111e-02
-6.837963979921188318e-02
-8.461203648490073226e-02
-9.960189605258615297e-02
-1.131020736893241507e-01
-1.248885142818459415e-01
-1.347423984971097000e-01
-1.424777164530092177e-01
-1.479421233455940343e-01
-1.509949543842504793e-01
-1.515598391498179098e-01
-1.495856850821691286e-01
-1.450551040489369004e-01
-1.380242733298811808e-01
-1.285625814365429498e-01
-1.167993682963022473e-01
-1.029144598001987543e-01
-8.710172552128880863e-02
-6.961766005592426310e-02
-5.073860769335472587e-02
-3.076138468433677053e-02
-1.001914026274471764e-02
1.115029723536870715e-02
3.239704868738957355e-02
5.336292038639334212e-02
7.369247786978157244e-02
9.304198358616228015e-02
1.110710364704008413e-01
1.274600118250288350e-01
1.419193972904867485e-01
1.541672833351234728e-01
1.639727640872012948e-01
1.711336702637763774e-01
1.754710396831769548e-01
1.768789559703448089e-01
1.752677785924788012e-01
1.706033995263455116e-01
1.629176548712509554e-01
1.522572633608860748e-01
1.387525165496077684e-01
1.225720029164395208e-01
1.039163201205227649e-01
8.306753929789276181e-02
6.032287848550946241e-02
3.602981808040492395e-02
1.058482337811639251e-02
-1.560675436735143445e-02
-4.209872084241880752e-02
-6.842980372680901313e-02
-9.413707949626318183e-02
-1.187542567372312785e-01
-1.418166622970444823e-01
-1.628919017270663572e-01
-1.815733921957655150e-01
-1.974725708981701633e-01
-2.102827299481155321e-01
-2.197221287403580137e-01
-2.255680350912569465e-01
-2.276970268077921355e-01
-2.260042232046728383e-01
-2.204915974495004205e-01
-2.112310770528796899e-01
-1.983267850196641091e-01
-1.819996547443749613e-01
-1.624993812065796961e-01
-1.401305973064928267e-01
-1.152735063712038432e-01
-8.831930514216640438e-02
-5.970919132444546529e-02
-2.991105615134816154e-02
6.018577878026884487e-04
3.134094524338502941e-02
6.181517807255455105e-02
9.154673303515374616e-02
1.200726785171450095e-01
1.469372013066641836e-01
1.717293805318674538e-01
1.940578065727274204e-01
2.135580977125322022e-01
2.299311177948295537e-01
2.428905461144113542e-01
2.522130670543512032e-01
2.577336861484297303e-01
2.593066698968237715e-01
2.568819826078840296e-01
2.504433232054118497e-01
2.400238080949997910e-01
2.257533345841964412e-01
2.077788386769668094e-01
1.863322091147343595e-01
1.617098316006814473e-01
1.342304151836788972e-01
1.043050393812600951e-01
7.237108477152839892e-02
3.890264720949190846e-02
4.432423465149215591e-03
-3.049933430370554976e-02
-6.532685072144715777e-02
-9.946850048402613997e-02
-1.323477652898703560e-01
-1.634071223446783849e-01
-1.920943870388737706e-01
-2.179014309154227447e-01
-2.403776540534967032e-01
-2.590889951876974573e-01
-2.737092287397496770e-01
-2.839667133616080585e-01
-2.896407364512392224e-01
-2.906541786130787397e-01
-2.869593008563346981e-01
-2.786136885393673546e-01
-2.657877373879948268e-01
-2.486763646129778738e-01
-2.276011597402969600e-01
-2.029357065572428287e-01
-1.750915038193603390e-01
-1.445665045041252261e-01
-1.118723219693771587e-01
-7.755029555674847197e-02
-4.216789796405817636e-02
-6.291114764051988772e-03
2.952662155260922516e-02
6.473626041262600661e-02
9.881499899640150408e-02
1.312887622733561466e-01
1.616935601321721205e-01
1.896303965929627133e-01
2.147471158778009870e-01
2.367134224944891230e-01
2.552865399664025481e-01
2.702475430383666777e-01
2.814262827292362545e-01
2.887264644421274618e-01
2.920649578322226936e-01
2.914308478142871306e-01
2.868557508551354274e-01
2.783946156447644760e-01
2.661787485968114542e-01
2.503567512352156132e-01
2.311234760606045990e-01
2.087311175047189549e-01
1.834431770666952177e-01
1.555849068514302269e-01
1.255111598586667876e-01
9.359708214108464208e-02
6.027181096596308241e-02
2.597456363860035922e-02
-8.829061459169687542e-03
-4.364662819116393866e-02
-7.798315330712560223e-02
-1.113352256421820674e-01
-1.431962425826107665e-01
-1.730723261185557194e-01
-2.004971801022534528e-01
-2.250114508678463521e-01
-2.462123495935889250e-01
-2.637443129338904457e-01
-2.772755243445161888e-01
-2.865850629027831831e-01
-2.914872202829320025e-01
-2.918661628056253843e-01
-2.877289891467931238e-01
-2.791047935999764751e-01
-2.661424130217465711e-01
-2.490725837538313170e-01
-2.281586119347180919e-01
-2.037865069105392890e-01
-1.763736426624826215e-01
-1.463862151603439743e-01
-1.143605660258019407e-01
-8.084151734819083890e-02
-4.640322519077896141e-02
-1.163621907685703956e-02
2.287504633945591781e-02
5.656588255840500762e-02
8.887685232607867025e-02
1.192911670986872286e-01
1.473422488425939758e-01
1.725784957484842452e-01
1.946388456038308512e-01
2.132033713651932949e-01
2.279952108281745882e-01
2.388462460509223062e-01
2.456092928890823701e-01
2.482225556307725844e-01
2.467067456336542730e-01
2.411044492186756871e-01
2.315674193177575668e-01
2.182876002330658427e-01
2.015015112721149082e-01
1.815369635972437223e-01
1.587368178044074596e-01
1.335042153544311883e-01
1.062900866395216637e-01
7.755589157473952167e-02
4.780627741448933987e-02
1.755855482469953488e-02
-1.266806889651156398e-02
-4.235122506510125007e-02
-7.097117167339028754e-02
-9.804246073042538479e-02
-1.231018996024721979e-01
-1.457084717922453310e-01
-1.655025414415546570e-01
-1.821450425543127971e-01
-1.953657179784004383e-01
-2.049881425147410674e-01
-2.108558086987912805e-01
-2.129307676597221866e-01
-2.112378193848082897e-01
-2.058434054465809182e-01
-1.969364757311010128e-01
-1.847310270225095974e-01
-1.695064781270329002e-01
-1.516153950549983254e-01
-1.314213982725220831e-01
-1.093386859630028907e-01
-8.580314663051125113e-02
-6.125256458742278642e-02
-3.612907244705543253e-02
-1.087401255222958385e-02
1.409956406321688505e-02
3.840457048275303098e-02
6.166651443171761171e-02
8.357548730335975784e-02
1.038441621938351322e-01
1.222210976742741928e-01
1.385245064533967840e-01
1.525845524120461039e-01
1.642885228276657894e-01
1.735666994194344781e-01
1.803626793554970464e-01
1.846742097625855283e-01
1.865142940227283996e-01
1.859160179878777686e-01
1.829442400100429467e-01
1.776686157023088519e-01
1.701804917265827832e-01
1.605845672019454717e-01
1.489919938791600673e-01
1.355359446019514524e-01
1.203548600128521717e-01
1.036036144551306659e-01
8.545835645648819368e-02
6.610014081272963526e-02
4.573943427808213613e-02
2.460145523631973585e-02
2.922692249796243757e-03
-1.902893980071664048e-02
-4.097942368012107150e-02
-6.263905052539722740e-02
-8.370144823235331488e-02
-1.038591910003281438e-01
-1.228032130920948817e-01
-1.402238356027474819e-01
-1.558232048111371504e-01
-1.693302969833241356e-01
-1.804803786617368844e-01
-1.890558026461064411e-01
-1.948799627373283272e-01
-1.977943807116983033e-01
-1.977281602250949843e-01
-1.946394232870821694e-01
-1.885358842961594728e-01
-1.795164813690719452e-01
-1.676957216158946884e-01
-1.532653546109933873e-01
-1.364723150976377974e-01
-1.175808045292444648e-01
-9.692190783109463914e-02
-7.484441293957574959e-02
-5.171413715595576943e-02
-2.792245778651768207e-02
-3.862117137978349213e-03
2.008166603919662313e-02
4.352806691497492636e-02
6.610845952092442301e-02
8.749451861589449542e-02
1.073674096964222363e-01
1.254476205904342945e-01
1.415039720351479458e-01
1.553164390707837406e-01
1.667296248231487643e-01
1.756188397040457372e-01
1.818840158196973478e-01
1.854900804938194869e-01
1.864144576664155950e-01
1.846768532171440269e-01
1.803396193589836827e-01
1.734749138527992285e-01
1.642040735464554979e-01
1.526673845289268916e-01
1.390241110961195348e-01
1.234741740734600912e-01
1.062244293657226557e-01
8.750973859982061342e-02
6.758814447950275972e-02
4.672349571722220207e-02
2.520479212539200597e-02
3.328825908450794291e-03
-1.860217746247824766e-02
-4.027652062614448664e-02
-6.138212631146068576e-02
-8.161403516616254350e-02
-1.006721138708548957e-01
-1.182641049031472880e-01
-1.341282789535139242e-01
-1.480110396848893506e-01
-1.596901640292280877e-01
-1.689881135729059958e-01
-1.757376850503979404e-01
-1.798374801533572098e-01
-1.812225213360484088e-01
-1.798547286189813021e-01
-1.757790188080697869e-01
-1.690582405930006193e-01
-1.598088856819597225e-01
-1.482100585946446170e-01
-1.344525173282672403e-01
-1.187870943920170952e-01
-1.014916321085782835e-01
-8.285758569458129275e-02
-6.321030221680418171e-02
-4.288045889322686377e-02
-2.220064807022484321e-02
-1.505296783442799935e-03
1.887563761983003519e-02
3.863872985574592911e-02
5.749031498535557561e-02
7.515922797712891457e-02
9.142000092740501516e-02
1.060558829134392034e-01
1.188991112833288760e-01
1.298204256960014957e-01
1.387049694286392465e-01
1.454998944351689194e-01
1.501707229819995715e-01
1.527118683485410022e-01
1.531655128183357639e-01
1.515813960185962150e-01
1.480448924787169940e-01
1.426642998693616049e-01
1.355557040193350882e-01
1.268625791980414752e-01
1.167349459072432039e-01
1.053321558956615001e-01
9.282617557088224114e-02
7.939048856428541912e-02
6.520411870494041695e-02
5.044899419103289484e-02
3.530683084385850823e-02
1.995864144316109035e-02
4.585176023719762101e-03
-1.063654101030383700e-02
-2.553361517168210512e-02
-3.993464321280084522e-02
-5.367709929536726432e-02
-6.660224805837104689e-02
-7.855701273837803478e-02
-8.940173004433507598e-02
-9.899950078706318268e-02
-1.072293331684980311e-01
-1.139847093997025662e-01
-1.191650491016417457e-01
-1.226995067903667858e-01
-1.245275554949219210e-01
-1.246069739124632536e-01
-1.229307565682210279e-01
-1.194983397646089962e-01
-1.143440094560830289e-01
-1.075280550403047430e-01
-9.912081078838597126e-02
-8.923380074125630834e-02
-7.799011526642654624e-02
-6.553226040364129590e-02
-5.203319090422592330e-02
-3.767065596548151846e-02
-2.264541895472709995e-02
-7.172285474079304057e-03
8.529409490835179741e-03
2.422524450380725280e-02
3.967748760079692349e-02
5.464741710567372346e-02
6.889504115054048694e-02
8.218189426323302404e-02
9.428292322875481135e-02
1.049797494211212046e-01
1.140652817379965711e-01
1.213637783246122592e-01
1.267062791988672887e-01
1.299581776251024223e-01
1.310210354095298069e-01
1.298074871960490095e-01
1.262912693105612272e-01
1.204707966928465490e-01
1.123749839008039153e-01
1.021011491851972486e-01
8.975904646526672304e-02
7.551402567675266631e-02
5.957947987024563019e-02
4.218195994978340968e-02
2.360793374564202490e-02
4.163383424938937871e-03
-1.582737737235051512e-02
-3.600662248664125709e-02
-5.601276825059064990e-02
-7.548018912455875529e-02
-9.404039692198778999e-02
-1.113321442468010181e-01
-1.270242668608574654e-01
-1.407940003315462096e-01
-1.523537588496218786e-01
-1.614682974074521105e-01
-1.679140863675230855e-01
-1.715426831273967889e-01
-1.722490916175553055e-01
-1.699573422659722000e-01
-1.646851190426509293e-01
-1.564710304639396754e-01
-1.454116571456193219e-01
-1.316742239261207148e-01
-1.154389797988482347e-01
-9.695447145515521947e-02
-7.650138950593141085e-02
-5.437869878528272388e-02
-3.093301941681637912e-02
-6.519475966362549280e-03
1.848959202080058262e-02
4.370463001993873942e-02
6.873521010279949606e-02
9.319013675221682336e-02
1.166779765829134008e-01
1.388165030188116267e-01
1.592430739430593101e-01
1.775996055619735448e-01
1.935618666714817859e-01
2.068334061975440896e-01
2.171320363790395225e-01
2.242411008086032942e-01
2.279644322370292797e-01
2.281509358855048908e-01
2.247274179742003997e-01
2.176355811685306563e-01
2.069051500130664745e-01
1.926250091948109588e-01
1.749134135244148347e-01
1.539984067610975227e-01
1.301359540754254418e-01
1.036422490203412206e-01
7.491852372939490634e-02
4.437986502937545097e-02
1.251126480092659005e-02
-2.016394647278549335e-02
-5.311051674222905250e-02
-8.575745408043319862e-02
-1.175272364248874379e-01
-1.478537464323419204e-01
-1.761840644250768639e-01
-2.019754652040582354e-01
-2.247545377421392709e-01
-2.440788354349020528e-01
-2.595526838676369130e-01
-2.708965164729685848e-01
-2.778537516216827985e-01
-2.802773599465716026e-01
-2.781243659255553946e-01
-2.713816100941272014e-01
-2.601845001637095312e-01
-2.447221385715952491e-01
-2.252432250733932273e-01
-2.021163390614608424e-01
-1.757290643133401775e-01
-1.465393349706170800e-01
-1.150599009963940433e-01
-8.181273560621844798e-02
-4.735552365939991321e-02
-1.225609088714880827e-02
2.292520311903931129e-02
5.764023696650690670e-02
9.134601352261388640e-02
1.235451870656376905e-01
1.537695216722609892e-01
1.815722996070963935e-01
2.065838476235793142e-01
2.284534155217405327e-01
2.468844995735957060e-01
2.616532968338548537e-01
2.725507317483462644e-01
2.794525367394692927e-01
2.822785341849912699e-01
2.809798694876092240e-01
2.755982384418510511e-01
2.661940244139982537e-01
2.528883312484803692e-01
2.358689965043903602e-01
2.153387712203425064e-01
1.915795101908240872e-01
1.649064650294052858e-01
1.356644133347769399e-01
1.042673709295997841e-01
7.114148585505236655e-02
3.675476467848774742e-02
1.612974873576526746e-03
-3.377165384551308880e-02
-6.885909288129608841e-02
-1.030999489185612794e-01
-1.359499330990096844e-01
-1.668745071490866927e-01
-1.953436070885033182e-01
-2.208748101935436581e-01
-2.430209346721090569e-01
-2.613599411385128524e-01
-2.755750429917617761e-01
-2.853792195552281030e-01
-2.905636438615530337e-01
-2.910410439792273096e-01
-2.867474190211442564e-01
-2.777549706784221972e-01
-2.642182758245604779e-01
-2.463342208299890979e-01
-2.244417470680671323e-01
-1.989122139905368791e-01
-1.701836918546044131e-01
-1.387791301607096961e-01
-1.052329739991970242e-01
-7.012910925868845458e-02
-3.407574888622758036e-02
2.320021993855447828e-03
3.845470307949466759e-02
7.372691997157754251e-02
1.075729155296593076e-01
1.394681991425413270e-01
1.689033606523129283e-01
1.954546095243527848e-01
2.187324380986686023e-01
2.383931123451280554e-01
2.541946427590234259e-01
2.659137278941020588e-01
2.734145720796305468e-01
2.766363495084315782e-01
2.755418598449655976e-01
2.702025403690154204e-01
2.607250561238426689e-01
2.472656854855962982e-01
2.300703492181520315e-01
2.093997102911050179e-01
1.855839755566494054e-01
1.590021788964600113e-01
1.300492943883154173e-01
9.918120025704721399e-02
6.686966713635555948e-02
3.360558003043001563e-02
-9.198425356396477959e-05
-3.370160493106794108e-02
-6.670107277472869800e-02
-9.856772938925340011e-02
-1.287897413767120636e-01
-1.568905230221147584e-01
-1.824020837074438739e-01
-2.049041403449904930e-01
-2.240340466793165897e-01
-2.394456943648871627e-01
-2.508941525067550082e-01
-2.581817226824599243e-01
-2.611595751844925095e-01
-2.598057345476901259e-01
-2.541229666424019706e-01
-2.442115515484835075e-01
-2.302684503404031635e-01
-2.125137000045975166e-01
-1.912825119750226621e-01
-1.669536239498882468e-01
-1.399428663213775348e-01
-1.107440842745002763e-01
-7.986283735095880965e-02
-4.783452348116928876e-02
-1.521881629145924175e-02
1.742593032008354914e-02
4.955113478052103337e-02
8.061149587978924669e-02
1.100885312599745314e-01
1.375097043863151014e-01
1.624128293169761483e-01
1.844066492854430916e-01
2.031471640732916417e-01
2.183180634501256656e-01
2.297062133463289579e-01
2.371247271400051537e-01
2.404538728167947004e-01
2.396679144029067454e-01
2.347592935836624872e-01
2.258243165926013818e-01
2.130157552981731262e-01
1.965217204089306779e-01
1.766371009698019523e-01
1.536792449792021842e-01
1.280262174077843318e-01
1.001257436852002469e-01
7.043736463247533830e-02
3.947851152718867551e-02
7.792155842725606574e-03
-2.407118885657834328e-02
-5.554268013937949111e-02
-8.605179721012573557e-02
-1.150507337377294770e-01
-1.420130734029029229e-01
-1.664270688283395749e-01
-1.878601530848172940e-01
-2.059083011021341503e-01
-2.202241791766899603e-01
-2.305735206205579146e-01
-2.367433490014961839e-01
-2.386390111439485318e-01
-2.362572552135264736e-01
-2.296293473267875251e-01
-2.189327695518256123e-01
-2.043874976876688399e-01
-1.862782101460581652e-01
-1.649946933883831846e-01
-1.409419618177288336e-01
-1.145883284603219920e-01
-8.644211474453805666e-02
-5.701696171615561193e-02
-2.684350634132329216e-02
3.544272618730845426e-03
3.363316692032401051e-02
6.293756450347301468e-02
9.098111106144389504e-02
1.173514272184993934e-01
1.416691017739445946e-01
1.635845884281844076e-01
1.828341015760253652e-01
1.991715639654060288e-01
2.124119263563575277e-01
2.224366375272062157e-01
2.291417275727715697e-01
2.324996652931259900e-01
2.325148931595624746e-01
2.292191831573933136e-01
2.227078057305215131e-01
2.130872509019569594e-01
2.005054165720833170e-01
1.851472353728407794e-01
1.672074359606635641e-01
1.469264872488866003e-01
1.245603699664749597e-01
1.003845706118400433e-01
7.471142663731172862e-02
4.785928798775652970e-02
2.017318549324276927e-02
-7.982284390489119419e-03
-3.623787362370863019e-02
-6.420632607178344831e-02
-9.149560524028754749e-02
-1.177162407365843488e-01
-1.424827164881601604e-01
-1.654126914002763959e-01
-1.861537327915389339e-01
-2.043713385810511096e-01
-2.197503675998760675e-01
-2.320410110888427302e-01
-2.410090220799533389e-01
-2.464790819963050272e-01
-2.483502044186639834e-01
-2.465385895458261090e-01
-2.410618326037246295e-01
-2.319870282225469926e-01
-2.194200473611405133e-01
-2.035719644401436101e-01
-1.846742153981083823e-01
-1.630201351219622008e-01
-1.389671191203925016e-01
-1.128836174734501041e-01
-8.518989356162659510e-02
-5.632666308155109824e-02
-2.674077547382103237e-02
3.107494342296068801e-03
3.275706371961140118e-02
6.176403798193280670e-02
8.969912188238277073e-02
1.161434152380185214e-01
1.407284015613230188e-01
1.631018901103159224e-01
1.829471979522554193e-01
2.000112356565384997e-01
2.140528746717291764e-01
2.249000869703214889e-01
2.324289390951868317e-01
2.365378406155525248e-01
2.372115195829157253e-01
2.344574312967779850e-01
2.283311276531045930e-01
2.189584810109027058e-01
2.064776896887925983e-01
1.910933276745263032e-01
1.730476967802997423e-01
1.526019503428244772e-01
1.300765992533885473e-01
1.058048955605448982e-01
8.014636500949207099e-02
5.349200296046130454e-02
2.623656385480560571e-02
-1.210642909601600259e-03
-2.843360040905035246e-02
-5.502132947147964082e-02
-8.057596866835306515e-02
-1.047031715775884331e-01
-1.270403381319510638e-01
-1.472560744152610346e-01
-1.650317900129637527e-01
-1.801180575570844322e-01
-1.922914613843461906e-01
-2.013690907486594961e-01
-2.072525386560500338e-01
-2.098588630873461924e-01
-2.091834578364059338e-01
-2.052849009636667499e-01
-1.982430028833380153e-01
-1.882304422637586516e-01
-1.754481048557464673e-01
-1.601353674911606684e-01
-1.425969597517225407e-01
-1.231470066965278665e-01
-1.021362483795560799e-01
-7.993960676390303444e-02
-5.693418776616038235e-02
-3.350377955144646924e-02
-1.003340493646279197e-02
1.310801472358685132e-02
3.557390000332946722e-02
5.702443186549634169e-02
7.716683765664196504e-02
9.573369711242965541e-02
1.124790205876337046e-01
1.272212419740668676e-01
1.397925471157925870e-01
1.500706493877782544e-01
1.579850484964188673e-01
1.634762661344215939e-01
1.665437579520175349e-01
1.672127794351811747e-01
1.655287087211937680e-01
1.615858345586730083e-01
1.554871495204664666e-01
1.473636192465290762e-01
1.373723261704571930e-01
1.256757294751858767e-01
1.124610821967610141e-01
9.792441394339584937e-02
8.226896102768785357e-02
6.571219271927417060e-02
4.847366710396167067e-02
3.077913856045372265e-02
1.285910667466048929e-02
-5.055860894910772785e-03
-2.273543323898118834e-02
-3.994942892745825813e-02
-5.647318952999035024e-02
-7.209095015977565191e-02
-8.658950197008401239e-02
-9.977519928415592987e-02
-1.114666534103774254e-01
-1.214925949326759458e-01
-1.297173969406527905e-01
-1.360141591552225804e-01
-1.402853945893207666e-01
-1.424723582308153325e-01
-1.425249506462632487e-01
-1.404447431912296818e-01
-1.362596932538525651e-01
-1.300180311316983250e-01
-1.218255729996720327e-01
-1.117997750293761861e-01
-1.000945089305524394e-01
-8.690298658659145747e-02
-7.242576871530578830e-02
-5.689975301358132787e-02
-4.057687346055638411e-02
-2.371586168178556331e-02
-6.591048639636193363e-03
1.052132722354148092e-02
2.735043625468829703e-02
4.363024495502259431e-02
5.910007837710064271e-02
7.352695418832660978e-02
8.668728407042090855e-02
9.837870415738872443e-02
1.084386007754664927e-01
1.167119141663429671e-01
1.230873605897778167e-01
1.274854804397351493e-01
1.298406740598078146e-01
1.301431198973534431e-01
1.283983008752016541e-01
1.246411117863275853e-01
1.189513734446119853e-01
1.114164278963090671e-01
1.021625121341646486e-01
9.133897393105680496e-02
7.910507213265444149e-02
6.565257291187713562e-02
5.118047005807652150e-02
3.590055531192647836e-02
2.004062488531056091e-02
3.830290393390778370e-03
-1.249433529754010591e-02
-2.869400189970323228e-02
-4.453195758509587154e-02
-5.977827836504233383e-02
-7.420481966922452821e-02
-8.759871012843101212e-02
-9.976274987949618200e-02
-1.105058138705638238e-01
-1.196707467998873453e-01
-1.271137584991518243e-01
-1.327107350836947974e-01
-1.363805163396957509e-01
-1.380499488862826640e-01
-1.376859222762226165e-01
-1.352890468020525316e-01
-1.308711972140174096e-01
-1.244955420021459369e-01
-1.162415806343930214e-01
-1.062120839487712132e-01
-9.455112792320936876e-02
-8.140932726300283140e-02
-6.696655118119675121e-02
-5.142285338830863972e-02
-3.498358153731669778e-02
-1.787365699438727557e-02
-3.229366108970285060e-04
1.743660324101494602e-02
3.516991425060986276e-02
5.264261052280832381e-02
6.962909366612839157e-02
8.590871707539120272e-02
1.012668775869247501e-01
1.155080846750937973e-01
1.284411772035058685e-01
1.398917914627170189e-01
1.497055104661861036e-01
1.577329153243618443e-01
1.638536214316821671e-01
1.679605550684133697e-01
1.699603977635713581e-01
1.697948841052797087e-01
1.674126698565797655e-01
1.627929193265398866e-01
1.559445299690543629e-01
1.468853962048548567e-01
1.356796772170612286e-01
1.224087510290074732e-01
1.071773153680890545e-01
9.013827302201851688e-02
7.145314849726711048e-02
5.132541012980230966e-02
2.999206657572790757e-02
7.700876003989692853e-03
-1.525397613709422728e-02
-3.856437600147924472e-02
-6.190637429068104880e-02
-8.492937276539824776e-02
-1.072800044755816418e-01
-1.286023997012519793e-01
-1.485390502913889188e-01
-1.667406755675443220e-01
-1.828891205982966783e-01
-1.966744417155110725e-01
-2.078256180357315186e-01
-2.161251693159408072e-01
-2.213685265424238935e-01
-2.234331432995377564e-01
-2.222402781320244325e-01
-2.177446626553705411e-01
-2.100006028960140214e-01
-1.990832805513880754e-01
-1.851315226187251750e-01
-1.683559311042633344e-01
-1.489806445083890485e-01
-1.272986648105949858e-01
-1.036328445611820748e-01
-7.832243320501947048e-02
-5.174608799356276989e-02
-2.428863336191443290e-02
3.658662112423612112e-03
3.169856478131429650e-02
5.943681169226470995e-02
8.649706064867429545e-02
1.125093511160646098e-01
1.371210272461319268e-01
1.600133341638553253e-01
1.808741393305247636e-01
1.994306514906389882e-01
2.154399476814960745e-01
2.286723826772397994e-01
2.389541966551310959e-01
2.461277201476275711e-01
2.500690615826549057e-01
2.507082425267539438e-01
2.479854442581701512e-01
2.418997653153683869e-01
2.324868936700342503e-01
2.198034290523393497e-01
2.039783407731032006e-01
1.851578539877987428e-01
1.635348296728459938e-01
1.393630258725858662e-01
1.129081035356495344e-01
8.450215260068918988e-02
5.451087587058679740e-02
2.332036813938739156e-02
-8.626039286541632711e-03
-4.087409404604748497e-02
-7.294819089029418169e-02
-1.043498540079503545e-01
-1.345808577872207312e-01
-1.631521285937360399e-01
-1.895784356189940123e-01
-2.133979197819618201e-01
-2.342022083243286978e-01
-2.515945190056409486e-01
-2.652543309678342398e-01
-2.749281679252209565e-01
-2.803892088670756899e-01
-2.815393178628217696e-01
-2.783233394771660874e-01
-2.707546591578096074e-01
-2.589738702476729326e-01
-2.431431130038270716e-01
-2.235292988314502294e-01
-2.004748459796148463e-01
-1.743457039831355360e-01
-1.455997039819698080e-01
-1.147192573326124843e-01
-8.221205328825073599e-02
-4.862405544162894111e-02
-1.450406483685825684e-02
1.960273560383943986e-02
5.315329603343143389e-02
8.561811256913461066e-02
1.165129841806383515e-01
1.453645570459827507e-01
1.717474804501780139e-01
1.952959178993282086e-01
2.156585784568438857e-01
2.325706851433202993e-01
2.458089465619373581e-01
2.551868336300550100e-01
2.606158302692749285e-01
2.620267248604290500e-01
2.594220572257273649e-01
2.528773607043983129e-01
2.424860140354801463e-01
2.284327868108256276e-01
2.109379890048645456e-01
1.902575614344365063e-01
1.667244700169568661e-01
1.406846860690975920e-01
1.125338943364918853e-01
8.270928485646705797e-02
5.165703981328313710e-02
1.986173195144877793e-02
-1.218011648615843073e-02
-4.396867416398984180e-02
-7.499829353757628270e-02
-1.047648467205682388e-01
-1.327908038751990094e-01
-1.586168272457219586e-01
-1.818017345050331746e-01
-2.019748532532487650e-01
-2.187841872435316581e-01
-2.319379879604447359e-01
-2.412310686308533070e-01
-2.464763704396423782e-01
-2.475967487920638921e-01
-2.445764347323039767e-01
-2.374390441577123312e-01
-2.263305762756753214e-01
-2.114233889757125562e-01
-1.929601990556890079e-01
-1.712665571593028069e-01
-1.466823550743017179e-01
-1.196192638384031282e-01
-9.052151898602858737e-02
-5.984801922347436631e-02
-2.809445623052285457e-02
4.237714985749999053e-03
3.664670126802430095e-02
6.863038271930460565e-02
9.969175776259203703e-02
1.293640974249630204e-01
1.571919015571786871e-01
1.827444318745737872e-01
2.056416972913205354e-01
2.255136270326923431e-01
2.420479838212351575e-01
2.549783791083837237e-01
2.640583048849978187e-01
2.691285029028516740e-01
2.700559696262941900e-01
2.667610681292377217e-01
2.592531840460636783e-01
2.475582349815119987e-01
2.317968911911771346e-01
2.121513130189544849e-01
1.888343100947370568e-01
1.621692245298624324e-01
1.325065419194365324e-01
1.002556577660836112e-01
6.590630072960712571e-02
2.996089934932421803e-02
-7.015771265455210404e-03
-4.442594825517169610e-02
-8.166383743105193327e-02
-1.181005832763429853e-01
-1.531038330992902929e-01
-1.860634680824895804e-01
-2.163942287097130324e-01
-2.435245266878979797e-01
-2.669696319434562981e-01
-2.862822379727951727e-01
-3.010708682505711109e-01
-3.110776120550670654e-01
-3.160704587438790680e-01
-3.159419360105067964e-01
-3.106988655870634441e-01
-3.003815380307141569e-01
-2.851925476335459009e-01
-2.653910266664801787e-01
-2.413006890762489087e-01
-2.133705735147699567e-01
-1.820690745361128182e-01
-1.479363012430289781e-01
-1.115663393426949146e-01
-7.356148597885760199e-02
-3.455446818292898931e-02
4.813803885672556307e-03
4.391589537682956401e-02
8.214569168505414520e-02
1.189044216013455113e-01
1.536528854657058241e-01
1.858885550256435260e-01
2.151364695687028317e-01
2.410167982067361048e-01
2.631723521192557702e-01
2.813125178284323069e-01
2.952328667116745353e-01
3.047464651841390038e-01
3.097654769406040787e-01
3.102517658062447503e-01
3.062032242860633358e-01
2.977181554996946033e-01
2.849149935410329459e-01
2.679785787276268150e-01
2.471642694217482950e-01
2.227432104828110659e-01
1.950682735364849540e-01
1.645255875779911836e-01
1.315299825943153922e-01
9.656118320309721448e-02
6.010969460206176673e-02
2.269931664162191942e-02
-1.511713077059369421e-02
-5.278407132590870465e-02
-8.973659917129336860e-02
-1.254069268853333918e-01
-1.592430063222672054e-01
-1.907217533657714348e-01
-2.193279530917352782e-01
-2.446101427267456940e-01
-2.661624066356579332e-01
-2.836080061425120813e-01
-2.966875124566151767e-01
-3.051734910662521338e-01
-3.089204023849250746e-01
-3.079056261299825681e-01
-3.021296420219449219e-01
-2.917251202788949116e-01
-2.769018975701920682e-01
-2.579090270923948269e-01
-2.351225012052103602e-01
-2.089461903422851485e-01
-1.798383901968164944e-01
-1.483242930837649631e-01
-1.149367481581960310e-01
-8.023662298967206008e-02
-4.479806276349744543e-02
-9.186453789135757414e-03
2.605632717708188106e-02
6.039431944205712194e-02
9.333946298836727495e-02
1.244520112912165244e-01
1.533087007786632094e-01
1.795753433882174288e-01
2.029521191723784035e-01
2.231818760120111156e-01
2.400989040105871997e-01
2.535534581381217456e-01
2.634649210780429240e-01
2.698098943502972302e-01
2.725811448839774442e-01
2.718425525222193384e-01
2.676801828523761029e-01
2.602084025264390643e-01
2.495909245080770722e-01
2.359993549200040674e-01
2.196418339799413033e-01
2.007512724440854712e-01
1.795699477431846602e-01
1.563750274908989879e-01
1.314525695046032394e-01
1.051049499947507848e-01
7.765778730687085407e-02
4.944024106012195885e-02
2.079824912225122779e-02
-7.912966774378582535e-03
-3.633659229587415940e-02
-6.411113486257269400e-02
-9.087452062139333986e-02
-1.162749329077830407e-01
-1.399725273777925882e-01
-1.616334199784868475e-01
-1.809628538230692585e-01
-1.976837089276533566e-01
-2.115453470856521467e-01
-2.223634787537376867e-01
-2.299671814283260063e-01
-2.342517908314994401e-01
-2.351761179366934629e-01
-2.327180565395378098e-01
-2.269520382189395558e-01
-2.179877248377887766e-01
-2.059760725476435517e-01
-1.911518573220320483e-01
-1.737634932028864765e-01
-1.541129486013811389e-01
-1.325442829625923247e-01
-1.094099952225474487e-01
-8.509647607546877435e-02
-5.999993195488789732e-02
-3.451619415556567150e-02
-9.040471980816561226e-03
1.603437579034998339e-02
4.034203138112026077e-02
6.353325039626267490e-02
8.527314602178129310e-02
1.052788618917727959e-01
1.232804682577515742e-01
1.390466561651438893e-01
1.523983270597792927e-01
1.631670166603930716e-01
1.712459362172358834e-01
1.765606493677425171e-01
1.790593576745835858e-01
1.787562990612846514e-01
1.756794200943795348e-01
1.699005476924755342e-01
1.615401507969518313e-01
1.507293613176357017e-01
1.376558800159106699e-01
1.225315054263071135e-01
1.055879998460838021e-01
8.710435587120687884e-02
6.736771443453368202e-02
4.669030552611473650e-02
2.540718747034537150e-02
3.856313348851760081e-03
-1.761302631194124058e-02
-3.864772486836925980e-02
-5.890153876578617387e-02
-7.804144025035957000e-02
-9.573830777654079860e-02
-1.116973619373494847e-01
-1.256494480824012772e-01
-1.373414553320019271e-01
-1.465877277065127104e-01
-1.532218014370432535e-01
-1.571245237907451520e-01
-1.582509381060437925e-01
-1.565699841088179223e-01
-1.521305608931265707e-01
-1.450303559325431535e-01
-1.353908558501807913e-01
-1.234140601842548257e-01
-1.093204324998930110e-01
-9.336585605688962897e-02
-7.585167158234931706e-02
-5.708498727600226641e-02
-3.739611208078794102e-02
-1.712687306335780590e-02
3.382942831650040394e-03
2.379947117400142698e-02
4.379073662070480377e-02
6.304662069969781124e-02
8.128001677135485159e-02
9.821196292109647674e-02
1.136095588757781855e-01
1.272585100700506788e-01
1.389678822756263699e-01
1.485991349764733682e-01
1.560232500395943855e-01
1.611537446317877487e-01
1.639408926593094451e-01
1.643458764072946998e-01
1.623800750404688076e-01
1.580712904486142323e-01
1.514698979800095102e-01
1.426674241088216610e-01
1.317624199263079943e-01
1.188885184141602880e-01
1.042041992236228953e-01
8.787807456490981384e-02
7.011833780437048969e-02
5.114374398496498997e-02
3.119293012589593669e-02
1.053411479879679848e-02
-1.055993699087953708e-02
-3.179490881411110859e-02
-5.286401574849000640e-02
-7.345850189668377828e-02
-9.326363304999649162e-02
-1.119638081266169927e-01
-1.292555802095615436e-01
-1.448503133260282683e-01
-1.584658869395339509e-01
-1.698640609465297269e-01
-1.788272762349060185e-01
-1.851647955050175209e-01
-1.887562324984909390e-01
-1.894954153574666122e-01
-1.873397596436799373e-01
-1.823102683384634215e-01
-1.744448512539523710e-01
-1.638683124522324064e-01
-1.507386258886185271e-01
-1.352463469748780289e-01
-1.176511987364018408e-01
-9.822396232788097037e-02
-7.727177237624179018e-02
-5.513159591401967097e-02
-3.214420541198623887e-02
-8.664624860973996201e-03
1.494787571109474147e-02
3.834145462142912048e-02
6.117711206877868291e-02
8.311961721709772155e-02
1.038643996272229086e-01
1.231274959375147082e-01
1.406381315402295273e-01
1.561752625145245432e-01
1.695306159688677039e-01
1.805290382543509042e-01
1.890421379506044830e-01
1.949505106498939377e-01
1.981860635465012566e-01
1.987088494557618379e-01
1.964966057514421771e-01
1.915810013446181959e-01
1.840052620665846850e-01
1.738471507990499154e-01
1.612243970751454647e-01
1.462634323368720846e-01
1.291381191178733456e-01
1.100434718796577671e-01
8.919291388097627671e-02
6.684546480503190946e-02
4.326853212820033767e-02
1.875913492283276529e-02
-6.357582345708420735e-03
-3.175098921915228689e-02
-5.706517311864214154e-02
-8.193514590320362390e-02
-1.059943359805349677e-01
-1.288730064341946369e-01
-1.502023899968675802e-01
-1.696342856550506484e-01
-1.868365172746719594e-01
-2.014898263874898565e-01
-2.133323452322359315e-01
-2.221193353457247555e-01
-2.276523955209529826e-01
-2.298090675342625844e-01
-2.284818850495488329e-01
-2.236543721808413876e-01
-2.153680731501714796e-01
-2.036946453424101633e-01
-1.888125430235278179e-01
-1.709259633692573610e-01
-1.502939429715062225e-01
-1.272490138649861879e-01
-1.021349158816590719e-01
-7.534873522256352318e-02
-4.731528071742507890e-02
-1.846629137797933806e-02
1.074690841470621328e-02
3.986986759434060779e-02
6.846011347113145629e-02
9.608833796765059443e-02
1.223326625554664315e-01
1.468176969821553546e-01
1.691877187982187558e-01
1.891155722894513058e-01
2.063411941111704950e-01
2.206173571354552998e-01
2.317581730051095912e-01
2.396330875513544845e-01
2.441284718360253736e-01
2.452120021909183212e-01
2.428792016733470616e-01
2.371625289783480528e-01
2.281648526559745815e-01
2.160009182226861058e-01
2.008413624590441870e-01
1.828981657279868389e-01
1.623975198201133563e-01
1.396229318271876574e-01
1.148738172874279040e-01
8.847399533490191148e-02
6.078522122967944252e-02
3.217468306566256819e-02
3.032564412620897265e-03
-2.623704414913780036e-02
-5.522896740708460595e-02
-8.353495457504125921e-02
-1.107464979304902397e-01
-1.364701619258182896e-01
-1.603316880387151422e-01
-1.819639203696688246e-01
-2.010480070924181573e-01
-2.172889037637429910e-01
-2.304192056371492381e-01
-2.402474116375605262e-01
-2.465977312708975411e-01
-2.493618599599515817e-01
-2.485019378601615592e-01
-2.439986762705960155e-01
-2.359315226419794187e-01
-2.244193976812802194e-01
-2.096210585580096097e-01
-1.917837549948059328e-01
-1.711698050162435703e-01
-1.480966763362242533e-01
-1.229290857177749163e-01
-9.604124449297968269e-02
-6.784818613688142763e-02
-3.877803611317294508e-02
-9.263820039134493256e-03
2.025259040629240684e-02
4.932957762665815538e-02
7.754100722310426630e-02
1.044716156097696830e-01
1.297168176435909703e-01
1.529146744162957483e-01
1.737148088082351993e-01
1.918030680831027124e-01
2.069187268891279352e-01
2.188125055706303668e-01
2.273063206118780544e-01
2.322629198940863171e-01
2.335734799887987934e-01
2.312201250547923914e-01
2.252053469013414189e-01
2.155946344717650232e-01
2.025295853493463416e-01
1.861678312454945750e-01
1.667557571933706295e-01
1.445811560442523958e-01
1.199625561277932739e-01
9.329809879359379776e-02
6.500057634113654004e-02
3.552412724921082121e-02
5.363882891501206562e-03
-2.498003445152036095e-02
-5.498782116031702971e-02
-8.413234196365607098e-02
-1.118977361438922846e-01
-1.377919341357144445e-01
-1.613293836976939510e-01
-1.820815919866058952e-01
-1.996664881230712507e-01
-2.137262227313517782e-01
-2.240133570675579278e-01
-2.303145904679928524e-01
-2.324859678081197534e-01
-2.305023271811955654e-01
-2.243596552766773389e-01
-2.141691353493930805e-01
-2.001187003112975260e-01
-1.824274474552357028e-01
-1.614289518798670275e-01
-1.374852785007747158e-01
-1.110037373851446435e-01
-8.245496806130314660e-02
-5.231721093222931745e-02
-2.109546795191855062e-02
1.069071748705671676e-02
4.252629078233217952e-02
7.391042513227129296e-02
1.043460777299011211e-01
1.333679314000163207e-01
1.605470677202959773e-01
1.854653898698728764e-01
2.077687547365780762e-01
2.271312970175966006e-01
2.432574561914425115e-01
2.559261199043603718e-01
2.649303960347854647e-01
2.701243129206273852e-01
2.714192671616545982e-01
2.687435791842676669e-01
2.621096398510183167e-01
2.515600001442332423e-01
2.371780898592514286e-01
2.191288459601754557e-01
1.975915915813094281e-01
1.728164848947608412e-01
1.451084021191089701e-01
1.147913780239774445e-01
8.227013170262983954e-02
4.797280564875131686e-02
1.236151553162188887e-02
-2.404643438645816950e-02
-6.072629251696594344e-02
-9.712627145019697705e-02
-1.326774957600349858e-01
-1.668147333505828334e-01
-1.989869336430465097e-01
-2.286472535073379997e-01
-2.552895767599813182e-01
-2.784618979683952666e-01
-2.977279923608966983e-01
-3.127564324407269281e-01
-3.232697968257930432e-01
-3.290406232458134572e-01
-3.299849405002255320e-01
-3.260485404202252413e-01
-3.172829451043053806e-01
-3.038548836355398075e-01
-2.859559944114491437e-01
-2.639079432112153012e-01
-2.380867577182932959e-01
-2.089077689227104573e-01
-1.768775618470059541e-01
-1.425174272968311728e-01
-1.063812722665662264e-01
-6.905217529650369002e-02
-3.111237457844692050e-02
6.865957705161525315e-03
4.431425624981782940e-02
8.068949175509178284e-02
1.154969013389610111e-01
1.482517562688563939e-01
1.785343364798328281e-01
2.059725940604048011e-01
2.302162667939195995e-01
2.510037687047627641e-01
2.680980954533926930e-01
2.813111495858797717e-01
2.905301963118321340e-01
2.956558198187705933e-01
2.966612021180766723e-01
2.935630458659223008e-01
2.864012170433729576e-01
2.752927230557520311e-01
2.603723259633288212e-01
2.418217856365426632e-01
2.198821448919835997e-01
1.948063543241760898e-01
1.669135611012025344e-01
1.365552254259913001e-01
1.041060559116160911e-01
7.000378751194596960e-02
3.469825396969405951e-02
-1.326066550468824046e-03
-3.754884158807089700e-02
-7.344497988556766832e-02
-1.084695341222175202e-01
-1.420697763532211833e-01
-1.737021621090849011e-01
-2.028434530423180726e-01
-2.289763229863670535e-01
-2.516392203308932540e-01
-2.704179682656991379e-01
-2.849234212726353133e-01
-2.948857879181613351e-01
-3.000738818396734287e-01
-3.003342902867984776e-01
-2.956528888923621867e-01
-2.860407435155402078e-01
-2.716472568098428075e-01
-2.527181150502612050e-01
-2.295367625050416249e-01
-2.025312855976607596e-01
-1.721673653415459748e-01
-1.389660855262636052e-01
-1.035295325305867209e-01
-6.646882568448370110e-02
-2.842071568577470009e-02
9.963484014811729850e-03
4.804492498087481467e-02
8.522547464471401379e-02
1.209171051102894134e-01
1.545943286453955734e-01
1.858065657009783100e-01
2.141229052813188316e-01
2.392290484384406168e-01
2.608646234619770299e-01
2.788156520074893674e-01
2.929873516325030569e-01
3.033071693062913132e-01
3.097744374622836139e-01
3.124591507773019083e-01
3.114446962808832264e-01
3.068771575597640799e-01
2.989260548180555088e-01
2.877747719210320132e-01
2.736355646333764602e-01
2.567247435667701083e-01
2.372656359760189626e-01
2.154872286148632743e-01
1.916192309791260873e-01
1.658940358239970603e-01
1.385449047782344456e-01
1.098104026829773011e-01
7.993809942611104780e-02
4.917805764260591017e-02
1.779976637566171860e-02
-1.391445537775654051e-02
-4.567434344608273245e-02
-7.716024901262014124e-02
-1.080452444912849974e-01
-1.379894321512504241e-01
-1.666349172579834059e-01
-1.936227410859685527e-01
-2.185963517079467788e-01
-2.412005012362630207e-01
-2.610927830036106623e-01
-2.779698013942975554e-01
-2.915373734389772320e-01
-3.015548719766639740e-01
-3.078425881256673380e-01
-3.102389632244970108e-01
-3.086889693280708835e-01
-3.031842549747626459e-01
-2.937661598315221556e-01
-2.805969781177569677e-01
-2.638613070015072282e-01
-2.438287959129407378e-01
-2.208485025348319308e-01
-1.952861638349427942e-01
-1.675847791923186225e-01
-1.382146234650263317e-01
-1.076588610638008481e-01
-7.642608744722756420e-02
-4.502650525668983050e-02
-1.394983859508813762e-02
1.632987118402384752e-02
4.535386810431818461e-02
7.273043604176265831e-02
9.808746162907333588e-02
1.211021269750249818e-01
1.415309918062962469e-01
1.591452998633401394e-01
1.738000614413806044e-01
1.854027686232393446e-01
1.938858970880529276e-01
1.992686942220727175e-01
2.015909207176228568e-01
2.009345948380923952e-01
1.974373947763092829e-01
1.912458366767272877e-01
1.825498257166329186e-01
1.715614165619915865e-01
1.585024371577780922e-01
1.436222603244727281e-01
1.271755291047884651e-01
1.094264084317866231e-01
9.064934985894437802e-02
7.111983628962577353e-02
5.111685152450634595e-02
3.092081638342980554e-02
1.080989216851541146e-02
-8.942991921766396679e-03
-2.806632189300245495e-02
-4.630126776397985866e-02
-6.340024689202716779e-02
-7.912175782267566460e-02
-9.325465348970651824e-02
-1.055980758418852972e-01
-1.159735851961194442e-01
-1.242447276307662163e-01
-1.302832444580938054e-01
-1.340100912489811114e-01
-1.353820011813263724e-01
-1.343722998520749945e-01
-1.310213095208865308e-01
-1.253877518389857060e-01
-1.175666424430220069e-01
-1.077084352841259918e-01
-9.597256672338744243e-02
-8.256335666876679635e-02
-6.771179370828844801e-02
-5.165738008702858153e-02
-3.466723746905742143e-02
-1.701435914609142341e-02
1.027011550572318188e-03
1.918106805328301245e-02
3.717411136898302049e-02
5.475023741156213875e-02
7.166215839966358359e-02
8.767389295874521149e-02
1.025799564313409906e-01
1.161810220733294485e-01
1.283028411839486072e-01
1.387968971080784653e-01
1.475212674991782935e-01
1.543683896709632797e-01
1.592441962993252358e-01
1.620700328639811949e-01
1.628008761058393206e-01
1.613978667047024640e-01
1.578516897249069295e-01
1.521779099888854736e-01
1.444011868705773194e-01
1.345879603304913630e-01
1.228180231409693735e-01
1.091946441254979250e-01
9.386276247409111595e-02
7.697474599338657852e-02
5.872309047258439385e-02
3.932797848233399174e-02
1.902058284990529660e-02
-1.926160088907048068e-03
-2.322857483661007472e-02
-4.458795340877000357e-02
-6.568380040689100752e-02
-8.619387345919846122e-02
-1.057955497660327537e-01
-1.241659955436358598e-01
-1.409918388828195757e-01
-1.559899162226385250e-01
-1.688843116052428650e-01
-1.794386268776086979e-01
-1.874633907586690240e-01
-1.927821162616965567e-01
-1.952958950870733457e-01
-1.949413805980346748e-01
-1.916899708449853468e-01
-1.856015795310516914e-01
-1.767529028720642714e-01
-1.652824140251676344e-01
-1.513887929741909999e-01
-1.352836417811549841e-01
-1.172406837072783037e-01
-9.755665558815272698e-02
-7.654317426813485314e-02
-5.454257625358584216e-02
-3.190104019844039462e-02
-8.965277537539298458e-03
1.391757425680140159e-02
3.640583476236894378e-02
5.818370304873043963e-02
7.894332666442668844e-02
9.839965666430700031e-02
1.163060223724112219e-01
1.324232171267410996e-01
1.465568698053077989e-01
1.585419619203153885e-01
1.682286790927241538e-01
1.755226105218105626e-01
1.803431476945351331e-01
1.826428632046085965e-01
1.824199722614671115e-01
1.796813070050411465e-01
1.744818845216627445e-01
1.669024532692779395e-01
1.570400067288540424e-01
1.450397370958367294e-01
1.310568708506478774e-01
1.152754066526053278e-01
9.791179054369480994e-02
7.918868632859613066e-02
5.936058707752973895e-02
3.869578408196430730e-02
1.747047768563876613e-02
-4.020117576173775492e-03
-2.547792350045896895e-02
-4.660400268509305721e-02
-6.709862240364856956e-02
-8.666570461800793268e-02
-1.050298357453326448e-01
-1.219229627334654509e-01
-1.370972147771044591e-01
-1.503442595322755093e-01
-1.614636854209874628e-01
-1.703038541255979810e-01
-1.767501564719979601e-01
-1.807042556268016464e-01
-1.821362571264411589e-01
-1.810358978301433441e-01
-1.774294445664326703e-01
-1.714014697554515632e-01
-1.630462089431360395e-01
-1.525069897689819154e-01
-1.399576272467301929e-01
-1.255833749077954198e-01
-1.096085132361233894e-01
-9.226629930574803407e-02
-7.380219858342450256e-02
-5.447761825855795825e-02
-3.455529628563971251e-02
-1.430015908193128446e-02
6.021764232736027261e-03
2.614798193879566690e-02
4.582608361199708158e-02
6.480593481622876073e-02
8.285036462529152268e-02
9.973608701544189881e-02
1.152441774670277808e-01
1.291802640061777974e-01
1.413600801111064287e-01
1.516132957458623254e-01
1.598014209123669038e-01
1.657921953012445604e-01
1.694864042446660723e-01
1.708138848810376309e-01
1.697154550368090986e-01
1.661846868816738987e-01
1.602327910640205799e-01
1.519010055837017037e-01
1.412862987893620803e-01
1.284956241865513604e-01
1.136892397606861227e-01
9.706581915942692762e-02
7.883896098271975239e-02
5.928141972214394373e-02
3.868192157527033936e-02
1.735371491153436807e-02
-4.352821784790475435e-03
-2.608278368231112254e-02
-4.746650675463690017e-02
-6.812563623391987289e-02
-8.768713443607523139e-02
-1.057961565223370370e-01
-1.221026697417589013e-01
-1.362919190111455681e-01
-1.480928864770558462e-01
-1.572473492696139508e-01
-1.635774643608054191e-01
-1.669439393641440617e-01
-1.672454956033153917e-01
-1.644822768677310920e-01
-1.586744162765333366e-01
-1.499166110530068263e-01
-1.383794132897114559e-01
-1.242502895740178331e-01
-1.078014548396867001e-01
-8.933803514680674351e-02
-6.918961876781683229e-02
-4.773863538170178278e-02
-2.537525883861967146e-02
-2.503789141074394542e-03
2.045967991169294481e-02
4.310244087479008640e-02
6.503042554487281635e-02
8.585563131358578404e-02
1.052145641212207799e-01
1.227868518636956591e-01
1.382610539974847286e-01
1.513830559866202741e-01
1.619379521646079900e-01
1.697315432267919033e-01
1.746486274988083287e-01
1.765945466713155221e-01
1.755233573017137283e-01
1.714591076905009892e-01
1.644388994927968028e-01
1.545732735177998696e-01
1.420137775261425261e-01
1.269353084226133022e-01
1.095851585220521951e-01
9.022608105159390934e-02
6.915831207244887979e-02
4.672621634779849931e-02
2.328092725907143778e-02
-7.947051165078794499e-04
-2.510345287595364128e-02
-4.924625645647096039e-02
-7.281958995395598766e-02
-9.542016128600838698e-02
-1.166648359241459765e-01
-1.361899566936572992e-01
-1.536424243336433071e-01
-1.687267300966457384e-01
-1.811686660884225808e-01
-1.907320972626295186e-01
-1.972589031880445654e-01
-2.006054802421564920e-01
-2.007056509074625072e-01
-1.975546188497914746e-01
-1.911695228910367805e-01
-1.816623802406246435e-01
-1.691735461159785403e-01
-1.538857451722141501e-01
-1.360523783249004137e-01
-1.159376958007899694e-01
-9.385450718158430683e-02
-7.014713474228556622e-02
-4.516839017303864168e-02
-1.930078580873316463e-02
7.066177213786183076e-03
3.354041613495216401e-02
5.972632773628380742e-02
8.522984411329370680e-02
1.096729841504991976e-01
1.326862855059520729e-01
1.539122749071323015e-01
1.730290095795405936e-01
1.897223970836197648e-01
2.037139478190612696e-01
2.147649790894666788e-01
2.226482689001141324e-01
2.272023813227972977e-01
2.282941984315320361e-01
2.258249071160250976e-01
2.197777151869531598e-01
2.101516267970712226e-01
1.970199740712483272e-01
1.805243030224918388e-01
1.608270990240992793e-01
1.381930682860554316e-01
1.129225557834289684e-01
8.536026751228469045e-02
5.593700060451069211e-02
2.509714374448477822e-02
-6.661380781813011631e-03
-3.880035813843490944e-02
-7.077578983381169198e-02
-1.020224898013779302e-01
-1.319697163399303763e-01
-1.600651254840789739e-01
-1.857854813470044553e-01
-2.086172730735403325e-01
-2.281250389096565745e-01
-2.439213632131448928e-01
-2.556576024207425357e-01
-2.631190891076893856e-01
-2.661231575348718126e-01
-2.645852899827250138e-01
-2.585480258750790239e-01
-2.480790121317266173e-01
-2.333862242730552761e-01
-2.147480057395747544e-01
-1.924845791895019032e-01
-1.670326178833398401e-01
-1.388509740018040728e-01
-1.084455097587013195e-01
-7.637200822518755428e-02
-4.319029664265350288e-02
-9.470974429835236907e-03
2.421106123461954154e-02
5.729676983984350463e-02
8.926311030709116467e-02
1.195950817404795863e-01
1.478335934995917145e-01
1.735682870579460801e-01
1.964078939122281264e-01
2.160524103497762360e-01
2.322320409684122677e-01
2.447256292383989118e-01
2.534014866336516958e-01
2.581435490319000658e-01
2.589162682530316562e-01
2.557416199919984590e-01
2.486646292174377049e-01
2.378210556240725193e-01
2.233711064991913409e-01
2.055218692977182626e-01
1.845507957358374362e-01
1.607473495942803310e-01
1.344643316171025005e-01
1.060915151680899282e-01
7.603524665147992634e-02
4.475533623614258438e-02
1.272317592722864432e-02
-1.957242187320105617e-02
-5.162123254181677501e-02
-8.291275245444945652e-02
-1.129446551419382022e-01
-1.412185270014431615e-01
-1.672543822846062345e-01
-1.906211861916323469e-01
-2.108987468493081496e-01
-2.277321471412335763e-01
-2.408323072579337532e-01
-2.499323795851938756e-01
-2.548854772864577178e-01
-2.555910180143464716e-01
-2.520094377713076872e-01
-2.442319545721412521e-01
-2.323729283041586213e-01
-2.166507511759432902e-01
-1.973699256996245821e-01
-1.748582884891329847e-01
-1.495458032003467719e-01
-1.218941527072549547e-01
-9.239365600464644057e-02
-6.158455824321154570e-02
-3.001231636024136173e-02
1.775181723585081417e-03
3.322839985611010516e-02
6.380926496665031977e-02
9.302478297130130358e-02
1.203939885506843666e-01
1.454831767490917249e-01
1.679259551058962241e-01
1.873706383972754685e-01
2.035564743346746641e-01
2.162730376974552615e-01
2.253444339414005237e-01
2.307012002798345396e-01
2.322968442289427005e-01
2.301528952303367181e-01
2.243702787796411080e-01
2.150658334497008162e-01
2.024409880060297207e-01
1.867352238651811547e-01
1.682151775060410082e-01
1.472152822349992174e-01
1.240820708877960754e-01
9.919654258361892962e-02
7.297271507418992553e-02
4.582936307958938860e-02
1.820529005537931469e-02
-9.453479514059084238e-03
-3.670499824997242727e-02
-6.311562454027742908e-02
-8.825480672912847102e-02
-1.117241448529654735e-01
-1.331505085572790570e-01
-1.521764119631458800e-01
-1.685137881061903598e-01
-1.818953705388487718e-01
-1.921031261421890235e-01
-1.990004270175009804e-01
-2.024660553405752128e-01
-2.024688295967348728e-01
-1.990354867813999284e-01
-1.922214283883582897e-01
-1.821844764890396540e-01
-1.691073477149540594e-01
-1.532253095395249565e-01
-1.348446714895361609e-01
-1.142828062665527805e-01
-9.191069648142279058e-02
-6.812743696555101369e-02
-4.334012500809994450e-02
-1.797876742302551012e-02
7.522741747050032401e-03
3.273951802047334048e-02
5.725666414787092262e-02
8.066589122268730261e-02
1.026012554303705193e-01
1.227148923226279997e-01
1.406855994950630406e-01
1.562553739168958122e-01
1.691784014914541334e-01
1.792675306767977927e-01
1.863889865246460831e-01
1.904256362281974146e-01
1.913411260591508789e-01
1.891270351977665798e-01
1.838130987014250373e-01
1.755024438995273495e-01
1.643107042811232099e-01
1.504130169064597788e-01
1.340289180662906920e-01
1.153926890890623613e-01
9.479842211036275390e-02
7.255692065051740081e-02
4.900198850486498642e-02
2.450349963677153284e-02
-5.639886119429005085e-04
-2.580940319834892915e-02
-5.083159438794972174e-02
-7.523158856006957607e-02
-9.861849677507369960e-02
-1.206038176884064450e-01
-1.408227943828170292e-01
-1.589411434259215827e-01
-1.746340736658653636e-01
-1.876392217798331652e-01
-1.977252655302044748e-01
-2.046931504984095263e-01
-2.084331998351834359e-01
-2.088540581429949028e-01
-2.059366813011532793e-01
-1.997381575407953247e-01
-1.903338672014011634e-01
-1.778950318458112911e-01
-1.626315181661882048e-01
-1.447868712990180162e-01
-1.246801002155599747e-01
-1.026425730198252118e-01
-7.904261415725372109e-02
-5.428048377424399273e-02
-2.875956592389616873e-02
-2.893973347104450422e-03
2.289884604734102047e-02
4.821364892871857211e-02
7.266745167108837333e-02
9.588292349856465668e-02
1.175262450635946310e-01
1.372944138893023580e-01
1.549016349847503471e-01
1.701303239277878743e-01
1.827812353725336014e-01
1.926968227461810790e-01
1.997815813238013605e-01
2.039512466817980652e-01
2.051839179021494042e-01
2.034937775063529464e-01
1.989146126673479453e-01
1.915431948897877712e-01
1.814902744815920510e-01
1.689024283703164375e-01
1.539698914451836931e-01
1.368911069413096815e-01
1.179079712800841229e-01
9.728283455991881823e-02
7.529107342825491767e-02
5.224207264025687580e-02
2.845138112024864219e-02
4.249021742847136629e-03
-2.002050866709595422e-02
-4.401191637585724625e-02
-6.737887781738788329e-02
-8.977473609821703948e-02
-1.108627428079363153e-01
-1.303272268912409049e-01
-1.478575582098245467e-01
-1.631817701014888766e-01
-1.760596239463229074e-01
-1.862669705203157944e-01
-1.936535252947850227e-01
-1.980920511921734350e-01
-1.995022380201410261e-01
-1.978848809649415286e-01
-1.932552519615315934e-01
-1.857075692097122366e-01
-1.753891112605930336e-01
-1.624681329433547983e-01
-1.471905217144534317e-01
-1.298216167892601303e-01
-1.106555653218162516e-01
-9.002718941242576767e-02
-6.827571853072764152e-02
-4.575294187766518195e-02
-2.281753294189929615e-02
1.777511313441684782e-04
2.289871494093490001e-02
4.501568864752310273e-02
6.622754077311501786e-02
8.626616474271396606e-02
1.048724384242969709e-01
1.218395795362129108e-01
1.369841508502132599e-01
1.501445312884831240e-01
1.612131553635005599e-01
1.700924480343838918e-01
1.767209166149849575e-01
1.810713398041663424e-01
1.831245185582540680e-01
1.828997922210679472e-01
1.804304230580424107e-01
1.757643698443253633e-01
1.689791515299295943e-01
1.601573366005570875e-01
1.494043785591744333e-01
1.368435625296546276e-01
1.226046970574773687e-01
1.068453906999482228e-01
8.973144083209613764e-02
7.144347897641720180e-02
5.218644823463756965e-02
3.216946374615210769e-02
1.162359179748782487e-02
-9.206104213204099884e-03
-3.006934682383209656e-02
-5.069760028837254351e-02
-7.081809260222871050e-02
-9.015555572627353964e-02
-1.084313764515539569e-01
-1.253685603697455575e-01
-1.407064193051787426e-01
-1.541927501562380676e-01
-1.655903623116607992e-01
-1.747057800049107712e-01
-1.813552033255699247e-01
-1.854020917198592189e-01
-1.867618441528887119e-01
-1.853642104453710471e-01
-1.812193887785090718e-01
-1.743715579996459875e-01
-1.648993565161053221e-01
-1.529622710883681291e-01
-1.387341838389648530e-01
-1.224422555202829554e-01
-1.043617099565914419e-01
-8.477772077436657172e-02
-6.402022852034712497e-02
-4.243438828815836172e-02
-2.037230983067669227e-02
1.800654655127416348e-03
2.371864544274429609e-02
4.502963404273101905e-02
6.539182313319728823e-02
8.447372641637083956e-02
1.019874513237400138e-01
1.176574700627259773e-01
1.312428357998977890e-01
1.425563591127946561e-01
1.514214331671130676e-01
1.577247896833969543e-01
1.613914677115163010e-01
1.623684413105641045e-01
1.606765429272186130e-01
1.563537200430671903e-01
1.494822551880125583e-01
1.402008404244791950e-01
1.286587407109507086e-01
1.150622534168068145e-01
9.964576319737353249e-02
8.266034714846587361e-02
6.440265862687086229e-02
4.517787400241057849e-02
2.530904228347652385e-02
5.137868715206238279e-03
-1.499314676749665017e-02
-3.474202494075170899e-02
-5.376705054326925970e-02
-7.173844737937129512e-02
-8.835302662944097274e-02
-1.033135387931000404e-01
-1.163642646006755321e-01
-1.272850654708923834e-01
-1.358712095322676672e-01
-1.419910153806619724e-01
-1.455365808344095679e-01
-1.464419927974469626e-01
-1.447172097092873644e-01
-1.403853780013163965e-01
-1.335377952366004206e-01
-1.243136081518428637e-01
-1.128689022287187593e-01
-9.942482357273074722e-02
-8.421953321288730421e-02
-6.751360828239869050e-02
-4.960068744827697551e-02
-3.077802547500430030e-02
-1.135243279288265100e-02
8.363802036898723702e-03
2.806234545148416151e-02
4.744794684164113652e-02
6.622858660892379234e-02
8.413130613445138350e-02
1.009061749140251485e-01
1.163092784898006604e-01
1.301325559906343354e-01
1.421846806608781932e-01
1.522900016689344715e-01
1.603135369258112397e-01
1.661282331407434310e-01
1.696382285829692860e-01
1.707785865639199763e-01
1.694928791413452540e-01
1.657683764476760579e-01
1.596089085665937102e-01
1.510399635482474467e-01
1.401326149389222619e-01
1.269663377086536760e-01
1.116633904474937655e-01
9.438083932711194279e-02
7.528858338302774067e-02
5.461358740335062190e-02
3.260035612541171968e-02
9.520900153633674035e-03
-1.430565204374231389e-02
-3.855294923120530098e-02
-6.286310925570566532e-02
-8.685724251828549902e-02
-1.101538283580409394e-01
-1.323626950961281634e-01
-1.530919584681387779e-01
-1.719666841640868360e-01
-1.886356626587142593e-01
-2.027560524052641477e-01
-2.140463859610564068e-01
-2.222585680788354834e-01
-2.271770719625067492e-01
-2.286853496578025169e-01
-2.266883971699235611e-01
-2.211691587767925515e-01
-2.122000086513741723e-01
-1.998728436776947559e-01
-1.843854553716510747e-01
-1.659824104981600379e-01
-1.449418980520091882e-01
-1.216245390196982745e-01
-9.640507836853143275e-02
-6.969216858586824159e-02
-4.192639257307129164e-02
-1.355004697115474999e-02
1.499187673813414529e-02
4.325354799019624774e-02
7.080490247516904589e-02
9.724734148001419609e-02
1.221891808659814060e-01
1.452865507825354952e-01
1.662325165530844084e-01
1.847368870565473387e-01
2.005812684432435322e-01
2.135682542851330412e-01
2.235405109555313741e-01
2.304058028581059681e-01
2.340832594322851679e-01
2.345530782267293834e-01
2.318340557998315454e-01
2.259631780812808299e-01
2.170411545121074814e-01
2.051839870681501921e-01
1.905428470475891700e-01
1.733156325129825426e-01
1.537088638899394566e-01
1.319759973671228437e-01
1.083946697189575870e-01
8.325721165652610889e-02
5.689795867192348061e-02
2.965953917896081010e-02
1.904206067912153633e-03
-2.598440433166644692e-02
-5.362064216251712090e-02
-8.061249857738120306e-02
-1.065653475136286443e-01
-1.310934618738719970e-01
-1.538318915159682387e-01
-1.744207417843160191e-01
-1.925399219077734148e-01
-2.079049412539019648e-01
-2.202471399739846514e-01
-2.293763807715742953e-01
-2.351292771433126649e-01
-2.373892952527242861e-01
-2.361284313296787563e-01
-2.313344562386316638e-01
-2.230777613276410665e-01
-2.114893251944190700e-01
-1.967221037065089440e-01
-1.790172765132733990e-01
-1.586402609983643686e-01
-1.358922278819934548e-01
-1.111294415845058420e-01
-8.471572859093197405e-02
-5.704506534199343948e-02
-2.852950146776017659e-02
4.171464457881218779e-04
2.937586052655405400e-02
5.792684648100202005e-02
8.566246456135975795e-02
1.121904067400990024e-01
1.371237933128593156e-01
1.601120146123143628e-01
1.808221766355136428e-01
1.989414926137648143e-01
2.142118749304121050e-01
2.263865617752054415e-01
2.352690725117481674e-01
2.407149636277329807e-01
2.425948770761657269e-01
2.408606280796130594e-01
2.354962224949502803e-01
2.265253369648930482e-01
2.140590145505144315e-01
1.982241816529184963e-01
1.792211800524566578e-01
1.573127104105141727e-01
1.327804651727351737e-01
1.059924353293753979e-01
7.734427601365898020e-02
4.726499502064941682e-02
1.624332517260339281e-02
-1.522376877996465400e-02
-4.661318880568961903e-02
-7.738364788071096234e-02
-1.069974534731724797e-01
-1.349329236712612790e-01
-1.606731766741830436e-01
-1.837403677147653458e-01
-2.037137267986814382e-01
-2.201873294662949898e-01
-2.328567624999813290e-01
-2.414753164423954490e-01
-2.458411408023373490e-01
-2.458948231931210593e-01
-2.416086019401698648e-01
-2.330528642590005695e-01
-2.204155562998809936e-01
-2.039077394634242757e-01
-1.838642136512376735e-01
-1.606769691841862524e-01
-1.347722189434179263e-01
-1.066638600743606696e-01
-7.688095240090267457e-02
-4.597889479730714324e-02
-1.453897699648613179e-02
1.685943524249463796e-02
4.765512864521755099e-02
7.729382988320483705e-02
1.052499340692404500e-01
1.310576865927974288e-01
1.542635275793625138e-01
1.744893292648971861e-01
1.914178060773056855e-01
2.047567186142589812e-01
2.143252419751417448e-01
2.199765853246745950e-01
2.216252172320177793e-01
2.192896198321656054e-01
2.130064532360753660e-01
2.029093554690322709e-01
1.891960124820749878e-01
1.720915858380949459e-01
1.519215245526391866e-01
1.290361611064652358e-01
1.038319786145236040e-01
7.676949749850368876e-02
4.831833344666908170e-02
1.898837512225198115e-02
-1.068879678730026705e-02
-4.018039458244764689e-02
-6.895059817898098464e-02
-9.646400018728640280e-02
-1.222141657738452514e-01
-1.457276156018518787e-01
-1.665443354889115102e-01
-1.842881074040037814e-01
-1.986194575634683823e-01
-2.092476383054071021e-01
-2.160005998064781774e-01
-2.187292022999525742e-01
-2.173886339713702598e-01
-2.120314878274749404e-01
-2.027372324060039699e-01
-1.897164571983940839e-01
-1.732262477550052526e-01
-1.535723555033730592e-01
-1.311566729781112606e-01
-1.063956402275448854e-01
-7.975405394453995156e-02
-5.173374301244335755e-02
-2.283979413061168820e-02
6.412274918437668725e-03
3.550428605723734976e-02
6.393637166846957709e-02
9.123814927322576596e-02
1.169470970798715120e-01
1.406586969077715799e-01
1.620047715567629332e-01
1.806416017554295650e-01
1.963112441843294087e-01
2.087764203040406996e-01
2.178571424686173152e-01
2.234488842336808112e-01
2.254620270059627396e-01
2.238909644578405134e-01
2.187729880787758763e-01
2.101748230993858435e-01
1.982466969437229609e-01
1.831556931013067491e-01
1.651211028632463829e-01
1.444186182793677775e-01
1.213355955869455938e-01
9.621909210633355913e-02
6.944089597350959486e-02
4.139057503636872637e-02
1.249860473974729116e-02
-1.679808999901774916e-02
-4.604970782306782445e-02
-7.479502940616032658e-02
-1.025752230934735276e-01
-1.289463017809246992e-01
-1.534694360688863279e-01
-1.757301854134726282e-01
-1.953597929058987492e-01
-2.119995772009124479e-01
-2.253603336031009263e-01
-2.352033653053240414e-01
-2.413171203268625331e-01
-2.436004192381699407e-01
-2.419825454733226522e-01
-2.364612918990106061e-01
-2.271390981750618654e-01
-2.141369146770294996e-01
-1.976766199851292816e-01
-1.780400627789728019e-01
-1.555355470936450601e-01
-1.305582246746068986e-01
-1.035224446079402033e-01
-7.487273630853645556e-02
-4.509137118546616835e-02
-1.466349412281223175e-02
1.592177262209694411e-02
4.617340419260965168e-02
7.561254218320563603e-02
1.037933414256063530e-01
1.302773265574145856e-01
1.546701314903845270e-01
1.766226497221017044e-01
1.958000282510910239e-01
2.119446698927603678e-01
2.248293386003785421e-01
2.342648531573297555e-01
2.401450841025871696e-01
2.423789444466270260e-01
2.409452241395367011e-01
2.358815575237112883e-01
2.272445760485938271e-01
2.151771064807343481e-01
1.998494351942258773e-01
1.814724372598170432e-01
1.603290306289625877e-01
1.367140403354546452e-01
1.109797261807419916e-01
8.351797577109427995e-02
5.473334057105757461e-02
2.507788219396800064e-02
-4.984271860864433745e-03
-3.497950198146283773e-02
-6.442043111220785434e-02
-9.282074374362855873e-02
-1.197149442898138710e-01
-1.446492713557748777e-01
-1.671903022808027828e-01
-1.869691128210286823e-01
-2.036316868335061314e-01
-2.168902383496236763e-01
-2.265356288590703593e-01
-2.323786803232463782e-01
-2.343466116813562317e-01
-2.324199889228844296e-01
-2.266277048442504327e-01
-2.171217183798953565e-01
-2.040770452714740779e-01
-1.877485184547029173e-01
-1.684687594360691765e-01
-1.465857184442650174e-01
-1.225194618287565873e-01
-9.671674157561538365e-02
-6.963685971893664173e-02
-4.176500394622344181e-02
-1.358866782731605466e-02
1.441897822501590765e-02
4.179621728905598410e-02
6.809305485748125275e-02
9.291345138756063049e-02
1.158778407706706481e-01
1.366467766741975842e-01
1.549483336699042091e-01
1.705232421176459123e-01
1.831854683182654042e-01
1.927969241820724489e-01
1.992428277550520599e-01
2.024931314906847912e-01
2.025388083770176539e-01
1.994176421122051956e-01
1.932318073524685875e-01
1.840949025940370465e-01
1.721818396317755240e-01
1.577002706450158498e-01
1.408759616890275512e-01
1.219883079900845879e-01
1.013276719727664588e-01
7.921072690647945613e-02
5.598381771161584086e-02
3.199762804951511441e-02
7.622382035585656412e-03
-1.676324322950739631e-02
-4.078140172913860551e-02
-6.405634134515214573e-02
-8.621369357449826243e-02
-1.069006485002781531e-01
-1.257843520786871561e-01
-1.425426348680125799e-01
-1.569090329358805713e-01
-1.686367913473975633e-01
-1.775169419545595262e-01
-1.834145317469256797e-01
-1.862084562639685359e-01
-1.858545665428280869e-01
-1.823671389985325741e-01
-1.757834010834395944e-01
-1.662364245574319277e-01
-1.538866860868673414e-01
-1.389402182074075953e-01
-1.216757651132673312e-01
-1.023832695132857462e-01
-8.140448487120560683e-02
-5.911334016555042092e-02
-3.589193327268963563e-02
-1.214967873867817127e-02
1.169805565758358368e-02
3.524033165363726905e-02
5.807199505086946267e-02
7.979248559776386251e-02
1.000370443029754974e-01
1.184590400222197137e-01
1.347341575889350884e-01
1.486011288875415670e-01
1.598120022478627944e-01
1.681759456934953101e-01
1.735633067729945300e-01
1.758608272107719528e-01
1.750445968189893453e-01
1.711274331250048353e-01
1.641617280714967597e-01
1.542902322362107725e-01
1.416718686790241766e-01
1.265315652511127265e-01
1.091522773775481792e-01
8.983116332114959857e-02
6.892993717417175703e-02
4.683169876092066475e-02
2.393576237546427010e-02
6.715229011831080896e-04
-2.252871169920864225e-02
-4.523748229641502694e-02
-6.703082423570286275e-02
-8.749569171816470869e-02
-1.062645996148686572e-01
-1.229828276976968893e-01
-1.373406913630427495e-01
-1.490966965625970531e-01
-1.580238478589588991e-01
-1.639859690138303350e-01
-1.669003728558819954e-01
-1.667173088647290746e-01
-1.634950981757635757e-01
-1.573164190748291280e-01
-1.483251579536569720e-01
-1.367410869742610446e-01
-1.227964810128935463e-01
-1.067856975016858029e-01
-8.903283746839585344e-02
-6.987268455429540559e-02
-4.966820624122401939e-02
-2.878683274007180770e-02
-7.590804888482183266e-03
1.356291568131777481e-02
3.432295492486434063e-02
5.437149597352596009e-02
7.340381863725320422e-02
9.113700520122727800e-02
1.073353100504990665e-01
1.217716956550716073e-01
1.342621767195211757e-01
1.446587118692458929e-01
1.528249348916198291e-01
1.586770612176225392e-01
1.621479035227865739e-01
1.631948182791775614e-01
1.618183402343091881e-01
1.580263943010659644e-01
1.518647357094287109e-01
1.434049942274001621e-01
1.327305092789115015e-01
1.199690096584346555e-01
1.052597521959923732e-01
8.876860571040456893e-02
7.069967415496769547e-02
5.126415373473602877e-02
3.071298826243601399e-02
9.319315343530365503e-03
-1.263229954457234516e-02
-3.482193121074633746e-02
-5.692232368032429379e-02
-7.859485966645518573e-02
-9.948754616057214895e-02
-1.192489683019955227e-01
-1.375377815158094208e-01
-1.540172459310835129e-01
-1.683675543225473525e-01
-1.803118020901467999e-01
-1.895823993808393726e-01
-1.959682904629321820e-01
-1.993130460282862837e-01
-1.994792163956130016e-01
-1.964281554290009391e-01
-1.901576511924650270e-01
-1.807144719073737194e-01
-1.682457230610299170e-01
-1.529156237814852104e-01
-1.349636133574311225e-01
-1.146887634518239940e-01
-9.240522027949571449e-02
-6.849008902001141319e-02
-4.333906798206660360e-02
-1.736038077001694768e-02
9.016857756023455295e-03
3.536261946610713691e-02
6.125939996985990676e-02
8.629782229721849607e-02
1.100806826844554220e-01
1.322557083285585411e-01
1.524820130010113850e-01
1.704579945762409454e-01
1.859356211369745937e-01
1.986783548474665706e-01
2.085184489400419561e-01
2.153245667118877382e-01
2.189914494254893151e-01
2.194906372493442004e-01
2.168097081517317282e-01
2.109867914282901324e-01
2.021165369183851590e-01
1.903057333216766622e-01
1.757255279888753075e-01
1.585747373257955228e-01
1.390753301259028962e-01
1.175045528272505302e-01
9.414945449684963830e-02
6.933047926535096384e-02
4.339871930970887193e-02
1.671110785844254210e-02
-1.034929805137972669e-02
-3.739041622898701955e-02
-6.401884345696763623e-02
-8.983862738842364470e-02
-1.144549594754733640e-01
-1.374938165050021976e-01
-1.585968195343782083e-01
-1.774183620328973476e-01
-1.936675412862026713e-01
-2.070692412831434959e-01
-2.173923913999655233e-01
-2.244756061770483702e-01
-2.281714475240559370e-01
-2.284174430715141257e-01
-2.252034234619088582e-01
-2.185485289068084258e-01
-2.085723551559936773e-01
-1.954180183199295540e-01
-1.792839202343853300e-01
-1.604400326593607984e-01
-1.391679981198957194e-01
-1.158076830048046652e-01
-9.072814204146434358e-02
-6.430903380562014160e-02
-3.695926281893499588e-02
-9.092765044886846892e-03
1.887855671900191823e-02
4.654495873307620823e-02
7.350105248741289898e-02
9.936951523609308112e-02
1.237844880019267624e-01
1.463997798216996049e-01
1.669137434957118638e-01
1.850333241561899489e-01
2.005099967119012838e-01
2.131340488105433750e-01
2.227094766474458920e-01
2.291051453138994720e-01
2.322113986312882017e-01
2.319538904536023738e-01
2.283232255669870869e-01
2.213217455356877306e-01
2.110155255869816671e-01
1.975161748781062154e-01
1.809552343032655997e-01
1.615430858222847710e-01
1.395113884832256401e-01
1.151344168482174857e-01
8.875040875983300492e-02
6.070821576657341179e-02
3.141115263079237441e-02
1.294326037877609192e-03
-2.919630310210841184e-02
-5.958007343824999608e-02
-8.936919543020183099e-02
-1.180779698036174274e-01
-1.452232665275446089e-01
-1.703277398501319984e-01
-1.929584626405456693e-01
-2.127036413087748379e-01
-2.291842511536973104e-01
-2.421080858941370151e-01
-2.512008821068349440e-01
-2.562740611442302363e-01
-2.572254675818494984e-01
-2.539775448106590949e-01
-2.465817455577061224e-01
-2.351392612104299396e-01
-2.198064274042886845e-01
-2.008577371705921877e-01
-1.785876513423391432e-01
-1.533688903745858145e-01
-1.256389522812230708e-01
-9.584934843119666259e-02
-6.451098583623943172e-02
-3.215310740274052170e-02
6.878037910243994801e-04
3.346264651863428696e-02
6.562302280415469036e-02
9.664507103958076828e-02
1.260215655605910201e-01
1.532619864199249726e-01
1.779400920097057304e-01
1.996464980336048467e-01
2.180249932761460507e-01
2.327951004449345940e-01
2.436924216916518948e-01
2.505504188032994795e-01
2.532567146364185229e-01
2.517370065949106062e-01
2.460343909635600845e-01
2.362174170487640334e-01
2.224332453442916524e-01
2.049207923187750802e-01
1.839377822720491273e-01
1.598427903066828026e-01
1.330397561556161679e-01
1.039638981866842504e-01
7.312850840004778141e-02
4.106039526050199451e-02
8.317166025575806199e-03
-2.451406686374933697e-02
-5.684619906771261333e-02
-8.809909915657336554e-02
-1.176953527031562863e-01
-1.450852288028045833e-01
-1.697752476045147896e-01
-1.912844485515870496e-01
-2.092197987741640786e-01
-2.232573721308613035e-01
-2.331060168011294675e-01
-2.386179892011435766e-01
-2.396882434792240446e-01
-2.362938287540405913e-01
-2.285475333166350764e-01
-2.165851637301174915e-01
-2.006616579718185633e-01
-1.811085886476745954e-01
-1.582856540754955799e-01
-1.326518374673457124e-01
-1.046897424394707260e-01
-7.491110912398854516e-02
-4.386706651598174661e-02
-1.211112388662066025e-02
1.980688341923424189e-02
5.133905858950685297e-02
8.195312594994591526e-02
1.111629085340887224e-01
1.384925322643821011e-01
1.635172085819021348e-01
1.858687779846454613e-01
2.051942022639423602e-01
2.212251286931800065e-01
2.337293051209827222e-01
2.425116639027037890e-01
2.474651847053545017e-01
2.484991433501935743e-01
2.455911716465944972e-01
2.387810979758301366e-01
2.281269807024581819e-01
2.137746177568525252e-01
1.959001448142894952e-01
1.747209001988025701e-01
1.505334746361948473e-01
1.236479767799406743e-01
9.443895844985560062e-02
6.332905642834397997e-02
3.075588968009278223e-02
-2.782461330670005228e-03
-3.677114353146822279e-02
-7.067952214807374234e-02
-1.039522129591982091e-01
-1.360329464040484770e-01
-1.663792370774315188e-01
-1.944570114709014974e-01
-2.197514378492853027e-01
-2.418143227924776650e-01
-2.602138897914416660e-01
-2.745906144772461976e-01
-2.846777005332171706e-01
-2.902310524854621598e-01
-2.911450183201106379e-01
-2.873827648358598386e-01
-2.789637207907125771e-01
-2.660628569580548164e-01
-2.488858797425195779e-01
-2.277352944319305794e-01
-2.030155202472992415e-01
-1.751493852218652669e-01
-1.446482991414617114e-01
-1.120593099148637084e-01
-7.794308552325047990e-02
-4.289069107167008815e-02
-7.496232053951007966e-03
2.766603545945920187e-02
6.203900821213791106e-02
9.507948501183435819e-02
1.263132946849939153e-01
1.552890123000928990e-01
1.816020242245323379e-01
2.049330633315260275e-01
2.249782794125372298e-01
2.415178092436262025e-01
2.543912731926496473e-01
2.634622559920445362e-01
2.686878924619562348e-01
2.700502576137371880e-01
2.675772142276880428e-01
2.613647507700370132e-01
2.515203601089063823e-01
2.382115769848706099e-01
2.216406761251473734e-01
2.020281313850529337e-01
1.796528356177356511e-01
1.548066699742134678e-01
1.278155140315329619e-01
9.904667750984072483e-02
6.887517756170932759e-02
3.771662630539742572e-02
6.005738620507114489e-03
-2.581348694555300749e-02
-5.727288444398596912e-02
-8.790052141517086526e-02
-1.172283010503620826e-01
-1.447919621917722610e-01
-1.701344857541123856e-01
-1.928423257365217691e-01
-2.125186572763705373e-01
-2.288047000899781080e-01
-2.414225290171063132e-01
-2.501103148422180178e-01
-2.547010384840855401e-01
-2.551054840041794280e-01
-2.512647470400564687e-01
-2.432564813336396958e-01
-2.312007136418542941e-01
-2.152848355460004748e-01
-1.958126638321299740e-01
-1.731065264338212950e-01
-1.475741629269457511e-01
-1.196807186581499427e-01
-8.990630082697745329e-02
-5.878498000893311870e-02
-2.686395299707410034e-02
5.308216176058325186e-03
3.718103302427028245e-02
6.820808924929663841e-02
9.788278290387072977e-02
1.257203525160955626e-01
1.512615002133847197e-01
1.741251779163871249e-01
1.939476685266284806e-01
2.104324708339621042e-01
2.233608665872225951e-01
2.325327787266654456e-01
2.378529396535862817e-01
2.392728266371325629e-01
2.367864508811404756e-01
2.304931992940819629e-01
2.205120407181606623e-01
2.070345215708110920e-01
1.903211231835510719e-01
1.706485252616219417e-01
1.483712840424278034e-01
1.238720539275516980e-01
9.755811974800036868e-02
6.988629501645376996e-02
4.132043967875558693e-02
1.234120705725739314e-02
-1.655766440894670954e-02
-4.488580911801204332e-02
-7.216994277917924971e-02
-9.794211764890461969e-02
-1.217648807984686166e-01
-1.432507586436549130e-01
-1.620238906782047739e-01
-1.777882839073882115e-01
-1.902988730391345917e-01
-1.993430065890155478e-01
-2.048236703256536839e-01
-2.066720788592992797e-01
-2.048936431930575841e-01
-1.995932118719920267e-01
-1.908938391567698567e-01
-1.790175234728053066e-01
-1.642376936544643895e-01
-1.468543260709612719e-01
-1.272437909749758456e-01
-1.057972681927254466e-01
-8.293092527731495134e-02
-5.908839207945692368e-02
-3.471376769690027314e-02
-1.024469709493758610e-02
1.388395508605289735e-02
3.725493311388633488e-02
5.949241440716866725e-02
8.022917713069743773e-02
9.914884017662625726e-02
1.159808862579476130e-01
1.304705014092730486e-01
1.424393751334311342e-01
1.517354223978683025e-01
1.582439603193975808e-01
1.619216081655573958e-01
1.627372707013492459e-01
1.607200907220452391e-01
1.559437699715525705e-01
1.484984218425998703e-01
1.385406723814941454e-01
1.262456638947991039e-01
1.118201842075346730e-01
9.552021511319852554e-02
7.760952439710500084e-02
5.838960007546049880e-02
3.818474282378858664e-02
1.732617919720097488e-02
-3.832058163671365689e-03
-2.493106385424047680e-02
-4.561353799905602802e-02
-6.552422351170596182e-02
-8.431151013174256748e-02
-1.016527546200787502e-01
-1.172395968374451980e-01
-1.307847982908453000e-01
-1.420591997603120327e-01
-1.508458984270032444e-01
-1.569854792860709281e-01
-1.603785356110125626e-01
-1.609422957631181372e-01
-1.586833692268152518e-01
-1.536441054891291014e-01
-1.459043348907204107e-01
-1.356271555674097296e-01
-1.229899110272139606e-01
-1.082230178753800787e-01
-9.160236266280058492e-02
-7.341293619872377163e-02
-5.397884623255511105e-02
-3.363673768482018656e-02
-1.272719970910297926e-02
8.402059754538296343e-03
2.940384123795093327e-02
4.994738048814260922e-02
6.971345248029633956e-02
8.839275519724469621e-02
1.057154943779125417e-01
1.214225062868678762e-01
1.352839512140433242e-01
1.471132394875709626e-01
1.567322778956097284e-01
1.640129543363261500e-01
1.688558205873713081e-01
1.711792552667128486e-01
1.709585496979504904e-01
1.681816824438913116e-01
1.628741172925558534e-01
1.551066050049987322e-01
1.449596222938758228e-01
1.325678875974384829e-01
1.180914293945178051e-01
1.017108221878231522e-01
8.365989468543572061e-02
6.418248847701069071e-02
4.355491876408143503e-02
2.208569688765715799e-02
8.887296160101781917e-05
-2.209619906877017398e-02
-4.412065332621042252e-02
-6.563589489673619937e-02
-8.629393609143821975e-02
-1.057483520643956454e-01
-1.236769170106473970e-01
-1.397770928023038539e-01
-1.537590185809331322e-01
-1.653912671266425660e-01
-1.744605389174707366e-01
-1.807950676668368395e-01
-1.842942369104361433e-01
-1.848707482303249827e-01
-1.825142119595202506e-01
-1.772654788555506344e-01
-1.691887650793167386e-01
-1.584345559959658700e-01
-1.451749510176122693e-01
-1.296228266290388453e-01
-1.120481348235630586e-01
-9.272917814366601896e-02
-7.198233266694820109e-02
-5.014466842601147251e-02
-2.755774802089080988e-02
-4.576294888175224188e-03
1.844271776447824196e-02
4.115031416876847176e-02
6.320669400222371503e-02
8.427670218149728443e-02
1.040552089873005570e-01
1.222503718952688279e-01
1.385884928756576928e-01
1.528404877936653805e-01
1.647860830370458940e-01
1.742474898901099911e-01
1.810869272913058214e-01
1.851794020703627364e-01
1.864641900131332741e-01
1.849036348924647799e-01
1.804928840394347256e-01
1.732924936197802190e-01
1.633746594282507736e-01
1.508698483864342188e-01
1.359535401995255466e-01
1.188172448653934815e-01
9.972007323458220718e-02
7.894077475320608606e-02
5.678748201437875537e-02
3.361605988455959593e-02
9.789096936776346333e-03
-1.430424021732331491e-02
-3.825798619441306975e-02
-6.166674696924162591e-02
-8.412815899063065539e-02
-1.052411666415996178e-01
-1.246301444053859453e-01
-1.419532537768634362e-01
-1.568790976801962833e-01
-1.691468319459179803e-01
-1.785319720720497383e-01
-1.848447379575703375e-01
-1.879950541333869074e-01
-1.879135900396388670e-01
-1.846062112454548987e-01
-1.781607193586699500e-01
-1.686829480564627781e-01
-1.563733622638011078e-01
-1.414719939973882457e-01
-1.242484262696831598e-01
-1.050408634055814139e-01
-8.419869534456322913e-02
-6.209825005176661250e-02
-3.913994855410959928e-02
-1.572471036118341936e-02
7.748434318750317164e-03
3.088123360443759124e-02
5.329137170427674514e-02
7.462665616256736190e-02
9.454145072723765808e-02
1.127347826249834317e-01
1.289384317028531290e-01
1.429003245075940176e-01
1.544343653554836604e-01
1.633728016044135312e-01
1.695874328730711533e-01
1.730110065384731777e-01
1.735874259887507653e-01
1.713233602377147169e-01
1.662631048178656035e-01
1.584712982833438311e-01
1.480803556466129822e-01
1.352382224666380528e-01
1.201316344543670034e-01
1.029962571428168772e-01
8.407660119435156343e-02
6.366379781162292972e-02
4.207172921763537021e-02
1.962644634754499157e-02
-3.313118102649323382e-03
-2.638213625922548877e-02
-4.920791482848574372e-02
-7.140962041574455688e-02
-9.260857096207289474e-02
-1.124422638837143384e-01
-1.305546733466799170e-01
-1.466098855224960973e-01
-1.603163316247268322e-01
-1.713916826924909986e-01
-1.796114073262193578e-01
-1.848000672630793761e-01
-1.868021180890926947e-01
-1.855550287796306486e-01
-1.810262479122138890e-01
-1.732341366878841216e-01
-1.622882347867918851e-01
-1.483138218197337377e-01
-1.315170509645696706e-01
-1.121603641108120941e-01
-9.052712423780390205e-02
-6.698059738138850694e-02
-4.190482564774983265e-02
-1.571487444523134158e-02
1.112883266122344228e-02
3.816047980245712568e-02
6.489660989461282226e-02
9.084374198729311400e-02
1.155143420704811130e-01
1.384404155418354487e-01
1.591591190260797650e-01
1.772474725161260756e-01
1.923302428014628807e-01
2.040473081395991484e-01
2.121325606110861517e-01
2.163633944360479067e-01
2.165663770242891029e-01
2.126946034456250745e-01
2.047260896925965357e-01
1.927446943402901791e-01
1.769383175028722555e-01
1.575219385728396926e-01
1.348471636359692694e-01
1.093167895703640591e-01
8.138272432975579562e-02
5.159926494193656232e-02
2.053633407114852094e-02
-1.119124352292133473e-02
-4.293242585287959656e-02
-7.403738630972284129e-02
-1.038670402531239878e-01
-1.317860451743088079e-01
-1.572008041715742266e-01
-1.795886068165569727e-01
-1.984434056721371964e-01
-2.133765515850569727e-01
-2.240769297766574408e-01
-2.302797469151787180e-01
-2.318913415018426238e-01
-2.288610751434850821e-01
-2.212425013532193785e-01
-2.092337473685894622e-01
-1.930580990942860065e-01
-1.730723044154643953e-01
-1.497050139391580270e-01
-1.234167930716554284e-01
-9.476314326848045422e-02
-6.431832970199141686e-02
-3.267963267638412939e-02
-4.705115841520668418e-04
3.168747136944632947e-02
6.319655870852242119e-02
9.346947500263966258e-02
1.219473758191773338e-01
1.481407872015573501e-01
1.715743980074994623e-01
1.918496404753158580e-01
2.086395975860834973e-01
2.216407268643977857e-01
2.306663606506131059e-01
2.355713810991365842e-01
2.362676879490555049e-01
2.327798493869329688e-01
2.251519319654625428e-01
2.135210464311628753e-01
1.980955580673393612e-01
1.791075589837410331e-01
1.568878332596285730e-01
1.317955458832489601e-01
1.042306344370473592e-01
7.465868915067669365e-02
4.355471798073523582e-02
1.143253574983636028e-02
-2.116972966326514938e-02
-5.371155456325350797e-02
-8.564515843579353915e-02
-1.164216725893548049e-01
-1.455138593399437075e-01
-1.724229724745126036e-01
-1.966605155460868781e-01
-2.178094943937512462e-01
-2.354894392213960908e-01
-2.493589379457348265e-01
-2.591878517352518285e-01
-2.647693704278475391e-01
-2.659892581097748621e-01
-2.628332880169584884e-01
-2.553114498865780013e-01
-2.435634134792913907e-01
-2.277826054558439450e-01
-2.082105062010336238e-01
-1.851992536228940778e-01
-1.591198836357727853e-01
-1.304054079475431005e-01
-9.954379427388561352e-02
-6.703189035996104383e-02
-3.340374734095352682e-02
7.942631288643670073e-04
3.501921011770002534e-02
6.873462382132911053e-02
1.014075047628029413e-01
1.325427992441331193e-01
1.616730392548825779e-01
1.883489054900162052e-01
2.121954638885607536e-01
2.328584018108066922e-01
2.500348327433235540e-01
2.635004225807682232e-01
2.730458987022864603e-01
2.785499039973818314e-01
2.799433205679874304e-01
2.771872764083868068e-01
2.703429200599139492e-01
2.594942404151935889e-01
2.447861221343659577e-01
2.264396030473089794e-01
2.046903305612814694e-01
1.798530522063573889e-01
1.522807751891228634e-01
1.223510710071838703e-01
9.050742429792019150e-02
5.720565507730841770e-02
2.293231366951660466e-02
-1.179451788725940919e-02
-4.645350007098797418e-02
-8.051174830981583375e-02
-1.134319289255404928e-01
-1.446880732359610566e-01
-1.737790834991955746e-01
-2.002102750452326441e-01
-2.235407040073672524e-01
-2.433746824350228044e-01
-2.593395409942870766e-01
-2.711711360602473420e-01
-2.786401071764474380e-01
-2.815869133671780600e-01
-2.799759474019217764e-01
-2.737940121011745997e-01
-2.631512913308836632e-01
-2.482430971848707535e-01
-2.292991363947399774e-01
-2.066799375604054245e-01
-1.807798145205286588e-01
-1.520474977893729596e-01
-1.210105869765150527e-01
-8.820684960302224709e-02
-5.421282873773808353e-02
-1.962690725160061433e-02
1.495554613775827713e-02
4.894956437401318250e-02
8.177344428451163716e-02
1.128837035870338401e-01
1.417822468023915150e-01
1.679853156517270296e-01
1.910976425529128386e-01
2.107645327479104602e-01
2.266749185817197310e-01
2.386289308688876454e-01
2.464482924011479059e-01
2.500435115442313228e-01
2.494116256753904359e-01
2.445725460587050981e-01
2.356611035939014942e-01
2.228548287322144328e-01
2.063782003265214049e-01
1.865527197778170942e-01
1.637160014303655209e-01
1.382704188572335680e-01
1.106701302514143670e-01
8.138111004432324602e-02
5.091839257586350947e-02
1.981157357223005400e-02
-1.140489613806058844e-02
-4.218839781530812905e-02
-7.199804698751449683e-02
-1.003228234001397878e-01
-1.266712581841910601e-01
-1.505727000967655160e-01
-1.716337056333974709e-01
-1.894805319700049173e-01
-2.038063722348104345e-01
-2.143964939999670472e-01
-2.210559713711583163e-01
-2.237091286686722358e-01
-2.223439734918632726e-01
-2.169919703356166241e-01
-2.078136651098325127e-01
-1.949963534707573887e-01
-1.788008319666217205e-01
-1.595707866473096703e-01
-1.376636888544315873e-01
-1.135034189012458367e-01
-8.754262303485446650e-02
-6.024321001740357007e-02
-3.208923460646233294e-02
-3.567300889800562036e-03
2.485077917878386611e-02
5.270688609957231707e-02
7.955238423079599719e-02
1.049889327476547785e-01
1.286359721482835672e-01
1.501453921626783317e-01
1.692326409692228306e-01
1.856247581676733205e-01
1.991104607828207695e-01
2.095252919528522439e-01
2.167229308719558489e-01
2.206327203695772898e-01
2.212056933241540735e-01
2.184324508196700265e-01
2.123667488405804327e-01
2.030734471693921850e-01
1.906776153005347585e-01
1.753417146793688208e-01
1.572471199376571649e-01
1.366404295473333808e-01
1.137836549476953785e-01
8.897536974089410855e-02
6.256189041156950958e-02
3.489767863047889968e-02
6.379171642543497028e-03
-2.257595955411290101e-02
-5.154236753652857023e-02
-8.007334727983297928e-02
-1.077187422149949586e-01
-1.340367119930659101e-01
-1.585943235676962604e-01
-1.809664448166040940e-01
-2.007770690369695410e-01
-2.176704453939556638e-01
-2.313274590927305030e-01
-2.415127393327685668e-01
-2.480073429716824207e-01
-2.506800281533805297e-01
-2.494766548923560978e-01
-2.443689622997659017e-01
-2.354514671259902991e-01
-2.228595949397663145e-01
-2.067839717191991000e-01
-1.875176651672349204e-01
-1.653698787506698575e-01
-1.407176784041503093e-01
-1.139870374271306774e-01
-8.561416388053974535e-02
-5.607373852206962161e-02
-2.585047802049558752e-02
4.574767764058556424e-03
3.472700395966581144e-02
6.413555285560573749e-02
9.236917882292199067e-02
1.190198772839252267e-01
1.437005813937470844e-01
1.660933892252731692e-01
1.858963624019021599e-01
2.028598989753144788e-01
2.167992836671860657e-01
2.275436850866084382e-01
2.350008379093896371e-01
2.391161438072325618e-01
2.398640239610367320e-01
2.372961865582736696e-01
2.314792576637669796e-01
2.225292191176079237e-01
2.106122629236649724e-01
1.959054720358444635e-01
1.786401126176417054e-01
1.590685035232574929e-01
1.374606901511317980e-01
1.141250225285181941e-01
8.937598338269084342e-02
6.354709776357778117e-02
3.698778898395706227e-02
1.004924797036510498e-02
-1.691096793324525088e-02
-4.353340381875479836e-02
-6.946535006609755314e-02
-9.436596709094101365e-02
-1.178978705869278137e-01
-1.397520161084905843e-01
-1.596387426271131671e-01
-1.772819997040009365e-01
-1.924581543955181107e-01
-2.049573507044212817e-01
-2.146092440143838043e-01
-2.213002582196141321e-01
-2.249284191235922381e-01
-2.254610781097570182e-01
-2.229042977258513525e-01
-2.172891131819165711e-01
-2.087241660488784456e-01
-1.973348439346024330e-01
-1.832921367809736690e-01
-1.668207223541111617e-01
-1.481546780391310991e-01
-1.275753868271132796e-01
-1.053856929168844325e-01
-8.189802455752813459e-02
-5.744885616880233969e-02
-3.237840244242072563e-02
-7.026528455152870889e-03
1.826723853375480586e-02
4.316683801625659234e-02
6.735657908236925007e-02
9.052831969294700132e-02
1.123895851948303742e-01
1.326800084765152876e-01
1.511453606069004252e-01
1.675658388495517293e-01
1.817489325623542762e-01
1.935133649122317279e-01
2.027269828057680079e-01
2.092724010994506667e-01
2.130612414699698809e-01
2.140535127013671324e-01
2.122182050124694352e-01
2.075757597159520462e-01
2.001800075130244216e-01
1.901021350361110085e-01
1.774760111663185036e-01
1.624509784554302727e-01
1.452132979088817666e-01
1.259995747962269763e-01
1.050553327680452675e-01
8.267379915153205694e-02
5.917344532997568379e-02
3.488425819217286228e-02
1.016988881243520090e-02
-1.459959678107729947e-02
-3.904942492215839750e-02
-6.279955841793995186e-02
-8.547316958666703601e-02
-1.067179346730248446e-01
-1.261921121388645539e-01
-1.435771008390068493e-01
-1.586097051241785461e-01
-1.710380072908273819e-01
-1.806723271421802612e-01
-1.873801024440222007e-01
-1.910479537834478825e-01
-1.916572532315073962e-01
-1.892224371248081294e-01
-1.838026491709422727e-01
-1.755438015944718044e-01
-1.646061232502894212e-01
-1.512127407899611087e-01
-1.356341214612621915e-01
-1.181526782245534979e-01
-9.909845740761211164e-02
-7.881476256743193132e-02
-5.765221759810280899e-02
-3.597302751450903724e-02
-1.413902357046611935e-02
7.503221978212751275e-03
2.861653038459539833e-02
4.887490578318776091e-02
6.799122443161581542e-02
8.568772343544062142e-02
1.017180411254224176e-01
1.158764661682362695e-01
1.279660007004482791e-01
1.378402762582933150e-01
1.453783180947599285e-01
1.504789165566385312e-01
1.530959859904490183e-01
1.531946185768225110e-01
1.507796052592890457e-01
1.458978938604080788e-01
1.386067596269233149e-01
1.290182114543144132e-01
1.172665464028000010e-01
1.035087628215027727e-01
8.795321397940643326e-02
7.081728387474306441e-02
5.235378244689031096e-02
3.284639735153151857e-02
1.258565956878390790e-02
-8.107530722639533227e-03
-2.890234801737232018e-02
-4.946449756503101813e-02
-6.945331094497941837e-02
-8.852881300095735706e-02
-1.063695096602400025e-01
-1.226671104904621667e-01
-1.371259106281938478e-01
-1.495013868215343267e-01
-1.595630773326975893e-01
-1.671219040906315734e-01
-1.720509033990400838e-01
-1.742354164005134598e-01
-1.736340167589237593e-01
-1.702480282485761831e-01
-1.641028985841293808e-01
-1.553023577481953965e-01
-1.439675472745368112e-01
-1.302607287214868348e-01
-1.143947061850536517e-01
-9.659044053787044226e-02
-7.710878558574327246e-02
-5.622953592444226989e-02
-3.423998255179427908e-02
-1.144705124095918292e-02
1.183905890652281467e-02
3.530709830600964327e-02
5.864475783654621299e-02
8.154137847034692577e-02
1.036968344445022283e-01
1.248150802454733310e-01
1.446080125109925896e-01
1.628045589870874554e-01
1.791370360047561672e-01
1.933575807710206096e-01
2.052347367561025981e-01
2.145450932376467001e-01
2.211024236782755392e-01
2.247322684284001337e-01
2.252889918998750018e-01
2.226772218244639223e-01
2.168119620361999567e-01
2.076745113166391099e-01
1.952911171899089082e-01
1.797133592667065904e-01
1.610888185844316922e-01
1.395898449199502456e-01
1.154485078754529104e-01
8.898193544338284244e-02
6.052225638029984367e-02
3.048241556891195803e-02
-6.799194307668399162e-04
-3.248826052330267000e-02
-6.440868279032785360e-02
-9.589585120912436089e-02
-1.263982125225922015e-01
-1.553569554716653922e-01
-1.822190169929032155e-01
-2.064769476682338789e-01
-2.276438812263867906e-01
-2.452725707825997858e-01
-2.590151030674798238e-01
-2.685438128940016989e-01
-2.736352570895693170e-01
-2.741658369687709484e-01
-2.700422377202602031e-01
-2.613245557748012371e-01
-2.481288789057100597e-01
-2.306377461556280151e-01
-2.091685824063014010e-01
-1.840609755067504072e-01
-1.557440317388333328e-01
-1.247172143589040938e-01
-9.149560523775895904e-02
-5.665795049886268586e-02
-2.080152847348060163e-02
1.547034607502018044e-02
5.154438014767764864e-02
8.680912476944374623e-02
1.206853176518439819e-01
1.526144017221591764e-01
1.820587913395033119e-01
2.085571579915655449e-01
2.316672636639324212e-01
2.510096461718486771e-01
2.662897082665005022e-01
2.772311334849079101e-01
2.836667117943852956e-01
2.854864677167709974e-01
2.826228819024459993e-01
2.751323719838796311e-01
2.630971340787606749e-01
2.466831170638097981e-01
2.261491109945580336e-01
2.017737674677967941e-01
1.739402981729393782e-01
1.430764458545975559e-01
1.096438322166584101e-01
7.418419832676162451e-02
3.725269690797500255e-02
-5.609774367981157361e-04
-3.863570072175936954e-02
-7.634942605078656741e-02
-1.130813303438216455e-01
-1.482112227547030814e-01
-1.811439790312434073e-01
-2.113327197097876753e-01
-2.382418522433413788e-01
-2.614186899682903187e-01
-2.804724073388434880e-01
-2.950453938875569615e-01
-3.049187667778193167e-01
-3.099129389524271083e-01
-3.099347907108961908e-01
-3.050268056127032335e-01
-2.952555043641908461e-01
-2.808188683587909962e-01
-2.619950913224420863e-01
-2.390976173098828816e-01
-2.125587475765979284e-01
-1.828378529516053452e-01
-1.504394810467086785e-01
-1.159261591412779069e-01
-7.986640419222579279e-02
-4.284693892619396982e-02
-5.463513991514637458e-03
3.169783817549005206e-02
6.807837360022110651e-02
1.031258397969387480e-01
1.363327550409065558e-01
1.672387741465756195e-01
1.953985397756047571e-01
2.204499662414148020e-01
2.420645974533318923e-01
2.599548109820485342e-01
2.739245614142705731e-01
2.837945449028606015e-01
2.894615555163748688e-01
2.908881470869630337e-01
2.880576080166100117e-01
2.810493401348034825e-01
2.699742217763153596e-01
2.549894141052992391e-01
2.363364532532486739e-01
2.142712487778647423e-01
1.891212487751082194e-01
1.612645683488767856e-01
1.310974190618551805e-01
9.908615456534958232e-02
6.571564816487815430e-02
3.149540621934338036e-02
-3.028414440378268679e-03
-3.730625037004009492e-02
-7.078424731871629794e-02
-1.029060716072890957e-01
-1.331277467635965106e-01
-1.609460062773614974e-01
-1.858676073371757775e-01
-2.074558921266916878e-01
-2.253431567406882219e-01
-2.391810865282182896e-01
-2.487401787319371005e-01
-2.538468943785253673e-01
-2.543832907907620511e-01
-2.503770486528066885e-01
-2.418842193932786433e-01
-2.290682722440827712e-01
-2.122000942404135282e-01
-1.915748082031892285e-01
-1.676077537201429712e-01
-1.407600975299343471e-01
-1.115272601227978444e-01
-8.047733506002013870e-02
-4.818876115459963527e-02
-1.525715515852421600e-02
1.770776960691114454e-02
5.010242512961846084e-02
8.135511752731219848e-02
1.109043360806785394e-01
1.382278369898501669e-01
1.628712465508106444e-01
1.843943317728238829e-01
2.024478418695437876e-01
2.167436758556384735e-01
2.270267840356034184e-01
2.331660574037818789e-01
2.350620558521141212e-01
2.326903431947108525e-01
2.261323839328710505e-01
2.154888861006441780e-01
2.009663296925347786e-01
1.828292105598420536e-01
1.613732704339022050e-01
1.369892758661372112e-01
1.100878054801174288e-01
8.112355727231648772e-02
5.060228465865446168e-02
1.903648952394776384e-02
-1.303274469287343806e-02
-4.505162929359624036e-02
-7.647033847982025179e-02
-1.067490580618303958e-01
-1.353513465664357707e-01
-1.617794168089352058e-01
-1.855721958381957581e-01
-2.062855188338105217e-01
-2.235645682545121526e-01
-2.370869603841848638e-01
-2.465858340643797275e-01
-2.519060569003621075e-01
-2.529130254233072361e-01
-2.495806276617583974e-01
-2.419672863959528297e-01
-2.301619507334178305e-01
-2.143835272992222762e-01
-1.948890300106347895e-01
-1.719926784402586173e-01
-1.461024451909167521e-01
-1.176401989614336285e-01
-8.708737162147500710e-02
-5.496337522809857656e-02
-2.179473557797118044e-02
1.186822702176848487e-02
4.547003411356009828e-02
7.846708972010585370e-02
1.103317226899829251e-01
1.405430337479510738e-01
1.686299039660053012e-01
1.941471014055246025e-01
2.166760763234347742e-01
2.358757049002434547e-01
2.514213039599770827e-01
2.630527760818577310e-01
2.705810056208224346e-01
2.738350513116607488e-01
2.727440192943619834e-01
2.672792823417480257e-01
2.574571252610611261e-01
2.433992211641262671e-01
2.252467118407801561e-01
2.032237309748196052e-01
1.776292798916808691e-01
1.487831786677169532e-01
1.171039291527760096e-01
8.304376710462563205e-02
4.709247339201871885e-02
9.811392338575863903e-03
-2.822759070014660421e-02
-6.641736643757781278e-02
-1.041247699322581793e-01
-1.407172037997932168e-01
-1.755671757052883752e-01
-2.080491364422886180e-01
-2.375715312974618354e-01
-2.635956515522880350e-01
-2.855969632936627978e-01
-3.031534153714363078e-01
-3.159049396574661328e-01
-3.235382057967680636e-01
-3.258981989546025915e-01
-3.228670340560125251e-01
-3.144383277160295864e-01
-3.007475653069133226e-01
-2.819580921692845799e-01
-2.583871511129695042e-01
-2.304277774140416901e-01
-1.985188740554862941e-01
-1.632246057852039245e-01
-1.251326363740097314e-01
-8.488160121115717605e-02
-4.316334207612843032e-02
-6.737634047747631527e-04
4.188109808685180901e-02
8.379126991651042466e-02
1.243668622077782060e-01
1.629627324807844668e-01
1.989438589986075590e-01
2.317473206260217133e-01
2.608719678336962056e-01
2.858425725164675524e-01
3.063064960874826159e-01
3.219509936889923818e-01
3.325327128471229354e-01
3.379336881209950016e-01
3.380582141313953626e-01
3.329292978859241803e-01
3.226532948190076189e-01
3.073712368730946443e-01
2.873585810234048354e-01
2.629263336400786688e-01
2.344525694111447844e-01
2.024142821580479090e-01
1.673042697560720438e-01
1.296935310202678160e-01
9.019790897926971418e-02
4.944789671627103367e-02
8.119937060145465679e-03
-3.310029547898518665e-02
-7.353045681202474704e-02
-1.124922264268810590e-01
-1.493149839489920083e-01
-1.833857536116407783e-01
-2.141185005308523515e-01
-2.409701287044030416e-01
-2.635092159629799369e-01
-2.813273301485978983e-01
-2.941292757474933683e-01
-3.017321263340411175e-01
-3.039861682530249354e-01
-3.009144557405949438e-01
-2.926054547212100232e-01
-2.792231565289970963e-01
-2.610904886112250800e-01
-2.385569890754364319e-01
-2.120776965603581310e-01
-1.821934820476754924e-01
-1.494632790749649276e-01
-1.145211797474195992e-01
-7.802398402504118202e-02
-4.063330418258825905e-02
-3.018989190702425773e-03
3.415191679919593604e-02
7.025627282515767291e-02
1.047001884347903422e-01
1.369154846577651519e-01
1.664308074337113585e-01
1.927996417590659983e-01
2.156480833810861253e-01
2.347038610298101957e-01
2.497147548370283743e-01
2.605445395209122217e-01
2.671200494082316967e-01
2.694066960276506051e-01
2.674864106861634117e-01
2.614655854052726491e-01
2.515154594027872448e-01
2.378816709531828555e-01
2.208232873186568579e-01
2.006670770726362019e-01
1.777697025256195218e-01
1.525054797435251297e-01
1.252919492193277362e-01
9.655387114376412505e-02
6.672992827586932130e-02
3.627191413514729845e-02
5.630831796067159445e-03
-2.474975941199808460e-02
-5.442906269877156866e-02
-8.298221925846571700e-02
-1.100161700185511293e-01
-1.351448422426040352e-01
-1.580304601887958516e-01
-1.783725561662148351e-01
-1.958893425543539735e-01
-2.103795925926239541e-01
-2.216657100138097469e-01
-2.296206214660738709e-01
-2.341993280939016486e-01
-2.353717338463425790e-01
-2.331912261071100723e-01
-2.277639591988314116e-01
-2.192205893183318821e-01
-2.077775668838732770e-01
-1.936717180725624488e-01
-1.771784898318826684e-01
-1.586246415462735371e-01
-1.383437755069540920e-01
-1.166981831762679001e-01
-9.406492724000425909e-02
-7.082050537244422017e-02
-4.733942402540813887e-02
-2.399507875593709372e-02
-1.140566375938956156e-03
2.089313444618268178e-02
4.178280671780010280e-02
6.125048921762310528e-02
7.903717631695572621e-02
9.490671076033097009e-02
1.086760822232304413e-01
1.201721823104526798e-01
1.292662582785450986e-01
1.358692285713076764e-01
1.399042206720397807e-01
1.413526008959045122e-01
1.402155195075480698e-01
1.365226473120748629e-01
1.303575410559347780e-01
1.218131965727189403e-01
1.110306357702310898e-01
9.818609903505137737e-02
8.346941053084333539e-02
6.712514389450419117e-02
4.941296592772426166e-02
3.061779248606621984e-02
1.106344670509007422e-02
-8.920697076963524097e-03
-2.898175005417580330e-02
-4.875272804221197909e-02
-6.786696431768912685e-02
-8.595952981160320805e-02
-1.026665053689782003e-01
-1.176472485579838079e-01
-1.305904781600237263e-01
-1.411949108238390871e-01
-1.492254798696655560e-01
-1.544794583137349964e-01
-1.567887703783495956e-01
-1.560795710980847906e-01
-1.522970371464200667e-01
-1.454609805160083091e-01
-1.356684549794715533e-01
-1.230346503027972549e-01
-1.077680008096133513e-01
-9.011384414780554408e-02
-7.034808380154000673e-02
-4.881387323954555768e-02
-2.586495940694799600e-02
-1.883137416365254779e-03
2.272597356045480410e-02
4.755621382085495341e-02
7.220252179488984012e-02
9.626036609243948661e-02
1.193420036088101988e-01
1.410897636458372517e-01
1.611527773226093530e-01
1.792276495269158332e-01
1.950440273057587603e-01
2.083495916981359386e-01
2.189621682601314845e-01
2.267181507169988564e-01
2.314981405458222952e-01
2.332473739340779062e-01
2.319233261935593760e-01
2.275534336692555115e-01
2.202048996249530433e-01
2.099686290825033552e-01
1.970104412799731364e-01
1.815125615490744693e-01
1.637009968650469105e-01
1.438541941580631089e-01
1.222600371201494340e-01
9.925492102613464596e-02
7.519765700722391699e-02
5.045788186464594816e-02
2.543290960665700595e-02
5.244351364144250738e-04
-2.386656953296917294e-02
-4.733984297745763570e-02
-6.950075089828811059e-02
-8.998835583135900151e-02
-1.084544595427860969e-01
-1.245811560803398166e-01
-1.381137607344706808e-01
-1.488101469212148587e-01
