BVP Signal
7.723430940836349679e-03
2.415546715794344990e-03
-7.508220468778699364e-03
-1.842722917012821690e-02
-2.768554887790513480e-02
-3.506029727019360082e-02
-4.232320459558477216e-02
-5.059527984803358081e-02
-5.923332160316253925e-02
-6.728786152037355417e-02
-7.391066537276516635e-02
-7.940377764508312064e-02
-8.439715736060349194e-02
-8.848352587384936130e-02
-9.121047068054730089e-02
-9.205303636089962049e-02
-9.081798361358218996e-02
-8.787702319179886701e-02
-8.306242623766874056e-02
-7.617723191662841009e-02
-6.716681664809137642e-02
-5.603364959924375666e-02
-4.300336563667672696e-02
-2.831324491551570621e-02
-1.215731156600147189e-02
5.305426276414115794e-03
2.362562856246386289e-02
4.248112953227334287e-02
6.153391423423638928e-02
8.017505075622578803e-02
9.826895157734921726e-02
1.151811524788478869e-01
1.304567503566545772e-01
1.439586068320706513e-01
1.550172088367937351e-01
1.635188977386518028e-01
1.691738429337124039e-01
1.715625448620045068e-01
1.709176205189420483e-01
1.668419574431938557e-01
1.594146548885305992e-01
1.488107402814944080e-01
1.350032248087197628e-01
1.183762224010676822e-01
9.910185488448480795e-02
7.756265965509867577e-02
5.418860508399936382e-02
2.938177576134551328e-02
3.706960038430406890e-03
-2.242974527809676877e-02
-4.834434839809592654e-02
-7.363530031568077394e-02
-9.772007668774487787e-02
-1.199543755459984706e-01
-1.401419965476661533e-01
-1.575506244211507534e-01
-1.719348959565734081e-01
-1.830232834916827867e-01
-1.903102778920232052e-01
-1.940232174334521609e-01
-1.937337704885019884e-01
-1.894975418283404989e-01
-1.815858066507496649e-01
-1.698606890786253654e-01
-1.548312576349113179e-01
-1.366502500214908378e-01
-1.156743755527872008e-01
-9.254798734475747080e-02
-6.748978344332673407e-02
-4.121173189972285322e-02
-1.413585258729185834e-02
1.313147214513299410e-02
4.000841126876322762e-02
6.606575016804949740e-02
9.057014470703403375e-02
1.133272616487649431e-01
1.336608501322731346e-01
1.511912811493754671e-01
1.657699484010305424e-01
1.767958902408766630e-01
1.844078920683112632e-01
1.882477833992212690e-01
1.881467714348010190e-01
1.844962977446809593e-01
1.769176436334275460e-01
1.658151281662912924e-01
1.513569359215863885e-01
1.336299693927625598e-01
1.133036713630216075e-01
9.043108695370671857e-02
6.558466944835267265e-02
3.926417511422011786e-02
1.184230951802237031e-02
-1.600851170540359969e-02
-4.391299814839537408e-02
-7.117795117161042351e-02
-9.742658183549236794e-02
-1.220776687227634605e-01
-1.445533179057941764e-01
-1.646750387291815165e-01
-1.817297321896159945e-01
-1.956148963704037458e-01
-2.060072509106071759e-01
-2.124300979959921065e-01
-2.153160012576754156e-01
-2.140650978891295297e-01
-2.088654533378880851e-01
-1.999842072365772827e-01
-1.872183496551196313e-01
-1.711954635057731933e-01
-1.519602414621305519e-01
-1.298263025781766222e-01
-1.054958638223580936e-01
-7.907285328842067473e-02
-5.122721193143331408e-02
-2.239628299730514471e-02
6.924658998157140477e-03
3.618180698368861359e-02
6.493169319590774702e-02
9.256658725103478202e-02
1.188240797845259017e-01
1.430448033541492914e-01
1.649403780075835990e-01
1.842123622587286402e-01
2.002546784275480996e-01
2.132716177856984197e-01
2.226580186786997761e-01
2.282826128604955596e-01
2.303906222485527788e-01
2.284547750269989019e-01
2.228788408345410144e-01
2.136063952655015696e-01
2.005674110755823192e-01
1.844810131550304877e-01
1.650991929259031654e-01
1.429315763891101099e-01
1.184261613562649640e-01
9.177650985753679769e-02
6.364790968148720252e-02
3.436940123092030452e-02
4.509116762214229746e-03
-2.542700883663052969e-02
-5.491040904944258921e-02
-8.337866601167764902e-02
-1.104267489252271223e-01
-1.353669153353774246e-01
-1.579875366481938437e-01
-1.777108323827396030e-01
-1.940805458849460541e-01
-2.071851293765400448e-01
-2.163331767382061233e-01
-2.216392415939965055e-01
-2.230215317884936543e-01
-2.202008141780849582e-01
-2.137393570782496199e-01
-2.033645841169451352e-01
-1.894069249044664505e-01
-1.724080641508254630e-01
-1.523429991243535897e-01
-1.299412943163230361e-01
-1.055043009085370465e-01
-7.947359335358253341e-02
-5.257924901631691461e-02
-2.510621229440719582e-02
2.276419708474752834e-03
2.910939227074002544e-02
5.488011666546868672e-02
7.912442359099533529e-02
1.014452194717170297e-01
1.213357540105886173e-01
1.387362232612556756e-01
1.531019020474969072e-01
1.643369900401993600e-01
1.723965447370567339e-01
1.769449039760591091e-01
1.783141432792074155e-01
1.762963226452101684e-01
1.709847733454173402e-01
1.629100796935863960e-01
1.518384049435118621e-01
1.383458937491392482e-01
1.226819197989525434e-01
1.050462745442540813e-01
8.612534306415237095e-02
6.602215904856501005e-02
4.526769115090673035e-02
2.433828109055713451e-02
3.488959129642144052e-03
-1.674925221124297370e-02
-3.610488701566909320e-02
-5.416355782359297266e-02
-7.068786692596105981e-02
-8.535964574187521192e-02
-9.791937271862186098e-02
-1.083376311436511641e-01
-1.162717318047415960e-01
-1.218281540827121368e-01
-1.248960773912180522e-01
-1.253611126938863340e-01
-1.236432771195521974e-01
-1.194690594856858690e-01
-1.131449490683955617e-01
-1.049405352569721117e-01
-9.481778902410220589e-02
-8.329522918256654362e-02
-7.042469809438089978e-02
-5.646919243030773528e-02
-4.190589738107575180e-02
-2.675011755395589885e-02
-1.143380278948452622e-02
3.845026942278229054e-03
1.883231757576622756e-02
3.326133330659242909e-02
4.696697699197015241e-02
5.964284443796328411e-02
7.127451631974643376e-02
8.153556250061592958e-02
9.034007562194237839e-02
9.764349117611720308e-02
1.031389151780148783e-01
1.070233244892170310e-01
1.090346086721022956e-01
1.091077313317400099e-01
1.074861214204253512e-01
1.038644051921259193e-01
9.847659853117868289e-02
9.134813744794356705e-02
8.242872740140494425e-02
7.208070219452206162e-02
6.021585447899097110e-02
4.707610129916836583e-02
3.289209165663078971e-02
1.779282671348243750e-02
2.088743107629409401e-03
-1.403279721283062775e-02
-3.021786233270938246e-02
-4.629456072371410102e-02
-6.188900898652547472e-02
-7.668080747024377808e-02
-9.053279482304150971e-02
-1.029530359824605418e-01
-1.138634222439883631e-01
-1.229674474836256887e-01
-1.298905951249235136e-01
-1.348283795859588907e-01
-1.372929675060931554e-01
-1.373067488573273820e-01
-1.349441715097206285e-01
-1.299548905610365956e-01
-1.226673044597910295e-01
-1.130131105824071502e-01
-1.011005815925913043e-01
-8.733632964299151147e-02
-7.172470081573309453e-02
-5.465660440635608519e-02
-3.641089939417072041e-02
-1.728060836518790361e-02
2.346054333762656596e-03
2.216492191559492342e-02
4.175657215430105679e-02
6.088111033845358677e-02
7.907342416682970609e-02
9.608277279423423078e-02
1.116467461442959691e-01
1.252978932745597018e-01
1.371235253702682289e-01
1.466448247519646086e-01
1.537092319935796925e-01
1.584330264319416814e-01
1.603841526766645043e-01
1.597979691842611738e-01
1.565812657678526953e-01
1.505844571542228616e-01
1.423384876857027304e-01
1.315449166355869559e-01
1.185085347936713496e-01
1.035387227322740328e-01
8.664825027837450011e-02
6.831171069949046326e-02
4.869599871489756204e-02
2.810395581418876493e-02
6.953437083301830524e-03
-1.450047803053704232e-02
-3.587007549080084567e-02
-5.684346026780350003e-02
-7.698966312351364361e-02
-9.611160622580872115e-02
-1.137841826837744097e-01
-1.296529497750033288e-01
-1.437041492651473240e-01
-1.553819208076771818e-01
-1.646844441060278663e-01
-1.714666858272188288e-01
-1.753586497407983169e-01
-1.767393629081305539e-01
-1.752238484916307515e-01
-1.708824842362854368e-01
-1.640945977163002500e-01
-1.545812837496411962e-01
-1.428054604481530654e-01
-1.289037368922680005e-01
-1.129321001331528851e-01
-9.553011334678335187e-02
-7.666949422055625851e-02
-5.673286889076313566e-02
-3.614166225884643535e-02
-1.507050740035269579e-02
6.089565488646260516e-03
2.704081541586249304e-02
4.748079523249917888e-02
6.721429533160737380e-02
8.585238708471489011e-02
1.032328591533426404e-01
1.191977063221794086e-01
1.333469597239341498e-01
1.458152716140770355e-01
1.562447311386381543e-01
1.644345821738564806e-01
1.707065156949761908e-01
1.745050233797524608e-01
1.760394469374977344e-01
1.753399625797681938e-01
1.720848013167649293e-01
1.667617223439432916e-01
1.590775106402787797e-01
1.490978188371112345e-01
1.372440223724897823e-01
1.232677412719157400e-01
1.075335476800525075e-01
9.021465168333406281e-02
7.138700513453116736e-02
5.146771601352920222e-02
3.059887426140542321e-02
9.079835149185970511e-03
-1.277935842621800988e-02
-3.462125882792189968e-02
-5.620183619555237098e-02
-7.713690164770689583e-02
-9.697592300427385070e-02
-1.157106319055677957e-01
-1.326841476135145470e-01
-1.477103189260851046e-01
-1.606816039621918879e-01
-1.710134754082441866e-01
-1.788761280696259393e-01
-1.839084408127661385e-01
-1.858479099960407832e-01
-1.851425278598587409e-01
-1.812617458718427388e-01
-1.744802596953591300e-01
-1.649993371701438116e-01
-1.526752473128558663e-01
-1.380646061361963384e-01
-1.211769545499935263e-01
-1.022796350032969398e-01
-8.189797853874117295e-02
-6.014079804494562587e-02
-3.748136606819689465e-02
-1.426254806898287486e-02
9.135408579089940306e-03
3.237331150274029568e-02
5.505042572135712686e-02
7.676646879390165712e-02
9.736342880349224682e-02
1.162834443074786672e-01
1.334181154843296635e-01
1.484927407814780054e-01
1.610323431539790184e-01
1.713237929702072226e-01
1.787720206875292872e-01
1.833397750152084837e-01
1.852155878367992003e-01
1.839231536722891747e-01
1.798332921087560377e-01
1.728211522685322854e-01
1.627883991676599695e-01
1.503386375278087939e-01
1.351615662656098227e-01
1.176520058067059282e-01
9.811625514594568553e-02
7.667407111745269677e-02
5.381986630009930050e-02
2.978566905651391927e-02
5.022376323848873336e-03
-2.012045391324021951e-02
-4.517175484923134643e-02
-6.969278494905017940e-02
-9.335984996387455825e-02
-1.155196300654828950e-01
-1.360468369899460461e-01
-1.543646549870916485e-01
-1.700100587046821932e-01
-1.830644000341786759e-01
-1.927958526456385324e-01
-1.992440224098341039e-01
-2.022743497271565216e-01
-2.014798531179390895e-01
-1.973397974406723154e-01
-1.894759489902502481e-01
-1.780676077574975258e-01
-1.635427015867234046e-01
-1.457890377223378109e-01
-1.253799813258928142e-01
-1.025477679334612369e-01
-7.765058314792919192e-02
-5.129869548278147284e-02
-2.378060467671674894e-02
4.283096495723080765e-03
3.249221316242633523e-02
6.023447518942889878e-02
8.707916134017656962e-02
1.125625025394494522e-01
1.360070235922782034e-01
1.573906130307785589e-01
1.759389717791477736e-01
1.914027863033072319e-01
2.036886329051967592e-01
2.121652169762512641e-01
2.170931401443889075e-01
2.180959712097624847e-01
2.150130084118136997e-01
2.083516668708981501e-01
1.976745026322321852e-01
1.834289938702985956e-01
1.658472888694428327e-01
1.449955454127764831e-01
1.215799648393707244e-01
9.570610651853686535e-02
6.792715188898142131e-02
3.880240617285777432e-02
8.730627977159635678e-03
-2.163397513116305237e-02
-5.184435230597450595e-02
-8.120386154315384353e-02
-1.093583376522783979e-01
-1.356504106298812296e-01
-1.595331306902133262e-01
-1.808406502904694457e-01
-1.988064780647945118e-01
-2.133938646869644740e-01
-2.242632629637821839e-01
-2.309237236120033621e-01
-2.339155266109113063e-01
-2.325733433095873992e-01
-2.271258981503466723e-01
-2.179244800322077680e-01
-2.046948857390590293e-01
-1.881507262005684966e-01
-1.683428703242955127e-01
-1.455272363633747512e-01
-1.205400282275135848e-01
-9.337748166886006285e-02
-6.471652072449779469e-02
-3.504315380617128994e-02
-4.755421185620792301e-03
2.556142846792854029e-02
5.549893143568632170e-02
8.450660525830500092e-02
1.123191060530525920e-01
1.383171512161872618e-01
1.622427288698967129e-01
1.838241557748124810e-01
2.024370281811111449e-01
2.183382430756095616e-01
2.308888703124218900e-01
2.398910248286051927e-01
2.456876721277542752e-01
2.475610887429197660e-01
2.459027269111285774e-01
2.406387320528870499e-01
2.314467234388182248e-01
2.191320276990559868e-01
2.032158055708748190e-01
1.840265182285998891e-01
1.620733461975287781e-01
1.372266735053566111e-01
1.101162603962973496e-01
8.098774141277698124e-02
5.017024729940493255e-02
1.826038714210088953e-02
-1.439595379222067401e-02
-4.727244449358599526e-02
-7.991905244692375232e-02
-1.116666905715643365e-01
-1.422302087837648277e-01
-1.709491098395550246e-01
-1.971837010139527724e-01
-2.209772152734150730e-01
-2.413336656692015580e-01
-2.581482146550206913e-01
-2.712272362012831395e-01
-2.798280773307317837e-01
-2.844333911975049922e-01
-2.844476425544867348e-01
-2.797706087823801369e-01
-2.710347543144868143e-01
-2.576729842784220015e-01
-2.402846693171049042e-01
-2.191356376030182962e-01
-1.942310091509420467e-01
-1.664959742747340599e-01
-1.359713817029373217e-01
-1.032194652102666477e-01
-6.893944142375149631e-02
-3.347568362942111853e-02
2.516043831056701680e-03
3.849942690845964410e-02
7.385275422830678282e-02
1.082330735795322407e-01
1.409001036315360722e-01
1.714226344063051466e-01
1.995530509989387191e-01
2.244773758139614328e-01
2.462695093497108134e-01
2.643776843385497455e-01
2.782817316550367792e-01
2.885368552895450356e-01
2.941801938824257778e-01
2.954508472948212949e-01
2.924967138989237880e-01
2.848045006045659688e-01
2.731113693124441744e-01
2.571277829969177420e-01
2.369993327679629780e-01
2.135120058891034900e-01
1.864185529454553403e-01
1.564150497187500877e-01
1.239272997779217317e-01
8.928611566917996067e-02
5.324319113075849652e-02
1.621501996171407362e-02
-2.113329748899793470e-02
-5.824707960788897548e-02
-9.439761637979898756e-02
-1.290763121577108152e-01
-1.616674714559810377e-01
-1.913830769907023110e-01
-2.181665267732472713e-01
-2.410791943391739633e-01
-2.598274194336747667e-01
-2.743776973532361385e-01
-2.839511424310665055e-01
-2.889048671581472272e-01
-2.889204214545889604e-01
-2.837966304600639256e-01
-2.744144015613604326e-01
-2.602206722799840222e-01
-2.418630750200453372e-01
-2.198719447984634479e-01
-1.943062255623854706e-01
-1.661488836268654179e-01
-1.356541647041007437e-01
-1.034059208518847695e-01
-7.028687684686703296e-02
-3.659374730617565019e-02
-3.083188152916832570e-03
2.971389709009425451e-02
6.124222683802185707e-02
9.107295222305361593e-02
1.186954364171312060e-01
1.436754414073414254e-01
1.659431203334972849e-01
1.848828044890522548e-01
2.005615103760855500e-01
2.127947205842318223e-01
2.212222379313183995e-01
2.263987359393836440e-01
2.278003343603323683e-01
2.256389469158811834e-01
2.203602204324147940e-01
2.115700731370581122e-01
1.999362689598794818e-01
1.854625410330874580e-01
1.682346172100374626e-01
1.490378730008040387e-01
1.276576404841622270e-01
1.046442931658683878e-01
8.039663912117067657e-02
5.510043773006054191e-02
2.930826661162577729e-02
3.288446954940155154e-03
-2.247984139644115809e-02
-4.770658852056308685e-02
-7.188834791997456009e-02
-9.466450808284704310e-02
-1.157785357436784679e-01
-1.346284664335069547e-01
-1.512188423245849900e-01
-1.650388645856064596e-01
-1.757491878488552928e-01
-1.836039562859800855e-01
-1.879274858695248462e-01
-1.889355377968440775e-01
-1.866117362706287697e-01
-1.807016200677852846e-01
-1.717805823332473059e-01
-1.596129160130005387e-01
-1.445056527925271395e-01
-1.269695676892685643e-01
-1.069952409221583273e-01
-8.521682520516532522e-02
-6.191534673304557868e-02
-3.752120144922070633e-02
-1.258934713648064696e-02
1.254925579316659712e-02
3.730591141737224503e-02
6.137035421467185170e-02
8.416969236316790282e-02
1.053747811464859352e-01
1.246426752337612964e-01
1.414084173110436438e-01
1.557891811408857463e-01
1.671641294129400102e-01
1.754144826440566240e-01
1.806129523410557325e-01
1.822997338125229017e-01
1.808085791311450918e-01
1.759627325155831423e-01
1.677196087266558111e-01
1.566512306459646453e-01
1.424755736245638671e-01
1.256663283327686120e-01
1.065167463162079442e-01
8.519199248349637599e-02
6.229679229730147871e-02
3.802805482807018050e-02
1.290953399520478745e-02
-1.261515353290495675e-02
-3.812243941475430831e-02
-6.308123297313893152e-02
-8.713859250460934125e-02
-1.096739667711591204e-01
-1.304754345419840977e-01
-1.490031478624619932e-01
-1.648283788520860660e-01
-1.779440309899064099e-01
-1.877285557495540491e-01
-1.942350716949553524e-01
-1.973082897412988812e-01
-1.966339593768935967e-01
-1.927171703503783862e-01
-1.851897187440580406e-01
-1.743171440027742047e-01
-1.605172042519866227e-01
-1.437163363997602528e-01
-1.245453561150308697e-01
-1.032152867206559688e-01
-8.006531586723530936e-02
-5.578291738021973201e-02
-3.055289926175477899e-02
-4.964611429808460374e-03
2.056370911674864493e-02
4.557397720977959116e-02
6.966397017537769021e-02
9.244159467081659864e-02
1.134302233451809222e-01
1.325704142623958803e-01
1.492948912549178497e-01
1.634921950807048940e-01
1.750699694462021783e-01
1.835771406626098279e-01
1.893454320705176552e-01
1.920075124552946266e-01
1.915092116405170963e-01
1.883048445423533557e-01
1.819590839012806549e-01
1.728991545127364915e-01
1.612478353001470521e-01
1.469395317915132837e-01
1.306183195578691780e-01
1.121678723018421087e-01
9.194255788592659018e-02
7.038304466367099888e-02
4.759555606976048625e-02
2.405085838365907114e-02
3.003521165590751496e-05
-2.407519025180534372e-02
-4.797295845398587971e-02
-7.122638505479803039e-02
-9.346794378081971222e-02
-1.144939357610927910e-01
-1.337104037166090831e-01
-1.510589138865056080e-01
-1.661242259032900126e-01
-1.784404452429828036e-01
-1.883171520258486442e-01
-1.950169732063576078e-01
-1.986046166123570378e-01
-1.991532034800726214e-01
-1.962247110722762089e-01
-1.902927487200938850e-01
-1.811420586101775698e-01
-1.688172890703028006e-01
-1.539103177922697963e-01
-1.362052742995725207e-01
-1.162013609383368007e-01
-9.422752591028503433e-02
-7.049003244729896978e-02
-4.556685038702884549e-02
-1.972743077922129579e-02
6.549951767032982305e-03
3.285844086310222428e-02
5.871977710926726268e-02
8.374789431948184704e-02
1.075567596370928525e-01
1.295782034873244615e-01
1.497758529238429059e-01
1.675261864188356264e-01
1.825613963880372004e-01
1.949102461118863150e-01
2.039533171153825042e-01
2.098900518123294479e-01
2.124948880756644121e-01
2.114773444095132127e-01
2.074373955258896340e-01
1.998643496248897200e-01
1.890704833264829077e-01
1.753965439716143604e-01
1.587111523925066880e-01
1.396309492752902670e-01
1.182658594269992008e-01
9.491314473574329058e-02
7.020691362989149586e-02
4.429674501302789669e-02
1.772919481346411918e-02
-9.068385754884514260e-03
-3.565334976939910083e-02
-6.161462506979939469e-02
-8.648422853424421464e-02
-1.098016820105926911e-01
-1.313781550244387530e-01
-1.506029853985568490e-01
-1.673447655376741616e-01
-1.813363206312000875e-01
-1.921308469534016294e-01
-2.000091748013464177e-01
-2.044786568158986351e-01
-2.055632287405258218e-01
-2.035882442228618139e-01
-1.981750744414599030e-01
-1.898256292356211017e-01
-1.786026762844906968e-01
-1.645496805441575561e-01
-1.484159024913725422e-01
-1.300753912084562924e-01
-1.100207636439546333e-01
-8.875264998473653133e-02
-6.640887648741283789e-02
-4.357124833912059958e-02
-2.053361969223252426e-02
2.355345812325868038e-03
2.468634479004721063e-02
4.615290769968702356e-02
6.646505398407973053e-02
8.537602320705790782e-02
1.025289159110701620e-01
1.179325671065500347e-01
1.312490156513929085e-01
1.422994230207163258e-01
1.513361849602015419e-01
1.578667690823388758e-01
1.621247418349036074e-01
1.641287560315453087e-01
1.636232937044997948e-01
1.611260954949446655e-01
1.563394898228304131e-01
1.493881050169161839e-01
1.407159116562387291e-01
1.300279893557086397e-01
1.177499601561761422e-01
1.039930582448316265e-01
8.878610653596862023e-02
7.258483058335506166e-02
5.537971580195136939e-02
3.744929813950663433e-02
1.906210317450004327e-02
4.191874517675206469e-04
-1.823170773223618812e-02
-3.663472789517684125e-02
-5.443622058632580085e-02
-7.160435661975694810e-02
-8.764118782113389239e-02
-1.023562569841572067e-01
-1.156686989699422519e-01
-1.270433690656030401e-01
-1.365882076554663371e-01
-1.439609512260458524e-01
-1.488398793298258416e-01
-1.515977410821501004e-01
-1.516494622448052998e-01
-1.491531306887916852e-01
-1.442278369150284123e-01
-1.366187572161808861e-01
-1.267622074208518967e-01
-1.145743044225264184e-01
-1.002069343094030562e-01
-8.410619556336537683e-02
-6.627659356104061150e-02
-4.713487191704700263e-02
-2.695394961429396774e-02
-6.066280480721237406e-03
1.518679391601628070e-02
3.646354932193389409e-02
5.732067724530212627e-02
7.759544331505224823e-02
9.672167168354636746e-02
1.144853734721840433e-01
1.306274414442142595e-01
1.445768940510946121e-01
1.565143913140089049e-01
1.658529941179046896e-01
1.723967742554938509e-01
1.763213476328372165e-01
1.770706470055262993e-01
1.748982227563992686e-01
1.697001704038595127e-01
1.612654606975452709e-01
1.501691400948467758e-01
1.360891228332040681e-01
1.193409436351489661e-01
1.002686555233913701e-01
7.893919685525585539e-02
5.585271251144381666e-02
3.125836385178983046e-02
5.586781631571474671e-03
-2.075167222945917961e-02
-4.729908365027019751e-02
-7.356704172014699727e-02
-9.920184100168241703e-02
-1.235193648829278623e-01
-1.463241111157026486e-01
-1.670343261066781770e-01
-1.850984494786932222e-01
-2.005972509879137555e-01
-2.127315192706328295e-01
-2.214725621757687724e-01
-2.267139229900408948e-01
-2.279271504164356310e-01
-2.256131261936691335e-01
-2.193556488276504624e-01
-2.092207896596986472e-01
-1.957446926707990253e-01
-1.786616006896985520e-01
-1.585422239058675298e-01
-1.356584929038928411e-01
-1.102064034970612338e-01
-8.291516788433989094e-02
-5.396900049240037356e-02
-2.392286571515649107e-02
6.728588898749103542e-03
3.749762528830771768e-02
6.792619301791201492e-02
9.753933797328928623e-02
1.257049482625714476e-01
1.523597401575396137e-01
1.767092560676155055e-01
1.984724949835310892e-01
2.175290140289710683e-01
2.331180623727877599e-01
2.454752389922295608e-01
2.541052518062621446e-01
2.586324853361268161e-01
2.596225115977664477e-01
2.563047836116743028e-01
2.489981971529169336e-01
2.378836858964830103e-01
2.226510530259459553e-01
2.040312415463262086e-01
1.818809386144955298e-01
1.564929634390006818e-01
1.285370831615950948e-01
9.806543715701104835e-02
6.571900345521555775e-02
3.195504043337333427e-02
-2.719706638328205084e-03
-3.775327420484744789e-02
-7.255026832414800120e-02
-1.064890521493294107e-01
-1.391808764012312793e-01
-1.697729835330358261e-01
-1.979846538192831518e-01
-2.232469837595036366e-01
-2.448028689047637152e-01
-2.629330600507062687e-01
-2.766551069670627472e-01
-2.858872833139389225e-01
-2.907814258755079262e-01
-2.906458731936324980e-01
-2.860567140816587806e-01
-2.768032952769456378e-01
-2.627999004486729073e-01
-2.450340819051486929e-01
-2.230785857555439566e-01
-1.976111494336925956e-01
-1.692214789105539741e-01
-1.380284905280193819e-01
-1.049499953552898712e-01
-7.031212727370030058e-02
-3.465581062536807200e-02
1.281293595313856559e-03
3.707520458489020621e-02
7.216218203302032785e-02
1.060251959111756792e-01
1.380725623471979746e-01
1.681331950680489684e-01
1.955419984826298196e-01
2.199486109768362119e-01
2.414156857540427081e-01
2.591517817010788871e-01
2.733779663889676081e-01
2.838464326299131035e-01
2.900631417706781567e-01
2.927913386654396044e-01
2.912712050382572082e-01
2.857099556382756700e-01
2.766069697618580570e-01
2.634241880570167282e-01
2.468770057921139127e-01
2.269659174241560884e-01
2.036765126464939457e-01
1.779341619557379683e-01
1.494867551828033547e-01
1.188720580721493447e-01
8.661809871764808433e-02
5.295149750148377132e-02
1.843626619679342160e-02
-1.646433033643092403e-02
-5.124346597835210959e-02
-8.553950938920762415e-02
-1.186180493219722021e-01
-1.501354615189962882e-01
-1.796401533405335704e-01
-2.063558574378958066e-01
-2.303505734086396528e-01
-2.508064675275072375e-01
-2.673405817245538829e-01
-2.801939812836925503e-01
-2.884373581954829957e-01
-2.923656936256429084e-01
-2.918443489777636790e-01
-2.864790177815426109e-01
-2.770520444708506891e-01
-2.631111325842948601e-01
-2.450160837789663870e-01
-2.234143165072917658e-01
-1.981902865461631358e-01
-1.701491044743915215e-01
-1.396432200522860767e-01
-1.071016822935468987e-01
-7.333773035597820900e-02
-3.870663045024723414e-02
-3.894393141217349780e-03
3.055571432044228153e-02
6.400318439083854671e-02
9.601155906385808181e-02
1.260094926749947553e-01
1.533727098532696176e-01
1.781220610269166338e-01
1.994060339184410280e-01
2.171323365171185238e-01
2.311904445828676380e-01
2.409850070360387009e-01
2.469545124122649593e-01
2.486469280791831771e-01
2.460232724362886036e-01
2.397195168976792856e-01
2.292045744640398564e-01
2.150964456798382385e-01
1.976124397482520167e-01
1.767978004529423552e-01
1.534994455845696826e-01
1.277123091121537546e-01
1.000135095404048324e-01
7.103110608763524292e-02
4.103022726363142469e-02
1.071445094626882755e-02
-1.949485453983029748e-02
-4.900784864337393021e-02
-7.739390007774993308e-02
-1.040956657914145489e-01
-1.286227276739289327e-01
-1.507445890929191012e-01
-1.698041224977347996e-01
-1.857593202910655938e-01
-1.982408407351478052e-01
-2.068545668877624366e-01
-2.120598914236921650e-01
-2.132236740510518591e-01
-2.106157224987233456e-01
-2.045178816679277256e-01
-1.946806616488347408e-01
-1.818290902617319960e-01
-1.659546113916413601e-01
-1.473181391449662758e-01
-1.267778542632366223e-01
-1.042281187797650110e-01
-8.036268716839323201e-02
-5.564728252041639678e-02
-3.034613394614849025e-02
-5.107534030922178392e-03
1.979619111898694994e-02
4.394390380041190980e-02
6.697948256014801816e-02
8.855944880699462285e-02
1.084567212408986819e-01
1.264443059344207976e-01
1.421784025316246980e-01
1.558281212620556966e-01
1.669886760397054637e-01
1.756174018750180088e-01
1.819870861497843717e-01
1.856307340066148948e-01
1.869319987411554584e-01
1.858344441353949050e-01
1.821245665615143783e-01
1.764764746926820171e-01
1.684386030500422127e-01
1.582534078670051469e-01
1.462998492037069775e-01
1.323012713986402300e-01
1.167280698517745852e-01
9.962550828633914834e-02
8.103513123580535771e-02
6.144832661902777105e-02
4.083257725170535979e-02
1.947259720109417724e-02
-2.333340511702142184e-03
-2.433736814401517290e-02
-4.632392457321399259e-02
-6.791026889800219624e-02
-8.875501719161917047e-02
-1.087852502509901176e-01
-1.273753432731526414e-01
-1.444057608750921595e-01
-1.596239172058062650e-01
-1.724742437767837200e-01
-1.831450795835827261e-01
-1.910842189157709314e-01
-1.960903657465266070e-01
-1.984423350784122464e-01
-1.975580399195077108e-01
-1.937213872681470828e-01
-1.869556272147105958e-01
-1.770770926182031468e-01
-1.646860266491222968e-01
-1.496212355040980602e-01
-1.321787410024909404e-01
-1.128710796748601808e-01
-9.174925701965960800e-02
-6.934002556243135107e-02
-4.599022492967687337e-02
-2.202689652414960980e-02
2.078371225947769907e-03
2.596816379365099112e-02
4.926982685938400414e-02
7.165913969407268491e-02
9.268403831727099751e-02
1.122139304768533102e-01
1.298636807792088455e-01
1.452866182313765353e-01
1.586817810618085522e-01
1.694507103687805383e-01
1.776763123248387422e-01
1.833897194688678123e-01
1.862013130210030398e-01
1.865560621464628366e-01
1.841745555638379661e-01
1.790456706390071984e-01
1.717119902766652551e-01
1.617784724268865049e-01
1.496637187688945048e-01
1.355657453061585305e-01
1.194361615011390043e-01
1.018366628455230072e-01
8.276120417543611496e-02
6.248841246831807195e-02
4.143973011604726309e-02
1.975205131624588328e-02
-2.214940599404816024e-03
-2.414781475808160105e-02
-4.571564555189683299e-02
-6.671341783009093751e-02
-8.669589983631320607e-02
-1.054075372768336488e-01
-1.226889471007041044e-01
-1.380245572549973765e-01
-1.514357043224353605e-01
-1.625757063128867030e-01
-1.711039762226936323e-01
-1.773562769306722409e-01
-1.807323709488394270e-01
-1.813688273064222867e-01
-1.794031440163170732e-01
-1.745237199096788816e-01
-1.671993212728298261e-01
-1.573359339160613490e-01
-1.450180512348437090e-01
-1.308480566569986125e-01
-1.146729448459414547e-01
-9.695237330056136194e-02
-7.804474056410906635e-02
-5.810392862009197690e-02
-3.764173478842294807e-02
-1.690068471381084292e-02
3.799833307349523293e-03
2.408277400924781209e-02
4.365441614990682451e-02
6.227380145595608901e-02
7.964196064154739629e-02
9.546740594679840874e-02
1.097521457091049507e-01
1.221103697815033584e-01
1.324790656329554728e-01
1.409326716510644339e-01
1.471099297631747738e-01
1.512726924322973510e-01
1.533055576780737450e-01
1.530856879663534675e-01
1.511179960804939215e-01
1.470493552717287711e-01
1.411398691756585166e-01
1.336832031538782162e-01
1.244989484306792960e-01
1.140422598428929291e-01
1.023358692574282414e-01
8.944722984235151109e-02
7.585651955003254454e-02
6.146166911276848555e-02
4.653327679914365245e-02
3.131657911274766254e-02
1.590481912672874615e-02
5.119001042749315999e-04
-1.466125091593619909e-02
-2.945117140124274557e-02
-4.376805951577913967e-02
-5.730154151057197109e-02
-7.001587162717536061e-02
-8.174998747438549929e-02
-9.220861424972490172e-02
-1.015536665107204251e-01
-1.094083027698975197e-01
-1.156786083002047660e-01
-1.205466607259081946e-01
-1.235669375629265820e-01
-1.249411377972259873e-01
-1.245990677251186951e-01
-1.223265061526760955e-01
-1.185158620822418796e-01
-1.128838101712958397e-01
-1.055532979302335472e-01
-9.678837716421728743e-02
-8.645296348232731076e-02
-7.485099935608668931e-02
-6.208115180220534490e-02
-4.826473630895077721e-02
-3.369178795152832917e-02
-1.848673460739493762e-02
-2.902688324267294062e-03
1.287616308475135474e-02
2.853416161925609318e-02
4.392787396165309666e-02
5.877946932700023330e-02
7.272425977449220591e-02
8.583185623453776225e-02
9.757145267197497862e-02
1.078262801802055137e-01
1.165356983760796328e-01
1.232287557061049754e-01
1.280776244177140866e-01
1.307647159065637998e-01
1.310903904793869201e-01
1.293565633398099379e-01
1.251513560778879097e-01
1.186660151867509061e-01
1.099919837531924682e-01
9.903118340611691273e-02
8.617202225958334183e-02
7.140237898018175766e-02
5.497381293269951175e-02
3.721099667334523686e-02
1.831184587785842852e-02
-1.347649402519454642e-03
-2.148833932990133755e-02
-4.165382066437359199e-02
-6.162415502752638385e-02
-8.092547506841160643e-02
-9.913588185055391411e-02
-1.161340533457897173e-01
-1.312895211131021589e-01
-1.445029835017595521e-01
-1.554859526442328721e-01
-1.637224824989410576e-01
-1.695508371069097131e-01
-1.723619185684078237e-01
-1.721495694715901026e-01
-1.691249219350869359e-01
-1.629080789276948216e-01
-1.539063966644051151e-01
-1.420901432545458032e-01
-1.274792929711685840e-01
-1.106562737850203537e-01
-9.152701631713919261e-02
-7.051014633338953397e-02
-4.796287442757937725e-02
-2.414001761075627167e-02
5.189410441301112176e-04
2.568469652502222700e-02
5.089336974565611404e-02
7.590108591039784747e-02
1.001410807967080263e-01
1.233039413315299704e-01
1.451062146260551633e-01
1.648811893509719573e-01
1.827232918309667220e-01
1.979926489391955480e-01
2.103244183595577854e-01
2.199108822900592564e-01
2.259881078155891454e-01
2.287184221526736561e-01
2.279642095774059296e-01
2.232848087970522588e-01
2.152910999430705519e-01
2.034990645926896269e-01
1.880973260254919233e-01
1.695165960529355087e-01
1.476107854803461183e-01
1.229344467077724545e-01
9.573227670454344251e-02
6.633211177122450009e-02
3.534173887607196252e-02
3.126611181627450553e-03
-2.973107638679627074e-02
-6.273885600348233504e-02
-9.519087108677815046e-02
-1.266949094807387766e-01
-1.565778480334517608e-01
-1.841334969090948626e-01
-2.092951510044996355e-01
-2.310934765129166180e-01
-2.493270443344747234e-01
-2.637712983674701528e-01
-2.736907370884300028e-01
-2.794879404659166289e-01
-2.806001719564801822e-01
-2.769217050028814908e-01
-2.690476415952860467e-01
-2.564634622169016387e-01
-2.397668647161803612e-01
-2.192331593579354143e-01
-1.949032475136622811e-01
-1.677255178477147779e-01
-1.377509519219804190e-01
-1.055763923294437273e-01
-7.192288705529942261e-02
-3.712847753889887692e-02
-1.886594187624266936e-03
3.328002658415257775e-02
6.777041075498256573e-02
1.012049451989369825e-01
1.329096281673652069e-01
1.624664972980131017e-01
1.896358963370440576e-01
2.136746914652423446e-01
2.346705316922124696e-01
2.521179469281231711e-01
2.655509821621697131e-01
2.755387318890680781e-01
2.811721157139871474e-01
2.827170975425454813e-01
2.803443492842687679e-01
2.735459701592342641e-01
2.630797082608268833e-01
2.486396394357648365e-01
2.303360878131330836e-01
2.089545967610654253e-01
1.841713523914267070e-01
1.566276639290169470e-01
1.266979735885870872e-01
9.459999146228342815e-02
6.102698319361363199e-02
2.629357002340413155e-02
-9.038153438805509449e-03
-4.448234556342733903e-02
-7.940096920261478786e-02
-1.133554132854164842e-01
-1.457863325408838284e-01
-1.759254995345841122e-01
-2.037615697077694854e-01
-2.283332254627915558e-01
-2.492982679341064212e-01
-2.666211135843949975e-01
-2.793962586657084413e-01
-2.879038312545043055e-01
-2.917389796845435979e-01
-2.904986276112999644e-01
-2.850164493969182256e-01
-2.745421460482188603e-01
-2.595538689519492070e-01
-2.405131928207065450e-01
-2.172843591251917006e-01
-1.907632351263051362e-01
-1.611254220660277570e-01
-1.288392879404383629e-01
-9.479256121384074807e-02
-5.924016337219928374e-02
-2.294932266543818489e-02
1.349586530670893181e-02
4.947158550790811682e-02
8.445728178801950592e-02
1.178285411635132951e-01
1.489847106484345485e-01
1.777488177510488931e-01
2.033039568062205982e-01
2.255423323539053060e-01
2.441586686151157592e-01
2.585425209893045806e-01
2.691720223297373038e-01
2.753446621929020455e-01
2.770907458129450718e-01
2.748607852350948844e-01
2.680701733893935956e-01
2.573676145804408844e-01
2.427562081640149694e-01
2.242091775241749352e-01
2.026706120632690844e-01
1.778627814434745325e-01
1.503923355401429462e-01
1.208179017041518671e-01
8.932330407855772203e-02
5.663018069158967660e-02
2.310891258760450206e-02
-1.067292858596632921e-02
-4.423191840981938183e-02
-7.698331197716745677e-02
-1.084189503663757770e-01
-1.381498784259236889e-01
-1.654289408263909800e-01
-1.901655655419393631e-01
-2.117037519058563300e-01
-2.295575153977469363e-01
-2.439689847261677924e-01
-2.540514580582619031e-01
-2.599857544549261656e-01
-2.617073828244387279e-01
-2.587789137875066148e-01
-2.518906276602674854e-01
-2.406462641160940219e-01
-2.253085055302863626e-01
-2.065362445716598383e-01
-1.841441342137810355e-01
-1.588951904184513486e-01
-1.311158844351561492e-01
-1.011852548191688600e-01
-6.989222195079575206e-02
-3.753134840964300611e-02
-4.795459185690825743e-03
2.782120393105164124e-02
5.970698786457673268e-02
9.037557934632356460e-02
1.193442627450775340e-01
1.459228666814578745e-01
1.701176939092431950e-01
1.911208814420375934e-01
2.087076365912064468e-01
2.228438195183467530e-01
2.328542170713280846e-01
2.390678520480444269e-01
2.411143951693254794e-01
2.387960996030314975e-01
2.327781992021015212e-01
2.224827634909158913e-01
2.084134263778936180e-01
1.908468786927845495e-01
1.697658392514964087e-01
1.459476372097404384e-01
1.194531415961764820e-01
9.081236839050103871e-02
6.066398008325017688e-02
2.931333275531601557e-02
-2.527087211442763381e-03
-3.440812499203303731e-02
-6.565221077040153674e-02
-9.581821719003116855e-02
-1.242831246892489305e-01
-1.504341261117902451e-01
-1.740799566667417531e-01
-1.944200108163226526e-01
-2.113329006114479380e-01
-2.244784986589273834e-01
-2.333110903144436366e-01
-2.382844358267846574e-01
-2.387559702196122569e-01
-2.348763368376775573e-01
-2.270338681309373996e-01
-2.149021782371309253e-01
-1.991930916192362622e-01
-1.800047687964557164e-01
-1.575579925748061272e-01
-1.328164235590543196e-01
-1.057272056839764773e-01
-7.702730876650884517e-02
-4.729064954846942670e-02
-1.688764513940803347e-02
1.349129045931503693e-02
4.344124595964763552e-02
7.240953243144759854e-02
1.000417102092177185e-01
1.258053698308080615e-01
1.493945569320796196e-01
1.705696234026371771e-01
1.887970057451189843e-01
2.042634200131612232e-01
2.164881695337375067e-01
2.252932165007567877e-01
2.310867841653287957e-01
2.332421580001121098e-01
2.321566171548672952e-01
2.278704143610126853e-01
2.200976018297824410e-01
2.096226241659549516e-01
1.960574290935406250e-01
1.796692494941177221e-01
1.610240266335683512e-01
1.398927726215162537e-01
1.168609742117047712e-01
9.214205789353448195e-02
6.590357285999520753e-02
3.873387970576187833e-02
1.079792747427765764e-02
-1.750071691129490015e-02
-4.576800189499247162e-02
-7.356344043036125435e-02
-1.006276290339573887e-01
-1.264621928891055402e-01
-1.505692175594401938e-01
-1.729886294398920998e-01
-1.928940696142202316e-01
-2.101763039032114588e-01
-2.246749830868806919e-01
-2.357210995406186227e-01
-2.436474551958651702e-01
-2.479342449891192290e-01
-2.483728198844989132e-01
-2.455074441496847837e-01
-2.387016222461138260e-01
-2.283786161264478864e-01
-2.147431471878563369e-01
-1.976445799448113827e-01
-1.778416645567451881e-01
-1.552959224779876801e-01
-1.303720773399001942e-01
-1.037329569130055473e-01
-7.551215790684712159e-02
-4.629336449933912911e-02
-1.653672566734576410e-02
1.333849879931880977e-02
4.288955590022375253e-02
7.160380111929054436e-02
9.908430024274161863e-02
1.250369966370903640e-01
1.488525949887269106e-01
1.704680699791626952e-01
1.894432435552386718e-01
2.053294939115201390e-01
2.184950164116670202e-01
2.281664069342500822e-01
2.344653631325600562e-01
2.375208318212967407e-01
2.368491741070939960e-01
2.330075161691958496e-01
2.257558178768647172e-01
2.150905844135118095e-01
2.017432442603843135e-01
1.853205960333120239e-01
1.663557866876149149e-01
1.451955182514687581e-01
1.218987176499995440e-01
9.712459703886205942e-02
7.104416218932829707e-02
4.405888908428418071e-02
1.667843581419475862e-02
-1.077066571738172218e-02
-3.786538961428259631e-02
-6.418664365233239799e-02
-8.925518562203249573e-02
-1.129056965860325279e-01
-1.345501022669141622e-01
-1.539053876496435935e-01
-1.709031186877017772e-01
-1.849171500509685928e-01
-1.960846349149323598e-01
-2.041120265599240813e-01
-2.086822829823871128e-01
-2.103181908615496531e-01
-2.084568114104171921e-01
-2.033659869219711924e-01
-1.953732358832340754e-01
-1.842290828922715229e-01
-1.705725075048724060e-01
-1.544445516066910717e-01
-1.360324298372973528e-01
-1.160940907060795113e-01
-9.455715655176018253e-02
-7.197368630170454529e-02
-4.878046215037698530e-02
-2.522286069227067107e-02
-1.797741849258502334e-03
2.117586391545627639e-02
4.334490997653274447e-02
6.443475368330009445e-02
8.405221534324730515e-02
1.020386653070580185e-01
1.181609172382380168e-01
1.320810239382117779e-01
1.439678900453010280e-01
1.534189644501385841e-01
1.603991596770906747e-01
1.651700874824152676e-01
1.672981613331074591e-01
1.671506091651815129e-01
1.647031350663559768e-01
1.598232960137216108e-01
1.531124312261988585e-01
1.442641841414176174e-01
1.335542778153300525e-01
1.213711613011526635e-01
1.075641158823161525e-01
9.259964378821647357e-02
7.659054815071070221e-02
5.966371327660396906e-02
4.225271600746416389e-02
2.441204981685081432e-02
6.419007262392070756e-03
-1.147196544706688415e-02
-2.902550334222031223e-02
-4.607699808749642773e-02
-6.233384285082485543e-02
-7.753322244235136274e-02
-9.169808381555293042e-02
-1.043500085038959468e-01
-1.154679271360541659e-01
-1.249403294431847833e-01
-1.323928927891668272e-01
-1.380603762323771022e-01
-1.415929278872471997e-01
-1.429047674094292564e-01
-1.423086993111001286e-01
-1.393937963832360682e-01
-1.344430350786370854e-01
-1.275207929815891372e-01
-1.185308909932086263e-01
-1.079309083115166656e-01
-9.563246127910277061e-02
-8.187090922806744553e-02
-6.701011571275114487e-02
-5.110652267163197371e-02
-3.452795121924681632e-02
-1.751272090426230638e-02
-3.269057634240207788e-04
1.675570013367096156e-02
3.344296739022006859e-02
4.946530877678865373e-02
6.465043051717000999e-02
7.861982220964158774e-02
9.131255701683010928e-02
1.024698472546698713e-01
1.117968635443954140e-01
1.195146599347901850e-01
1.251535198128050919e-01
1.287717577540620217e-01
1.304564938959599796e-01
1.299096828540948767e-01
1.274698490034962273e-01
1.230008200310939159e-01
1.164956183892998653e-01
1.084074183958008974e-01
9.850025780368534822e-02
8.709673923179953037e-02
7.441126411939209817e-02
6.047381698021961349e-02
4.568430098159263070e-02
3.013490283584429122e-02
1.406591695460293612e-02
-2.232223741944202450e-03
-1.856769208175190755e-02
-3.469256537112846983e-02
-5.038300590128627632e-02
-6.533084003686484564e-02
-7.947349461237396273e-02
-9.245419745379612753e-02
-1.040735051323326554e-01
-1.143489695283776142e-01
-1.228422876249988249e-01
-1.296379524794118443e-01
-1.345827299264308052e-01
-1.373806164965041265e-01
-1.384185060473563655e-01
-1.372767605142981018e-01
-1.340414170689195605e-01
-1.289741545208291928e-01
-1.217909384588267696e-01
-1.128680864475911094e-01
-1.022289975925020911e-01
-8.985695414240796319e-02
-7.627310642406939789e-02
-6.135644648726831796e-02
-4.538523147288128778e-02
-2.867389890449455192e-02
-1.132030435318901601e-02
6.375985440149372491e-03
2.417658656647003745e-02
4.185745504016399887e-02
5.924309982993151980e-02
7.599180128380719768e-02
9.197561522135939971e-02
1.070093904222817471e-01
1.207091343682618195e-01
1.332033665836179770e-01
1.440808844406894496e-01
1.531387654342112326e-01
1.606043997420949498e-01
1.659136248312519935e-01
1.692268082575839605e-01
1.704955737876964750e-01
1.693303877472298880e-01
1.662132144767161090e-01
1.607405448471248555e-01
1.529233254326463898e-01
1.431352936785104113e-01
1.310476022805805441e-01
1.169836476924127899e-01
1.010651706368100866e-01
8.325523001168858017e-02
6.401133478831386170e-02
4.336744273707139607e-02
2.156548319374126943e-02
-1.046005196544949611e-03
-2.419333263630896180e-02
-4.762878132345380738e-02
-7.093319454306901140e-02
-9.370136631710508646e-02
-1.158377506179381899e-01
-1.366652990206939089e-01
-1.559784613502624151e-01
-1.735462117670077686e-01
-1.887148293340774607e-01
-2.016276012980098287e-01
-2.117480717834535897e-01
-2.187338233588240755e-01
-2.229479586326709728e-01
-2.236935216768325130e-01
-2.211867970079411105e-01
-2.155244789296120456e-01
-2.063620385270012181e-01
-1.943388946107366955e-01
-1.792607267978902352e-01
-1.612953879372808486e-01
-1.410712030749698420e-01
-1.184966788749302891e-01
-9.408938615914988479e-02
-6.824228644647320485e-02
-4.118055049825256053e-02
-1.345006910088866747e-02
1.461260509432154436e-02
4.263611759597304290e-02
7.023490928637879382e-02
9.692130007275248649e-02
1.225151257294936069e-01
1.465630250567666604e-01
1.685796244302787961e-01
1.887781424343956405e-01
2.063532928475157180e-01
2.212592622170870549e-01
2.335160022175232220e-01
2.424514846690268288e-01
2.484748914801427344e-01
2.511785474373722238e-01
2.502772815760192504e-01
2.464433890019237516e-01
2.389640051325511438e-01
2.281778347262839457e-01
2.143318253280660224e-01
1.971293000690027830e-01
1.772233322489966401e-01
1.545440391588017437e-01
1.292873643218435675e-01
1.020526669926481722e-01
7.290512578616283046e-02
4.231308667371271037e-02
1.072647326299015769e-02
-2.142916118225333261e-02
-5.377202513797718630e-02
-8.568108363534508720e-02
-1.166789956692978192e-01
-1.464604264993265847e-01
-1.741944110600165685e-01
-1.997198139418306928e-01
-2.224868064602630868e-01
-2.418002526662832996e-01
-2.579737246497029179e-01
-2.700531565317594307e-01
-2.779781258061274074e-01
-2.818999442322793758e-01
-2.811508392090320552e-01
-2.762549501305524569e-01
-2.670184529027117559e-01
-2.533516211750148628e-01
-2.361441764400741272e-01
-2.150217800469201856e-01
-1.905935903365704731e-01
-1.633965860117893298e-01
-1.335944983668173880e-01
-1.019843865752921575e-01
-6.892581902443564723e-02
-3.496672128945356450e-02
-7.347225251261545187e-04
3.326416036123615305e-02
6.649970549351240379e-02
9.848545784863743657e-02
1.285720163234685964e-01
1.566189158124483560e-01
1.819450818024681005e-01
2.041662417799433027e-01
2.233623957173953567e-01
2.387341742372581233e-01
2.504747980892622627e-01
2.583627707118344441e-01
2.619517104306482436e-01
2.619373276395913219e-01
2.576817342565693170e-01
2.494314710484024644e-01
2.376709078932543462e-01
2.220321686851903231e-01
2.032292831596383409e-01
1.813444402007195477e-01
1.565542260982755451e-01
1.296873353227120385e-01
1.007146144160528667e-01
7.026023826011539020e-02
3.881039095996888927e-02
6.785349623908873765e-03
-2.527442196378364148e-02
-5.689000771786756339e-02
-8.743645136602466728e-02
-1.167018554273070441e-01
-1.438947180767882750e-01
-1.686987292105583125e-01
-1.908358742117262641e-01
-2.095456510177938214e-01
-2.250338921975012785e-01
-2.366665659318150650e-01
-2.441385776630989324e-01
-2.479170669659547244e-01
-2.472305702920404857e-01
-2.424889923067247988e-01
-2.337870141828348736e-01
-2.208701715402617560e-01
-2.045885937892056305e-01
-1.847056422560837408e-01
-1.616271795136252076e-01
-1.360414250600251174e-01
-1.079644138368672790e-01
-7.812147225609020196e-02
-4.689800999948894739e-02
-1.475942019040835107e-02
1.771292422919742982e-02
5.007430864926834535e-02
8.175082871897412784e-02
1.124170820355178957e-01
1.413612700345917017e-01
1.683713392635303452e-01
1.929700397128743805e-01
2.144767377623955917e-01
2.332411417084728211e-01
2.482928859107721431e-01
2.595735347698129858e-01
2.671766999059899672e-01
2.703596690913728784e-01
2.696327434141790880e-01
2.646152405180237643e-01
2.551122658015535505e-01
2.418944168017823082e-01
2.243847623845444672e-01
2.030962931039773933e-01
1.783850042730702468e-01
1.502520911264008108e-01
1.194686543915488147e-01
8.621965024983549442e-02
5.103453455721813914e-02
1.454656749309347907e-02
-2.275142333009155804e-02
-6.022737876389053224e-02
-9.730596947544367659e-02
-1.331812568534784247e-01
-1.675536683528305870e-01
-1.995313046826933112e-01
-2.285158436208704069e-01
-2.543553057348290625e-01
-2.760257623229132595e-01
-2.935375912773935392e-01
-3.064484987851596731e-01
-3.141082090904831481e-01
-3.171962856198559666e-01
-3.148577821788579034e-01
-3.073258534261932295e-01
-2.950752459042512155e-01
-2.777092099150078597e-01
-2.560825046591804766e-01
-2.303114149876014927e-01
-2.006543621392816723e-01
-1.681928977972389216e-01
-1.329383123609723938e-01
-9.570196857378482358e-02
-5.717039990226431556e-02
-1.783466318731263475e-02
2.156457081621906621e-02
6.044112093646382411e-02
9.812955663109891591e-02
1.342433543948677588e-01
1.679894438237388710e-01
1.990522845555580123e-01
2.270469378059258581e-01
2.512367376287428788e-01
2.719080421876245990e-01
2.882941044751695103e-01
3.001908358385831921e-01
3.080335737058206846e-01
3.109749778981500401e-01
3.095401526916851664e-01
3.036710350974451966e-01
2.930342805113657634e-01
2.786347860670317367e-01
2.599349598333419720e-01
2.373729829297546168e-01
2.116193297865183731e-01
1.824986026409838591e-01
1.508251290268154410e-01
1.168956428704754358e-01
8.106967472120338303e-02
4.413677926231796000e-02
6.414665467881514732e-03
-3.148031643665014090e-02
-6.899555252720579457e-02
-1.054685678195364518e-01
-1.405314315558795490e-01
-1.734818576634590825e-01
-2.036797852107415097e-01
-2.311320994485960567e-01
-2.548062609929890865e-01
-2.746267773725258321e-01
-2.903631953444871794e-01
-3.012809605836447302e-01
-3.079010315064368841e-01
-3.095896956419430524e-01
-3.062889251439308569e-01
-2.987087210436716322e-01
-2.862119902162289509e-01
-2.695086758067629096e-01
-2.488865494004419698e-01
-2.243320692806369254e-01
-1.969228112152052734e-01
-1.666435022791447340e-01
-1.340864342473119253e-01
-1.001048492567919862e-01
-6.490527188391281843e-02
-2.925182727868930188e-02
6.299672508553504080e-03
4.127867091968769747e-02
7.515483138861495105e-02
1.073783719947810772e-01
1.375931072241566300e-01
1.654727527308259283e-01
1.904481046016668067e-01
2.125953560680459986e-01
2.314447477834847278e-01
2.466801728952706663e-01
2.588434824577584559e-01
2.671195583328790368e-01
2.718536589609188425e-01
2.732161068975513807e-01
2.707579336174483209e-01
2.652487798344211889e-01
2.563708986129771827e-01
2.441916410407021232e-01
2.295409844432249047e-01
2.119194152210244764e-01
1.919182141589901858e-01
1.698604597830403462e-01
1.456963041814468562e-01
1.201239426953647216e-01
9.321227668232565100e-02
6.526333205613729649e-02
3.679880823620187286e-02
8.037570764017218372e-03
-2.067932177034004226e-02
-4.890800347592327846e-02
-7.626221635013719080e-02
-1.026085985980344228e-01
-1.272980931640362856e-01
-1.501215383653465851e-01
-1.709284849895464919e-01
-1.890398881899930106e-01
-2.046138384145474998e-01
-2.171951779376234959e-01
-2.264066952639292030e-01
-2.327617060185507292e-01
-2.354853364464288834e-01
-2.348278402705564760e-01
-2.309994043356066729e-01
-2.236248855698951266e-01
-2.133358968768713781e-01
-2.000287579065466725e-01
-1.838362697225929820e-01
-1.655058412152796421e-01
-1.448655960800303011e-01
-1.224810961718111046e-01
-9.877110924667720226e-02
-7.396104597340073805e-02
-4.861083119477460635e-02
-2.303736755028591016e-02
2.350772671918965884e-03
2.719692123403799622e-02
5.106085101617494071e-02
7.368862972123149668e-02
9.475537441097617308e-02
1.138229889761980806e-01
1.309746495595303650e-01
1.456806054517472138e-01
1.578152289376891226e-01
1.675282258695229287e-01
1.742748872823600692e-01
1.783638540543667772e-01
1.796405673424680827e-01
1.779022996926614697e-01
1.737417403087971879e-01
1.667194559679607835e-01
1.571473760363558125e-01
1.453615924675359938e-01
1.312085988496131117e-01
1.152445077260746686e-01
9.754049766170444502e-02
7.833590862066561189e-02
5.816465021830896642e-02
3.710520370553839486e-02
1.562114702894674967e-02
-5.980950099709524126e-03
-2.732421573257335853e-02
-4.809395596621346414e-02
-6.793323315447696853e-02
-8.641156394270309293e-02
-1.034683486433579519e-01
-1.185349920473263152e-01
-1.314843810181335615e-01
-1.421689662388091746e-01
-1.501359867921456537e-01
-1.556316347433605862e-01
-1.582755842052203099e-01
-1.579993614607453634e-01
-1.551754841413592600e-01
-1.494194124330878448e-01
-1.411254748895446609e-01
-1.304229034069997739e-01
-1.173058077800044896e-01
-1.023914543324300902e-01
-8.563882395454108787e-02
-6.742933838051072548e-02
-4.821932878036343240e-02
-2.815169926825218660e-02
-7.705222279293016951e-03
1.284052889926932256e-02
3.312982244362814438e-02
5.286971204621677273e-02
7.172250957154749362e-02
8.938700778950585402e-02
1.057242513514406179e-01
1.203054785285005840e-01
1.331333802077679096e-01
1.439521906195864454e-01
1.524490886566212677e-01
1.589762697853796536e-01
1.629984552452981017e-01
1.646366742761323221e-01
1.640372975223265417e-01
1.608572799362726902e-01
1.555364863893979321e-01
1.479102078760278771e-01
1.379719679153426637e-01
1.262347179534190067e-01
1.124324665332643997e-01
9.691128827176216654e-02
7.990729356428524777e-02
6.146195528287373699e-02
4.199377640880751217e-02
2.164610487715638160e-02
6.982865710621309618e-04
-2.054277016265258077e-02
-4.176019153417952212e-02
-6.269291772456536682e-02
-8.301900912513404673e-02
-1.022970061780448525e-01
-1.204915436884863578e-01
-1.370415253746731787e-01
-1.516939294894364409e-01
-1.644290286622003272e-01
-1.746377767267383307e-01
-1.824335244847405946e-01
-1.875568960628814785e-01
-1.896443322121107444e-01
-1.891853241743955971e-01
-1.856390080946814236e-01
-1.791801003094456723e-01
-1.701122051468938745e-01
-1.581916316790919763e-01
-1.439356881703424407e-01
-1.274213154012766580e-01
-1.087838900501646167e-01
-8.864940059238732295e-02
-6.704105552558352332e-02
-4.439015094393787553e-02
-2.110738280297327213e-02
2.527334999272550561e-03
2.613782815195484985e-02
4.934790669394473195e-02
7.180276218973595526e-02
9.332015125747350481e-02
1.133904771092276720e-01
1.318879554989399738e-01
1.485803215967181068e-01
1.629999345650701426e-01
1.753937589013096487e-01
1.852423826636778181e-01
1.924190904814446768e-01
1.972263894426394271e-01
1.990798301976980933e-01
1.983109193910677637e-01
1.948751865663888028e-01
1.884870123092427519e-01
1.798024811915288068e-01
1.684178014036400717e-01
1.545428487609170343e-01
1.386010333958370422e-01
1.204044905610727467e-01
1.004161990895162671e-01
7.880773404797335180e-02
5.573080495390558831e-02
3.166075318741411182e-02
6.781377745410134550e-03
-1.856370204710432181e-02
-4.402678810007597254e-02
-6.916694519636433502e-02
-9.378050641590505998e-02
-1.173695644488015888e-01
-1.394683023087140150e-01
-1.600975352068292890e-01
-1.784686869792532216e-01
-1.944758342701789766e-01
-2.079286245308030190e-01
-2.181788358271266048e-01
-2.255473953232938478e-01
-2.294870267305834655e-01
-2.298067160541711063e-01
-2.269630628756811874e-01
-2.203632431318452156e-01
-2.103966992143547210e-01
-1.972159661706882339e-01
-1.806748268508351907e-01
-1.615048905631085163e-01
-1.396346610135083544e-01
-1.154257196922554018e-01
-8.949100857063951864e-02
-6.197699914396095910e-02
-3.344370974626045823e-02
-4.336587293122695641e-03
2.492599121362484849e-02
5.391716833768073203e-02
8.211612211165431052e-02
1.091390167177508363e-01
1.346795568936255405e-01
1.581271343309943456e-01
1.794385244731687146e-01
1.981458556803832316e-01
2.138068214944898737e-01
2.267956121368944200e-01
2.363193238544994967e-01
2.425145504831361098e-01
2.454895734986363154e-01
2.447396953669949971e-01
2.408565568114000577e-01
2.335462392760982719e-01
2.227904073182189748e-01
2.093072884206001738e-01
1.926712033167296001e-01
1.733892337907441683e-01
1.517884756126987034e-01
1.278652891160763083e-01
1.022857484150100360e-01
7.517668981709813014e-02
4.689325207476335855e-02
1.795074061966578371e-02
-1.134462842726918774e-02
-4.060133961993117602e-02
-6.936771759267398862e-02
-9.715778349572898320e-02
-1.238298198143273354e-01
-1.487031274620707055e-01
-1.714860739529666112e-01
-1.920620627909455647e-01
-2.096958454670411198e-01
-2.245205226774815710e-01
-2.361196732910310070e-01
-2.440413321481244568e-01
-2.488634443249863604e-01
-2.497901270387177797e-01
-2.470434492707714869e-01
-2.408946575780046007e-01
-2.309424236015336085e-01
-2.178323468719563505e-01
-2.014981307267235677e-01
-1.820591406371918630e-01
-1.602835416333666108e-01
-1.360418957905425441e-01
-1.098960761353358073e-01
-8.229592997290946510e-02
-5.352640098166988603e-02
-2.413039408910826189e-02
5.495558854861783138e-03
3.487441046222922170e-02
6.368260797314448385e-02
9.131855163770419281e-02
1.175081765761751829e-01
1.418821295134180260e-01
1.638236867682525133e-01
1.834721159426019599e-01
2.001266726900282067e-01
2.135580786164214540e-01
2.239557641826749879e-01
2.305867548961718083e-01
2.337646847212310752e-01
2.333052546177711850e-01
2.288974289686032670e-01
2.212346984374530257e-01
2.098083124102405606e-01
1.949592823612920633e-01
1.771029938150573968e-01
1.561288489847328376e-01
1.326808881754356628e-01
1.069382818812189412e-01
7.928573500954841369e-02
5.032830791829435296e-02
2.036805518290976669e-02
-9.986253015308685366e-03
-4.031861789244915728e-02
-6.996467661219002432e-02
-9.856018878874034383e-02
-1.255244599378285697e-01
-1.501927362520270037e-01
-1.725639417965887934e-01
-1.917411806190639778e-01
-2.075690170192810435e-01
-2.198846835352182838e-01
-2.280096208717635742e-01
-2.323697204868965804e-01
-2.324494311168516236e-01
-2.281711727120781519e-01
-2.201306336081970128e-01
-2.078345777522564997e-01
-1.918724228641867091e-01
-1.724972246206615822e-01
-1.497576748980091466e-01
-1.245410480525719343e-01
-9.688114080628060232e-02
-6.735431530814793566e-02
-3.659713673946708712e-02
-4.935176692126119757e-03
2.698892829416281447e-02
5.873407279624694166e-02
8.969701220637960049e-02
1.195863492006776219e-01
1.477694406104465286e-01
1.738206388746985076e-01
1.976054260319961009e-01
2.183669174224243115e-01
2.361956172318791514e-01
2.506714104330016735e-01
2.612609064229268196e-01
2.685818001079803286e-01
2.717374039021391852e-01
2.709128302911072983e-01
2.663545276216675584e-01
2.575004109034038646e-01
2.450523793433890818e-01
2.287754213649971780e-01
2.086817902719505513e-01
1.855791585343717909e-01
1.591544376088880330e-01
1.299718591227845277e-01
9.847733066362898691e-02
6.485695191668179593e-02
2.978449616909996725e-02
-6.354947351878699469e-03
-4.303811142536973638e-02
-7.973855451528674698e-02
-1.157888919643164927e-01
-1.507631147331820742e-01
-1.840545700975006194e-01
-2.148916406285875935e-01
-2.432583425295102852e-01
-2.681743813133114496e-01
-2.892968192160333407e-01
-3.066118326797388494e-01
-3.191985897441543263e-01
-3.273540064847997311e-01
-3.307111312240995082e-01
-3.288422624083393586e-01
-3.226397253771566276e-01
-3.113587962712531243e-01
-2.954538403220479115e-01
-2.754765642810523274e-01
-2.512286102257696996e-01
-2.236256182239433898e-01
-1.928864056211366806e-01
-1.593786997871709521e-01
-1.240750622967335681e-01
-8.716527312945963890e-02
-4.934737070957562199e-02
-1.127088464817726371e-02
2.654973439075455216e-02
6.361462036399105624e-02
9.928564908534837086e-02
1.330632906861790032e-01
1.647597443709428178e-01
1.935643083404996467e-01
2.194380301894413021e-01
2.420362284230225258e-01
2.607295911975016089e-01
2.760493299341508777e-01
2.871797708357192724e-01
2.941099658488040558e-01
2.973130388871284557e-01
2.959970707097754339e-01
2.907997174463485823e-01
2.816218690322520590e-01
2.682072157306872873e-01
2.515521928552141295e-01
2.311101072924314215e-01
2.073472178754016126e-01
1.808211837348158157e-01
1.514350406009560834e-01
1.198964032707475758e-01
8.647487025143429928e-02
5.157026350646309876e-02
1.576893011803123801e-02
-2.048797653729378387e-02
-5.666427448025190827e-02
-9.229013502490530929e-02
-1.266016973013773250e-01
-1.593709555644526321e-01
-1.898301910411075988e-01
-2.173144620532386495e-01
-2.419250031062177841e-01
-2.625280119913894206e-01
-2.790897763014772992e-01
-2.913814403258431218e-01
-2.986171962286492954e-01
-3.013955265993969457e-01
-2.990388811737455521e-01
-2.915171575817494531e-01
-2.795594890362564922e-01
-2.625722717859758637e-01
-2.413072870487196209e-01
-2.160974404896708334e-01
-1.869962127845359312e-01
-1.551482379444949489e-01
-1.206198470458209604e-01
-8.408102785337001617e-02
-4.644219190908199790e-02
-8.030264968119038560e-03
3.035491140954710287e-02
6.807167038672612414e-02
1.045859736425876346e-01
1.393779121325866288e-01
1.718153905241595336e-01
2.015739100555858088e-01
2.283409827110831070e-01
2.515426759255843803e-01
2.713675444091442901e-01
2.873616539801575609e-01
2.992838355985151244e-01
3.078074025175847050e-01
3.121567745672784167e-01
3.127983032486112425e-01
3.100146239827520911e-01
3.033761822168504763e-01
2.938171681952246317e-01
2.810437762954212104e-01
2.651275112068884332e-01
2.470155899631884810e-01
2.261601692315530487e-01
2.031305736196600542e-01
1.783009099900398631e-01
1.514754443160735153e-01
1.233565774488810385e-01
9.396273755159037511e-02
6.342190513391265938e-02
3.228258604265704657e-02
6.568246245766129476e-04
-3.125073346544737785e-02
-6.292968742925048042e-02
-9.411509919041011196e-02
-1.247133055356795528e-01
-1.539752565463026746e-01
-1.817866816695530296e-01
-2.078771886196928431e-01
-2.314922434798568629e-01
-2.528021297915063470e-01
-2.711357080873075809e-01
-2.860302724771309757e-01
-2.979607849828939115e-01
-3.058856312740758643e-01
-3.100111307217323642e-01
-3.103928825785844947e-01
-3.064953879678736226e-01
-2.989316470794464164e-01
-2.874419863314562340e-01
-2.720898215981918389e-01
-2.536510039154907803e-01
-2.318678330901324247e-01
-2.073453029392377522e-01
-1.805797424010225360e-01
-1.517814296111247296e-01
-1.216745576585577249e-01
-9.065436685026295738e-02
-5.917917105750791773e-02
-2.784547476929055687e-02
2.868828530439904156e-03
3.260212454061706122e-02
6.082070048160215237e-02
8.708538793637521369e-02
1.113475231773345397e-01
1.329573741350658089e-01
1.518391597582026131e-01
1.679871516998570069e-01
1.808637201351583901e-01
1.908497469526578838e-01
1.976572702610761567e-01
2.011542218505610879e-01
2.020335463551167221e-01
1.997087946267212533e-01
1.946431756837998517e-01
1.871468508239417239e-01
1.769944193447852698e-01
1.648996400026965237e-01
1.507770878851185103e-01
1.348312197288487058e-01
1.177321441328548352e-01
9.928890884185348487e-02
8.001202115053548947e-02
6.017343570320138335e-02
3.995024208457575998e-02
1.973790019218607528e-02
-2.576485153406027351e-04
-1.971243700481167815e-02
-3.845805861307882711e-02
-5.610272051879072741e-02
-7.250169848916060422e-02
-8.744495662491003074e-02
-1.005305246740291203e-01
-1.119240432315875555e-01
-1.211556935368250931e-01
-1.281136263789536267e-01
-1.330200973166477674e-01
-1.353552940027519247e-01
-1.354243607661337334e-01
-1.331576484130410076e-01
-1.283606105953771781e-01
-1.216166703040309494e-01
-1.125980185160186942e-01
-1.015742428638284900e-01
-8.894876163049708628e-02
-7.460282662842887547e-02
-5.903974188390231914e-02
-4.241553179370310955e-02
-2.491628432727605036e-02
-7.024671637770624200e-03
1.116131008123470714e-02
2.930305030888294762e-02
4.713939396802147019e-02
6.439208997171327886e-02
8.088229875972505201e-02
9.635033985754962171e-02
1.104988567727428206e-01
1.234128107801653884e-01
1.346360419105074313e-01
1.441425880838033413e-01
1.519247411590026187e-01
1.575789505512824595e-01
1.613952959419158173e-01
1.630774656754978569e-01
1.624795288282002703e-01
1.600041435498703035e-01
1.551973953716140331e-01
1.482962074795098895e-01
1.394190571388246869e-01
1.283607660482698754e-01
1.155740525008758512e-01
1.009507866536627496e-01
8.461779175969183497e-02
6.695678296409697527e-02
4.797720051176147804e-02
2.797970857541422912e-02
7.250526476893296747e-03
-1.396794617666869548e-02
-3.541284419704618380e-02
-5.668778968802636042e-02
-7.751284468923641535e-02
-9.764096287460785617e-02
-1.165544838308333608e-01
-1.341598345170880169e-01
-1.500400325975600468e-01
-1.637578526981556815e-01
-1.755208505658365503e-01
-1.846377361580699428e-01
-1.911023697591155424e-01
-1.949444556839580733e-01
-1.957142770911061147e-01
-1.937745782075169787e-01
-1.889172607832581008e-01
-1.810867321475514435e-01
-1.708420336234515724e-01
-1.578977885390364932e-01
-1.426540438027096014e-01
-1.254402146300212517e-01
-1.063105599183732930e-01
-8.582888512729974773e-02
-6.418087828107872650e-02
-4.168802355978085128e-02
-1.881660907820087436e-02
4.167483420627865476e-03
2.692365235662341760e-02
4.909098407900064354e-02
7.030980816098678088e-02
9.045820083592623351e-02
1.090736978465954854e-01
1.259600477075688563e-01
1.410826568557650429e-01
1.539424311201368911e-01
1.646832205931502147e-01
1.730656973490443673e-01
1.787903053054658575e-01
1.823379337450490856e-01
1.831515088149146542e-01
1.814052720038457078e-01
1.773533545560380120e-01
1.706471826443005102e-01
1.617793580872249892e-01
1.506803749119646207e-01
1.373507867412171179e-01
1.224098882783740405e-01
1.056305589180674687e-01
8.738472140436304159e-02
6.800944683401953517e-02
4.758554868118322623e-02
2.653252152373714728e-02
5.092746384088235601e-03
-1.646339615261870060e-02
-3.782228999448039586e-02
-5.863021749403157096e-02
-7.867459559871932406e-02
-9.764044521496464957e-02
-1.151327387547366049e-01
-1.311751080649801449e-01
-1.452707362523316670e-01
-1.572456092821173657e-01
-1.671997427894499622e-01
-1.745938424116882104e-01
-1.796350850565566204e-01
-1.821918889506883299e-01
-1.819950717665504980e-01
-1.795702748354306988e-01
-1.745176528842077857e-01
-1.670252288588321421e-01
-1.574760036500550409e-01
-1.456421597643414723e-01
-1.320040925153096456e-01
-1.166793496517802842e-01
-9.974491381892175434e-02
-8.176308104362088602e-02
-6.272454976107735836e-02
-4.295158516987290093e-02
-2.278596144960052042e-02
-2.423597437507538435e-03
1.787499502352347253e-02
3.780393067183433764e-02
5.709259825281481904e-02
7.566093166525630909e-02
9.304840100998484909e-02
1.091749604815088759e-01
1.238733903310203777e-01
1.367150547754392709e-01
1.478947382023630686e-01
1.569715475410467520e-01
1.637748761790713548e-01
1.685771317756193655e-01
1.708165763236606793e-01
1.707196291796427290e-01
1.682488052159719638e-01
1.631473540780190856e-01
1.558749831858585733e-01
1.461555196944429591e-01
1.341506717173027163e-01
1.202005781025859144e-01
1.042203374637551833e-01
8.660040823571663049e-02
6.752852774586715068e-02
4.726201716217309085e-02
2.616315102457886232e-02
4.525056403029178997e-03
-1.725583647957282252e-02
-3.890275975169191214e-02
-5.989725582399368919e-02
-8.000569742219620917e-02
-9.881225752203148804e-02
-1.157974894584157532e-01
-1.310369984137710886e-01
-1.438323991317781991e-01
-1.540604907057541439e-01
-1.616632743477019463e-01
-1.661443044690893989e-01
-1.677724315422838286e-01
-1.662680009743868481e-01
-1.615547565874269897e-01
-1.540989774113184496e-01
-1.435964914896310785e-01
-1.304622398390376525e-01
-1.149401088249163844e-01
-9.714885129872699587e-02
-7.766760358295150823e-02
-5.664797847763747285e-02
-3.455468417925233737e-02
-1.181930556706234370e-02
1.120802662450678944e-02
3.404776506726522878e-02
5.638082430162766334e-02
7.767479007411547121e-02
9.774738737370838870e-02
1.161209404310702686e-01
1.324256639014756709e-01
1.466458688572731817e-01
1.582117335329109309e-01
1.671675820335424556e-01
1.733232117850911913e-01
1.763180937127908354e-01
1.766118521647768724e-01
1.737188092348857793e-01
1.678031653162189163e-01
1.591518340873306903e-01
1.475414453073100873e-01
1.334755765689873419e-01
1.169969528710241291e-01
9.828396809033809745e-02
7.791671295547858422e-02
5.592443903843050124e-02
3.279982614921253536e-02
8.896166954695389206e-03
-1.541183334866483290e-02
-3.971110513657108432e-02
-6.361903046209201051e-02
-8.663265715194107264e-02
-1.085747890814318523e-01
-1.288323943108350966e-01
-1.471600146371628559e-01
-1.633247316118948689e-01
-1.767400898508123264e-01
-1.875951077544894818e-01
-1.953703784089972917e-01
-1.998706541458047381e-01
-2.014181125777773362e-01
-1.994662021728118018e-01
-1.943516963968865696e-01
-1.861231658841613623e-01
-1.746157272633751256e-01
-1.605121289046884669e-01
-1.436110117480396964e-01
-1.242602488910122538e-01
-1.029531608960823630e-01
-7.975376401493156076e-02
-5.520106131825331525e-02
-2.959619589177535717e-02
-3.324962316928636863e-03
2.321180652992218402e-02
4.960543735976910562e-02
7.544047708887403891e-02
1.004531348572984539e-01
1.240369862726184991e-01
1.460907399567669407e-01
1.661480179690167647e-01
1.836897764125915988e-01
1.989706542022123270e-01
2.111685038705682915e-01
2.202764120447247009e-01
2.262791686463764829e-01
2.285724872642306282e-01
2.276079894701316109e-01
2.229675063532342016e-01
2.145584797139519773e-01
2.029165373997648403e-01
1.876123745212281424e-01
1.690909116308565441e-01
1.475801164872171944e-01
1.231557851117990876e-01
9.645080920101625765e-02
6.763487540805171450e-02
3.721735764776756133e-02
5.698252694416834803e-03
-2.640966362549217877e-02
-5.857309248751549347e-02
-9.026173886518745748e-02
-1.207293899220905908e-01
-1.497606125215231732e-01
-1.764959741926528936e-01
-2.004590842351174351e-01
-2.214641473053636234e-01
-2.386434636357290251e-01
-2.520589562063753064e-01
-2.612619816522494531e-01
-2.657787871141547020e-01
-2.662114228731725651e-01
-2.618325684635499639e-01
-2.529698869669231298e-01
-2.399684496670728140e-01
-2.226332568016053948e-01
-2.017642979390695257e-01
-1.774514775947412248e-01
-1.500902775714713089e-01
-1.205312014888779149e-01
-8.893096783819504081e-02
-5.604214357880357711e-02
-2.241154117887531050e-02
1.142226969870729046e-02
4.486746666341785011e-02
7.739300400063768570e-02
1.084055046661367150e-01
1.376318129975553917e-01
1.643605574270469716e-01
1.883933371384159949e-01
2.093976959976378560e-01
2.267759244372135052e-01
2.408833184815776240e-01
2.510210333356280299e-01
2.571527043273275637e-01
2.596087394748007315e-01
2.577821827386918563e-01
2.522173135277726574e-01
2.428209087356767437e-01
2.294712779319471041e-01
2.130469118731822542e-01
1.931346133027591616e-01
1.702628242309877638e-01
1.449114579864376473e-01
1.171424469667496360e-01
8.765537651029434163e-02
5.672341814428444318e-02
2.483348785474651793e-02
-7.473173558430858468e-03
-3.973437910336069523e-02
-7.141321557132479514e-02
-1.020807446146918818e-01
-1.310389576925402866e-01
-1.580879875312116711e-01
-1.825611894778370603e-01
-2.039383748559954190e-01
-2.222989056865765090e-01
-2.367640913445238637e-01
-2.473970641367083112e-01
-2.540186211877526468e-01
-2.561244622877545951e-01
-2.542988206497425185e-01
-2.480428504292317426e-01
-2.375375112291104873e-01
-2.233566292041548329e-01
-2.052234075692205284e-01
-1.838615147278978013e-01
-1.595351179573969991e-01
-1.325278704228304294e-01
-1.037024189522224027e-01
-7.323586525593506202e-02
-4.180858746361441891e-02
-9.997817709695801247e-03
2.170515642682190049e-02
5.272560699808069573e-02
8.257635202504233496e-02
1.106465179155456113e-01
1.367690478166139756e-01
1.602447109699131345e-01
1.808260435319499204e-01
1.983686056394327879e-01
2.122825399385930567e-01
2.228213522346614850e-01
2.295822311202916910e-01
2.323913855448607735e-01
2.318093874041972091e-01
2.272571857695847020e-01
2.191987865408124847e-01
2.078317862579993625e-01
1.930483792931312892e-01
1.756092952396170470e-01
1.554244543291051772e-01
1.329029850579038496e-01
1.086634273016488517e-01
8.277729998676100487e-02
5.588575441599792637e-02
2.833850586315652884e-02
5.790917106070613690e-04
-2.692293168270328690e-02
-5.374802575829432799e-02
-7.940391007188815631e-02
-1.036341581617072627e-01
-1.258284850921310427e-01
-1.458231864005841150e-01
-1.632430635328267765e-01
-1.775912596577758351e-01
-1.891490018400328599e-01
-1.972337939890879410e-01
-2.018870864348604466e-01
-2.032661815108242898e-01
-2.009323654836209783e-01
-1.953912004733505958e-01
-1.865021084547038854e-01
-1.743088311191759721e-01
-1.595424103367536484e-01
-1.419341170402328989e-01
-1.220609628133467461e-01
-1.003071845671777013e-01
-7.686919458656039927e-02
-5.239449249583642831e-02
-2.712916040441863685e-02
-1.574798507661012703e-03
2.384053720299170176e-02
4.870228264836670706e-02
7.258042144676604690e-02
9.516970007782610264e-02
1.159289052248895224e-01
1.348017103468513445e-01
1.512954945534517037e-01
1.651040424893363001e-01
1.763743352667752062e-01
1.844994654918638566e-01
1.896611061008702248e-01
1.917622180397314802e-01
1.904822791003056293e-01
1.864047653776008118e-01
1.791082779058079666e-01
1.688140525812082127e-01
1.559456878447715578e-01
1.402964920949301697e-01
1.224297336276550519e-01
1.024809650376809489e-01
8.065234972078912101e-02
5.755754148569548756e-02
3.328533580908879519e-02
8.324487135372548446e-03
-1.694839287512698439e-02
-4.213136057934296907e-02
-6.685106417788370947e-02
-9.070066309981078545e-02
-1.131791983442960448e-01
-1.341937800069222253e-01
-1.530885733980442698e-01
-1.696667496721664392e-01
-1.837548116231615403e-01
-1.947818433788046089e-01
-2.029719033030389364e-01
-2.078792113546248377e-01
-2.093280002294290454e-01
-2.077387475491307978e-01
-2.025968921233041176e-01
-1.942787523853572451e-01
-1.829371736285397287e-01
-1.684719753987484192e-01
-1.515738283200573910e-01
-1.321821761853911315e-01
-1.106671215692073273e-01
-8.760710051737297110e-02
-6.312332858109770406e-02
-3.777736408329290807e-02
-1.195192896212332601e-02
1.396582945024874012e-02
3.954992898665030121e-02
6.438267401712990945e-02
8.809031690058893860e-02
1.104112516870778687e-01
1.308344349827083031e-01
1.492974286023047159e-01
1.654343544000790034e-01
1.788658208958632256e-01
1.899339847862072106e-01
1.979764077540994427e-01
2.031207410987020678e-01
2.054875512427139228e-01
2.046645311209666640e-01
2.011607021831795516e-01
1.947522555567682279e-01
1.854359904531185377e-01
1.738429794180739174e-01
1.596125931198942305e-01
1.431949988002780283e-01
1.248703331002548600e-01
1.046545078563695941e-01
8.311116102601162625e-02
6.035256301333802309e-02
3.669891921616341701e-02
1.257738137065755879e-02
-1.174792198778229491e-02
-3.593013372130182681e-02
-5.960407317633167890e-02
-8.234900293283894945e-02
-1.040333229643988361e-01
-1.241046497166452267e-01
-1.422996811908476822e-01
-1.585347508841436492e-01
-1.722019706177180531e-01
-1.834019943815647646e-01
-1.918213591720868139e-01
-1.971039482681676558e-01
-1.997255941107609623e-01
-1.990903758620162500e-01
-1.953981209187558299e-01
-1.889328854488855070e-01
-1.793987711688436459e-01
-1.673722786486697423e-01
-1.528686385511477674e-01
-1.360033461893384032e-01
-1.175042711838421294e-01
-9.726748987290553816e-02
-7.578248173904497675e-02
-5.349037974164928821e-02
-3.057474215269370688e-02
-7.524999294584458487e-03
1.535174378435967546e-02
3.775084233573233056e-02
5.936196076197145649e-02
7.982768034162021631e-02
9.899118844298319952e-02
1.165923230918328862e-01
1.322995424511028417e-01
1.462620567556062456e-01
1.580477562482203724e-01
1.675930496438865491e-01
1.751238336440837928e-01
1.801519655518011853e-01
1.830005687872533482e-01
1.835945489780639317e-01
1.816906707930449616e-01
1.778921040709447454e-01
1.717679802374008080e-01
1.635031559165377457e-01
1.534753149332677702e-01
1.413892720897364230e-01
1.276822777231408634e-01
1.124172051595599131e-01
9.559322415104881676e-02
7.771025483194511640e-02
5.871121467882624290e-02
3.884674990607383388e-02
1.842829756648925801e-02
-2.366469533730583552e-03
-2.331787813870648401e-02
-4.408472016189717013e-02
-6.438799393930680348e-02
-8.413066536730551270e-02
-1.027731595620674232e-01
-1.202057943185792510e-01
-1.361839359383500148e-01
-1.502107969234982021e-01
-1.624313265376990389e-01
-1.723270613459788048e-01
-1.796895508702612831e-01
-1.847464118830329238e-01
-1.869132143048169437e-01
-1.864136636850830531e-01
-1.832152756950020667e-01
-1.770913396586674682e-01
-1.685450834355719518e-01
-1.573566394319658723e-01
-1.437501961085653757e-01
-1.281499620324190181e-01
-1.105360046518899242e-01
-9.137639401975611309e-02
-7.093916020130661138e-02
-4.951228966216501826e-02
-2.753801954095502075e-02
-5.320136410004706884e-03
1.675151464853048833e-02
3.836309533005656525e-02
5.906545693489582277e-02
7.865608856438766061e-02
9.675580219037760443e-02
1.129662450812972674e-01
1.273889033078888788e-01
1.394330493879690214e-01
1.490836923755178567e-01
1.563106388315093631e-01
1.607230806482454200e-01
1.626453413950396665e-01
1.618067722532599007e-01
1.581903457554836856e-01
1.522411354406761341e-01
1.436334183006495735e-01
1.327718333727296585e-01
1.198250673264961152e-01
1.048483959241261199e-01
8.836794262826375146e-02
7.043067695947102802e-02
5.141852559606674422e-02
3.170867267858165639e-02
1.153905183377875593e-02
-8.666409011770270440e-03
-2.863167389791098846e-02
-4.791847929950815432e-02
-6.633103604192346070e-02
-8.344361522730252279e-02
-9.892779029507281496e-02
-1.127139026788171183e-01
-1.242869066045695359e-01
-1.336672673197479289e-01
-1.406342671638706465e-01
-1.448600663629993068e-01
-1.467429800780951088e-01
-1.458121638944803733e-01
-1.422263686691950246e-01
-1.362412204531540660e-01
-1.276330870469217782e-01
-1.168942413355399113e-01
-1.040470576301957550e-01
-8.923043719386769546e-02
-7.303204171137506195e-02
-5.540063750248591656e-02
-3.678102703495668424e-02
-1.749464166405540616e-02
2.224420558614373031e-03
2.199114806613009301e-02
4.155523108168768243e-02
6.055754044702041372e-02
7.884465994792630439e-02
9.600906398888298110e-02
1.118767508380772158e-01
1.263016984191806524e-01
1.388374283697854927e-01
1.496700143961129936e-01
1.583820850329878960e-01
1.647834611478701250e-01
1.691612133018052244e-01
1.709665952744507944e-01
1.704279275197585486e-01
1.675260965262991841e-01
1.619409113682312995e-01
1.542186734304621387e-01
1.439983374541081718e-01
1.314028484848193401e-01
1.168066822349907996e-01
1.000233052268129919e-01
8.143450591509265868e-02
6.120776707742850431e-02
3.948396569728404581e-02
1.668151851366654614e-02
-6.990325240670086648e-03
-3.119238258477191605e-02
-5.559073557673608473e-02
-7.971845515527828385e-02
-1.033488278911523506e-01
-1.259883575866887206e-01
-1.471300935287818690e-01
-1.667699537355005202e-01
-1.841276668809526396e-01
-1.990430906745488948e-01
-2.113388741076918653e-01
-2.203744076107772010e-01
-2.264189485938884472e-01
-2.289941547411298850e-01
-2.279029494613207252e-01
-2.236010065157884585e-01
-2.155773382628287105e-01
-2.042076686987756018e-01
-1.897058020202740947e-01
-1.719860466413251632e-01
-1.517623062437691572e-01
-1.290584860805558121e-01
-1.042512386330304019e-01
-7.796296893124812777e-02
-5.039724350659159635e-02
-2.209545658698532089e-02
6.479511478984970041e-03
3.490566464114347456e-02
6.280067851928225475e-02
8.964224892827868385e-02
1.150892408883309320e-01
1.388835761276016323e-01
1.604496852689788478e-01
1.798011817638385801e-01
1.965205061626031091e-01
2.102147945233714954e-01
2.213126128310961005e-01
2.290634941204705288e-01
2.336433006655968814e-01
2.351944994570900893e-01
2.332489349580456062e-01
2.283985794611080589e-01
2.203781681910498003e-01
2.091762612212691441e-01
1.954894366039126863e-01
1.789100780754114273e-01
1.599155590929442483e-01
1.388153214938594449e-01
1.156088005239254424e-01
9.090114285289364882e-02
6.482717702701507045e-02
3.772001214470131064e-02
1.004235474193369143e-02
-1.788372751042316411e-02
-4.570517089905966335e-02
-7.299142158536200964e-02
-9.924831593824920417e-02
-1.243764084699309491e-01
-1.476913610917197361e-01
-1.689024763171159127e-01
-1.879328588763318486e-01
-2.040359424609104466e-01
-2.173552626977727220e-01
-2.275091467934110545e-01
-2.340385345285905250e-01
-2.375400873098725274e-01
-2.372499465474236513e-01
-2.333778422043833456e-01
-2.262389729566855745e-01
-2.154351663171089337e-01
-2.016061420417797900e-01
-1.847268183910205641e-01
-1.648966506630504814e-01
-1.428937289443868996e-01
-1.185966995277915742e-01
-9.253878435143884917e-02
-6.517890751247068515e-02
-3.678341476677271515e-02
-7.865261967656689279e-03
2.118262997389375180e-02
4.991258182866276094e-02
7.803135935672908530e-02
1.049494492829953496e-01
1.304196867674448090e-01
1.541022322308024939e-01
1.753861160660822316e-01
1.944326715803002537e-01
2.105598341838837984e-01
2.235232497715185507e-01
2.335455597858870358e-01
2.398731605034001291e-01
2.428005220637365347e-01
2.421651687167508671e-01
2.376095496759844106e-01
2.298150535295033214e-01
2.182700128776270398e-01
2.032555254724262017e-01
1.852010530380248376e-01
1.639542945014383357e-01
1.401212996835391467e-01
1.138969344977709963e-01
8.561616961973719797e-02
5.588822948699551096e-02
2.501483482128168817e-02
-6.421836392208522815e-03
-3.796911820651611980e-02
-6.897341002683717026e-02
-9.904906778971286907e-02
-1.275765562895496141e-01
-1.538959201068554883e-01
-1.779353266954828983e-01
-1.987883944238179601e-01
-2.162718173285214651e-01
-2.301473770432602428e-01
-2.397633983320779927e-01
-2.454605831874974997e-01
-2.467143699551740954e-01
-2.434798772625881846e-01
-2.362480120325265165e-01
-2.246029766748297851e-01
-2.091313838356320398e-01
-1.900452839829335772e-01
-1.675212626748458222e-01
-1.423854886835637101e-01
-1.147531822174680666e-01
-8.530559929618826420e-02
-5.463609464308736424e-02
-2.320432740425879686e-02
8.290752992340407954e-03
3.939135593055216600e-02
6.938996910329250922e-02
9.796289613706467281e-02
1.244513211643357709e-01
1.483845180689253584e-01
1.695941677152579263e-01
1.873850608745854796e-01
2.018042807624049750e-01
2.124748259809386142e-01
2.190277525708152206e-01
2.219675475481936444e-01
2.206466788737075913e-01
2.153842454108722271e-01
2.063861318271184020e-01
1.934722416748734242e-01
1.773366280880396828e-01
1.579167381886098231e-01
1.356000407523322293e-01
1.110435857338888388e-01
8.432937080915442474e-02
5.618335765815647004e-02
2.698440970821756532e-02
-2.717994860123099099e-03
-3.234585053381396763e-02
-6.144411108415516465e-02
-8.933230526495136714e-02
-1.157200481853798979e-01
-1.398855062057673682e-01
-1.614942070027908239e-01
-1.801963960802963616e-01
-1.953456133634847158e-01
-2.071436980927093829e-01
-2.149478513656111756e-01
-2.186658327230090459e-01
-2.185506565051897332e-01
-2.141340449361487375e-01
-2.059112467000646651e-01
-1.938794306191894135e-01
-1.780856618709085182e-01
-1.593683529307142188e-01
-1.375617689565778734e-01
-1.133078866439210519e-01
-8.712914478126856932e-02
-5.931313227838234947e-02
-3.059055103124645389e-02
-1.315397799130390601e-03
2.791329869537068770e-02
5.662945402123747973e-02
8.432688760806965333e-02
1.105129549964423280e-01
1.348945050668670376e-01
1.568457085624276326e-01
1.763249930352829564e-01
1.928522429458893184e-01
2.060573236393732355e-01
2.162202577304762063e-01
2.226698375717611200e-01
2.256160216759539039e-01
2.250733886610087886e-01
2.206873825538859246e-01
2.131187623536624498e-01
2.020135668414728136e-01
1.875866729561298518e-01
1.703974778062159467e-01
1.502403257411792648e-01
1.277245844169744293e-01
1.030878726236407611e-01
7.657340886115539258e-02
4.882416056204388205e-02
2.004198754881540354e-02
-9.245518483438526502e-03
-3.861901759756911079e-02
-6.756599708016060302e-02
-9.570532129219713746e-02
-1.225584578941956160e-01
-1.475126720168180583e-01
-1.705713960395849882e-01
-1.909102211631759638e-01
-2.083212606059695327e-01
-2.226892699136306941e-01
-2.333238037590787406e-01
-2.405135509771045288e-01
-2.438182934024453186e-01
-2.430043436541116098e-01
-2.386656727874021944e-01
-2.302093905304657406e-01
-2.180757571879037293e-01
-2.025376542214776532e-01
-1.835038578828597222e-01
-1.617517794142469545e-01
-1.373210293965155537e-01
-1.106374048868937060e-01
-8.237938903070360364e-02
-5.275632037255961748e-02
-2.239168591066164476e-02
8.252155475335976043e-03
3.866610296512013739e-02
6.843919773695139597e-02
9.702436041499822028e-02
1.239650512040585684e-01
1.490520338707609083e-01
1.716055318168732691e-01
1.915741538816440881e-01
2.085838350381613027e-01
2.221295258873971223e-01
2.326512000848267037e-01
2.393960581896456552e-01
2.424640963848052055e-01
2.420848631145288143e-01
2.377649902779701840e-01
2.300739043387249327e-01
2.188562449405813126e-01
2.041133526840949730e-01
1.866140658831052235e-01
1.660392244292565045e-01
1.429387929913786270e-01
1.177101166263157805e-01
9.052277312388834485e-02
6.201392082526008265e-02
3.247656306824493744e-02
2.416145947470610400e-03
-2.770237070120238482e-02
-5.736030669232601575e-02
-8.610468946547085445e-02
-1.134993028736284715e-01
-1.388966822213931473e-01
-1.621945295924552555e-01
-1.827101315082655664e-01
-2.000847044825800614e-01
-2.143678674842280363e-01
-2.248268574709755552e-01
-2.316504515598102609e-01
-2.346370284288460395e-01
-2.334632714944211984e-01
-2.287737759672805737e-01
-2.201032132669910879e-01
-2.077944119166691694e-01
-1.923347926996418211e-01
-1.736018173795816910e-01
-1.523294101548879342e-01
-1.287337689702539589e-01
-1.031633569096124109e-01
-7.639704156138898972e-02
-4.860046904808824897e-02
-2.040045485792389701e-02
7.733019101128647821e-03
3.534328387017214579e-02
6.199679320521038484e-02
8.726454173533118586e-02
1.106686897263648856e-01
1.321273896866174413e-01
1.510352107973173263e-01
1.672943729228964227e-01
1.807719647618747927e-01
1.910057130038773643e-01
1.983423732508620141e-01
2.023645630002906814e-01
2.030392241354298244e-01
2.008298258600109687e-01
1.952622046588062266e-01
1.868145004787123975e-01
1.755875058233258290e-01
1.615294395796960103e-01
1.453319716891330327e-01
1.268516979516803866e-01
1.064920335542279550e-01
8.472198891299426160e-02
6.163837912258349205e-02
3.777507704760171836e-02
1.341205701143793894e-02
-1.104392725167249734e-02
-3.524022527095926893e-02
-5.876658918520569208e-02
-8.122568759142122230e-02
-1.023879166587537554e-01
-1.216911071094857466e-01
-1.390457224262739433e-01
-1.540527486133308754e-01
-1.662871400616021678e-01
-1.760277533320077636e-01
-1.825962735941169812e-01
-1.860888642560225570e-01
-1.865677584535633260e-01
-1.836765045691332032e-01
-1.778853134994591301e-01
-1.690050478742404771e-01
-1.571542836268299270e-01
-1.428901673256384730e-01
-1.260527177626843409e-01
-1.071743985338516336e-01
-8.654792430276875281e-02
-6.443664347273614368e-02
-4.139700297431680998e-02
-1.768032589911117114e-02
6.207053963530217988e-03
2.991258528935897276e-02
5.297410675869396179e-02
7.501053929625164929e-02
9.570110767155873277e-02
1.145128533828813355e-01
1.314157114132286364e-01
1.458764359332074267e-01
1.576583373975055102e-01
1.668073351935520920e-01
1.728098164156586514e-01
1.758603524457393041e-01
1.757909769588811844e-01
1.724242255442412497e-01
1.662777784751620080e-01
1.569961723799375986e-01
1.449311004188726104e-01
1.303849363001809147e-01
1.133807252324649517e-01
9.449279893192186197e-02
7.387449608776833210e-02
5.193557198861528668e-02
2.919042769915505819e-02
5.908699113208404352e-03
-1.736144296395961129e-02
-4.027716927924648860e-02
-6.232155129424041262e-02
-8.317008544869941566e-02
-1.024015119570023530e-01
-1.195544449791142438e-01
-1.345805574588676556e-01
-1.469151234927354999e-01
-1.564945978253512449e-01
-1.632020769219370560e-01
-1.666814190378314020e-01
-1.672941547449837141e-01
-1.647287959956952874e-01
-1.590960887314705197e-01
-1.508156092274148818e-01
-1.396908738047410170e-01
-1.262484076815857947e-01
-1.106750889689391559e-01
-9.315040354109542509e-02
-7.432715512256531099e-02
-5.426489324566906303e-02
-3.344838429138931313e-02
-1.227872611798168367e-02
8.968333033418207645e-03
2.986954697160421057e-02
5.015406013739549806e-02
6.941640889060016195e-02
8.754519902415476562e-02
1.041198726308595057e-01
1.189441469434114884e-01
1.319745145226220995e-01
1.427693639706635875e-01
1.515028436569531844e-01
1.579086228225045352e-01
1.617588488807283065e-01
1.634938802703966854e-01
1.625905882826375048e-01
1.592803408762353545e-01
1.537054573462340867e-01
1.455980411992420231e-01
1.354587180770635002e-01
1.231226906626890494e-01
1.087018464283350250e-01
9.264101312129557897e-02
7.482425016993193845e-02
5.562478069558257632e-02
3.527222123218770600e-02
1.397812340672954790e-02
-7.916270256917934400e-03
-3.012541628909976010e-02
-5.228507451882519197e-02
-7.416690960360322604e-02
-9.525098401776538326e-02
-1.153307898478741766e-01
-1.340412563972018800e-01
-1.508259778934062934e-01
-1.658116613974614795e-01
-1.782948136646228532e-01
-1.880874609423375809e-01
-1.952379171119286716e-01
-1.991346986189002632e-01
-2.000313608770593055e-01
-1.977082128838100195e-01
-1.919273922304077784e-01
-1.832959463659375454e-01
-1.713975976427370429e-01
-1.565758201780495518e-01
-1.392057114451501487e-01
-1.192766256744565156e-01
-9.738670635572077572e-02
-7.375489055100659108e-02
-4.873399069979811316e-02
-2.288111396780118101e-02
3.496645104957452066e-03
2.993738835638043438e-02
5.602556492431376434e-02
8.127210369707899007e-02
1.054447376632230426e-01
1.280271821801561294e-01
1.486389543557812276e-01
1.672536807908361622e-01
1.832260267143875909e-01
1.965853026861361375e-01
2.071312502763408281e-01
2.144091071860211584e-01
2.188940987262275595e-01
2.200336586374620484e-01
2.178885454034240610e-01
2.128431377272262393e-01
2.044629868819998753e-01
1.932543895287016089e-01
1.792499441181780173e-01
1.624126421900329298e-01
1.434696457302576111e-01
1.222341519882828020e-01
9.912412909409046291e-02
7.458061147816136272e-02
4.876052857426022014e-02
2.214647602116953662e-02
-4.916928351873711689e-03
-3.202704129450245629e-02
-5.886482133888139290e-02
-8.490123219493730944e-02
-1.098259915619564375e-01
-1.333145971419506526e-01
-1.547613297425236845e-01
-1.741908123915495710e-01
-1.910143660137494093e-01
-2.048796602199172423e-01
-2.160240524683244845e-01
-2.236857897309665333e-01
-2.280585192439237296e-01
-2.290866629811987298e-01
-2.263609873120658311e-01
-2.205146359597945915e-01
-2.111585880183989850e-01
-1.984635715718754689e-01
-1.830112702455359563e-01
-1.645598814540078780e-01
-1.437077154730042883e-01
-1.207327013248605252e-01
-9.581727000444451026e-02
-6.964482509832653490e-02
-4.239175561822093596e-02
-1.452240091322836921e-02
1.351101700688116941e-02
4.129665918611655218e-02
6.849432609185235332e-02
9.466844065442639455e-02
1.193214020394475494e-01
1.424824991273629382e-01
1.634247231060694805e-01
1.820067043255939876e-01
1.981547654749276077e-01
2.112185430605387770e-01
2.215040512064428424e-01
2.285650377504618302e-01
2.321083467956427393e-01
2.327099933500730855e-01
2.296417947178570063e-01
2.232282987304619604e-01
2.136361272165828162e-01
2.005525062090001698e-01
1.846357149848300849e-01
1.657207439119091352e-01
1.440207873159796703e-01
1.201216315095867959e-01
9.400361457710307289e-02
6.619133407556299087e-02
3.706149432610465755e-02
7.008281504174998511e-03
-2.351652356765849411e-02
-5.401004409894523406e-02
-8.395526859758027649e-02
-1.130313490223927575e-01
-1.404838511096820064e-01
-1.660740864280690898e-01
-1.892949592091196509e-01
-2.094539550680303286e-01
-2.267802336684398845e-01
-2.403757496728400334e-01
-2.501190012084039127e-01
-2.561107280492117555e-01
-2.576873364110841003e-01
-2.552886994084932470e-01
-2.486871158001616733e-01
-2.377607400355763456e-01
-2.232990237809166501e-01
-2.049096800012872865e-01
-1.831511541279296773e-01
-1.584780321518619861e-01
-1.310428459075893282e-01
-1.015966686322194723e-01
-7.044618899533669487e-02
-3.816017854698910972e-02
-5.321030168061569032e-03
2.756237032408664911e-02
5.991508470651971119e-02
9.128030739172370012e-02
1.209531833475740586e-01
1.487400757115527328e-01
1.739643032280253909e-01
1.961541836460076738e-01
2.153412296195076625e-01
2.307123810867623970e-01
2.423607451492031384e-01
2.500471404602073733e-01
2.533071503012359615e-01
2.527329674179700225e-01
2.477325905658533112e-01
2.385349110325939437e-01
2.255614364618544476e-01
2.085507965768816363e-01
1.881903939596598074e-01
1.645989440118312830e-01
1.380913691924368081e-01
1.094440177989357416e-01
7.879097754960392996e-02
4.685805361301997873e-02
1.413483619483776876e-02
-1.877712758422552669e-02
-5.129029641471589962e-02
-8.286243730151372777e-02
-1.127378131307754661e-01
-1.407103626382392725e-01
-1.659193563086183709e-01
-1.880116352352679820e-01
-2.067340927758430646e-01
-2.213448979544145601e-01
-2.320749021206200968e-01
-2.383775993494559320e-01
-2.400582974438042749e-01
-2.376275193349735027e-01
-2.305170117821285225e-01
-2.192574444520027366e-01
-2.040518375734366174e-01
-1.849046208425322857e-01
-1.627163733396677081e-01
-1.374644024971432565e-01
-1.097570208481476184e-01
-8.027995047094711734e-02
-4.930601932308252555e-02
-1.760565777441213536e-02
1.439595268926419092e-02
4.606900111465937753e-02
7.695285996838191478e-02
1.065031663309038146e-01
1.341685187154051384e-01
1.597557635607669280e-01
1.825431221400285464e-01
2.024743158721233893e-01
2.191755094347376254e-01
2.320907417553029761e-01
2.417492000017755771e-01
2.473198120869208316e-01
2.489386471899447395e-01
2.468368760198153544e-01
2.404987367031347079e-01
2.305644616684479620e-01
2.168249609156964741e-01
1.993145917982913351e-01
1.788064055909181493e-01
1.549935996373787150e-01
1.284660711529561627e-01
9.961711705787122673e-02
6.866543105790574864e-02
3.628427170923029244e-02
2.802044600972185273e-03
-3.120249193048216241e-02
-6.524842548692166844e-02
-9.869999729459152937e-02
-1.310708708959419100e-01
-1.618468771839974008e-01
-1.902469324372315640e-01
-2.162035091680157839e-01
-2.388540240372941104e-01
-2.577923037939128803e-01
-2.730397204737700090e-01
-2.837299374748866732e-01
-2.900888054329880950e-01
-2.918386643074367126e-01
-2.885851218611202307e-01
-2.811263795216616401e-01
-2.688723190679552233e-01
-2.522480858069198750e-01
-2.318182437120341333e-01
-2.074768712773482626e-01
-1.800958035429734150e-01
-1.499600698912237073e-01
-1.174951759723663058e-01
-8.362182567415327172e-02
-4.860164081405849573e-02
-1.314330912941765427e-02
2.214997141738116876e-02
5.672277599048054786e-02
9.010629678703072076e-02
1.217168529554852469e-01
1.510421286660967310e-01
1.779754103783104946e-01
2.017681668107230153e-01
2.223878824014544620e-01
2.396154176690309945e-01
2.529045710235718891e-01
2.627709955259737717e-01
2.685990189416905816e-01
2.704112160676881427e-01
2.687368298707580871e-01
2.629571603749238928e-01
2.536863777946357090e-01
2.409576444888308355e-01
2.246436784058737368e-01
2.056281064665532732e-01
1.835890295282769924e-01
1.589833147591364071e-01
1.323442493217008575e-01
1.037062691378054513e-01
7.368706349602797967e-02
4.260150969776994867e-02
1.088119798638354993e-02
-2.102804129369937464e-02
-5.262054191253033586e-02
-8.344114541852912237e-02
-1.131174852586235013e-01
-1.409321990631262067e-01
-1.667625328641252347e-01
-1.899603082751257777e-01
-2.099759909936791402e-01
-2.270288414925923370e-01
-2.401570248834802856e-01
-2.494365468235169025e-01
-2.547790221711625502e-01
-2.556241660710187880e-01
-2.525594575786762053e-01
-2.451533157919541517e-01
-2.335131105235218052e-01
-2.183068534222184498e-01
-1.992167110359528426e-01
-1.769366591712397685e-01
-1.518029337111295451e-01
-1.240718338063686865e-01
-9.457155333296238253e-02
-6.354166136233097006e-02
-3.162869890923780680e-02
5.876892165035396687e-04
3.259605652802093079e-02
6.383694203416431789e-02
9.382332102648241468e-02
1.219168653120391577e-01
1.479658173206244987e-01
1.712658533721572174e-01
1.915222752981401433e-01
2.086541400590400386e-01
2.220146587941246308e-01
2.318295438830026423e-01
2.377570300478294429e-01
2.395414742949877329e-01
2.378249275293981557e-01
2.319921930647858010e-01
2.224781292309190861e-01
2.095651249404986705e-01
1.931324867109577570e-01
1.739268884674367854e-01
1.519536123117428972e-01
1.276104000436484587e-01
1.015815257782627518e-01
7.397773312809760582e-02
4.546932201350953329e-02
1.647201171453933910e-02
-1.252555896458108775e-02
-4.101753334661850658e-02
-6.853607157803057182e-02
-9.454486633888803393e-02
-1.187806280173223650e-01
-1.406040079600389403e-01
-1.598256039259139949e-01
-1.761043248209580858e-01
-1.889615740608963368e-01
-1.986575789672180292e-01
-2.046166660073901467e-01
-2.068966677450629343e-01
-2.057434671783425761e-01
-2.007984861790224063e-01
-1.926079954654263959e-01
-1.811595308189763720e-01
-1.665883507377109995e-01
-1.496640095367538503e-01
-1.302501231138258053e-01
-1.089759447288630029e-01
-8.628686101238478012e-02
-6.245019841827029877e-02
-3.811853373064695572e-02
-1.357596744210156497e-02
1.066237569039074629e-02
3.421148963379680441e-02
5.666802731162680351e-02
7.764377996592608522e-02
9.691029203103804224e-02
1.139975995785728891e-01
1.289028069890719719e-01
1.412545383934428189e-01
1.508260038254430890e-01
1.578575778783964934e-01
1.618547971185846368e-01
1.630602893009926446e-01
1.614775745862288003e-01
1.569182780709759695e-01
1.499299908666992254e-01
1.402544454343706282e-01
1.281638015150801668e-01
1.140786804567932855e-01
9.790885939829424567e-02
8.019418952014056856e-02
6.110121986850117204e-02
4.091720403762325042e-02
2.013351261981563556e-02
-1.069312388938578606e-03
-2.221991629216251915e-02
-4.303609237801989118e-02
-6.308890642543030225e-02
-8.208106401294996968e-02
-9.969284851819937288e-02
-1.154501282584285971e-01
-1.294061879890365530e-01
-1.409870738131485113e-01
-1.500753072696767720e-01
-1.566649827825385977e-01
-1.603195914698472002e-01
-1.613168324578220236e-01
-1.594375719587936557e-01
-1.546078273032336914e-01
-1.473322801443396335e-01
-1.373002803038463338e-01
-1.249118601345857171e-01
-1.104336341890393147e-01
-9.391675981337876955e-02
-7.593503001630338978e-02
-5.659980286570540087e-02
-3.627872919374429406e-02
-1.541620675076266211e-02
5.757695797602449539e-03
2.682796613068269553e-02
4.750169745163114465e-02
6.738015866717692037e-02
8.628733336171899582e-02
1.038302424071990554e-01
1.197196834879838689e-01
1.339350298017028540e-01
1.459844575190080151e-01
1.559218459017324698e-01
1.635633448896531006e-01
1.685682793487655040e-01
1.713511534928165436e-01
1.714204983284060013e-01
1.688795132462888593e-01
1.639759261358105236e-01
1.563939400202037089e-01
1.465565509567192948e-01
1.344353429326147487e-01
1.200583051079813779e-01
1.039721486488800750e-01
8.605207617755725180e-02
6.667565602998479224e-02
4.616267446901119176e-02
2.471656336998952208e-02
2.729333810612209754e-03
-1.949441256543180123e-02
-4.156863987959570628e-02
-6.324641376310674579e-02
-8.403539938532439413e-02
-1.036770466074479341e-01
-1.218865706483222011e-01
-1.381426618277734608e-01
-1.525008360780026329e-01
-1.644433213275384442e-01
-1.737300284541277717e-01
-1.805373149256841170e-01
-1.842978011626853485e-01
-1.852274795664235751e-01
-1.832728263381793732e-01
-1.781940116941800878e-01
-1.705543758039254898e-01
-1.600676181422741873e-01
-1.469874227413947299e-01
-1.317538695747040300e-01
-1.143018993089054136e-01
-9.515310790832566534e-02
-7.453704846881292756e-02
-5.271359416323927877e-02
-3.019280779431352674e-02
-7.192980599480279513e-03
1.587803968473904676e-02
3.869653656475131875e-02
6.084795109562371462e-02
8.210918537085566682e-02
1.021011418348826555e-01
1.204166799523978398e-01
1.371199015205136484e-01
1.515996483149127660e-01
1.638020867826585625e-01
1.736509678601093343e-01
1.806692991954373106e-01
1.851728245357754932e-01
1.867828898812713967e-01
1.853999794258241463e-01
1.814412547625939010e-01
1.744604181524525566e-01
1.648145668469365444e-01
1.526212629524109632e-01
1.378226943202782162e-01
1.209709349221639724e-01
1.020288248139089027e-01
8.133873933828633662e-02
5.932285263299943295e-02
3.618052305610799241e-02
1.237080218310374936e-02
-1.176423269397550153e-02
-3.576237533069172303e-02
-5.932924673592455261e-02
-8.194611176460207813e-02
-1.032142627802377505e-01
-1.229122064915779411e-01
-1.404263510605119614e-01
-1.556860796385777790e-01
-1.683032595606561987e-01
-1.778587277896594987e-01
-1.846763268962934856e-01
-1.881239250355809522e-01
-1.883371762884606393e-01
-1.854558792993258876e-01
-1.792041882494025407e-01
-1.700956994509045805e-01
-1.580580156637234612e-01
-1.432762547889293581e-01
-1.263616906576141563e-01
-1.072613084308662867e-01
-8.653111816660019606e-02
-6.452613683876123885e-02
-4.155582697502578637e-02
-1.815054209105769478e-02
5.393386173427064390e-03
2.860164078764942247e-02
5.117667524709908211e-02
7.265979416026263626e-02
9.276504789516622218e-02
1.112279802676909846e-01
1.275705687508227604e-01
1.418903994824237125e-01
1.536934853282257984e-01
1.628255864873224823e-01
1.694497847450286976e-01
1.730675492346808175e-01
1.739606351541291285e-01
1.720186906585867703e-01
1.670585885020204331e-01
1.596648396480329080e-01
1.494650416539699822e-01
1.367795253802082389e-01
1.219297573913269428e-01
1.048705624047254759e-01
8.611536925907191387e-02
6.579078973664602425e-02
4.421936111164964656e-02
2.182762247073987555e-02
-1.140885988503398396e-03
-2.423558242973596066e-02
-4.717881466722320671e-02
-6.944938328038482989e-02
-9.082570709201623349e-02
-1.108654588152722942e-01
-1.290683121639328856e-01
-1.454769097882652185e-01
-1.593870763010747371e-01
-1.707027287059033061e-01
-1.792915972330934582e-01
-1.846237007783421979e-01
-1.870293543796484048e-01
-1.860774961779911862e-01
-1.817203631968645761e-01
-1.743305772387072627e-01
-1.635696059661067570e-01
-1.498487576270594590e-01
-1.332983229556274352e-01
-1.140415081220522153e-01
-9.263402818123767091e-02
-6.917995643971891484e-02
-4.418972570567758495e-02
-1.803930622300636832e-02
8.805979688077447687e-03
3.585929908283197465e-02
6.271927484425893207e-02
8.868774231079218362e-02
1.136048702443232250e-01
1.367266037323170702e-01
1.576003825984237383e-01
1.760538758888041955e-01
1.913201050608502318e-01
2.033964853708230547e-01
2.118467431625069564e-01
2.162478701523546931e-01
2.169533174076718196e-01
2.133650364173058644e-01
2.057012831252496010e-01
1.941051727554856665e-01
1.784838117280288516e-01
1.594156796749049976e-01
1.369513869286045349e-01
1.115709960105796261e-01
8.383522419683031579e-02
5.410859274438040156e-02
2.312923715370540645e-02
-8.637421367633679736e-03
-4.040481820581659500e-02
-7.163790225355137764e-02
-1.016625173385879988e-01
-1.297009136651570693e-01
-1.554696617760736865e-01
-1.780934242368457099e-01
-1.972694203188721240e-01
-2.126233209195323159e-01
-2.235156875777566665e-01
-2.302492658962146665e-01
-2.322130823793846777e-01
-2.294676143398464152e-01
-2.223251439286096920e-01
-2.105315024660482925e-01
-1.947213809303089405e-01
-1.750147316903619688e-01
-1.517443924385364351e-01
-1.257634628273408550e-01
-9.718567596255978103e-02
-6.683226169746547818e-02
-3.523046706726196131e-02
-2.972682166366202861e-03
2.922480929660847826e-02
6.089435616309740729e-02
9.125489584660786968e-02
1.200036155648136760e-01
1.464224659219408309e-01
1.700731678633253807e-01
1.907334137245376149e-01
2.076951515387085445e-01
2.211182580622298166e-01
2.304949939189822883e-01
2.355731511499662423e-01
2.367743065309367012e-01
2.335080287604667237e-01
2.261887890038518922e-01
2.149185263637203858e-01
1.995741670703033988e-01
1.809676069254976261e-01
1.589177865006640711e-01
1.339206156131520220e-01
1.065704053222749359e-01
7.701766097551374091e-02
4.599281478271374790e-02
1.386698216273146884e-02
-1.877778534809571021e-02
-5.139962976157622099e-02
-8.346532714526599950e-02
-1.143510242723603521e-01
-1.437107906322389328e-01
-1.707656540211360541e-01
-1.952974006616271241e-01
-2.167731326629976085e-01
-2.345526492528808848e-01
-2.489340428056718846e-01
-2.590250067262027667e-01
-2.648643174358222274e-01
-2.665415367568297333e-01
-2.635133613524418550e-01
-2.564076635360308942e-01
-2.449590172215546646e-01
-2.292489789553774915e-01
-2.100863052447361767e-01
-1.871903843158296554e-01
-1.612520613972942829e-01
-1.327219431232797564e-01
-1.018400784615676874e-01
-6.943099957355944318e-02
-3.579764796206177935e-02
-1.541215875348715680e-03
3.276046654765888549e-02
6.657364415719982387e-02
9.940021274521709804e-02
1.307498934645823230e-01
1.599625235367911624e-01
1.869896748316501323e-01
2.110634536745628065e-01
2.318874992987512429e-01
2.494911952120535403e-01
2.630944237841349453e-01
2.729843563463340006e-01
2.788338402273209948e-01
2.802355424899487524e-01
2.780003217886908295e-01
2.713484830912682444e-01
2.606517712739110926e-01
2.463032443144975159e-01
2.279981788039414925e-01
2.065001646552560299e-01
1.818274359559796938e-01
1.542349010532052256e-01
1.245042895589491688e-01
9.267636204358829788e-02
5.937824274039580491e-02
2.510263299238255086e-02
-9.669239453640426918e-03
-4.443228075890695572e-02
-7.860906635455569558e-02
-1.116006119842778976e-01
-1.431341241642847262e-01
-1.723549499154173881e-01
-1.990130190505554619e-01
-2.226634303066353238e-01
-2.425612663648043510e-01
-2.589694502738233983e-01
-2.710534005440040084e-01
-2.786605346314961484e-01
-2.820719592915186813e-01
-2.805852916001083663e-01
-2.747092452962925924e-01
-2.643672629469535629e-01
-2.494633728007928930e-01
-2.309048205598938086e-01
-2.084009588049064998e-01
-1.825731346477199868e-01
-1.540283224571911413e-01
-1.229741351163098767e-01
-9.023759900211941742e-02
-5.623180092949692233e-02
-2.158649324180747509e-02
1.306989632627272857e-02
4.717467870188221668e-02
8.011159783487828423e-02
1.114430358332350879e-01
1.404407448913532752e-01
1.669168496677073121e-01
1.902689624489932729e-01
2.100113367149552546e-01
2.263400111380881596e-01
2.384485569564541718e-01
2.464960004508940372e-01
2.504234932423240467e-01
2.498249837496137049e-01
2.453589860608826334e-01
2.366219584591225666e-01
2.238660411945255224e-01
2.077066397249201224e-01
1.879071538202517766e-01
1.652149708627701497e-01
1.398795599360797004e-01
1.122281354879533649e-01
8.305487875645004014e-02
5.255213087556791229e-02
2.141327951725098544e-02
-9.863282058834632604e-03
-4.073548045724950661e-02
-7.065112408250701082e-02
-9.914667478168262549e-02
-1.255414925421091954e-01
-1.497272283867266407e-01
-1.709512895603822191e-01
-1.889296293670570948e-01
-2.035751426747871018e-01
-2.142366961081559606e-01
-2.211851181002867928e-01
-2.240689212727502710e-01
-2.226949130309335834e-01
-2.177331224708764501e-01
-2.086415849690385071e-01
-1.959405040195516534e-01
-1.799669024032129749e-01
-1.606986471826727381e-01
-1.389721699569980429e-01
-1.148591331525115472e-01
-8.884505352693998492e-02
-6.163653671049668797e-02
-3.342187021460348018e-02
-4.869249736914077475e-03
2.361865292907998348e-02
5.154375320748577627e-02
7.851010587050272216e-02
1.040751216288749448e-01
1.277806879749612823e-01
1.495259143884457298e-01
1.686934076187843745e-01
1.852492618855749729e-01
1.989610024482879047e-01
2.093426351538389685e-01
2.168689216389680929e-01
2.209058137595583393e-01
2.215137871610511622e-01
2.190349786575193081e-01
2.129658583756625367e-01
2.038452846727646650e-01
1.916057801790623794e-01
1.761682749588184271e-01
1.583279687892971688e-01
1.377464430872581413e-01
1.148903243445772854e-01
9.017827607084326347e-02
6.371856403253131629e-02
3.607075165881873380e-02
7.531362557915820093e-03
-2.146475531623253524e-02
-5.051165104456811078e-02
-7.910022678259684414e-02
-1.068281051130535730e-01
-1.333056188241835138e-01
-1.578763408702676119e-01
-1.804699546643914743e-01
-2.004265758228856165e-01
-2.173284409711020992e-01
-2.313050610950820318e-01
-2.415479517364809703e-01
-2.481957389929327906e-01
-2.511097469331721177e-01
-2.498477406267209933e-01
-2.450395644035519016e-01
-2.362310466842327816e-01
-2.236235455902081948e-01
-2.077921795893408752e-01
-1.885051152519296447e-01
-1.664356056270572259e-01
-1.418724307968469156e-01
-1.150429837003907885e-01
-8.675910861849236988e-02
-5.719438453194890248e-02
-2.690255247827718493e-02
3.557037383422129856e-03
3.376867664905146976e-02
6.328617900553581976e-02
9.161782252879613342e-02
1.182934018945602239e-01
1.431964151732745827e-01
1.656608822993824170e-01
1.855646024085874646e-01
2.027460877075177859e-01
2.166642367610041864e-01
2.276470025494291005e-01
2.352350415510646164e-01
2.392846149010138812e-01
2.403468577075763002e-01
2.377823267192549217e-01
2.320398651667922585e-01
2.232720388101688824e-01
2.112420959467054549e-01
1.967257440269526980e-01
1.795036120013702163e-01
1.598409167827024857e-01
1.383789069574246355e-01
1.149893704166488895e-01
9.022451793765257078e-02
6.441759273873640113e-02
3.777491984493228094e-02
1.080908638828244339e-02
-1.618769142282736745e-02
-4.288099823797127119e-02
-6.891188499627383390e-02
-9.383368995084792608e-02
-1.174994849527842139e-01
-1.394573127652042333e-01
-1.592948816171256277e-01
-1.771972921189507999e-01
-1.924125981944758979e-01
-2.049563488465188932e-01
-2.148238567885270012e-01
-2.214511453029897048e-01
-2.252634898427496868e-01
-2.259038349296699222e-01
-2.232170617340784036e-01
-2.178749069368947078e-01
-2.092956088110783375e-01
-1.979076172510471077e-01
-1.840059545827309462e-01
-1.674244076898727118e-01
-1.488504311217508647e-01
-1.282943018340961527e-01
-1.059949366531668657e-01
-8.257499647738253401e-02
-5.808170451143859769e-02
-3.294794913111974421e-02
-7.576707621990416003e-03
1.776247843882043306e-02
4.275580190927062707e-02
6.698531016727865550e-02
9.019557650907879254e-02
1.121978072184631747e-01
1.324828167431738868e-01
1.510618693209892227e-01
1.675906910151996887e-01
1.816823316339014338e-01
1.936811018136422868e-01
2.029172308820252346e-01
2.094446277417313651e-01
2.134252159898773760e-01
2.143369739437322175e-01
2.126133199157988485e-01
2.080493571210317305e-01
2.004975295727041418e-01
1.906242087399438179e-01
1.779721892580421461e-01
1.629097463653754740e-01
1.457553485381135605e-01
1.264570832963990421e-01
1.055361110169027450e-01
8.314928429983284297e-02
5.957680005703450132e-02
3.527994863080532312e-02
1.053280121188306107e-02
-1.429341496276576029e-02
-3.880446838292637979e-02
-6.255232019969918233e-02
-8.534472359336714442e-02
-1.066359104726858353e-01
-1.260937959067364444e-01
-1.436475409007446080e-01
-1.586575095366616062e-01
-1.711638572786537416e-01
-1.809042935846812972e-01
-1.875030419675374205e-01
-1.913610713623409287e-01
-1.919766341690770650e-01
-1.894873972322138889e-01
-1.842164954868526494e-01
-1.758724441320353993e-01
-1.649880558104084571e-01
-1.516263708888995754e-01
-1.359196659337960633e-01
-1.185382316120522223e-01
-9.943441913342410121e-02
-7.910367376244495374e-02
-5.794381387557313162e-02
-3.620200211111374022e-02
-1.434026212565869818e-02
7.353795913644739501e-03
2.847843201446419864e-02
4.882628181021114733e-02
6.797250436870394541e-02
8.569141829697678181e-02
1.018254796692344144e-01
1.159324714105627735e-01
1.281312603913046244e-01
1.380521908349100768e-01
1.454935020365731024e-01
1.507656998840997409e-01
1.533333304991366663e-01
1.534401927267438348e-01
1.511080799963600008e-01
1.460901615720442415e-01
1.389104325986392774e-01
1.293033531285095461e-01
1.174533777374063698e-01
1.037786698400191138e-01
8.813921712225003535e-02
7.099190830051368972e-02
5.251586866808309606e-02
3.292705359352592759e-02
1.266342464810409074e-02
-8.080528660982008726e-03
-2.890257248267585899e-02
-4.953036070723315643e-02
-6.953203355766129912e-02
-8.865597857439927454e-02
-1.065682226235743768e-01
-1.227788162616653134e-01
-1.373872279631794813e-01
-1.497676433607602331e-01
-1.597829071348103036e-01
-1.674680988044130736e-01
-1.722896800191553723e-01
-1.745366991573904514e-01
-1.739763150526258684e-01
-1.704055462476603555e-01
-1.644110405894293470e-01
-1.555462789223101550e-01
-1.441343691637098079e-01
-1.304856073241622838e-01
-1.144787302938620049e-01
-9.668890412305568283e-02
-7.718132248384848570e-02
-5.618511250601823659e-02
-3.420077823997252908e-02
-1.135161976220222524e-02
1.199292106693378157e-02
3.551182866999541554e-02
5.885603836299591052e-02
8.183960670452478103e-02
1.040328360527569274e-01
1.251106126761530324e-01
1.450344746625379933e-01
1.631776711979717187e-01
1.795351737669350078e-01
1.938380980208672111e-01
2.055199930115033657e-01
2.149930497333993329e-01
2.215218763616355613e-01
2.250103582331529350e-01
2.256899193927301428e-01
2.229192340146751716e-01
2.170457066244185218e-01
2.079178095741050503e-01
1.952945591175956619e-01
1.798073742934560015e-01
1.610955126168865381e-01
1.394760924025498783e-01
1.153252905412513463e-01
8.874663407389327130e-02
6.022629799597156719e-02
3.012465972900346678e-02
-1.082403442065227317e-03
-3.298776591070129438e-02
-6.493307787834379230e-02
-9.644596580423980825e-02
-1.270496320869258788e-01
-1.559048209770290683e-01
-1.828790966403924800e-01
-2.071537111357784067e-01
-2.281502977863937298e-01
-2.459413390401227195e-01
-2.595498547919131149e-01
-2.690268226951080255e-01
-2.741679301084171128e-01
-2.744120225409821257e-01
-2.703932642639228501e-01
-2.615821154788393610e-01
-2.481726940539912829e-01
-2.307420393528197000e-01
-2.090771753248646947e-01
-1.839053425781872197e-01
-1.555312289102952494e-01
-1.243087254962534638e-01
-9.108479930248319922e-02
-5.614657050323529353e-02
-2.021886850922843815e-02
1.613007988191089703e-02
5.223353958429682864e-02
8.755525374473394074e-02
1.215000330875177781e-01
1.533072018933511194e-01
1.829064844155430247e-01
2.093563938609863673e-01
2.323827858655925227e-01
2.518272073773418773e-01
2.668761105450433435e-01
2.778852856761991896e-01
2.842826575138910905e-01
2.858004380345181561e-01
2.830859132156757774e-01
2.753945251462444066e-01
2.632369030170619295e-01
2.468243571040853457e-01
2.259876052674558711e-01
2.016453494145384329e-01
1.736890182340176114e-01
1.426211094879953900e-01
1.091869670141376869e-01
7.357635488380379063e-02
3.656916989494032877e-02
-1.320924160490011268e-03
-3.945075357521352077e-02
-7.724270451475505339e-02
-1.140126801777140847e-01
-1.491070813655781535e-01
-1.821427210458507195e-01
-2.122224904143623081e-01
-2.391511785605986151e-01
-2.623415791400994790e-01
-2.810905488788594253e-01
-2.958340252880681254e-01
-3.055572245063958858e-01
-3.103603404972870017e-01
-3.104388905350963235e-01
-3.052165294767537063e-01
-2.954346931405069099e-01
-2.809036967259478934e-01
-2.617275524441061152e-01
-2.389177245656621817e-01
-2.121776893253431995e-01
-1.823023287577762996e-01
-1.498713860733264236e-01
-1.151520092168504816e-01
-7.905613949538833896e-02
-4.195804165493063898e-02
-4.484114390865323596e-03
3.272671392698767168e-02
6.912349623358217399e-02
1.041981532376508590e-01
1.374458846177288585e-01
1.682151950149729513e-01
1.964689901133711281e-01
2.214532968106045774e-01
2.428905963566923842e-01
2.608745979377485869e-01
2.746126028983086331e-01
2.844361325566174825e-01
2.900588386014001374e-01
2.911056514393376426e-01
2.883894603421220393e-01
2.811832692342262074e-01
2.698747759970698823e-01
2.548964654045049461e-01
2.359530304291051761e-01
2.138242050282139761e-01
1.885559834613947938e-01
1.604382895685212418e-01
1.302702145770881503e-01
9.811223400895829894e-02
6.464275988487311331e-02
3.034710637593457383e-02
-4.229704444241422223e-03
-3.856783454084983243e-02
-7.208511067129202976e-02
-1.041125139073883488e-01
-1.344335051340739273e-01
-1.621501542062089296e-01
-1.869927668646172436e-01
-2.085894761244409534e-01
-2.261898204127900103e-01
-2.400605781692896623e-01
-2.494703601135853654e-01
-2.542704197182703019e-01
-2.548399604690286813e-01
-2.505367579533198663e-01
-2.419051056677914424e-01
-2.289767773345095514e-01
-2.117547403595249622e-01
-1.911278004773330208e-01
-1.669575165535339134e-01
-1.399185839141463550e-01
-1.106296527155444798e-01
-7.940186018710826410e-02
-4.706471065971279399e-02
-1.403945723746227725e-02
1.895459189218959284e-02
5.138967389548272646e-02
8.265838782684233055e-02
1.121244018467973252e-01
1.394867804497655905e-01
1.639741186623550062e-01
1.854514346545432790e-01
2.034428140231836490e-01
2.174189819682346703e-01
2.277559262558398190e-01
2.336773987871421376e-01
2.353602942851469315e-01
2.329334784591992891e-01
2.260283146770475093e-01
2.153300823349559578e-01
2.006300474912249832e-01
1.821855558236573636e-01
1.607153934010799312e-01
1.360988955938115808e-01
1.090752268597176555e-01
8.001122404486937789e-02
4.932311253541246665e-02
1.772405964984696825e-02
-1.443788835078443911e-02
-4.646262948317944619e-02
-7.793349825001637254e-02
-1.081794517949230816e-01
-1.367306642240388448e-01
-1.631599386723959211e-01
-1.867120833276394998e-01
-2.074490894529489315e-01
-2.245846030563921902e-01
-2.378373116984182356e-01
-2.473208201211871959e-01
-2.523180457659317533e-01
-2.531796275643923289e-01
-2.497003420998033518e-01
-2.416368460178598687e-01
-2.298386951761036967e-01
-2.137969454823108184e-01
-1.940368727725774178e-01
-1.710467458687378595e-01
-1.448673076467015264e-01
-1.163009569446503133e-01
-8.560364318737956335e-02
-5.330741820522855168e-02
-2.007766360649587689e-02
1.367282607347086731e-02
4.730010347556179440e-02
8.036033709504086797e-02
1.121381858105873208e-01
1.423696623828240027e-01
1.704177796315272664e-01
1.956922203603393973e-01
2.182733018555566007e-01
2.372439841243990655e-01
2.526046277644402593e-01
2.641687233509300015e-01
2.712557590424362619e-01
2.744810863230221498e-01
2.731536976112456383e-01
2.672834942176497419e-01
2.574090181497727947e-01
2.429748301900913621e-01
2.246035577254434923e-01
2.024020332542675327e-01
1.764019303672323957e-01
1.474763783215870538e-01
1.155679694786196920e-01
8.129182423260872259e-02
4.521707281842024528e-02
7.791194722374883419e-03
-3.034215983510279990e-02
-6.862055245887593857e-02
-1.062602925694685480e-01
-1.429501779177032861e-01
-1.777245072011459648e-01
-2.100560340674485771e-01
-2.395801325732166698e-01
-2.652717294927606217e-01
-2.871846327407501787e-01
-3.045546924823291368e-01
-3.168048677156224957e-01
-3.244107819695232764e-01
-3.263688713096081773e-01
-3.229810417293770275e-01
-3.143708821124071018e-01
-3.001312638836898250e-01
-2.811851400817009794e-01
-2.573095675317830233e-01
-2.289115958379555060e-01
-1.968882727029249713e-01
-1.612764280080810630e-01
-1.229825797091816386e-01
-8.258837602876023531e-02
-4.068971663215970036e-02
1.870403326990344173e-03
4.448061094922245440e-02
8.636191334885962023e-02
1.269638576864471347e-01
1.654062798427503034e-01
2.012946202596716527e-01
2.339897953956828758e-01
2.626897248591941181e-01
2.876486753998795942e-01
3.077921502019055344e-01
3.230467720239381113e-01
3.334894311868735195e-01
3.383572281346142185e-01
3.382600658928613946e-01
3.328180026025128191e-01
3.219371098544823173e-01
3.065657244751267552e-01
2.861199006821326662e-01
2.613340607656893244e-01
2.326557170336653879e-01
2.001975548667898064e-01
1.649373100922095770e-01
1.270998282130335610e-01
8.738069421469751852e-02
4.654013731021433564e-02
5.107794232727780326e-03
-3.614202809662203641e-02
-7.660133862816520534e-02
-1.154179224366991274e-01
-1.522265284705077715e-01
-1.861435244007387801e-01
-2.165632660885834504e-01
-2.433429936611741784e-01
-2.654784940805856586e-01
-2.830342971714403522e-01
-2.955801040958494497e-01
-3.025623916884465636e-01
-3.047016005753631074e-01
-3.011901913624976945e-01
-2.923955466642988998e-01
-2.788204792688528944e-01
-2.601575093611601108e-01
-2.373834379597996591e-01
-2.106220153184370503e-01
-1.802728306431141680e-01
-1.474871350536267611e-01
-1.122874906381849947e-01
-7.562182394171923505e-02
-3.816090480071487878e-02
-4.457182120890523791e-04
3.672130552756280863e-02
7.281094433966472934e-02
1.071279261466243637e-01
1.392992669481216694e-01
1.686229496131433359e-01
1.947880256756087669e-01
2.174982892858974004e-01
2.361521551383409245e-01
2.510367394724951073e-01
2.615794179028546051e-01
2.677037288911635060e-01
2.698986469947268763e-01
2.675512139468524397e-01
2.612644485746731804e-01
2.511129218199764646e-01
2.369871078536874842e-01
2.198652855010323481e-01
1.994359643551486538e-01
1.762241560712121125e-01
1.509055858052328336e-01
1.234366293633399891e-01
9.459979639178472954e-02
6.470661810167688266e-02
3.411073808324038836e-02
3.488542502431357661e-03
-2.688551030305297296e-02
-5.653550186640354802e-02
-8.502883632674618219e-02
-1.119057528335005713e-01
-1.369497272121402709e-01
-1.596656918048628970e-01
-1.796943672156972038e-01
-1.971425608973464971e-01
-2.113167101639168433e-01
-2.223368824026343837e-01
-2.301073724871125492e-01
-2.342488937848701269e-01
-2.352689672800551968e-01
-2.327905811668213865e-01
-2.269463212563156418e-01
-2.183013101323414418e-01
-2.065081838636180223e-01
-1.921769303103397775e-01
-1.755166533763765635e-01
-1.566566312036483666e-01
-1.362969398814337652e-01
-1.144927443335963524e-01
-9.171737439890881305e-02
-6.842965541038781296e-02
-4.488649200841754450e-02
-2.153086768681555796e-02
1.321441477942553178e-03
2.325671798157280534e-02
4.413345942076896122e-02
6.348540481280995351e-02
8.109500138478908937e-02
9.690398397747612691e-02
1.104103318921350052e-01
1.217719491432145418e-01
1.306904898978418217e-01
1.369036048667986449e-01
1.408913544105021565e-01
1.420445864960071525e-01
1.406302491562443358e-01
1.367869868486493168e-01
1.302600093051586860e-01
1.215664781257106419e-01
1.105481796413250173e-01
9.739334722665349275e-02
8.257867106239569210e-02
6.599420383336918050e-02
4.813805791527792088e-02
2.920476921911463464e-02
9.515391063591671639e-03
-1.052692413416700390e-02
-3.067470225705126730e-02
-5.040784645293283628e-02
-6.956336764241566328e-02
-8.759397571317217857e-02
-1.041851519303366724e-01
-1.191241970984595749e-01
-1.318008861386829322e-01
-1.423188861565591323e-01
-1.501673766229605911e-01
-1.550792625071293340e-01
-1.572869893645884032e-01
-1.562511964111531482e-01
-1.522162610939092886e-01
-1.451949024957357448e-01
-1.349935608676315901e-01
-1.222487728286267838e-01
-1.067478454411063815e-01
-8.882205444807356187e-02
-6.896004356085594367e-02
-4.722112020727031734e-02
-2.417417208111105609e-02
-1.270102700945408003e-04
2.456213883349445126e-02
4.937590785195178356e-02
7.398936995718674581e-02
9.796788535215394944e-02
1.209676756904163319e-01
1.425245324166226624e-01
1.624437493122057319e-01
1.803256734725042776e-01
1.958055340255437926e-01
2.089592900435617295e-01
2.192420226058384713e-01
2.266770451879844828e-01
2.312160243459091546e-01
2.325187595184399214e-01
2.309606420897543089e-01
2.262639113847342287e-01
2.184935268541154940e-01
2.080527302539598722e-01
1.947344374818031909e-01
1.789596652658662634e-01
1.609210396434104240e-01
1.407735125034879076e-01
1.190245337467494835e-01
9.584307450533469108e-02
7.164701497714798251e-02
4.681345684772786342e-02
2.175447591169721306e-02
-3.170926789398897938e-03
-2.754192782657849392e-02
-5.083816730310175558e-02
-7.297339231910537904e-02
-9.326130614273875352e-02
-1.114685488122573176e-01
-1.274444506757479445e-01
-1.405782907624253397e-01
-1.510417986660144152e-01
-1.584237108484396472e-01
