BVP Green Neck Signal
6.910512540238797873e-03
6.535095005611644275e-03
6.559638041095180658e-03
7.249808044063731777e-03
8.871271411891628461e-03
1.168969454195319807e-02
1.595947758483927045e-02
2.182541026386069713e-02
2.937052907583602088e-02
3.863864328809311910e-02
4.955056328230756507e-02
6.200010377673582929e-02
7.580072361093236066e-02
9.067046007853396539e-02
1.063109522110897015e-01
1.223417690751733566e-01
1.383449136409868052e-01
1.538893533155367699e-01
1.685111663891936395e-01
1.817421773769332116e-01
1.931347974651941024e-01
2.022615012837336579e-01
2.087098802023009125e-01
2.121526514520823137e-01
2.122943229682145716e-01
2.088990196486896489e-01
2.018541429592553282e-01
1.910701667600219755e-01
1.765810615958822993e-01
1.585195519498320549e-01
1.370529076292422710e-01
1.124987959668468096e-01
8.522015676485115987e-02
5.564278059689738848e-02
2.429822995239190597e-02
-8.267041665199637707e-03
-4.145037456095680001e-02
-7.461231248194991061e-02
-1.071135006479700114e-01
-1.383173712236689112e-01
-1.675890136348260617e-01
-1.943379104274597091e-01
-2.180346095648413585e-01
-2.381676073451024223e-01
-2.543482642736862864e-01
-2.662535626352030560e-01
-2.736181195381788278e-01
-2.763482789369811621e-01
-2.743868379664253232e-01
-2.677993665385908217e-01
-2.567898896788915475e-01
-2.415907650763371717e-01
-2.225829574115179565e-01
-2.002118644787630741e-01
-1.749632604686883475e-01
-1.474200468383396467e-01
-1.181806076335935735e-01
-8.786488594945218722e-02
-5.711278118266099879e-02
-2.655700400266272632e-02
3.214267637537772393e-03
3.162876879921802664e-02
5.816407779559599339e-02
8.239542396278370928e-02
1.039172555080627031e-01
1.224394435727674535e-01
1.377594895357538984e-01
1.497102280873987001e-01
1.582723044920996414e-01
1.634686060471577107e-01
1.653908672555961523e-01
1.642407094918564014e-01
1.602363157217581435e-01
1.536701669620226529e-01
1.448808847504253761e-01
1.342178175303107013e-01
1.220659769510045317e-01
1.088181137696161149e-01
9.485989313476128615e-02
8.056772780552519386e-02
6.631214439280390394e-02
5.241885406068467340e-02
3.919087914237594922e-02
2.690630976346268521e-02
1.577285119567306201e-02
5.983664408024212157e-03
-2.323449245610591761e-03
-9.069982758550296231e-03
-1.419102849145315731e-02
-1.769299960229063842e-02
-1.961159589393513675e-02
-2.000676223804360998e-02
-1.899375465601393920e-02
-1.669703439056397995e-02
-1.326866486043131940e-02
-8.884975712278791321e-03
-3.725450318583276889e-03
2.018140616020422037e-03
8.150029544858860761e-03
1.447897608622357099e-02
2.082214964507027657e-02
2.699924228694545320e-02
3.285178147372137814e-02
3.823703107841152499e-02
4.302139193588859489e-02
4.710820166433320882e-02
5.041089963479251923e-02
5.286551306487442814e-02
5.444227046838016892e-02
5.511733698609293935e-02
5.489867593373095461e-02
5.381297795162273689e-02
5.189505873732425112e-02
4.920615555946386555e-02
4.581330813824739667e-02
4.179317223345677124e-02
3.723432556454932957e-02
3.222658524047277567e-02
2.686373781939405819e-02
2.124146804982484163e-02
1.545403524967619430e-02
9.591839404494982221e-03
3.744367185341504044e-03
-2.005354593282629612e-03
-7.580870798791301303e-03
-1.290779728732750417e-02
-1.792289000469390187e-02
-2.256724232167809860e-02
-2.678726407333286569e-02
-3.054086250317219337e-02
-3.378802277905795792e-02
-3.649846812402040425e-02
-3.865005197516982460e-02
-4.022347952655419556e-02
-4.121239850399931182e-02
-4.161455360657181218e-02
-4.143474609385167096e-02
-4.069019173031111769e-02
-3.940030027918461214e-02
-3.759623035816819087e-02
-3.531717636694755441e-02
-3.260550140073399661e-02
-2.951550105938541280e-02
-2.610451356279584051e-02
-2.243425542398462189e-02
-1.857273372778545095e-02
-1.458856482997831355e-02
-1.055154074900831185e-02
-6.532109178754502872e-03
-2.599075557516165348e-03
1.183968412110682905e-03
4.754685050439228997e-03
8.057860058848410542e-03
1.104666552593056711e-02
1.367655237571185206e-02
1.591642798871572770e-02
1.774131183405673953e-02
1.913195151430553340e-02
2.008355084878838542e-02
2.059400948105004694e-02
2.067069435226240662e-02
2.033012023499766729e-02
1.959070477215819894e-02
1.847988707161508926e-02
1.702841947086798993e-02
1.526952579659968806e-02
1.324148832017766481e-02
1.098336020723208843e-02
8.536549216365133322e-03
5.944329759588275891e-03
3.250446489120748829e-03
5.006071871584329841e-04
-2.258894879738436619e-03
-4.980953070551240834e-03
-7.617103966792764837e-03
-1.011872718336409918e-02
-1.243687137005084625e-02
-1.452237040332715265e-02
-1.632663003153738898e-02
-1.780320447362286965e-02
-1.890623118311499096e-02
-1.959341081693555253e-02
-1.982730303433651725e-02
-1.957185450608293908e-02
-1.880035034109060407e-02
-1.749101924824990675e-02
-1.562687786614357782e-02
-1.320509039760552061e-02
-1.022585816903123779e-02
-6.701041458993938806e-03
-2.655536213983781223e-03
1.882673438776765427e-03
6.868732465466873167e-03
1.225053256113653281e-02
1.796985550178050242e-02
2.395389483807705902e-02
3.012731487228450036e-02
3.640711015889735308e-02
4.270323640416530397e-02
4.892466945964491637e-02
5.497639324842187175e-02
6.076202212104765688e-02
6.618612335121144830e-02
7.115511745252679765e-02
7.557606556266034670e-02
7.936221660872669337e-02
8.243147681360246670e-02
8.470483980047149863e-02
8.611642792623956655e-02
8.660415241753603721e-02
8.611650245180056673e-02
8.461870281236319458e-02
8.207953448477699199e-02
7.849043884288101069e-02
7.385680658740674531e-02
6.819321950325586690e-02
6.154588715637580865e-02
5.396852803106730323e-02
4.553626651743700876e-02
3.635193793909521215e-02
2.652363121563620571e-02
1.618816822513025402e-02
5.496777243024458630e-03
-5.392225848583144347e-03
-1.630086974220491466e-02
-2.704770800525978236e-02
-3.745025522225126080e-02
-4.732492266176358681e-02
-5.649116466018516691e-02
-6.478887894818347037e-02
-7.206632858165644417e-02
-7.818953573546422176e-02
-8.306475595532882006e-02
-8.660615619192851833e-02
-8.877086032201336740e-02
-8.955343404408183661e-02
-8.896068988383727671e-02
-8.705690793599417387e-02
-8.392532006836365965e-02
-7.967278539427946615e-02
-7.444961950842068910e-02
-6.841253607148940763e-02
-6.174138923404763613e-02
-5.463256565701817696e-02
-4.728329042055948866e-02
-3.989279004754326535e-02
-3.266056343409006607e-02
-2.577243706442029769e-02
-1.939371594526865389e-02
-1.368409463528997769e-02
-8.763339737251962802e-03
-4.727908743318584052e-03
-1.657056433662452803e-03
4.260833168768050211e-04
1.511062355757119592e-03
1.623914131675073362e-03
8.355133288507786068e-04
-7.749661808297411345e-04
-3.084569577822345206e-03
-5.949550534816587348e-03
-9.215312924984179338e-03
-1.269873629577024376e-02
-1.621178317156726778e-02
-1.956111255648521757e-02
-2.254803422762133303e-02
-2.497610386706213687e-02
-2.666428459822317576e-02
-2.743753492677063199e-02
-2.713726831966061653e-02
-2.564019493163659930e-02
-2.283015512992484300e-02
-1.863386515299397458e-02
-1.301353073182176176e-02
-5.945351449221296207e-03
2.530830853794924055e-03
1.235523297912753671e-02
2.343546068113116360e-02
3.562225578019801581e-02
4.875705754183815022e-02
6.263662963963420593e-02
7.702744518052866141e-02
9.168725539111675926e-02
1.063418610912325452e-01
1.207091861985407355e-01
1.345049631677004420e-01
1.474418031730566347e-01
1.592346995457851744e-01
1.696235756640601944e-01
1.783621562560479545e-01
1.852221670802806364e-01
1.900312290479306832e-01
1.926295104581318141e-01
1.929078692320515542e-01
1.908163288605500552e-01
1.863189267465719945e-01
1.794587011501560525e-01
1.703142388131128615e-01
1.589934600591018377e-01
1.456775874862652476e-01
1.305610862278231421e-01
1.138791070377716819e-01
9.590577741569365766e-02
7.692119271968039795e-02
5.723114970084240694e-02
3.715072974776219977e-02
1.699242356537683518e-02
-2.936568974053034055e-03
-2.233146113195386487e-02
-4.091481533017981426e-02
-5.843068905169331029e-02
-7.463524880858901644e-02
-8.933815030894806664e-02
-1.023650069810112528e-01
-1.135743594812034934e-01
-1.228791918888733209e-01
-1.302020736102353915e-01
-1.355174431960057269e-01
-1.388331055207272513e-01
-1.401714624192425818e-01
-1.396068351633128757e-01
-1.372261245041525579e-01
-1.331411597484440656e-01
-1.274974704387314972e-01
-1.204460160177433375e-01
-1.121648049493689514e-01
-1.028460314110256069e-01
-9.268796326072001324e-02
-8.190644234252159039e-02
-7.072066219365090445e-02
-5.935322137527633546e-02
-4.803049296824553338e-02
-3.697769260323256063e-02
-2.641062248888790404e-02
-1.654104853492737587e-02
-7.569863803281318658e-03
3.278404315648726294e-04
6.982459658416756768e-03
1.225830267738217162e-02
1.605053574178577289e-02
1.826636351760852622e-02
1.887297710438158929e-02
1.785835184763834640e-02
1.524363637765083906e-02
1.111379349421663491e-02
5.564849401770459968e-03
-1.252726902262197260e-03
-9.147843344115662301e-03
-1.791714329453977794e-02
-2.730790777037206407e-02
-3.705375448422520979e-02
-4.687729288240290865e-02
-5.648386891511490704e-02
-6.557864318468298315e-02
-7.388105383076132293e-02
-8.111925154703630847e-02
-8.703624505014993795e-02
-9.142638928122751030e-02
-9.409649961778877858e-02
-9.490190663397790605e-02
-9.376020507601363907e-02
-9.060280576030468880e-02
-8.544219158583073181e-02
-7.833113930939296365e-02
-6.935051570826458733e-02
-5.865872574505610892e-02
-4.642909789096631018e-02
-3.287314591598459318e-02
-1.824258667776595608e-02
-2.794042920854175084e-03
1.319631438121332025e-02
2.944449173837010783e-02
4.567272334256427396e-02
6.161728881415427100e-02
7.701821716174372945e-02
9.164838950609326129e-02
1.053090760126643988e-01
1.178135594440113676e-01
1.290324596538708624e-01
1.388551904940386050e-01
1.472003811276720309e-01
1.540399220556967486e-01
1.593543606075541741e-01
1.631638901617039061e-01
1.655167833211473316e-01
1.664688019210952274e-01
1.661041159959351088e-01
1.645142938312497971e-01
1.617953653167918115e-01
1.580499985676663832e-01
1.533806642485184280e-01
1.478824113586478528e-01
1.416459941018163027e-01
1.347571573958410707e-01
1.272853555613773779e-01
1.192963972781497378e-01
1.108458072648340759e-01
1.019765783076565790e-01
9.272984696620700795e-02
8.313818159125480056e-02
7.323012265685288624e-02
6.303437000082492969e-02
5.258010496930419497e-02
4.189688873580275918e-02
3.102121608203257594e-02
1.999651539791300753e-02
8.868989190489911037e-03
-2.299967193189628341e-03
-1.344314935458749277e-02
-2.448601494527163913e-02
-3.533843700757164502e-02
-4.590772260139470290e-02
-5.609175961607638927e-02
-6.578070637621202810e-02
-7.486403129364267717e-02
-8.322895363364189725e-02
-9.076207492660305631e-02
-9.735546834557515239e-02
-1.029106652401667460e-01
-1.073318015611203630e-01
-1.105434886714414672e-01
-1.124840996093500051e-01
-1.131013610162344973e-01
-1.123783305595278947e-01
-1.103071608116505814e-01
-1.069045619576092510e-01
-1.022219179431108904e-01
-9.631713833051408491e-02
-8.928488012415913833e-02
-8.123995603410082145e-02
-7.230753606803089206e-02
-6.264425935144128654e-02
-5.241319906355143554e-02
-4.178817839836081877e-02
-3.095546058421116964e-02
-2.010159345039435122e-02
-9.410124279618355125e-03
9.367577980669639440e-04
1.076544690594243188e-02
1.992369343998019390e-02
2.826381460267616760e-02
3.566539896621698930e-02
4.203393772520729044e-02
4.728355295668666691e-02
5.137233711983955897e-02
5.427429460616498003e-02
5.598387580019160981e-02
5.653666456266245866e-02
5.597507156135923118e-02
5.437030896465853275e-02
5.181603058623403257e-02
4.841110824528831874e-02
4.427565782138198625e-02
3.953592765852135399e-02
3.432072546708469368e-02
2.876305282459360596e-02
2.299558075282361058e-02
1.714275007088483793e-02
1.132375354644716420e-02
5.652603067563348113e-03
2.246566684362353433e-04
-4.869316389462522397e-03
-9.551979887991189633e-03
-1.376400048970959078e-02
-1.744946941812296898e-02
-2.057152196103226652e-02
-2.310319300078117824e-02
-2.502336278603434216e-02
-2.632776792869254145e-02
-2.701553636896346366e-02
-2.709470026147198229e-02
-2.658307777245312586e-02
-2.550035962308403598e-02
-2.387567283198210530e-02
-2.174212773984656247e-02
-1.913619544241895384e-02
-1.610222649124754685e-02
-1.268600536462459460e-02
-8.939104664064410899e-03
-4.918318502656002407e-03
-6.818392992987863319e-04
3.705550136800194166e-03
8.176820238195837628e-03
1.266313025534811058e-02
1.709218814554895952e-02
2.139141206858298505e-02
2.548960358195909159e-02
2.931658756264116789e-02
3.280425504197250625e-02
3.589333686085851433e-02
3.852709977907609051e-02
4.065755395583068449e-02
4.225030151143099183e-02
4.327379263430663342e-02
4.371433008538885834e-02
4.356901391318362959e-02
4.284115968785729561e-02
4.155501431104625248e-02
3.973963295651883332e-02
3.743507256349082324e-02
3.469538812620327761e-02
3.157673371383815097e-02
2.814509226808641768e-02
2.447128450346210474e-02
2.062701837838076119e-02
1.668635987023480566e-02
1.272365013713023726e-02
8.810030591916769016e-03
5.013302614301594698e-03
1.399855539113853582e-03
-1.972040358645643122e-03
-5.047363284204325028e-03
-7.774913784984142408e-03
-1.011198641858663400e-02
-1.201736533693622405e-02
-1.345589285248749087e-02
-1.439760155760052771e-02
-1.481409133387088725e-02
-1.468413303427491129e-02
-1.398883465875348439e-02
-1.271369727867658825e-02
-1.085216007833938318e-02
-8.399316190188136494e-03
-5.360973949095214526e-03
-1.750464875077159359e-03
2.414261104084821502e-03
7.097048161758590795e-03
1.225684796678967563e-02
1.783942764610500775e-02
2.377110843088541675e-02
2.997446110947418751e-02
3.635027785008541207e-02
4.278686132283042454e-02
4.916628463667629956e-02
5.535082821447701029e-02
6.119859219514801885e-02
6.656234441433583893e-02
7.128841059955662307e-02
7.522391124822419561e-02
7.822508371828622298e-02
8.015243536831916094e-02
8.087774463324826080e-02
8.030214420226776395e-02
7.833303106830032114e-02
7.491257753271429731e-02
7.001743406601272646e-02
6.363508565347084089e-02
5.580993549204524284e-02
4.660794141990557554e-02
3.612074294063483126e-02
2.449402681670187834e-02
1.188253160555189855e-02
-1.523084561717981227e-03
-1.550294037255632584e-02
-2.983141634644682905e-02
-4.425929047515928666e-02
-5.853024621812062678e-02
-7.238937702415418340e-02
-8.558419445978021622e-02
-9.786442102923278985e-02
-1.090037546899132598e-01
-1.187918670470090726e-01
-1.270310641738729984e-01
-1.335711196621386654e-01
-1.382739588588158819e-01
-1.410359307186954125e-01
-1.418015667852584039e-01
-1.405247770477123792e-01
-1.372132757701119699e-01
-1.319040272934070002e-01
-1.246514789187903455e-01
-1.155628634583593384e-01
-1.047564511686435856e-01
-9.237858446309463178e-02
-7.860781288379593834e-02
-6.362802075535077539e-02
-4.764892952684170180e-02
-3.089166218459791363e-02
-1.358164721278588144e-02
4.045189387299898132e-03
2.175152172925163066e-02
3.930395713000629093e-02
5.647280676955004908e-02
7.303196716804427613e-02
8.877502740935647174e-02
1.035026821952139825e-01
1.170306776367120161e-01
1.292047799653576190e-01
1.398765578025160661e-01
1.489312466955822201e-01
1.562800889321228071e-01
1.618452543248083686e-01
1.655955463258676763e-01
1.675133851175447386e-01
1.676061949361115078e-01
1.659220188982926392e-01
1.625157113630401329e-01
1.574770634788071055e-01
1.509179486451956154e-01
1.429585411007434914e-01
1.337478405490568345e-01
1.234415850968239997e-01
1.122040897060629649e-01
1.002110647445491887e-01
8.763880816337300816e-02
7.466187661094220163e-02
6.145392497650266350e-02
4.818311165794638556e-02
3.500168748253013745e-02
2.205836175554588482e-02
9.483593302198481748e-03
-2.612045342512930683e-03
-1.412339074643503833e-02
-2.497527998455304626e-02
-3.510510495995458613e-02
-4.446251898651063655e-02
-5.302567786206021511e-02
-6.077771942113323334e-02
-6.771934251159421325e-02
-7.386695235062372411e-02
-7.923992190905929101e-02
-8.387062951349802398e-02
-8.779582404277976038e-02
-9.105340993558512508e-02
-9.368347001121613005e-02
-9.572591437409191939e-02
-9.721487688621330281e-02
-9.818025557572794548e-02
-9.864878916081856741e-02
-9.863409271025380676e-02
-9.814612994549856695e-02
-9.718683601247007919e-02
-9.574577448280818803e-02
-9.381062011615082241e-02
-9.136026718273028424e-02
-8.836834658629977302e-02
-8.480828789816140245e-02
-8.065307642432745228e-02
-7.587580886761058352e-02
-7.045709321881803155e-02
-6.438701219279475974e-02
-5.765893540553955476e-02
-5.028809467735091687e-02
-4.230039864443149722e-02
-3.373285094089514824e-02
-2.465262110926009359e-02
-1.513288625893974976e-02
-5.268713649245929977e-03
4.822174849261343793e-03
1.501764739488623338e-02
2.517404423536666672e-02
3.513920922145133408e-02
4.475870734319214311e-02
5.387312044511404635e-02
6.232310525147751606e-02
6.996223021486379368e-02
7.665503098489553913e-02
8.227378891258289861e-02
8.672831358865863705e-02
8.994057213701463216e-02
9.185873344527310802e-02
9.247789295595999770e-02
9.180160848636290116e-02
8.987973040425695226e-02
8.679432909834973453e-02
8.263942688350832400e-02
7.755468840725807111e-02
7.169159198398170063e-02
6.521655170065802920e-02
5.831781874939356847e-02
5.118542114145642474e-02
4.400981879034927824e-02
3.698171472066172361e-02
3.028419547506875156e-02
2.407579049738607993e-02
1.850920696319740058e-02
1.370830955438008536e-02
9.762416532242459630e-03
6.752208996744972144e-03
4.707904030828763756e-03
3.636383176055490475e-03
3.525164165882117406e-03
4.312025867142422683e-03
5.925570613216416677e-03
8.266623318468257695e-03
1.120870414564237132e-02
1.462120550338667085e-02
1.835559765932337495e-02
2.225668613554532618e-02
2.617086132617124639e-02
2.994784719114086669e-02
3.343891025082244145e-02
3.651339096030034592e-02
3.905520788734136856e-02
4.095611150065229383e-02
4.214329719441681221e-02
4.255480618761652012e-02
4.214959778661777484e-02
4.092214876624584302e-02
3.887296727187811857e-02
3.603356566463322003e-02
3.245593266968748586e-02
2.819931115265794999e-02
2.334918112688320196e-02
1.799744110576245726e-02
1.224391897171057432e-02
6.199445173965762411e-03
-2.428557689479644843e-05
-6.315083529284005494e-03
-1.256049423338659668e-02
-1.865127989869696731e-02
-2.448799219606719729e-02
-2.997343117352017222e-02
-3.502197364374255023e-02
-3.956116467519920493e-02
-4.352207726333501975e-02
-4.685597449080960986e-02
-4.952296359537052689e-02
-5.149185589451103079e-02
-5.275264271957867679e-02
-5.329922271143570922e-02
-5.314042656448859231e-02
-5.229902614589675841e-02
-5.080114992562560772e-02
-4.868891737079685672e-02
-4.601011420959780218e-02
-4.281791621974564976e-02
-3.917614627722483533e-02
-3.515022271495940598e-02
-3.081068748903809107e-02
-2.623200629737468259e-02
-2.148890350506936844e-02
-1.665681909675385472e-02
-1.181135335474469902e-02
-7.025370023872026283e-03
-2.367326252800990537e-03
2.095514173832382226e-03
6.304763735257682550e-03
1.020759615913439944e-02
1.375507316861510239e-02
1.691190391332150073e-02
1.964608482966551453e-02
2.193470384258796799e-02
2.376682381068715919e-02
2.513376866507029128e-02
2.603929329287594033e-02
2.649349936411327794e-02
2.651022333178155999e-02
2.611387631753899971e-02
2.533095080676295296e-02
2.419313666867336024e-02
2.273773857301927478e-02
2.100301436610399475e-02
1.903176313194637759e-02
1.686866466667013773e-02
1.455963408901954879e-02
1.215342756592856580e-02
9.699291240573315251e-03
7.248151888617077911e-03
4.852426558731208830e-03
2.564849096303085420e-03
4.395675037848247035e-04
-1.468804573216852226e-03
-3.106069771165097422e-03
-4.418811166211999812e-03
-5.354041987814461660e-03
-5.863509788151214687e-03
-5.902403860525917527e-03
-5.429021389849789624e-03
-4.414520382205988115e-03
-2.833668757819793153e-03
-6.726978018218423075e-04
2.064651122722083176e-03
5.370970871032585553e-03
9.216043459308443861e-03
1.355609672583655070e-02
1.833934215687401531e-02
2.348746884410702826e-02
2.891617987357146882e-02
3.452755280130838378e-02
4.020662578406748733e-02
4.583620770760694213e-02
5.128979444299617413e-02
5.643638521662596580e-02
6.114710347238171140e-02
6.529890996001701253e-02
6.877042292464154161e-02
7.145660129988677667e-02
7.326917085151625486e-02
7.412620024747415548e-02
7.398111060616115175e-02
7.280122077790864010e-02
7.057211602899535197e-02
6.731925006582221982e-02
6.307509747667890132e-02
5.790223510458557959e-02
5.188858934131151263e-02
4.512818449690023798e-02
3.774169986498844553e-02
2.985822568995889423e-02
2.161220582583541980e-02
1.314758354991637720e-02
4.608892469963760466e-03
-3.864258828058295299e-03
-1.213565983587713143e-02
-2.007387339760493758e-02
-2.756628605923750613e-02
-3.450529202923754285e-02
-4.079849199327052756e-02
-4.637552622482685183e-02
-5.117030032860591521e-02
-5.514140937127984948e-02
-5.826135775552393481e-02
-6.051028985459282195e-02
-6.189223823754236298e-02
-6.241636277129483656e-02
-6.210372439740097228e-02
-6.098951642653542560e-02
-5.911125206312681235e-02
-5.651777667041303632e-02
-5.326312482594781905e-02
-4.940405468676228179e-02
-4.500423125128558133e-02
-4.012853535253324555e-02
-3.484460986581115749e-02
-2.922278950900867450e-02
-2.333379323556736967e-02
-1.724996423182901736e-02
-1.104424541217730038e-02
-4.789662446701517008e-03
1.440589690627182111e-03
7.573361378638948128e-03
1.353655489319402147e-02
1.925891365803258579e-02
2.466995324763051126e-02
2.970273174953531534e-02
3.429140224953556443e-02
3.837376733644804611e-02
4.189377175187453811e-02
4.479676426191620681e-02
4.703775334979717893e-02
4.857807146554045385e-02
4.938332117976190760e-02
4.943479077322985443e-02
4.871772586884440259e-02
4.722897020761865350e-02
4.498132144230078400e-02
4.199089297069490134e-02
3.829340414836660683e-02
3.393504462153963674e-02
2.896930996477365891e-02
2.347140345693069646e-02
1.752106560106332644e-02
1.121151442654085353e-02
4.651167035975761754e-03
-2.048805837919341448e-03
-8.763452340309368926e-03
-1.536185108840496666e-02
-2.171114249652867159e-02
-2.767383239544734391e-02
-3.311205140907910044e-02
-3.789420644900544366e-02
-4.189451412137124020e-02
-4.499147549561648141e-02
-4.708639247368771180e-02
-4.808864783388670100e-02
-4.792481432005519376e-02
-4.655513741618973883e-02
-4.394629677325750938e-02
-4.010194415532408740e-02
-3.505380092180349072e-02
-2.884490247783862149e-02
-2.156561344311647491e-02
-1.331982819444798086e-02
-4.233731989521863880e-03
5.530911478744716947e-03
1.580707830631373004e-02
2.640481520026251999e-02
3.711992935623811829e-02
4.774639314148551583e-02
5.807241721197361345e-02
6.788519890860623962e-02
7.698240233355453654e-02
8.517535908875703554e-02
9.228036416596724356e-02
9.814813818291626135e-02
1.026468292421395534e-01
1.056625931847831323e-01
1.071323997159447927e-01
1.070037164429815391e-01
1.052639185164971208e-01
1.019431250931499278e-01
9.708123454150101306e-02
9.076939689535327982e-02
8.311980429600204778e-02
7.426123523753111466e-02
6.436030034213430229e-02
5.358970175875234221e-02
4.213724714296356033e-02
3.020402403330026131e-02
1.799117183380258278e-02
5.697715065816197008e-03
-6.478116036283972264e-03
-1.834830707730627022e-02
-2.974380993107048760e-02
-4.049964400828659494e-02
-5.047805674353596922e-02
-5.956091836055116273e-02
-6.763930500262704815e-02
-7.464115882319491413e-02
-8.050444538989115495e-02
-8.518634947493400333e-02
-8.867315652198506926e-02
-9.095588137680732377e-02
-9.204927966580696286e-02
-9.198208889609979511e-02
-9.078857005382248713e-02
-8.852089182845787607e-02
-8.523515847623484853e-02
-8.099409165998650018e-02
-7.586861729899208040e-02
-6.993083889879421478e-02
-6.325818246765008146e-02
-5.593062517925893873e-02
-4.802975119077115135e-02
-3.964141667964374283e-02
-3.085233747971547619e-02
-2.175278974261025608e-02
-1.243667156972137061e-02
-2.998839724436693464e-03
6.460855326655847060e-03
1.584062530577502043e-02
2.503750866551240906e-02
3.394601113396939623e-02
4.246045951612154035e-02
5.047776451196713671e-02
5.789699409206536945e-02
6.461972059619790210e-02
7.055964205198560213e-02
7.563434778261583780e-02
7.977262836107330835e-02
8.292298197147233985e-02
8.503790939100792923e-02
8.609511111742390588e-02
8.608952332551900177e-02
8.502470831248125360e-02
8.293706891062142816e-02
7.987148595908689919e-02
7.589002525364924034e-02
7.107944330874145511e-02
6.553029123251781496e-02
5.935123308365115175e-02
5.266104553892213963e-02
4.558097543890418657e-02
3.823972978927971805e-02
3.076737746538002471e-02
2.329056909832005404e-02
1.593193100557050226e-02
8.811902638585337316e-03
2.036282538766102414e-03
-4.295786428727933585e-03
-1.009370141861400116e-02
-1.528844312299357244e-02
-1.981522502671662425e-02
-2.362789323782887169e-02
-2.669829774491365437e-02
-2.900319553359463620e-02
-3.054395332450843964e-02
-3.133099715063580176e-02
-3.138463227303488201e-02
-3.074539664935565381e-02
-2.945712306959150789e-02
-2.757637015054410085e-02
-2.516978517753751254e-02
-2.230617523803999150e-02
-1.906316912780027864e-02
-1.552098898784226230e-02
-1.176073433475106553e-02
-7.864967812545278075e-03
-3.916029609045685971e-03
7.973433900631231308e-06
3.831681736968986680e-03
7.482575542987630543e-03
1.089856299324871644e-02
1.402018373768040144e-02
1.679660930205180772e-02
1.918878216658974692e-02
2.116009823021911679e-02
2.268841955599679161e-02
2.375926456581888002e-02
2.436313814896651220e-02
2.450521137254824469e-02
2.419365843579930273e-02
2.344461675700970638e-02
2.228312728864410494e-02
2.073570722931663418e-02
1.883594850581536001e-02
1.662048016592286223e-02
1.412713582513931351e-02
1.139661042954169014e-02
8.469999678986843070e-03
5.388015848856954684e-03
2.191019329859164068e-03
-1.081040153270485839e-03
-4.390420504616751075e-03
-7.700149050643857913e-03
-1.097418019518468443e-02
-1.417826746982650543e-02
-1.727839319386138481e-02
-2.024085912355257436e-02
-2.303220744229145245e-02
-2.561879528725682226e-02
-2.796613684464973465e-02
-3.003951263239678510e-02
-3.180413328627831882e-02
-3.322509889067298133e-02
-3.426774979432058166e-02
-3.490015552059521492e-02
-3.509206570707106704e-02
-3.481554658374357014e-02
-3.405073063270771389e-02
-3.277973549310653906e-02
-3.099284238662484287e-02
-2.869090066950834295e-02
-2.587726689672348312e-02
-2.257049760327718355e-02
-1.879677303691461993e-02
-1.458820750701037700e-02
-9.993465171339147718e-03
-5.064473060394684804e-03
1.373134727505062949e-04
5.540320766214110876e-03
1.107148691285566623e-02
1.665115267155632683e-02
2.219698859345780803e-02
2.762766034432629497e-02
3.286410832041188751e-02
3.782808193857216394e-02
4.245033427412401444e-02
4.666946610951980962e-02
5.042782312489338392e-02
5.368595414619159456e-02
5.641043670628552442e-02
5.857790390739818498e-02
6.018348562629800835e-02
6.122538112145908124e-02
6.171627939505205940e-02
6.167922151349580773e-02
6.114005068368117551e-02
6.013533873262836421e-02
5.870447535258600802e-02
5.688837883060709338e-02
5.473026177431110362e-02
5.227317739333989244e-02
4.955663292708857581e-02
4.661806542432094663e-02
4.349276114495367884e-02
4.020895471059082737e-02
3.679331387762169864e-02
3.326885609148413220e-02
2.965411203037929613e-02
2.596724931485398791e-02
2.222574439451405551e-02
1.844674913341335862e-02
1.464927046622853390e-02
1.085725458325002488e-02
7.095724056988495822e-03
3.395874544665885859e-03
-2.048720109815681256e-04
-3.667605848937484543e-03
-6.945888129633066323e-03
-9.990389974979710375e-03
-1.275084514908222597e-02
-1.517498788609416421e-02
-1.721061278539499917e-02
-1.881085388218863702e-02
-1.993326480391747341e-02
-2.053884691751934125e-02
-2.060492262687474777e-02
-2.011397288708973580e-02
-1.906060531055189453e-02
-1.746057384362237688e-02
-1.533352020675770450e-02
-1.272103236083154190e-02
-9.679578071289156316e-03
-6.271442580671262278e-03
-2.580618392812082142e-03
1.303439539019698654e-03
5.284437964842025187e-03
9.256343912455283415e-03
1.311254891914397439e-02
1.674805531214914114e-02
2.005875874954804114e-02
2.294534135169833122e-02
2.532343964981158269e-02
2.711214829479897948e-02
2.824725121722852089e-02
2.868401228653826712e-02
2.838266647483205993e-02
2.733210412012676560e-02
2.553411211173623255e-02
2.300202576243076322e-02
1.977805210584493781e-02
1.590970610363923524e-02
1.146249010833829893e-02
6.519138357933680801e-03
1.165661363530762044e-03
-4.496842827610298028e-03
-1.036180032005500767e-02
-1.632050713390349739e-02
-2.225994586412311307e-02
-2.806687420733312843e-02
-3.363265812871499977e-02
-3.885228546018749951e-02
-4.362391900332592692e-02
-4.785999805664135909e-02
-5.147725032909659243e-02
-5.440329343219366121e-02
-5.658375102301159421e-02
-5.796772839397534849e-02
-5.852509213625692319e-02
-5.823906416428162314e-02
-5.709982357698636934e-02
-5.512245097497346646e-02
-5.232810469136620068e-02
-4.875178964735643605e-02
-4.444722958979600846e-02
-3.947131789744472846e-02
-3.389733889566023256e-02
-2.780717311550948839e-02
-2.128645957345424999e-02
-1.443171707636187184e-02
-7.341539665033202343e-03
-1.166363851158938592e-04
7.139939203417021603e-03
1.432571113493889652e-02
2.134306757566810722e-02
2.809648084082906269e-02
3.449561054318130843e-02
4.046242462648821925e-02
4.592141961116485288e-02
5.081153675721290786e-02
5.508486047872379610e-02
5.869801823743285574e-02
6.162997498677186270e-02
6.386741975148287065e-02
6.540758139771152280e-02
6.626796200894866096e-02
6.646936484812090984e-02
6.604683875342032273e-02
6.504606205244825579e-02
6.351521058516793050e-02
6.151226529058843179e-02
5.909789858721135880e-02
5.633357383719073130e-02
5.328199472068124998e-02
5.000551734416977534e-02
4.656157869581869363e-02
4.300461417450131274e-02
3.938622201864849098e-02
3.574826235712052352e-02
3.213030399577337937e-02
2.856543399225533464e-02
2.507842075946084548e-02
2.169262673656580792e-02
1.842424803386767326e-02
1.528592059963702898e-02
1.228903936631971748e-02
9.441609501044084807e-03
6.751059766403597930e-03
4.225071187329922789e-03
1.871590381151026772e-03
-3.011343482809394553e-04
-2.282965960003046323e-03
-4.063007339360003196e-03
-5.630027360619407721e-03
-6.972048763780424978e-03
-8.077095633676662639e-03
-8.935041070208243202e-03
-9.537355993566264817e-03
-9.876744796045160146e-03
-9.952023683765465201e-03
-9.764026340559277262e-03
-9.318077652944779105e-03
-8.627691029489535646e-03
-7.707870922076940322e-03
-6.581837104292036049e-03
-5.278627832733103105e-03
-3.829305292647087848e-03
-2.272763199119992757e-03
-6.499459302058323631e-04
9.963729386729749948e-04
2.620698248112108414e-03
4.177554791932333936e-03
5.623896101861990821e-03
6.918081371422086200e-03
8.020921011136362966e-03
8.901224841848132119e-03
9.529658976720034591e-03
9.884175432627744645e-03
9.951604756105627073e-03
9.720767003337543732e-03
9.191820136620055398e-03
8.370260392073397213e-03
7.265740676839388054e-03
5.898783805402599972e-03
4.291972795193806436e-03
2.474586201987246346e-03
4.825981199011626643e-04
-1.646651658303592038e-03
-3.869220703485900213e-03
-6.138651573281157965e-03
-8.406939607476116710e-03
-1.062279936953328119e-02
-1.273455328973752826e-02
-1.469098458867754836e-02
-1.644125462092631967e-02
-1.793559448706901274e-02
-1.912939597537821265e-02
-1.997968308971316553e-02
-2.044856177853171184e-02
-2.050692164454050170e-02
-2.012749487687033600e-02
-1.929494235447220749e-02
-1.800194231560353977e-02
-1.624568000569523440e-02
-1.404026488332538181e-02
-1.140413265705212537e-02
-8.366047502794824592e-03
-4.969356724387905856e-03
-1.259938392842171496e-03
2.702885004181931200e-03
6.852417225507267777e-03
1.111901268459512641e-02
1.542411668062744837e-02
1.968743801658084935e-02
2.382822578930286414e-02
2.776519711869680079e-02
3.141814429966688360e-02
3.471495654571494366e-02
3.758714313996721484e-02
3.997277482622345335e-02
4.182621881596864516e-02
4.310512655175191554e-02
4.378374702982833905e-02
4.385209377062768143e-02
4.330483806591256535e-02
4.215997205495437827e-02
4.044391582443888217e-02
3.819236054713712192e-02
3.545964593393029218e-02
3.230300189815301509e-02
2.878959432400340565e-02
2.499433103721579452e-02
2.099292547316802468e-02
1.686385170757020990e-02
1.268633127654283585e-02
8.536452728723480793e-03
4.485169635214727828e-03
6.020830886642701552e-04
-3.053234576333131549e-03
-6.427605882237425773e-03
-9.471771622588168876e-03
-1.215043704427321014e-02
-1.443170094737554129e-02
-1.629197995594448833e-02
-1.771883818971875524e-02
-1.870182609964440162e-02
-1.924110558706532137e-02
-1.934235447263726176e-02
-1.901429354279519576e-02
-1.827440957390050885e-02
-1.714194724044669840e-02
-1.564062457258475619e-02
-1.379907595898533304e-02
-1.164688756391286592e-02
-9.218462124228089805e-03
-6.550235578926174966e-03
-3.680357558538412989e-03
-6.509955110091591654e-04
2.494981860439493375e-03
5.712330022029215096e-03
8.953661184515356031e-03
1.217135021789694099e-02
1.531689854778447643e-02
1.834152383508944051e-02
2.119779276534300427e-02
2.384084562199350818e-02
2.622653234072495551e-02
2.831663121069014077e-02
3.007730581047790216e-02
3.147737104745124137e-02
3.249667299408952326e-02
3.311816153472899038e-02
3.333202335913063030e-02
3.313969503170519776e-02
3.254461693991684418e-02
3.156123650378089146e-02
3.021065812150781210e-02
2.851678981499437479e-02
2.651289531342458303e-02
2.423432881356263335e-02
2.171918324029827735e-02
1.900903612898340034e-02
1.614556891057325125e-02
1.316945932059503110e-02
1.012088874324218978e-02
7.038257067843933616e-03
3.955051862964145681e-03
9.037451687569147615e-04
-2.087528008585232304e-03
-4.995159847383847003e-03
-7.796435369792019919e-03
-1.047304052247124626e-02
-1.300841529241661063e-02
-1.538664330815084011e-02
-1.759323161255559390e-02
-1.961382518428669494e-02
-2.143310996576182001e-02
-2.303495025288008341e-02
-2.440273780128501824e-02
-2.551757914715285097e-02
-2.635984546279748764e-02
-2.690939953738568508e-02
-2.714518590040380236e-02
-2.704621733336001754e-02
-2.659366144500094342e-02
-2.577019875662747705e-02
-2.456041011520564837e-02
-2.295650129573179737e-02
-2.095275828509738161e-02
-1.855062978159224135e-02
-1.576212877486251468e-02
-1.260147221328724448e-02
-9.096365412994807109e-03
-5.282249075798655692e-03
-1.198946286552089562e-03
3.099755553045094141e-03
7.557054559442020168e-03
1.211022258244374636e-02
1.668937177957677612e-02
2.122400441998185255e-02
2.564221653754315822e-02
2.987145424273159391e-02
3.384169716114258930e-02
3.748954665133163305e-02
4.075310819281020153e-02
4.358039333781481284e-02
4.592923506838397785e-02
4.776070069362273185e-02
4.905297142534172788e-02
4.979071022081570097e-02
4.996643390598108636e-02
4.958918825042934325e-02
4.867081626418472140e-02
4.723461805934644347e-02
4.531321493250756866e-02
4.294149612442788727e-02
4.016399186846290187e-02
3.702817136587191471e-02
3.358420726885992524e-02
2.988690284787384049e-02
2.599166735858348884e-02
2.195574717183885333e-02
1.783761263465983779e-02
1.369579731034341330e-02
9.588992428801672296e-03
5.575900854382495261e-03
1.714010978676707569e-03
-1.940888699470829336e-03
-5.333662542197337673e-03
-8.414068080587987913e-03
-1.113452382532448270e-02
-1.345062743667282609e-02
-1.532765659731660443e-02
-1.673305812804607232e-02
-1.764375853952881296e-02
-1.804756037137989280e-02
-1.793512749441149995e-02
-1.731353429225411522e-02
-1.619710919624977111e-02
-1.460724302603837177e-02
-1.258266924443219789e-02
-1.016530377421229203e-02
-7.408561252464356851e-03
-4.376684554589974248e-03
-1.135982936769394484e-03
2.237821121884757576e-03
5.665659043820840159e-03
9.068014776975285435e-03
1.236448724050586735e-02
1.547502556177122318e-02
1.832642685415506942e-02
2.085077810493986619e-02
2.298386772308851772e-02
2.467769501805006441e-02
2.588902651073246575e-02
2.658562575132296379e-02
2.675312101067647830e-02
2.638034803345894533e-02
2.547390305491628940e-02
2.405160808045898532e-02
2.213617454216618846e-02
1.976739462727270316e-02
1.698910362375487607e-02
1.385227327219930131e-02
1.041735696701184648e-02
6.746042369275926515e-03
2.905055687167873088e-03
-1.036282595167710603e-03
-5.008672746029279622e-03
-8.942937310865050476e-03
-1.277003636653537347e-02
-1.642404686259581886e-02
-1.984244198994261632e-02
-2.296396181888818444e-02
-2.573480675795266487e-02
-2.810430397493608040e-02
-3.002606043403550223e-02
-3.146364148625854784e-02
-3.238254760214498429e-02
-3.275810281976223454e-02
-3.257441726353307865e-02
-3.181867891420565170e-02
-3.049298823537865966e-02
-2.860451576133925256e-02
-2.616820159031700566e-02
-2.321366586437436860e-02
-1.977304979215324318e-02
-1.589087640991816708e-02
-1.162074859526373086e-02
-7.019192364399869273e-03
-2.154367434179213329e-03
2.902391713224417719e-03
8.076297736842421790e-03
1.328724266660306214e-02
1.845472421008788333e-02
2.349886968585279332e-02
2.834018412337456494e-02
3.290156691907061837e-02
3.711408234149489449e-02
4.091079663304858505e-02
4.423422221197263055e-02
4.703878688430268573e-02
4.928187063733517614e-02
5.093871469549378361e-02
5.199328028379876510e-02
5.243665340631185195e-02
5.227925710624463373e-02
5.153527036154893770e-02
5.023057676833937724e-02
4.840317329680996622e-02
4.609323933757127068e-02
4.335134125047863940e-02
4.023214820576491435e-02
3.679211403687126375e-02
3.309160871574663015e-02
2.919145563010010214e-02
2.515126164438514708e-02
2.102960031055432430e-02
1.688395228925082883e-02
1.276642026268304253e-02
8.727366404995553009e-03
4.813556518773024623e-03
1.065315465947403763e-03
-2.478166303922515155e-03
-5.783702286427960283e-03
-8.822284775613285085e-03
-1.156654995221577734e-02
-1.399543242420340713e-02
-1.608952070799372566e-02
-1.783268418829700094e-02
-1.921358910020562819e-02
-2.022182655217659442e-02
-2.085234264111394259e-02
-2.110312744018649073e-02
-2.097437231796333082e-02
-2.047325040244549893e-02
-1.960849811444954210e-02
-1.839405081618258539e-02
-1.685007096025493978e-02
-1.499805916983110166e-02
-1.286694023361604697e-02
-1.048907107847195028e-02
-7.899222588683127433e-03
-5.138358996758156903e-03
-2.248544599846237675e-03
7.256471014652453311e-04
3.737176100372793450e-03
6.739002989755263871e-03
9.684717822627735700e-03
1.252816004481710141e-02
1.522555940883965273e-02
1.773813700336189167e-02
2.002820556116275200e-02
2.206556797141557766e-02
2.382606854956037176e-02
2.528809510045358991e-02
2.644136848972946513e-02
2.727905982589685224e-02
2.779966179730369163e-02
2.801070256240039552e-02
2.792103557354019133e-02
2.754489228806200965e-02
2.690005599896190536e-02
2.600473849610956262e-02
2.487854319179848631e-02
2.354137277165597661e-02
2.201168587815332395e-02
2.030593744056766875e-02
1.844006865743282389e-02
1.642665288436255186e-02
1.427644909812659374e-02
1.199949165571740153e-02
9.603664757029787419e-03
7.096479138104322404e-03
4.486436202428237263e-03
1.783164210835021593e-03
-1.002876695007234691e-03
-3.855695524573664150e-03
-6.756874982977987588e-03
-9.684431333710993156e-03
-1.260769022576645193e-02
-1.549432988769661873e-02
-1.830500107583835426e-02
-2.099379341252720355e-02
-2.351346883587062189e-02
-2.581069124113295060e-02
-2.782998044673927474e-02
-2.951596089377962751e-02
-3.081346861462720688e-02
-3.166781660406402243e-02
-3.203103022376947717e-02
-3.186027525928226967e-02
-3.111638150562943267e-02
-2.977609053251564775e-02
-2.782079467899833264e-02
-2.524345944938242992e-02
-2.205568593386368625e-02
-1.827256808613256234e-02
-1.392937403405655750e-02
-9.074011513739058121e-03
-3.760324138355012995e-03
1.937237710156782845e-03
7.939389589551404044e-03
1.415831550938078179e-02
2.049496207584106111e-02
2.684906725932150948e-02
3.311656509826040040e-02
3.919145079047391816e-02
4.496981072846919364e-02
5.035377839967641878e-02
5.524695133660779273e-02
5.956316731888469662e-02
6.322732679661913213e-02
6.616782705969700973e-02
6.833292448060034052e-02
6.967911743121174561e-02
7.017269251936102126e-02
6.980249633053124680e-02
6.856153882253616938e-02
6.646127232773507698e-02
6.352950264848798712e-02
5.979877244477894982e-02
5.532386526646630026e-02
5.016703427942933308e-02
4.439958013243675006e-02
3.810974374370149770e-02
3.138838565767480826e-02
2.433677874789695952e-02
1.706376540593917274e-02
9.679492254727422793e-03
2.298917057034045169e-03
-4.961767801344353461e-03
-1.198876414312194383e-02
-1.867193092225888362e-02
-2.490260916089052923e-02
-3.058436884101044945e-02
-3.562804674192843191e-02
-3.995120960504382895e-02
-4.349387421719514563e-02
-4.620130963484989084e-02
-4.803694485613707599e-02
-4.898691878457718529e-02
-4.904227857216452574e-02
-4.822210828447651143e-02
-4.655905453568583846e-02
-4.409539776073507361e-02
-4.089929413318336981e-02
-3.704378497951423682e-02
-3.261500257204608122e-02
-2.771251152353789576e-02
-2.243764546607850824e-02
-1.689907236249476447e-02
-1.120831499071782422e-02
-5.475174947225431958e-03
1.943236971654075870e-04
5.695297137579847027e-03
1.093388209471207045e-02
1.582549583494096551e-02
2.028997640767347607e-02
2.426791214194316815e-02
2.770652307176958706e-02
3.056469273954704607e-02
3.282200760317759147e-02
3.446155130644696502e-02
3.548387507384602457e-02
3.590158209608274725e-02
3.573139702205720830e-02
3.500557376105426638e-02
3.376035992990707862e-02
3.203761693104038161e-02
2.988734253659456816e-02
2.736061931566926772e-02
2.451287877794898484e-02
2.140200220895892985e-02
1.808637645117559464e-02
1.462591440402653126e-02
1.108081767319527705e-02
7.510803783004499704e-03
3.975015417550705095e-03
5.322266699906708087e-04
-2.761323790719070505e-03
-5.850561139995636394e-03
-8.682252849403385847e-03
-1.120786937287299168e-02
-1.337987469111521707e-02
-1.515625243710893091e-02
-1.650036560933635515e-02
-1.737758924310719641e-02
-1.776395881458001091e-02
-1.763948455347009656e-02
-1.699065033299130070e-02
-1.581732458138454880e-02
-1.412187667972303676e-02
-1.192001953034958414e-02
-9.238136162306252730e-03
-6.106453190014815048e-03
-2.571972795827748813e-03
1.313249413646500573e-03
5.489869789508842503e-03
9.886279546527498158e-03
1.442911790547278528e-02
1.903820698228378405e-02
2.362890593236154080e-02
2.811653490680453629e-02
3.241655862620282380e-02
3.644459878129129027e-02
4.012173003017178302e-02
4.337652791680857156e-02
4.613981784384481311e-02
4.835792823229379672e-02
4.998546768064535822e-02
5.098433919860605873e-02
5.133818069491008496e-02
5.103523367709240227e-02
5.007898541720197383e-02
4.849011636398860292e-02
4.629273197718711264e-02
4.352872899494641956e-02
4.024771765316851463e-02
3.650399755691353249e-02
3.236314657462757705e-02
2.789256472026078321e-02
2.316264429940228034e-02
1.824654745570863587e-02
1.321708197577901173e-02
8.144483089715154681e-03
3.098063020382453396e-03
-1.856213954456409528e-03
-6.658943017201732727e-03
-1.125199833531199609e-02
-1.558483154270330281e-02
-1.961264716105571432e-02
-2.329292481125815398e-02
-2.659264931027540552e-02
-2.948152469866929110e-02
-3.193386323791153059e-02
-3.393133236793433039e-02
-3.545682964961324735e-02
-3.649956846108168979e-02
-3.705268448419649086e-02
-3.711131203374970489e-02
-3.667747944091158396e-02
-3.575486863265685267e-02
-3.435198889166295871e-02
-3.248365306302024996e-02
-3.016610135579696900e-02
-2.742411296688886113e-02
-2.428678882232235270e-02
-2.078678071820736287e-02
-1.696674075445735869e-02
-1.287133965221913881e-02
-8.551864470924448042e-03
-4.066688870203008337e-03
5.244967450533854700e-04
5.155536626478820703e-03
9.757626334031021739e-03
1.426124360056513739e-02
1.859524079414018663e-02
2.268844849636152475e-02
2.647347110471100218e-02
2.988623073612738795e-02
3.286498551029738008e-02
3.535973129798436476e-02
3.732440558264363967e-02
3.872139276950099795e-02
3.952875577272061541e-02
3.972745964071661140e-02
3.931472843825327412e-02
3.829950383586799151e-02
3.669542178940687904e-02
3.453475819354312470e-02
3.185483757806198413e-02
2.870161189694964490e-02
2.513409627589895112e-02
2.121332325300524096e-02
1.700989486988077268e-02
1.260004895282682696e-02
8.061833199185299351e-03
3.479117674620120504e-03
-1.063002598474432729e-03
-5.479197536727725519e-03
-9.683845628317349491e-03
-1.359199015248037726e-02
-1.712412393363113572e-02
-2.020335678733036280e-02
-2.275736273026680509e-02
-2.472602711315289442e-02
-2.605183365112254124e-02
-2.669079045233595238e-02
-2.661266413618812443e-02
-2.579157288837966022e-02
-2.422505651305406627e-02
-2.191977668009405245e-02
-1.889405535502116165e-02
-1.519143294111579418e-02
-1.085992729503380827e-02
-5.967554266214877313e-03
-5.990258471912351251e-04
5.156544581084084380e-03
1.119070069441893689e-02
1.738893392063839416e-02
2.363233175083681234e-02
2.979423578649430249e-02
3.574754691708621063e-02
4.136953209276417881e-02
4.654044448785437521e-02
5.114540306846324796e-02
5.508856925472377375e-02
5.827917131046480431e-02
6.064384352166826003e-02
6.213422851187276608e-02
6.270717949107772193e-02
6.235104770142482072e-02
6.107177252780755100e-02
5.888600364727981928e-02
5.584364068328950825e-02
5.200167468313181968e-02
4.743401282597840829e-02
4.223447772591641669e-02
3.649971906318223019e-02
3.033899652236118558e-02
2.386728438272453859e-02
1.719955181508784486e-02
1.045068315239921011e-02
3.735174158372441423e-03
-2.840600837309658656e-03
-9.178114887829331991e-03
-1.518204905258941848e-02
-2.077411839192700241e-02
-2.588232037082260906e-02
-3.044325257855937106e-02
-3.441113055554485822e-02
-3.774321020473667132e-02
-4.041050939710091189e-02
-4.239495609498730722e-02
-4.368182090193354489e-02
-4.427063249049378868e-02
-4.416517568846346775e-02
-4.337542506713008145e-02
-4.192168025563083877e-02
-3.982596793214365771e-02
-3.711907366635321809e-02
-3.383746714201760208e-02
-3.002032521153510242e-02
-2.571657178047086906e-02
-2.097753936803962646e-02
-1.586040851395781673e-02
-1.043033447679759390e-02
-4.753921992637274822e-03
1.094336944121694459e-03
7.035776605782627716e-03
1.298994175436472137e-02
1.887115253947240640e-02
2.459277877685579761e-02
3.006874359781968112e-02
3.521358878600447384e-02
3.994307421381011747e-02
4.418129018259263352e-02
4.785592031788176576e-02
5.090123676107356082e-02
5.326728134637219447e-02
5.490723924148444013e-02
5.579069040896853654e-02
5.590226100019261152e-02
5.523132188893378064e-02
5.379049101198772609e-02
5.160049132656204657e-02
4.869214070661337379e-02
4.511584817253389695e-02
4.092515085414383941e-02
3.618627706482379497e-02
3.097500725217967876e-02
2.536911870785460779e-02
1.945417427633515037e-02
1.331788532853823113e-02
7.047996355533100304e-03
7.323041393027399440e-04
-5.541856958601021864e-03
-1.169225031913051494e-02
-1.763977744127685071e-02
-2.330798113144351424e-02
-2.862953813150563576e-02
-3.353930325312201588e-02
-3.797868098788063917e-02
-4.189755469047156539e-02
-4.524759135531940951e-02
-4.799073341844658364e-02
-5.009407729356991912e-02
-5.152891532529368934e-02
-5.227824711687705656e-02
-5.232747477695162686e-02
-5.167116520829197895e-02
-5.031361758464861222e-02
-4.826168754792396071e-02
-4.553600401461690983e-02
-4.216280651967024840e-02
-3.817450138225261108e-02
-3.361744830830129538e-02
-2.854050156294678925e-02
-2.300288361256579844e-02
-1.707285398411087160e-02
-1.082086264482213026e-02
-4.327228424110470505e-03
2.324496997130376212e-03
9.048883371906100287e-03
1.575704702252216094e-02
2.235999666202541369e-02
2.877227594240575406e-02
3.491095402029571748e-02
4.069613312092847796e-02
4.606030908103226490e-02
5.093938963489366700e-02
5.527968410686101564e-02
5.904311397774065356e-02
6.219464946031634522e-02
6.471721907395951157e-02
6.660423454247364761e-02
6.785448048108591590e-02
6.848413660428939731e-02
6.851319132294748926e-02
6.796869257822445165e-02
6.688636550883582388e-02
6.530279791663712308e-02
6.325718157581290690e-02
6.078994092583800413e-02
5.793994904779738858e-02
5.474193300092046466e-02
5.122970978500535066e-02
4.743176188654418812e-02
4.337119130489407864e-02
3.907001009269739367e-02
3.454493917842872686e-02
2.981067429974161923e-02
2.488229188640432923e-02
1.977569443666874621e-02
1.450729718368208576e-02
9.100305693245391153e-03
3.583546069078284279e-03
-2.011102208988772323e-03
-7.637558501043028268e-03
-1.324528748250075952e-02
-1.877605824299255141e-02
-2.415822094905420436e-02
-2.931811359747366758e-02
-3.417381043468953328e-02
-3.863778278955554146e-02
-4.262261801697616453e-02
-4.604177568038470697e-02
-4.880910737045746073e-02
-5.084706650805385919e-02
-5.209035802051834724e-02
-5.247728497448666402e-02
-5.197146451588896543e-02
-5.055052493090127219e-02
-4.820397702085268965e-02
-4.495806582237084348e-02
-4.084702327279726708e-02
-3.593037839986019943e-02
-3.029718731599832793e-02
-2.404201299304915482e-02
-1.728783206764645045e-02
-1.017039362851242246e-02
-2.830917343397797679e-03
4.575780019704059343e-03
1.189297764179178193e-02
1.896818204284604972e-02
2.565294952538684989e-02
3.180309292801091620e-02
3.729833118602424169e-02
4.202715549006107165e-02
4.589516572889615342e-02
4.884270563146349275e-02
5.081651647592108634e-02
5.179703374701793983e-02
5.179117487697926236e-02
5.081471754440711197e-02
4.892123383882496929e-02
4.617544827764628879e-02
4.265650815753596614e-02
3.846740735869707412e-02
3.371435884145482231e-02
2.851495475567161070e-02
2.299410718992097105e-02
1.727676912540583240e-02
1.148759727942572258e-02
5.751022557568464220e-03
1.847735290644528933e-04
-5.102481942996000587e-03
-1.000460322525539847e-02
-1.443221866082467983e-02
-1.830475403914779212e-02
-2.154923343114958575e-02
-2.411489928302938679e-02
-2.595566804729838167e-02
-2.704193970033879485e-02
-2.736238644985011792e-02
-2.690988684393354202e-02
-2.569996593293231990e-02
-2.375779827701314864e-02
-2.111721826109218617e-02
-1.783255466235680875e-02
-1.396179027365651235e-02
-9.576102595203674073e-03
-4.758674886884590137e-03
4.047291301685221679e-04
5.816567613062005593e-03
1.137525548486742998e-02
1.697710801548931933e-02
2.251440600389793822e-02
2.787925645940315597e-02
3.296783248559561480e-02
3.767934114611713736e-02
4.191647430567135846e-02
4.559684061381605313e-02
4.864233133497146422e-02
5.098768486685439222e-02
5.258778730497917775e-02
5.340154745696618771e-02
5.341227517002746644e-02
5.261816900733328611e-02
5.102544345812305010e-02
4.866750779180861741e-02
4.558405354417250505e-02
4.182846464002552833e-02
3.747169775099100375e-02
3.258731263971683528e-02
2.726095010321086254e-02
2.158425141188737365e-02
1.564996383258042412e-02
9.553798619900874187e-03
3.391815764767031234e-03
-2.744070573533393016e-03
-8.766311141514573219e-03
-1.458932685467349832e-02
-2.013905457987944653e-02
-2.534608367581527022e-02
-3.014702944432635229e-02
-3.449202336185737405e-02
-3.833362295141874709e-02
-4.163481249647757454e-02
-4.436758653126307572e-02
-4.650642038221949187e-02
-4.803709430868379621e-02
-4.894908364692229785e-02
-4.923660523738989520e-02
-4.890251940257076685e-02
-4.795115992864970589e-02
-4.639420275545445144e-02
-4.424852388652246449e-02
-4.153330177184474947e-02
-3.827674787512473642e-02
-3.450950153646677176e-02
-3.026768447489988634e-02
-2.559557541009232356e-02
-2.053896884543448750e-02
-1.515224066280381268e-02
-9.494731879573274635e-03
-3.628317926786659396e-03
2.376995418188477573e-03
8.449449749149729599e-03
1.451441467614628805e-02
2.049376003846635486e-02
2.630933607477984465e-02
3.188449593415643851e-02
3.714330558594371862e-02
4.201309316288286827e-02
4.642977071982215542e-02
5.033112368014479310e-02
5.366589290174082760e-02
5.639377467701547908e-02
5.847794532183723387e-02
5.990003690924632085e-02
6.064873562841208154e-02
6.072120652151887649e-02
6.013262093781513579e-02
5.890123149504861849e-02
5.705809758541140891e-02
5.464478810312476537e-02
5.170547073841152280e-02
4.829546771158592378e-02
4.447352972162258583e-02
4.030122591330750209e-02
3.584499581809391655e-02
3.117178803411668753e-02
2.634886162238897489e-02
2.144368430743098450e-02
1.652291948676851141e-02
1.165009204948165740e-02
6.887903141809169349e-03
2.296124641455190261e-03
-2.069607511579168134e-03
-6.154545049617766474e-03
-9.909350954953731472e-03
-1.328765668003387135e-02
-1.624551418372338629e-02
-1.874638524130217698e-02
-2.075538481388629689e-02
-2.224435866273637846e-02
-2.319294150444686439e-02
-2.358293892308958861e-02
-2.340888109410415793e-02
-2.267097640530989916e-02
-2.137573012945632317e-02
-1.954526186184117956e-02
-1.720467925185709124e-02
-1.439165983451885095e-02
-1.115582014918548720e-02
-7.549790598507035398e-03
-3.640894090134519194e-03
4.982470159116672223e-04
4.790593559836105533e-03
9.150225429915576775e-03
1.349009624380408112e-02
1.772223955217522295e-02
2.175797200498150175e-02
2.551051998588982003e-02
2.890196909122084296e-02
3.185708444045982912e-02
3.431026031570833662e-02
3.621167253430861849e-02
3.751474133711996811e-02
3.819327141693339145e-02
3.823406562409745885e-02
3.763072117838180825e-02
3.640093713855639679e-02
3.456821815192064051e-02
3.216827586376608955e-02
2.925318166179575671e-02
2.587749461824188565e-02
2.210758581330289629e-02
1.801596482216525144e-02
1.367681644703963063e-02
9.169073904233087519e-03
4.572468861549406141e-03
-3.506284257018613126e-05
-4.577559042613148395e-03
-8.980333169232666141e-03
-1.317678138535551685e-02
-1.710371937839722314e-02
-2.070291908340884598e-02
-2.392779271234520000e-02
-2.673397298309327513e-02
-2.908760903580832197e-02
-3.096433695804192560e-02
-3.234270158834991193e-02
-3.321522522929796356e-02
-3.357921840629483901e-02
-3.343845461903554445e-02
-3.280902776659404968e-02
-3.170910922543792448e-02
-3.016663945863175961e-02
-2.821678526492815697e-02
-2.589700284627394211e-02
-2.325392413394667193e-02
-2.033671048860102512e-02
-1.719737853744705142e-02
-1.389238348818800858e-02
-1.047857342898424540e-02
-7.012898236745844331e-03
-3.552369190226866043e-03
-1.524919422769104027e-04
3.136426660555645222e-03
6.265372051802014890e-03
9.191701161915357896e-03
1.188087767158000491e-02
1.430045075600018881e-02
1.643083118520358848e-02
1.825876623753270797e-02
1.977653523199232252e-02
2.099157919507319350e-02
2.191432828870507055e-02
2.256498495589743733e-02
2.297395237130783752e-02
2.317337576311550434e-02
2.320357219163277779e-02
2.310811018614065265e-02
2.293059480762216912e-02
2.271469392543201682e-02
2.250369536957070107e-02
2.233401931721254799e-02
2.223620213966624390e-02
2.223761324072484266e-02
2.235036896321195010e-02
2.258162237767804420e-02
2.292993592814006332e-02
2.337834943552238171e-02
2.390739934920363408e-02
2.448622593168506625e-02
2.507596813849945205e-02
2.563625618027404879e-02
2.612124138310498861e-02
2.648373299026716629e-02
2.667943405115647676e-02
2.666831569407317540e-02
2.641202557973851978e-02
2.588548449275972219e-02
2.507122573601594864e-02
2.395821250100421337e-02
2.255604071830069959e-02
2.087889735526262877e-02
1.895427650255152377e-02
1.682574896720644489e-02
1.453952679892754098e-02
1.215480729027631351e-02
9.736839019093725470e-03
7.351945274576262256e-03
5.069165994963887797e-03
2.957683425312207341e-03
1.079990854064426242e-03
-5.080502328311635452e-04
-1.753898611773490636e-03
-2.623480092282057079e-03
-3.089727421251338944e-03
-3.136154518933262185e-03
-2.768550579935530852e-03
-1.996626664368322986e-03
-8.480119801687708778e-04
6.350865503461974176e-04
2.406734150132293533e-03
4.405044776206104920e-03
6.563286954297576498e-03
8.811627794206671610e-03
1.107492264572776906e-02
1.327781819186680048e-02
1.534876370657860256e-02
1.721874194321376672e-02
1.882203446035043276e-02
2.010543062881448365e-02
2.101894162315813552e-02
2.152256447424866562e-02
2.159027337684223460e-02
2.119881207397938602e-02
2.034098782743984715e-02
1.901834075382115991e-02
1.723782748855133551e-02
1.502276859777600809e-02
1.239993481004762407e-02
9.405649572216069967e-03
6.087196145442375604e-03
2.493932203779332737e-03
-1.314114000935302957e-03
-5.272202435331851435e-03
-9.312757015512727887e-03
-1.336125673889052706e-02
-1.734205770193669033e-02
-2.117804663178803407e-02
-2.479072656336726160e-02
-2.810230410421760139e-02
-3.103932035363306252e-02
-3.352989591098793493e-02
-3.550753677892245358e-02
-3.691649246900048642e-02
-3.770329014875910961e-02
-3.782953060759672304e-02
-3.726845857789238409e-02
-3.599887895464394527e-02
-3.402351217823797874e-02
-3.135207671562818821e-02
-2.800812804629543296e-02
-2.403769982316399795e-02
-1.949062683213925035e-02
-1.443643767342872586e-02
-8.957108667355394988e-03
-3.138962077237101612e-03
2.916638761638885684e-03
9.104863007795034949e-03
1.531839200791663622e-02
2.144660174511564196e-02
2.737950844077130519e-02
3.301468926069576343e-02
3.825362063626998321e-02
4.300437187444403758e-02
4.719402544835348684e-02
5.075376855148067828e-02
5.363314237310732452e-02
5.580168718665895478e-02
5.723394221568927492e-02
5.793161492823274000e-02
5.790777732565382391e-02
5.718528928182023408e-02
5.580975286504577526e-02
5.383059509252710595e-02
5.130840585535600962e-02
4.831375899126829493e-02
4.491830068475725912e-02
4.119755826171882240e-02
3.722833600234277257e-02
3.308477767556921439e-02
2.883599606236573673e-02
2.454985348434612913e-02
2.028458794847655053e-02
1.609137975970316783e-02
1.201799791687407047e-02
8.098285940091194332e-03
4.362239150384547223e-03
8.328834935590534103e-04
-2.477494480001765122e-03
-5.558207130816565818e-03
-8.405759797927604693e-03
-1.102096964165225415e-02
-1.340538247891967863e-02
-1.556283450538590782e-02
-1.749759411913343055e-02
-1.921186682355693898e-02
-2.070525599070961384e-02
-2.197643297093689399e-02
-2.301782592091696639e-02
-2.381881499794111928e-02
-2.436627530913599432e-02
-2.464028278847248121e-02
-2.461965177148538880e-02
-2.428052675191104404e-02
-2.359628914382008030e-02
-2.254054771898440779e-02
-2.108918403137716169e-02
-1.921899759041234557e-02
-1.691125625383362030e-02
-1.415708294557940783e-02
-1.094975672362883193e-02
-7.297191971145560417e-03
-3.219734288170044388e-03
1.256925181929485248e-03
6.081979734194492039e-03
1.119652756583034911e-02
1.652792143080956608e-02
2.197889762300777802e-02
2.744813330555226014e-02
3.281492978876676680e-02
3.794510261958785463e-02
4.270128197459751446e-02
4.693433495493323782e-02
5.049222655488824069e-02
5.322641591362314850e-02
5.499347084563716709e-02
5.565295523486762930e-02
5.508992488912052565e-02
5.320392794215934862e-02
4.991071242749533371e-02
4.517770070093987678e-02
3.898413441203735230e-02
3.135585024151951034e-02
2.237449459171636165e-02
1.213483427545170371e-02
8.067925086500948861e-04
-1.140495767721283818e-02
-2.426873819097150747e-02
-3.748353500701314539e-02
-5.073587284346280091e-02
-6.368093364730971484e-02
-7.594308993069792679e-02
-8.714588521782674901e-02
-9.691568982199058602e-02
-1.048800926759797247e-01
-1.106931723326327194e-01
-1.140643272889652754e-01
-1.147154913061288473e-01
-1.124586246789614635e-01
-1.071783014951910168e-01
-9.879260849975489422e-02
-8.736990701031252526e-02
-7.302446362968055549e-02
-5.595321270701482386e-02
-3.649345181514453140e-02
-1.500524176728825626e-02
8.041701911004965966e-03
3.210524358243811022e-02
5.662552414058742017e-02
8.098009354882862443e-02
1.045319506489165579e-01
1.266596373502857642e-01
1.467632626808713092e-01
1.642560514046967901e-01
1.786572578896959418e-01
1.895432814833021007e-01
1.965515762212502182e-01
1.995035790068016013e-01
1.982604839992262724e-01
1.928277112448222586e-01
1.833747338241154823e-01
1.701054092341308110e-01
1.534064736571754961e-01
1.337446814096357739e-01
1.116353483494889054e-01
8.771164376129249318e-02
6.262521132929572965e-02
3.704416492168653013e-02
1.165199564055604056e-02
-1.288154610323363064e-02
-3.596788859254044374e-02
-5.704760503274076966e-02
-7.563776052337596589e-02
-9.140662856885449494e-02
-1.040511656159786719e-01
-1.134305367237606887e-01
-1.195281285608102567e-01
-1.223711535558297397e-01
-1.221699642231815069e-01
-1.191874237024967004e-01
-1.137517195917236573e-01
-1.062962252977734667e-01
-9.726625834417824967e-02
-8.713417270249783353e-02
-7.638926030172910053e-02
-6.550455138330747717e-02
-5.489377651966404620e-02
-4.495542745848070398e-02
-3.601017854559118714e-02
-2.827620625515586683e-02
-2.194843521733076674e-02
-1.708182743748993399e-02
-1.365988129373139556e-02
-1.162020187255116341e-02
-1.077030213450464249e-02
-1.089253966610405008e-02
-1.171727873955060936e-02
-1.291871458170126136e-02
-1.416837289635048541e-02
-1.513862871740349544e-02
-1.550232863824474103e-02
-1.496250902144547618e-02
-1.329196971896780613e-02
-1.027828359189801588e-02
-5.801547960235940889e-03
1.760953254027232406e-04
7.664972170969543142e-03
1.654373276415639984e-02
2.664681891899665922e-02
3.775670568771962582e-02
4.955856854039485115e-02
6.172383621242465840e-02
7.388199916430218672e-02
8.563205971834289554e-02
9.657678273262330915e-02
1.063378178934565738e-01
1.145426320524612768e-01
1.208653182887876598e-01
1.250511904802158181e-01
1.268622179471814992e-01
1.261713345937222619e-01
1.229174096901061025e-01
1.170804667470509569e-01
1.087768526033394551e-01
9.815378656044977668e-02
8.543226824877117598e-02
7.092556324979816529e-02
5.496072086210403856e-02
3.792903227204822564e-02
2.025283485243501921e-02
2.357502571770433118e-03
-1.532390584209467749e-02
-3.235858672109093864e-02
-4.835096368576226322e-02
-6.294365848384068929e-02
-7.579595820785746396e-02
-8.666172367420325873e-02
-9.533200460771248941e-02
-1.016486821226900150e-01
-1.055645898117994197e-01
-1.070522166951999032e-01
-1.061698295460261482e-01
-1.030479298370967495e-01
-9.783508595646035755e-02
-9.075928982878361806e-02
-8.207362995995262644e-02
-7.205023282780460836e-02
-6.099500878839086981e-02
-4.921695949576240098e-02
-3.702022413447018934e-02
-2.470558697005438564e-02
-1.256353714370019026e-02
-8.436495811902427686e-04
1.021544421382361567e-02
2.041113957066068019e-02
2.959304749877408533e-02
3.762109418083551399e-02
4.441574114622106467e-02
4.993155383546820508e-02
5.414191593319483270e-02
5.707905646591562160e-02
5.878778150489120252e-02
5.934050434506932259e-02
5.884242149534254368e-02
5.740325735398602719e-02
5.515256629276062139e-02
5.222897289512272445e-02
4.877136490847733957e-02
4.491918414257065062e-02
4.081142181704271871e-02
3.657524939614523185e-02
3.232631899810050474e-02
2.817532905841703406e-02
2.420630528610972707e-02
2.049334166466204588e-02
1.709637059980930948e-02
1.404604883460223823e-02
1.136798633781383946e-02
9.065321816602968721e-03
7.123224867603737166e-03
5.522364955789057367e-03
4.224495401076835792e-03
3.185735199095739330e-03
2.358827281129165926e-03
1.690833781935257955e-03
1.128708474741483940e-03
6.245860380115616714e-04
1.339929680095400255e-04
-3.834298580427230457e-04
-9.527514183897143121e-04
-1.595177836192131736e-03
-2.320374009367929223e-03
-3.122129183677564875e-03
-3.991372273334062824e-03
-4.903517156894111016e-03
-5.825693824976886127e-03
-6.721821371895518073e-03
-7.546382573975148576e-03
-8.252114005063954094e-03
-8.792418873400580787e-03
-9.121452173917365264e-03
-9.194932810306456761e-03
-8.979399550745750108e-03
-8.446096353214735397e-03
-7.573613458220044246e-03
-6.358280877658661033e-03
-4.799820634353790631e-03
-2.913228555243479144e-03
-7.276387830055042541e-04
1.724295523994974835e-03
4.393172933649731188e-03
7.223722270909867585e-03
1.015630300999583076e-02
1.312272332042284731e-02
1.605383970348934000e-02
1.888111903617462062e-02
2.153649159874143279e-02
2.395422934338885951e-02
2.607899427371363626e-02
2.785848541703481174e-02
2.924964364341599635e-02
3.022416088652533223e-02
3.075652681450321765e-02
3.083754963121317777e-02
3.046817178914882143e-02
2.965394734898049722e-02
2.841627969378540675e-02
2.678025820857128994e-02
2.477752316998868554e-02
2.244826901081414458e-02
1.983385900205403285e-02
1.698070315942008107e-02
1.393776432651677721e-02
1.075482236708965450e-02
7.483923844836482854e-03
4.177541874478702885e-03
8.888398695018513707e-04
-2.328279394264947018e-03
-5.419852807771984894e-03
-8.331756688906951508e-03
-1.100980471340816044e-02
-1.340054376393727542e-02
-1.545219992972464082e-02
-1.711347414502790640e-02
-1.833750704904790751e-02
-1.908134241137356135e-02
-1.930439082625122135e-02
-1.897785808263909371e-02
-1.807691798379174736e-02
-1.658596780393963369e-02
-1.450652507061052712e-02
-1.184344258554225968e-02
-8.621584563325106892e-03
-4.880237114782603504e-03
-6.649659868977622970e-04
3.953611822975270501e-03
8.898101369419920276e-03
1.407991838459802560e-02
1.939353634493360887e-02
2.473126999600804704e-02
2.997773769344286646e-02
3.501302570196614117e-02
3.971895504056514870e-02
4.398335543124707453e-02
4.769569321294670622e-02
5.075874533586529486e-02
5.309179123748102025e-02
5.461887656650209200e-02
5.529388462992484293e-02
5.508500781278043157e-02
5.397381737057099088e-02
5.197756758823115358e-02
4.912044040154834451e-02
4.545035745483853168e-02
4.103939105456031605e-02
3.596421015798777210e-02
3.032352043548873499e-02
2.422456945098176370e-02
1.777801916782772648e-02
1.110188858021066843e-02
4.314839041296690894e-03
-2.469893894608517389e-03
-9.143604623518798713e-03
-1.560120402177147050e-02
-2.175489756948219625e-02
-2.752238290542178417e-02
-3.283230844336431503e-02
-3.763258860598674149e-02
-4.187441778947872256e-02
-4.552564970093113395e-02
-4.856553240001687533e-02
-5.097713993062419346e-02
-5.275782396177372546e-02
-5.390856523878096579e-02
-5.443501538557068975e-02
-5.434953697402662015e-02
-5.366532759692656251e-02
-5.239861908216273539e-02
-5.056733738478869089e-02
-4.819004464240284058e-02
-4.528725566287308824e-02
-4.187995228574375312e-02
-3.799170144866181181e-02
-3.364911353639796904e-02
-2.887995032982163673e-02
-2.371928513761706672e-02
-1.820551481233680102e-02
-1.238120366308917072e-02
-6.299447629077599593e-03
-1.536143109329753814e-05
6.407856811058359331e-03
1.289919834626942173e-02
1.938611705697157461e-02
2.578887937334701716e-02
3.202512354369382863e-02
3.801222477985070208e-02
4.366702683235192811e-02
4.890669168950327605e-02
5.365438047390121146e-02
5.783801024880736580e-02
6.138880950801658964e-02
6.425291020775240891e-02
6.638095026963286571e-02
6.773425497300648856e-02
6.829197767978670286e-02
6.803660663695396127e-02
6.696988827530271637e-02
6.510606669290149029e-02
6.246531997792302560e-02
5.908918889033669408e-02
5.502444611068604136e-02
5.032863635768187321e-02
4.507399376090134163e-02
3.933510816086311507e-02
3.319827086732968918e-02
2.675596510687341251e-02
2.010305608501831640e-02
1.334134611384007671e-02
6.573936797059979492e-03
-9.574205613841705459e-05
-6.563893675849427102e-03
-1.272765165521995423e-02
-1.849082333265885877e-02
-2.376009720248816251e-02
-2.844817625045400339e-02
-3.248216287884866244e-02
-3.579211849770391057e-02
-3.832483329082641416e-02
-4.004245013724791469e-02
-4.091249631096865319e-02
-4.092923456585670361e-02
-4.009626304006366770e-02
-3.843050025988794388e-02
-3.597471803994604922e-02
-3.277604117673908746e-02
-2.890159748438593523e-02
-2.443357022934895817e-02
-1.945822371117892843e-02
-1.407821589667928100e-02
-8.400769260108457981e-03
-2.535743237873683449e-03
3.402830923526021199e-03
9.301207312216530979e-03
1.505278152518777640e-02
2.055534552936146703e-02
2.571227954400559512e-02
3.044640409854166771e-02
3.468523682106113698e-02
3.837260313626429664e-02
4.147343966458662268e-02
4.395700278165676905e-02
4.581711191384169740e-02
4.705990384577824620e-02
4.769900633441406107e-02
4.776888243058939609e-02
4.730797054619167996e-02
4.636330297607565987e-02
4.499103802452996542e-02
4.324815458980962868e-02
4.119413747145028726e-02
3.888947754597922579e-02
3.639241932637433952e-02
3.375610483278873586e-02
3.103255680358237012e-02
2.826624269170493337e-02
2.549504466398002170e-02
2.275468234611349727e-02
2.007072317488818591e-02
1.746539137706139277e-02
1.495721865612536020e-02
1.255794561293654098e-02
1.027836509158618072e-02
8.126352071583879330e-03
6.107696890900862763e-03
4.228041683571702805e-03
2.492599432797057597e-03
9.064762350044688194e-04
-5.249617455172495006e-04
-1.795957997749922548e-03
-2.900801699027485796e-03
-3.834574400167910409e-03
-4.592820375716376476e-03
-5.172174209228123411e-03
-5.572869572284782323e-03
-5.796007363520401003e-03
-5.846876980607440717e-03
-5.735916100501925984e-03
-5.474864465090136835e-03
-5.083245321875506408e-03
-4.584280052563346509e-03
-4.004095244232635901e-03
-3.376485310471083988e-03
-2.736644359807889094e-03
-2.123012211099278325e-03
-1.577302365665976709e-03
-1.141177977499278733e-03
-8.550924322357012289e-04
-7.590164446946755586e-04
-8.894951082639391757e-04
-1.275722044365373321e-03
-1.945321673219659563e-03
-2.915580480205724224e-03
-4.195227968638785658e-03
-5.789531218129311159e-03
-7.687977433458187231e-03
-9.875110385190774553e-03
-1.232746867398334251e-02
-1.500763229612753560e-02
-1.787590412214561456e-02
-2.088170009694485102e-02
-2.396705470426201481e-02
-2.707179015793314408e-02
-3.012760212196016057e-02
-3.306417014636017782e-02
-3.581000671603083024e-02
-3.829196207590153389e-02
-4.043722862484538244e-02
-4.217746255915131443e-02
-4.344679149548067582e-02
-4.418313161008725898e-02
-4.433617731281048330e-02
-4.385830605753524708e-02
-4.271378436617973007e-02
-4.088075583164878235e-02
-3.834099257901882329e-02
-3.509732622231599014e-02
-3.116206822845839913e-02
-2.655675118801033296e-02
-2.132597080542593046e-02
-1.551864029350544585e-02
-9.199692714339919447e-03
-2.449408114491949916e-03
4.648712576857106510e-03
1.199596192235029279e-02
1.948811033045822622e-02
2.701833318319609920e-02
3.447454770854121997e-02
4.174433834217665396e-02
4.872000168665530789e-02
5.529753787010966565e-02
6.137658700212172969e-02
6.687321273924690113e-02
7.170841406248348870e-02
7.581585979352534199e-02
7.915016786996761922e-02
8.166989961933268649e-02
8.335652849281811883e-02
8.420626683274785862e-02
8.422215825712517367e-02
8.343159788286572121e-02
8.186786194668654870e-02
7.957511100096641143e-02
7.661221980828211708e-02
7.304003827931351833e-02
6.892770615856015637e-02
6.434870942070848587e-02
5.937672420846023397e-02
5.408587531070717380e-02
4.855023836270083021e-02
4.284021752281887835e-02
3.702214706273584260e-02
3.116113981207236164e-02
2.531528569557162794e-02
1.953968270473742039e-02
1.388687996282396073e-02
8.403395742235055671e-03
3.134701651628219420e-03
-1.877055340795417797e-03
-6.592753330826549123e-03
-1.097405860800646990e-02
-1.498636368124014323e-02
-1.859635636273600234e-02
-2.177328106900331198e-02
-2.449130076908268006e-02
-2.672564611935996509e-02
-2.845881434386494241e-02
-2.967872469433305294e-02
-3.037642128619175153e-02
-3.055604135455473186e-02
-3.022544348283560944e-02
-2.940142816170246420e-02
-2.811481912623906010e-02
-2.639898634546691825e-02
-2.430154690499923553e-02
-2.187881091661474792e-02
-1.919061819167894659e-02
-1.630867712163471331e-02
-1.330733560364173035e-02
-1.026304818418291923e-02
-7.254973073432860985e-03
-4.361614287698077803e-03
-1.654546961544237256e-03
7.981024265088718095e-04
2.934434865785301612e-03
4.709851828448059427e-03
6.083417871356958627e-03
7.031144045157264669e-03
7.546883381492367968e-03
7.629031703943692060e-03
7.300118188860220403e-03
6.592402195922728372e-03
5.546431625105258459e-03
4.221325309997098901e-03
2.679129794171135684e-03
9.889472558097332083e-04
-7.740230234541635099e-04
-2.535035286860051924e-03
-4.222729523709335166e-03
-5.766911321500420469e-03
-7.104546053046619826e-03
-8.185654901441834913e-03
-8.962953258925546868e-03
-9.406450654139780765e-03
-9.498405148715981933e-03
-9.226407685057336217e-03
-8.598953479151783680e-03
-7.630088039851310767e-03
-6.342864108218270423e-03
-4.773735904487703789e-03
-2.960925768718301355e-03
-9.494844558214548050e-04
1.211586914739965805e-03
3.473464040411529050e-03
5.788061837859516737e-03
8.107586071109349271e-03
1.038895053387486542e-02
1.259480617792783919e-02
1.468942314773851593e-02
1.664700356160743119e-02
1.844642618614519489e-02
2.007038597350106757e-02
2.151156082911496320e-02
2.276447211773459378e-02
2.382867175800750664e-02
2.470874222248404389e-02
2.540988122639707344e-02
2.593972285702673963e-02
2.630682294205531971e-02
2.651922359655690259e-02
2.658387047562970479e-02
2.650744142040499171e-02
2.629451083503382691e-02
2.594792700009773342e-02
2.547009986828996722e-02
2.486155130599541560e-02
2.412223001329982450e-02
2.325219543866746674e-02
2.225169869624920096e-02
2.112117768644839605e-02
1.986313313624090554e-02
1.848145221356751675e-02
1.698102005092581163e-02
1.537049725562085120e-02
1.365950817463986236e-02
1.185991672806544286e-02
9.986748968347749361e-03
8.055513889305707456e-03
6.084016621468275529e-03
4.091321499736648090e-03
2.096711525680796870e-03
1.201075419939153996e-04
-1.818466423382140464e-03
-3.699595742547617978e-03
-5.504570991976054546e-03
-7.214901536956809004e-03
-8.813411804926504084e-03
-1.028351221844698779e-02
-1.160895428729964013e-02
-1.277433215036632985e-02
-1.376438045587690534e-02
-1.456407660063098811e-02
-1.515862854647054975e-02
-1.553339496426707836e-02
-1.567455302176956958e-02
-1.556858261681900654e-02
-1.520324863333619853e-02
-1.456890290758156015e-02
-1.365650944314132295e-02
-1.246162963991898076e-02
-1.098340711177620346e-02
-9.222953071485281984e-03
-7.189981841201812003e-03
-4.896756702294619533e-03
-2.361169788067233634e-03
3.896616044842052262e-04
3.326969771519644112e-03
6.412887439272357132e-03
9.603745006196581779e-03
1.285360693749628205e-02
1.610858641505201819e-02
1.931293828085184697e-02
2.240926708439410983e-02
2.533796566350585144e-02
2.803973051261517482e-02
3.045929291595744076e-02
3.254348387293784506e-02
3.424305802514938241e-02
3.552019820676770995e-02
3.633958868903359313e-02
3.667749810585148318e-02
3.652292666993006698e-02
3.586816239834502568e-02
3.472363073336131450e-02
3.310741550366669977e-02
3.104462971058071993e-02
2.857687210954342263e-02
2.574859288609339034e-02
2.261349172115528772e-02
1.923361233833687650e-02
1.567220863639176218e-02
1.199749215417787555e-02
8.279341139336012304e-03
4.586338790511402565e-03
9.845955661574026449e-04
-2.460581475065931785e-03
-5.691295480831188962e-03
-8.655131036396306043e-03
-1.130269569069832641e-02
-1.359712545323791752e-02
-1.550506542470644900e-02
-1.700041149743388227e-02
-1.806833117000490596e-02
-1.869592446822042689e-02
-1.888051818891138198e-02
-1.862562423463989467e-02
-1.793759380154005476e-02
-1.683227953549926506e-02
-1.532771089299189010e-02
-1.344669502362931882e-02
-1.121811795697642486e-02
-8.671931404638261176e-03
-5.843625734423985897e-03
-2.771419004457014411e-03
5.048377787321483776e-04
3.940834697616925862e-03
7.491410277723121840e-03
1.110921374275361875e-02
1.474460902804134582e-02
1.834767242303765589e-02
2.186731322632814653e-02
2.525197984306164559e-02
2.845083814531911004e-02
3.141465446845274206e-02
3.409466250768166534e-02
3.644653741096830213e-02
3.842975950490041398e-02
4.000590304361758415e-02
4.114664135682521984e-02
4.182694499558563261e-02
4.202851536162258844e-02
4.174521647304026140e-02
4.097309935193466784e-02
3.972009325733739243e-02
3.800246720446034260e-02
3.583959228553089404e-02
3.326279023700885046e-02
3.030651345796202961e-02
2.700960999211089036e-02
2.341741102381721465e-02
1.957602582666992733e-02
1.553412416285444853e-02
1.134184389787311863e-02
7.049043168207244636e-03
2.704613104648308057e-03
-1.642810669011012144e-03
-5.946555702333451883e-03
-1.016232131076456532e-02
-1.424633892097283000e-02
-1.815785646088905608e-02
-2.185752885194462702e-02
-2.530688208124590860e-02
-2.846969502147207731e-02
-3.131016585388265994e-02
-3.379376959818296278e-02
-3.588724720251204592e-02
-3.755786856282014585e-02
-3.877579101368961584e-02
-3.951227470781790152e-02
-3.974143429175866493e-02
-3.944339662537466040e-02
-3.859960020155783073e-02
-3.720044159100589776e-02
-3.524360541120075130e-02
-3.273026918688753950e-02
-2.967744921498103455e-02
-2.610705352799873313e-02
-2.205049971755547109e-02
-1.755549576753314897e-02
-1.267256162957730581e-02
-7.466943027706718188e-03
-2.013696723415197253e-03
3.608769429259234447e-03
9.309846562169645998e-03
1.499594955800879689e-02
2.057145503230771097e-02
2.593788664606614877e-02
3.099729443853688898e-02
3.565860387490844136e-02
3.983448018270326074e-02
4.344352872507633440e-02
4.642247938380583694e-02
4.871210891366960921e-02
5.027050921992756022e-02
5.107563784483142022e-02
5.111025088107101072e-02
5.038397664674834631e-02
4.891831731802478989e-02
4.674470815017798403e-02
4.391895839878561664e-02
4.050121985946366493e-02
3.656511081388807288e-02
3.219693081544399565e-02
2.748500286272023002e-02
2.252640472389049256e-02
1.742132110698246458e-02
1.226967088427725547e-02
7.170835023265488897e-03
2.223655091604219598e-03
-2.480180014593955616e-03
-6.854506633982972684e-03
-1.081657827293424148e-02
-1.429853875939385635e-02
-1.723690817350534074e-02
-1.957812936648891181e-02
-2.128476476484887289e-02
-2.232237000960049858e-02
-2.267364643878589867e-02
-2.233213259975078135e-02
-2.129695808235224433e-02
-1.958689846920106184e-02
-1.722545730113009960e-02
-1.424752342022081106e-02
-1.070311243965339429e-02
-6.644991130037089001e-03
-2.140771285164298939e-03
2.734287878495490938e-03
7.900816281363643931e-03
1.326771347362341522e-02
1.874162483375607299e-02
2.422538114967288589e-02
2.961765671288211013e-02
3.481728149641808573e-02
3.972557539794700082e-02
4.424491451667696140e-02
4.828240831106229980e-02
5.175619856777748801e-02
5.458679732617549574e-02
5.670989411295775107e-02
5.807475302579293008e-02
5.863592317780252222e-02
5.837384715430692095e-02
5.727777307499425097e-02
5.535066578941558874e-02
5.262140714182773210e-02
4.912325219423865214e-02
4.491023488437018152e-02
4.005162671422774628e-02
3.462100653807625300e-02
2.870891266660464611e-02
2.241048023637951317e-02
1.582402891117272101e-02
9.052785473148344114e-03
2.199941639610540275e-03
-4.636094414370459278e-03
-1.135978244266346374e-02
-1.787959302140502624e-02
-2.411757024891955647e-02
-2.999895695281958041e-02
-3.545998587845677202e-02
-4.045075243197906317e-02
-4.492413294455190054e-02
-4.884845391808840392e-02
-5.219958240843888125e-02
-5.495796292690340035e-02
-5.711642773487554670e-02
-5.867012942353695693e-02
-5.961961774283698612e-02
-5.997102808440653299e-02
-5.973132113209470018e-02
-5.891108817051754487e-02
-5.752235690735506279e-02
-5.557825300662372348e-02
-5.309431722829065919e-02
-5.008659845432898716e-02
-4.657437886252401710e-02
-4.257968698586684503e-02
-3.812605967547327140e-02
-3.324424319895010610e-02
-2.796731866562709307e-02
-2.233333653878252778e-02
-1.638924722169058518e-02
-1.018359961078348086e-02
-3.773638946781866614e-03
2.777336797749180991e-03
9.403960905973330481e-03
1.603300546421346229e-02
2.258922962207383228e-02
2.899594248120137413e-02
3.517433307556666611e-02
4.104585209432171089e-02
4.653618038713226712e-02
5.157340400910077199e-02
5.608937429016057352e-02
6.002798878082271639e-02
6.333592026222606419e-02
6.597135396811039387e-02
6.790626430153233473e-02
6.911586625374402382e-02
6.959393539738630008e-02
6.934282965471849636e-02
6.837183300284517540e-02
6.670801676307358541e-02
6.438177107158057910e-02
6.143424835569134823e-02
5.791718020008958245e-02
5.388451449178336544e-02
4.940085763512563899e-02
4.453480631447107735e-02
3.935827504460578941e-02
3.395009363156052673e-02
2.839014750533400133e-02
2.276135923204028813e-02
1.714910107751121959e-02
1.163865932377117218e-02
6.314575626049960359e-03
1.261123579174652093e-03
-3.440990461872459223e-03
-7.717117538565737046e-03
-1.149419685882856201e-02
-1.471117140269092780e-02
-1.731491191034367425e-02
-1.925798113099772002e-02
-2.051407863895172295e-02
-2.106228077164381401e-02
-2.089738175807913725e-02
-2.003598552635557292e-02
-1.849902060007965407e-02
-1.633241739788422742e-02
-1.359557714958248634e-02
-1.035558483079118339e-02
-6.702495001655002678e-03
-2.731016318003465747e-03
1.455220279246669315e-03
5.742434991926620956e-03
1.001637139935608947e-02
1.416330351181182765e-02
1.806975464466518272e-02
2.162812659152381356e-02
2.474518399365949195e-02
2.733080171039243070e-02
2.931437057793646189e-02
3.064350234261658396e-02
3.127203447311910356e-02
3.118512083656444292e-02
3.037904189651277967e-02
2.886450232297121596e-02
2.668070810269113080e-02
2.387151677682658457e-02
2.050015289014709557e-02
1.664467250795770639e-02
1.238638924606218564e-02
7.819588481024397977e-03
3.042214695369003380e-03
-1.847173558387967506e-03
-6.749029227984711977e-03
-1.156439911628072414e-02
-1.620196614506437885e-02
-2.057519753530287140e-02
-2.460182459553716949e-02
-2.821461877611684127e-02
-3.134999717502851696e-02
-3.395531449252749828e-02
-3.599233198738736178e-02
-3.742570870603741107e-02
-3.823658765715926000e-02
-3.841452882667169277e-02
-3.795490615165464376e-02
-3.686958878260434419e-02
-3.517377434617119381e-02
-3.289293896144825091e-02
-3.006366273494999464e-02
-2.672481428200453729e-02
-2.292696273721537767e-02
-1.872552450853704267e-02
-1.417950142957040416e-02
-9.356145708728620669e-03
-4.324050273036682095e-03
8.448476980807374456e-04
6.075645564800300456e-03
1.129342929363958380e-02
1.642377215884971431e-02
2.139243572614448960e-02
2.612800503652714865e-02
3.056435439040420393e-02
3.463660088757575251e-02
3.828895393444133044e-02
4.147223283017995726e-02
4.414093437683723475e-02
4.626453059800066797e-02
4.781662672851547113e-02
4.878012586669023404e-02
4.915213341201457586e-02
4.893225412102138877e-02
4.813365645582473595e-02
4.677756825166314719e-02
4.488885853550667743e-02
4.250435834330017898e-02
3.966356717126200138e-02
3.641101025315342243e-02
3.279749775615198315e-02
2.887471948875857536e-02
2.469826317339793645e-02
2.032560082629238790e-02
1.581473530870513081e-02
1.122507527630810936e-02
6.616253782048178711e-03
2.047626755965856193e-03
-2.421734221799732266e-03
-6.733049729793634010e-03
-1.082930943512998290e-02
-1.465420198546055555e-02
-1.815301142037190757e-02
-2.127450647487455493e-02
-2.396822598945355653e-02
-2.618902999772371870e-02
-2.789625958782497583e-02
-2.905165579071863902e-02
-2.962831184818892627e-02
-2.960297148121361632e-02
-2.896075512541786134e-02
-2.770165270821466075e-02
-2.582851959390718849e-02
-2.336126841226135800e-02
-2.033158065734845185e-02
-1.677649296549774474e-02
-1.275352843969870462e-02
-8.325518583159132596e-03
-3.564708129507655233e-03
1.443015072517775388e-03
6.609975899451530322e-03
1.184151549982766574e-02
1.703904168028198135e-02
2.210493079967166402e-02
2.694479133305789989e-02
3.146517416848941540e-02
3.558220717579155951e-02
3.922339076430472748e-02
4.231980929119166096e-02
4.482465575546160791e-02
4.670125863842769509e-02
4.792328323853022737e-02
4.849073483183437283e-02
4.840858627038888834e-02
4.769961218947581238e-02
4.640393655982087695e-02
4.456502487178477800e-02
4.224196630133394276e-02
3.949962763132994215e-02
3.640501938373639362e-02
3.302956975150509594e-02
2.944497049014839843e-02
2.571840834372010609e-02
2.191346763063348538e-02
1.809105139359800871e-02
1.429985160482883169e-02
1.058485583238980704e-02
6.983778972809545973e-03
3.522096319103378004e-03
2.233178353849632480e-04
-2.898422698853593375e-03
-5.835129830426542298e-03
-8.580317029125011929e-03
-1.113278551551881088e-02
-1.349257363076024341e-02
-1.565932928724899503e-02
-1.763216333906606273e-02
-1.940970182117890755e-02
-2.098651592207841088e-02
-2.235501137756550072e-02
-2.350605575576563203e-02
-2.442594525157072011e-02
-2.510008821821595182e-02
-2.551300674736476509e-02
-2.564822346281223076e-02
-2.548971990701198037e-02
-2.502511601837703603e-02
-2.424361681897801296e-02
-2.313780692334206981e-02
-2.170843758231904425e-02
-1.995788024307626474e-02
-1.789671636128447457e-02
-1.554312705093860436e-02
-1.291743766849634198e-02
-1.005039330771894529e-02
-6.976397637754296922e-03
-3.733421122681559144e-03
-3.664171098199065987e-04
3.078687520579038300e-03
6.553585787834121518e-03
1.000816371538285933e-02
1.339270239731993328e-02
1.665944543115946766e-02
1.976123145735227821e-02
2.265403631914720065e-02
2.529884323256465992e-02
2.765770416332877582e-02
2.969952511793574196e-02
3.139746867826412324e-02
3.272722090846963416e-02
3.367320938539809794e-02
3.422195324626217672e-02
3.436588909702769506e-02
3.410518057599528502e-02
3.344168673240872913e-02
3.238727166585765593e-02
3.095886327904393345e-02
2.917761733594293264e-02
2.707659831313689869e-02
2.469128895323310577e-02
2.206542753611325652e-02
1.925159464831022182e-02
1.630406432378150861e-02
1.328551446935804722e-02
1.026206602495732464e-02
7.300814537857508620e-03
4.471063395856247034e-03
1.842158155744680163e-03
-5.214500374844032934e-04
-2.559612921056495134e-03
-4.215229108348672073e-03
-5.446511300572013693e-03
-6.216814573209544260e-03
-6.500494385758425094e-03
-6.292324231253442791e-03
-5.590821844038835510e-03
-4.415201220793638255e-03
-2.799591814200073393e-03
-7.835654457186971497e-04
1.571819094403206947e-03
4.199735187027361927e-03
7.026338518200211068e-03
9.967158976699938208e-03
1.293682330162933616e-02
1.584977398269755977e-02
1.862034560980612222e-02
2.116633053380357482e-02
2.341711327932630843e-02
2.530486824458411110e-02
2.677455365159579423e-02
2.778697709890571091e-02
2.830664035743462800e-02
2.831965266476823423e-02
2.782248215661947688e-02
2.681934842118607540e-02
2.533511031281365095e-02
2.339851672648273276e-02
2.104927289097854523e-02
1.833823003192372458e-02
1.531793961741391083e-02
1.204848200383389425e-02
8.592850908400614246e-03
5.014277033701008274e-03
1.376490846504773574e-03
-2.256927303693974200e-03
-5.826051929518638768e-03
-9.274008954886767131e-03
-1.254549104407493704e-02
-1.559251722755984268e-02
-1.836942841612028074e-02
-2.083479524476660946e-02
-2.295462971369007996e-02
-2.469628285168230103e-02
-2.603444955596479621e-02
-2.694884765821629197e-02
-2.742164203540378709e-02
-2.744430345034083729e-02
-2.701072616636857743e-02
-2.612071568821464074e-02
-2.478257057654825735e-02
-2.300624338105011421e-02
-2.081127187019299676e-02
-1.822254611973708055e-02
-1.526829239997032350e-02
-1.198709849513295359e-02
-8.419786124047881626e-03
-4.613206025581806542e-03
-6.213069298618362560e-04
3.500750580855292639e-03
7.691782691262592613e-03
1.188787416260970661e-02
1.602436221876507930e-02
2.003472182965860410e-02
2.385226626888582724e-02
2.741310499145875948e-02
3.065604927893140694e-02
3.352162491024687080e-02
3.595982086369178127e-02
3.792412747346159130e-02
3.937447339066358493e-02
4.028398024967896895e-02
4.062822501739004472e-02
4.039588450043767043e-02
3.958602068066528756e-02
3.820143915647449678e-02
3.626114982943765691e-02
3.378900671067668754e-02
3.081641401332589972e-02
2.738737045003946866e-02
2.354788278723517550e-02
1.935348649086829700e-02
1.486590070022694721e-02
1.014887478923241076e-02
5.273346499187626935e-03
3.119739482718743295e-04
-4.660703961373490779e-03
-9.567583575440640614e-03
-1.433145924408989191e-02
-1.887586488627678027e-02
-2.312472677206604474e-02
-2.700350175497203548e-02
-3.044220154640823323e-02
-3.337189023124929876e-02
-3.572950096081183025e-02
-3.745852898565368155e-02
-3.850459620633549240e-02
-3.882583729284284912e-02
-3.838577485362197617e-02
-3.715498203513788872e-02
-3.512089339229553658e-02
-3.227421815885727491e-02
-2.862148716577309071e-02
-2.418375138532404683e-02
-1.898662648421820670e-02
-1.307808390651736888e-02
-6.513894781115502249e-03
6.398074458021903513e-04
8.296778287033410373e-03
1.636742461183900502e-02
2.474713568693951218e-02
3.331999764452128754e-02
4.196708226153463700e-02
5.055737225942413815e-02
5.895648932894916733e-02
6.702842399535718920e-02
7.463458622336212323e-02
8.163681927351519596e-02
8.790418683620050688e-02
9.331019756270639287e-02
9.773410618642523751e-02
1.010751606982428774e-01
1.032374980307567830e-01
1.041442734116776042e-01
1.037432621299251012e-01
1.019880596506493597e-01
9.886749755111649829e-02
9.438808157978326174e-02
8.857101424796313960e-02
8.147851214203616355e-02
7.318105983660039282e-02
6.377742818587256446e-02
5.339642578787989063e-02
4.217317069966226156e-02
3.027485366434484737e-02
1.788170376190673441e-02
5.182210831829540607e-03
-7.616479632129156095e-03
-2.030461383420386484e-02
-3.267178875268985511e-02
-4.450703549204092918e-02
-5.560317327568628509e-02
-6.577292317828052626e-02
-7.483568104679408362e-02
-8.263020948714482061e-02
-8.903090034148163079e-02
-9.391926870772382419e-02
-9.722097438645761758e-02
-9.889321595549346866e-02
-9.890798159498936926e-02
-9.729596278833153866e-02
-9.410368236617439042e-02
-8.940878213335756719e-02
-8.333561157095231708e-02
-7.601599934688769988e-02
-6.761878293656896355e-02
-5.833440289866699546e-02
-4.835997091968963907e-02
-3.791384026215653680e-02
-2.721871918173753013e-02
-1.649574477641276710e-02
-5.964122961028619184e-03
4.160060300342266829e-03
1.368441338802561455e-02
2.242781514522714653e-02
3.022503763709545599e-02
3.695294431364545135e-02
4.249694884015847718e-02
4.678052946459976269e-02
4.976555706528997675e-02
5.142398861003891902e-02
5.177986744217710768e-02
5.087730382674424817e-02
4.878005549252468348e-02
4.559396846365730560e-02
4.143168969690826792e-02
3.642852727524363565e-02
3.073854649507928513e-02
2.451833162077640335e-02
1.793408887862324094e-02
1.115493066529488209e-02
4.345724023909491168e-03
-2.336069223445719038e-03
-8.735201051328925215e-03
-1.471471874197480961e-02
-2.015007400835413728e-02
-2.492432407526703336e-02
-2.894943010622066937e-02
-3.214481435964987310e-02
-3.444806122803295567e-02
-3.582262326195001512e-02
-3.623671605872710172e-02
-3.568504495751880640e-02
-3.417697537394542157e-02
-3.173024923425211280e-02
-2.838834569020234205e-02
-2.420023249830043771e-02
-1.922928390941723228e-02
-1.355568961734831407e-02
-7.262749259959518956e-03
-4.497500190292404859e-04
6.776831318173590427e-03
1.430630085332536619e-02
2.201745132006920763e-02
2.978734988704320047e-02
3.749093200174855034e-02
4.500109092700447372e-02
5.219184352028936186e-02
5.894424739049799328e-02
6.514196642547026572e-02
7.067695723070753500e-02
7.545802163143937313e-02
7.939742917451035609e-02
8.242943605936098317e-02
8.450557888578508203e-02
8.558480931786255352e-02
8.565831896921830002e-02
8.472687362065180194e-02
8.280791090755380834e-02
7.994643423437311491e-02
7.619187045845016160e-02
7.161493237190792727e-02
6.630002552560890217e-02
6.033558804076109144e-02
5.382412782380098515e-02
4.687143434930696878e-02
3.958462756376229796e-02
3.207262604240047194e-02
2.444364612714177570e-02
1.679852127086314123e-02
9.234210499511725026e-03
1.842856892250247999e-03
-5.297523238054459120e-03
-1.211189151443830408e-02
-1.853586117000844552e-02
-2.451685290599511791e-02
-3.000468855417321584e-02
-3.496161963236076725e-02
-3.935519002390016480e-02
-4.315659499847732117e-02
-4.634566060955902511e-02
-4.890371112094160644e-02
-5.081683503307477673e-02
-5.207545578758845939e-02
-5.267129921709019780e-02
-5.260238120713532639e-02
-5.186890381777170544e-02
-5.047534201455045055e-02
-4.843439120579149521e-02
-4.576040698354103681e-02
-4.247811488676355579e-02
-3.861997810199977593e-02
-3.422220364803069820e-02
-2.933655508365202308e-02
-2.401918587486164339e-02
-1.833491659083024902e-02
-1.236216005145788707e-02
-6.181467762636286105e-03
1.163519654221204999e-04
6.434232654382184523e-03
1.267406097975085945e-02
1.873438658440436042e-02
2.451316059613561915e-02
2.991317616904583948e-02
3.484344069073602029e-02
3.921542154353967191e-02
4.295768501070093559e-02
4.600729979687212534e-02
4.831041312386930714e-02
4.983832315314450090e-02
5.056744140298152779e-02
5.049345802562003882e-02
4.963236052949236699e-02
4.800466379339531076e-02
4.565415127331360484e-02
4.263398443903654300e-02
3.900454754360942883e-02
3.484240242326576420e-02
3.022668491796732040e-02
2.524310031248437960e-02
1.998303085570599102e-02
1.453814102262084712e-02
9.000589055999116614e-03
3.462663584314192456e-03
-1.986158537591699476e-03
-7.261528226777279847e-03
-1.228024769841040698e-02
-1.696714458312762949e-02
-2.125273049390010230e-02
-2.507054659973424054e-02
-2.836612071420689662e-02
-3.108821471752076099e-02
-3.319352909429280907e-02
-3.465057584459526469e-02
-3.543025270653545056e-02
-3.551780463802529930e-02
-3.490677814614568525e-02
-3.359636530655667197e-02
-3.160397948524342610e-02
-2.895114222849293206e-02
-2.567190839169945782e-02
-2.181560579583302975e-02
-1.743464852228606213e-02
-1.259832901143694700e-02
-7.383884343420792952e-03
-1.873556340864667401e-03
3.837348731501652628e-03
9.651219083099798687e-03
1.546631972075790395e-02
2.117679244872715597e-02
2.667727589934889773e-02
3.186656287999208720e-02
3.664506121556714013e-02
4.091977389074433202e-02
4.461172564193761902e-02
4.764487938456452021e-02
4.996206380605893588e-02
5.152158923369343224e-02
5.228809199126132484e-02
5.225481690315066097e-02
5.142388942991096834e-02
4.981184500447221469e-02
4.746012358562325811e-02
4.441415070571202994e-02
4.073794022310928131e-02
3.650799934215522707e-02
3.180427694584810755e-02
2.671918643374968094e-02
2.134819441196939352e-02
1.578808950970939096e-02
1.013752696726312637e-02
4.494659103270503067e-03
-1.048418349221457053e-03
-6.402932879533632625e-03
-1.148432707554068039e-02
-1.622100584989917202e-02
-2.054423971097219317e-02
-2.439627155034292116e-02
-2.773204162110872589e-02
-3.050941152662465378e-02
-3.270246051535964649e-02
-3.429249971580230344e-02
-3.526699036348730082e-02
-3.562862490802777560e-02
-3.538290321898847346e-02
-3.454533282757522167e-02
-3.314092664311290432e-02
-3.119696284504516054e-02
-2.875164113577808461e-02
-2.584710509768062270e-02
-2.252941633546628672e-02
-1.885251646126962638e-02
-1.487156655392067595e-02
-1.064589875989994244e-02
-6.238095251507292348e-03
-1.711027871777372027e-03
2.871495505714207440e-03
7.445427799978456863e-03
1.194878146587031488e-02
1.632294450945624698e-02
2.051024741551515929e-02
2.446022430090343674e-02
2.812700270242610504e-02
3.146794319317905431e-02
3.445196903738370620e-02
3.705083562407830017e-02
3.924411355552328423e-02
4.102184733389941523e-02
4.237601784740050587e-02
4.330919292865314379e-02
4.382944334227805577e-02
4.394758863275659289e-02
4.368235386624109290e-02
4.305398769821729144e-02
4.208507877961126936e-02
4.080078748991483595e-02
3.922635828799817675e-02
3.738670744943205920e-02
3.530661078860566210e-02
3.301019934350647028e-02
3.052008733225186968e-02
2.785866964005080659e-02
2.504831778438916523e-02
2.211138220253918568e-02
1.907075208847413758e-02
1.595225237481450592e-02
1.278272410278505702e-02
9.591548098821961119e-03
6.412948106706319040e-03
3.281992859280919057e-03
2.379912240463707626e-04
-2.676611442101273740e-03
-5.418855812488133396e-03
-7.943876512784407706e-03
-1.020632935614865927e-02
-1.216309636136090125e-02
-1.377452030158724666e-02
-1.500216480237947375e-02
-1.581742469107801780e-02
-1.619764091126874722e-02
-1.612527816061799790e-02
-1.560019764541046433e-02
-1.462635703541100701e-02
-1.322057731138512673e-02
-1.141604603962883754e-02
-9.249078665341928240e-03
-6.773034716166086329e-03
-4.049666270375388254e-03
-1.144765338623157137e-03
1.864876364685776923e-03
4.900558981658418786e-03
7.882972635402663020e-03
1.073217068467340746e-02
1.336964999883044278e-02
1.572643659164923990e-02
1.773738463401641763e-02
1.934509192614848952e-02
2.050937986928039539e-02
2.119337570471765270e-02
2.137753477557861187e-02
2.105715813569179751e-02
2.023227523718163987e-02
1.892468455362014343e-02
1.716323067963304930e-02
1.498548124070397253e-02
1.244476413631387737e-02
9.596730386606820706e-03
6.505743460089826076e-03
3.242283869037371029e-03
-1.223839627928552040e-04
-3.514314567679219757e-03
-6.858923786691521231e-03
-1.008399401081688448e-02
-1.312079805881515709e-02
-1.590172272262306563e-02
-1.836745084920884605e-02
-2.046342330800498058e-02
-2.213908616467656285e-02
-2.335673705449060195e-02
-2.408158325861324556e-02
-2.428878159509006984e-02
-2.396550920212003541e-02
-2.310165232262278989e-02
-2.170248028178869623e-02
-1.978044059581714198e-02
-1.735390748144186382e-02
-1.445661863922752255e-02
-1.112521718090985628e-02
-7.406094263112817343e-03
-3.355305794696182391e-03
9.691406812910308144e-04
5.499884225586809672e-03
1.016603539594570366e-02
1.489473602324350998e-02
1.960899186160610860e-02
2.423137266046908669e-02
2.868587987707428219e-02
3.289767976693593748e-02
3.679374370519233883e-02
4.030959307528202140e-02
4.338342159182879965e-02
4.596108907517559850e-02
4.800158824558303783e-02
4.946651823733599213e-02
5.033347402404292348e-02
5.059070780166305403e-02
5.023169988256152158e-02
4.926929009929054137e-02
4.772118338335226695e-02
4.561491664390451839e-02
4.299178857063707532e-02
3.989523942213007296e-02
3.637908130101804444e-02
3.250276400948051703e-02
2.832757334331544724e-02
2.392025988603366932e-02
1.934861910986144726e-02
1.468043208996823792e-02
9.983463383830449775e-03
5.324898262698525044e-03
7.677277681673432691e-04
-3.626914066045701206e-03
-7.800752582364585581e-03
-1.170254634367431587e-02
-1.528243492482171326e-02
-1.849709129698155069e-02
-2.130934087330163887e-02
-2.368390336497863680e-02
-2.559496843843316743e-02
-2.702012539447005979e-02
-2.794187648445701361e-02
-2.835252029592511686e-02
-2.824615710934945401e-02
-2.762649316726747961e-02
-2.650465504394470401e-02
-2.489480075515471125e-02
-2.282400085664013784e-02
-2.032309438233355706e-02
-1.742971381179576895e-02
-1.419252751349741465e-02
-1.066198919335112349e-02
-6.897307061473931071e-03
-2.963222708273759685e-03
1.073989592489036152e-03
5.142816347762846005e-03
9.170577729196906919e-03
1.308542495365137663e-02
1.681661338363336228e-02
2.029438301484881579e-02
2.345687954668652583e-02
2.624632406720072905e-02
2.861005591156946457e-02
3.051014979927731130e-02
3.191181200620913511e-02
3.279313381364735991e-02
3.314624640512315451e-02
3.296661432865087560e-02
3.226757604300489052e-02
3.106994530029230303e-02
2.940060871442582574e-02
2.730055995838894661e-02
2.481314726343086113e-02
2.198830052562131612e-02
1.888183620670826762e-02
1.555023070234614127e-02
1.205239782912572929e-02
8.448058680980044532e-03
4.795849425053280365e-03
1.152354254114400928e-03
-2.426371377492434096e-03
-5.888458064943822949e-03
-9.185106117066785258e-03
-1.226911157578544978e-02
-1.509980736277598268e-02
-1.763834702020587730e-02
-1.984999458186234231e-02
-2.170634811413884799e-02
-2.318022746955857721e-02
-2.425163307741434043e-02
-2.490487000544355095e-02
-2.512698072204429950e-02
-2.491416296731296248e-02
-2.426474877446661849e-02
-2.318363655698707504e-02
-2.168400754762286539e-02
-1.978081863346634051e-02
-1.749918815482936346e-02
-1.486919453003801572e-02
-1.192441111275349686e-02
-8.707884123557989298e-03
-5.264435300324215618e-03
-1.643042207823924676e-03
2.103016629922820589e-03
5.920281034303712976e-03
9.755400326572310002e-03
1.355508108190889988e-02
1.726887310138894641e-02
2.085259981791100573e-02
2.426343820737027202e-02
2.746755019284040020e-02
3.043872949414400120e-02
3.315360607168098273e-02
3.560196870343695225e-02
3.777782981132030149e-02
3.968078438508956113e-02
4.132042447422702020e-02
4.270774774741264990e-02
4.385848419945873738e-02
4.479165756564360001e-02
4.552598333913898676e-02
4.607866199032971399e-02
4.646642364592643015e-02
4.670147366449808185e-02
4.678940188879133349e-02
4.673429755239803113e-02
4.653064983532073651e-02
4.616749125396470144e-02
4.563110032426356821e-02
4.489908203483682081e-02
4.394724935911285130e-02
4.274985145491527749e-02
4.127926440237927874e-02
3.950849297619095368e-02
3.741619304555408865e-02
3.498363998745461501e-02
3.219720602348994515e-02
2.905640432806244622e-02
2.556342295989717447e-02
2.173337506630668159e-02
1.759407894669439212e-02
1.317672208615320792e-02
8.529551774206755796e-03
3.707203611867777859e-03
-1.230128604627467488e-03
-6.210665191823981808e-03
-1.116099797391307408e-02
-1.600488157466448819e-02
-2.066378218268216660e-02
-2.506052256981541188e-02
-2.912472069366425081e-02
-3.278812942914406670e-02
-3.599084072594230244e-02
-3.868710635680210758e-02
-4.083407991416891647e-02
-4.240724436945650377e-02
-4.339418812091063588e-02
-4.378852659297551714e-02
-4.360600547008174066e-02
-4.286788050945998518e-02
-4.160645575981632149e-02
-3.986936556473438809e-02
-3.770654581104082581e-02
-3.517871573733461626e-02
-3.235240333614412128e-02
-2.929541259545245108e-02
-2.607925686772024493e-02
-2.277604801734298481e-02
-1.945484521051722704e-02
-1.618123525206078758e-02
-1.301905874419908085e-02
-1.002097738373009667e-02
-7.234750670848139921e-03
-4.701539342459004102e-03
-2.446428656541012152e-03
-4.914150032515555294e-04
1.155351449611710483e-03
2.498647930835122197e-03
3.546734904053829799e-03
4.324801154326434957e-03
4.864035908282720796e-03
5.201599206870084757e-03
5.386445992470107955e-03
5.469230088596354483e-03
5.505263213575689075e-03
5.553424166318095961e-03
5.672026289257169583e-03
5.916428060384460938e-03
6.341061019726786444e-03
6.993990124462144860e-03
7.913028454742631473e-03
9.133619247202885705e-03
1.067509759668011995e-02
1.254670639929535321e-02
1.475158375730520159e-02
1.727151413759275486e-02
2.008319250171963083e-02
2.315125446302703643e-02
2.642445155884573169e-02
2.984900890266203172e-02
3.335873257417508453e-02
3.688109009945587241e-02
4.034191385239655619e-02
4.366248815246807219e-02
4.676342267338747666e-02
4.956894524020370729e-02
5.200719241333268822e-02
5.400850427613454463e-02
5.551676239243126532e-02
5.648147487283509266e-02
5.686045070824258946e-02
5.663064074261511122e-02
5.577258984646923934e-02
5.428364009787071953e-02
5.217602822031690984e-02
4.946622929333722302e-02
4.619057022109488569e-02
4.239203978752604379e-02
3.812113029108470802e-02
3.344238283452109772e-02
2.842245582155286318e-02
2.313588395416643975e-02
1.766292781771953979e-02
1.208475994403675202e-02
6.485875486037477079e-03
9.516227598354055905e-04
-4.434273365175060190e-03
-9.590567819575845920e-03
-1.443698013853440126e-02
-1.890110161460073143e-02
-2.291520115009187952e-02
-2.641578976148743069e-02
-2.935352512116651963e-02
-3.168237724636385755e-02
-3.336785536634682275e-02
-3.438989906584306172e-02
-3.473169414595768389e-02
-3.439526935390144202e-02
-3.339176989138688267e-02
-3.173969200621009484e-02
-2.947729801534012400e-02
-2.664669490380095623e-02
-2.330271257737509885e-02
-1.951323565959032710e-02
-1.534871582789400571e-02
-1.089210429816266090e-02
-6.231244502209221624e-03
-1.456255788746695611e-03
3.337790889323710361e-03
8.055353942427000494e-03
1.260405432552222892e-02
1.689417621856313320e-02
2.083870450869964100e-02
2.436377203710157063e-02
2.739974625670082639e-02
2.988729297876148439e-02
3.178535876943706928e-02
3.305635287806528433e-02
3.368288798472651724e-02
3.366151636816854670e-02
3.299494301740620722e-02
3.170937736752950376e-02
2.983712503846459169e-02
2.742158256709146397e-02
2.452222116918628680e-02
2.120086209326678059e-02
1.752993102589376490e-02
1.358782714509557468e-02
9.454092180847532140e-03
5.211701103808033357e-03
9.442300762122048455e-04
-3.267381918546678581e-03
-7.345327512140869229e-03
-1.121314901550439155e-02
-1.480322108079725960e-02
-1.805196891491551645e-02
-2.090058348427053375e-02
-2.330240795525930636e-02
-2.521317828658623666e-02
-2.659906123790681948e-02
-2.743638926196415029e-02
-2.770443662567988879e-02
-2.739749549295207587e-02
-2.651544440154966764e-02
-2.506527068008249787e-02
-2.306865540840900494e-02
-2.054985593581047654e-02
-1.754509379489808604e-02
-1.410015765948426786e-02
-1.026378029621773449e-02
-6.097359599521931343e-03
-1.666095684046443003e-03
2.960292775729431863e-03
7.704482932593769914e-03
1.248822663743717754e-02
1.723095747571682518e-02
2.185059134053285446e-02
2.626622793980366161e-02
3.040152929375749408e-02
3.418139610431119441e-02
3.753799157443656748e-02
4.041346891581678452e-02
4.275252287825953568e-02
4.451635757654651832e-02
4.567499426445186667e-02
4.620542300888720588e-02
4.610537298798524780e-02
4.537692765700275521e-02
4.403560943086921170e-02
4.211209630480985955e-02
3.963994348631549175e-02
3.666738138611289749e-02
3.324900208959272879e-02
2.944300173371461327e-02
2.531624025702797903e-02
2.093695414619058115e-02
1.637521241561907051e-02
1.170278037331571458e-02
6.990961419476221517e-03
2.308110052920061932e-03
-2.278471579254180875e-03
-6.704608279344325371e-03
-1.091225094292899711e-02
-1.484453213117429074e-02
-1.845147336221939285e-02
-2.168832631872043976e-02
-2.451250329046025106e-02
-2.689046934923815246e-02
-2.879129067449652524e-02
-3.018915772486725074e-02
-3.106643984646854234e-02
-3.140704692015787447e-02
-3.120381865485717665e-02
-3.045514046623421650e-02
-2.916272211599547914e-02
-2.733979241752429457e-02
-2.500233536264741263e-02
-2.217409499910719464e-02
-1.888894845782046819e-02
-1.518277451137109435e-02
-1.110268463167796496e-02
-6.701474051049192450e-03
-2.035430599044279858e-03
2.829353216240334395e-03
7.824897890420207114e-03
1.287914293029182589e-02
1.791565679406907294e-02
2.285778086451833307e-02
2.762877185141163899e-02
3.215186369083106871e-02
3.635313010997807265e-02
4.016514707751214081e-02
4.352196672800980742e-02
4.636814959242692435e-02
4.865749457270005657e-02
5.034765725019161448e-02
5.141499542721211791e-02
5.184211531197903400e-02
5.162178192628443657e-02
5.076561459564321588e-02
4.928842459937755188e-02
4.722052957740711238e-02
4.460342234879168671e-02
4.148207112658001960e-02
3.791501217645538296e-02
3.396441535436171832e-02
2.969640075421972961e-02
2.518306969476244092e-02
2.049707303351401902e-02
1.571158927416991744e-02
1.090010741380327206e-02
6.134761976811226383e-03
1.483135050114309413e-03
-2.988289595390421736e-03
-7.218142873664388538e-03
-1.115139688164240930e-02
-1.473454745758185844e-02
-1.792310035794628109e-02
-2.067688159374586263e-02
-2.295941312790046596e-02
-2.474406828878818881e-02
-2.600616756262260493e-02
-2.672840578487047092e-02
-2.690097979621648705e-02
-2.651614705359026797e-02
-2.557697848036886296e-02
-2.409075660654844825e-02
-2.207017640981184803e-02
-1.953963880666351183e-02
-1.652568857881031583e-02
-1.306526439296692987e-02
-9.203982676334550306e-03
-4.990238734449119716e-03
-4.849244760467838825e-04
4.247134300435709796e-03
9.136200880568219607e-03
1.410389943263553637e-02
1.907068075387239117e-02
2.395327314611745209e-02
2.866585886208193948e-02
3.312327579893306617e-02
3.724315442625660694e-02
4.094394736354497327e-02
4.415056029079596905e-02
4.679717040990759996e-02
4.882041792959559284e-02
5.017373108841890333e-02
5.081991305743837478e-02
5.072922802341438969e-02
4.989520181104296903e-02
4.831644337048562193e-02
4.600723486026093989e-02
4.300031057459186012e-02
3.933192248129663976e-02
3.505673002867713134e-02
3.023774589308794725e-02
2.494265169214996899e-02
1.925086974964416650e-02
1.324379195154480604e-02
7.005741399091304500e-03
6.238734973119299670e-04
-5.815028606044324831e-03
-1.222706013785903462e-02
-1.852939161324905840e-02
-2.464268130787693190e-02
-3.049473688210132399e-02
-3.601475705860492788e-02
-4.113998603909149732e-02
-4.581404624900542455e-02
-4.998299128163881389e-02
-5.360344516908283757e-02
-5.663519880432735243e-02
-5.904348013719887267e-02
-6.080258674452040935e-02
-6.188843074176042514e-02
-6.228576043885300506e-02
-6.198505843040701124e-02
-6.097993906748166992e-02
-5.927534564219934243e-02
-5.687904876852063751e-02
-5.380682471342696643e-02
-5.008536674258443760e-02
-4.574365980593581016e-02
-4.082425176953469181e-02
-3.537686898433323179e-02
-2.945615907703227898e-02
-2.313125435951286432e-02
-1.647425511275465645e-02
-9.565183049030902274e-03
-2.492916692617564399e-03
4.652432682123354077e-03
1.177537283736975263e-02
1.877810834310486218e-02
2.556398157059287107e-02
3.203908503176516182e-02
3.811038743158044750e-02
4.369421195629404758e-02
4.871546679083207237e-02
5.310310072972754258e-02
5.680672977509590438e-02
5.978320264606337697e-02
6.200162852075403325e-02
6.345491515845681774e-02
6.414013904961893275e-02
6.407512944454192561e-02
6.329333534615856627e-02
6.183305266350237056e-02
5.975229151716160425e-02
5.711459473888168964e-02
5.398944670292028097e-02
5.045573185307010433e-02
4.659329747352839585e-02
4.248342610339856523e-02
3.820828365078315914e-02
3.384847188818897873e-02
2.947904243933688676e-02
2.517366780907714929e-02
2.099989453993134081e-02
1.701733883333555672e-02
1.328383716520004434e-02
9.846676370769899544e-03
6.747852165704321288e-03
4.025380563479480367e-03
1.706182108660705098e-03
-1.850533753814205193e-04
-1.631134057812850223e-03
-2.622830370125612924e-03
-3.152860656462793364e-03
-3.224263424999041817e-03
-2.844281824929183709e-03
-2.024932149895702742e-03
-7.890316281995027672e-04
8.386123660928147816e-04
2.824091093778720828e-03
5.125562946092395572e-03
7.698889569247155049e-03
1.048931474397605396e-02
1.343858979193583367e-02
1.648501566047411854e-02
1.956054791127232600e-02
2.259640856668769515e-02
2.552313128904370315e-02
2.827075794816863788e-02
3.077090190534546507e-02
3.296175984835759271e-02
3.478338017670607601e-02
3.618350506035372671e-02
3.712142455477467767e-02
3.755898846558084619e-02
3.747443228823116312e-02
3.685555695190486508e-02
3.569628357340431934e-02
3.401044647038203167e-02
3.181633683099204662e-02
2.914366245950945553e-02
2.603616385490209462e-02
2.253989419414438936e-02
1.871236167479163257e-02
1.461651282023349908e-02
1.031721892270364392e-02
5.884383453365204728e-03
1.388693921908472177e-03
-3.100174884208680044e-03
-7.513569627600022623e-03
-1.178384021414065688e-02
-1.584928417659971570e-02
-1.965049953087776372e-02
-2.313195378528014323e-02
-2.624641080058412457e-02
-2.894819045041766709e-02
-3.119968400592235819e-02
-3.296996364740497482e-02
-3.423057040729832884e-02
-3.496421111171569424e-02
-3.515709626605239418e-02
-3.480158349303688614e-02
-3.390074927359205958e-02
-3.245960199207214431e-02
-3.049379175568184275e-02
-2.802618388283124873e-02
-2.508302235335158753e-02
-2.170326446543872911e-02
-1.792912953863056921e-02
-1.380987371482686812e-02
-9.404775616397038213e-03
-4.774786203218014079e-03
1.052662207483637258e-05
4.876826645621541376e-03
9.748230069824271454e-03
1.454416627210474225e-02
1.918320143992898949e-02
2.358549309901515623e-02
2.767305620527972868e-02
3.136935824686187119e-02
3.460784629453325656e-02
3.732646590519689972e-02
3.946995769210277782e-02
4.100008723848254377e-02
4.188199941986386204e-02
4.209676075610009616e-02
4.164069067135130198e-02
4.051434965923879361e-02
3.873948433881874848e-02
3.634556583673680813e-02
3.337010856854857876e-02
2.986695093182345842e-02
2.589245772718156910e-02
2.151142201444989147e-02
1.679526104021676972e-02
1.181605471988756047e-02
6.648129340507230069e-03
1.366425663919268625e-03
-3.956737583825275552e-03
-9.253377397841263535e-03
-1.445659894486904865e-02
-1.950739918705302750e-02
-2.435185172047279328e-02
-2.893877447450065449e-02
-3.322681973902260472e-02
-3.717702657888331125e-02
-4.075532726162919839e-02
-4.393426904238122155e-02
-4.668746193383015858e-02
-4.899379803894222257e-02
-5.083493994864190374e-02
-5.219414409480149786e-02
-5.305930342300516772e-02
-5.341929806589714586e-02
-5.326677765214749699e-02
-5.259857035282294868e-02
-5.141280986672688152e-02
-4.971519826336180670e-02
-4.751466758158141152e-02
-4.482452157867579390e-02
-4.166842437633733881e-02
-3.807203745238474379e-02
-3.407062343648483566e-02
-2.970818097030395594e-02
-2.503120018507495881e-02
-2.009811536491142026e-02
-1.497147499782046018e-02
-9.717593809857958537e-03
-4.410028566828877970e-03
8.768168745163350958e-04
6.068194136546493575e-03
1.108909777367577537e-02
1.586644018944364382e-02
2.033554500144789390e-02
2.443417588814621871e-02
2.810890145802584159e-02
3.132009879361748184e-02
3.403098473107945415e-02
3.622239225026639003e-02
3.788590313246081864e-02
3.901896748584048058e-02
3.963895177449792973e-02
3.976782458053134545e-02
3.943762917409587843e-02
3.869333863197139955e-02
3.758185390531013775e-02
3.615906960635391354e-02
3.448534753503194883e-02
3.262200330493554568e-02
3.063292293842979908e-02
2.858234236298574232e-02
2.653210241661932769e-02
2.454152228648738207e-02
2.266873377974501155e-02
2.096489436640433870e-02
1.947834368775472336e-02
1.825373514055803059e-02
1.732745371325016340e-02
1.673437603390609540e-02
1.650256564934045322e-02
1.665419860460089219e-02
1.720957089573538906e-02
1.818025091517385186e-02
1.957494453472345339e-02
2.139773731723360398e-02
2.364429161566281717e-02
2.630872909678646024e-02
2.937662917759567907e-02
3.282752124599020577e-02
3.663814484181085462e-02
4.077427242937901875e-02
4.519873814568356463e-02
4.986822532817524606e-02
5.473026579907321054e-02
5.973085401490059454e-02
6.480799990413962930e-02
6.989509377870806173e-02
7.492395259129512597e-02
7.982140752596299238e-02
8.451328713375602653e-02
8.892609807429587010e-02
9.298717334356786102e-02
9.662487594319736639e-02
9.977522269681689260e-02
1.023778389538576444e-01
1.043776826680240383e-01
1.057337064019697181e-01
1.064076985866031638e-01
1.063742868536900754e-01
1.056209380358587163e-01
1.041384982656474445e-01
1.019351473137435071e-01
9.902568228045918741e-02
9.543150456353179101e-02
9.118803634618316556e-02
8.633300550416232733e-02
8.091256756403179817e-02
7.497979395561565896e-02
6.858926800305713278e-02
6.180194677952927096e-02
5.468074478310439718e-02
4.729005370796140334e-02
3.969681783666975661e-02
3.196824676709800195e-02
2.417169450747278306e-02
1.637461212469159405e-02
8.643892302451397502e-03
1.044252342217420922e-03
-6.360181258861436100e-03
-1.350824994969610643e-02
-2.034298572704286434e-02
-2.680860410715602687e-02
-3.285747581586711402e-02
-3.844644572828743306e-02
-4.353685287674808474e-02
-4.810382714146760330e-02
-5.212556559511281884e-02
-5.559249918158999659e-02
-5.850921601403949457e-02
-6.088373701245029801e-02
-6.274345209055866290e-02
-6.412438803713697844e-02
-6.506981498208198877e-02
-6.564094039126651403e-02
-6.590215632630772036e-02
-6.592708650569675810e-02
-6.579812296887961598e-02
-6.559853518510615211e-02
-6.541465985430124086e-02
-6.533390779911095458e-02
-6.544015491548339780e-02
-6.581015560358975669e-02
-6.651888408034974109e-02
-6.762721122185455513e-02
-6.918501881801057685e-02
-7.123668184737332043e-02
-7.380261431415964524e-02
-7.689615886858237881e-02
-8.051693548677704704e-02
-8.464207408098226026e-02
-8.924492345562087814e-02
-9.427942234649831776e-02
-9.968713269328080551e-02
-1.054050533275838197e-01
-1.113542117889486510e-01
-1.174518587244677142e-01
-1.236100871145530272e-01
-1.297340776669893558e-01
-1.357283801904420606e-01
-1.414962513433310753e-01
-1.469402772755439845e-01
-1.519646132499441193e-01
-1.564780225266803326e-01
-1.603903580621197089e-01
-1.636183683719267257e-01
-1.660863804082563233e-01
-1.677211883165192763e-01
-1.684638932629108077e-01
-1.682616455793200794e-01
-1.670693708001538824e-01
-1.648602497440858072e-01
-1.616109556933022495e-01
-1.573148485145534903e-01
-1.519803411740380250e-01
-1.456206105604233580e-01
-1.382718202148174869e-01
-1.299780076193328693e-01
-1.207937781654242620e-01
-1.107938828341396564e-01
-1.000563526753591448e-01
-8.867354408865553428e-02
-7.674841014345902546e-02
-6.438631752697979160e-02
-5.170200379200000362e-02
-3.881273019373138872e-02
-2.583507446550879771e-02
-1.288455170753908044e-02
-7.556986500485175784e-05
1.248829042594572225e-02
2.470999717970266338e-02
3.649881377101948238e-02
4.778541433529549798e-02
5.850554483246604015e-02
6.861190010993702126e-02
7.807873986856996018e-02
8.688484594242293357e-02
9.503476107403657780e-02
1.025457162241331516e-01
1.094435711766770236e-01
1.157777807426308841e-01
1.216023152243457667e-01
1.269829624298611792e-01
1.319978457932002580e-01
1.367267654215779948e-01
1.412566226680596615e-01
1.456771396957013409e-01
1.500770852132169708e-01
1.545430884473116551e-01
1.591610318323938011e-01
1.640087034469977223e-01
1.691569565959169796e-01
1.746731779294107278e-01
1.806081395461322514e-01
1.870071925850218253e-01
1.939049441812300822e-01
2.013165872295704928e-01
2.092536693882645071e-01
2.177067604196466777e-01
2.266517014240678474e-01
2.360574248626983729e-01
2.458659228806925889e-01
2.560120342530252113e-01
2.664156361327444933e-01
2.769745387604549136e-01
2.875828591153686276e-01
2.981156001890686302e-01
3.084368039727325428e-01
3.184065155516998535e-01
3.278721946396583875e-01
3.366787389185654233e-01
3.446708448736356956e-01
3.516929659185585866e-01
3.575912822913055455e-01
3.622254305425653409e-01
3.654613377726699808e-01
3.671757320171255556e-01
3.672734390696536511e-01
3.656650957431455962e-01
3.622904323707359930e-01
3.571180242148128126e-01
3.501249110298368383e-01
3.413321030852103921e-01
3.307772541970933622e-01
3.185165536372854822e-01
3.046451945576302833e-01
2.892647909983205312e-01
2.725010637462103591e-01
2.544993461770318488e-01
2.354085077163718676e-01
2.153917376229357861e-01
1.946165217871920761e-01
1.732488774218739203e-01
1.514523040515691477e-01
1.293888181317529584e-01
1.072054223180114035e-01
8.503911632179925184e-02
6.301962746815759076e-02
4.124941725149042920e-02
1.982400392034861306e-02
-1.179163201465217338e-03
-2.170792579308619338e-02
-4.171468282202490940e-02
-6.117667586599841167e-02
-8.008465114355207970e-02
-9.843603117810080516e-02
-1.162483244907114577e-01
-1.335431482354366706e-01
-1.503500736066492871e-01
-1.667077974530769835e-01
-1.826561112165680234e-01
-1.982391032891643867e-01
-2.135027553931228561e-01
-2.284927653273487180e-01
-2.432541101325450816e-01
-2.578315120882201938e-01
-2.722666808814284134e-01
-2.865984892672966966e-01
-3.008646494251385195e-01
-3.150968638946051170e-01
-3.293246744144920357e-01
-3.435740515007652540e-01
-3.578638439757315659e-01
-3.722115450823335059e-01
-3.866269759817407281e-01
-4.011140313707948213e-01
-4.156738338018848844e-01
-4.302955964731317584e-01
-4.449650330369093187e-01
-4.596599620602040415e-01
-4.743453765188823112e-01
-4.889838347212441816e-01
-5.035236524639055133e-01
-5.179041433450017884e-01
-5.320601812220615567e-01
-5.459110620958559368e-01
-5.593723826940911747e-01
-5.723527436873779850e-01
-5.847514506252174948e-01
-5.964666818525599101e-01
-6.073923967868527507e-01
-6.174203834622908893e-01
-6.264433833723161982e-01
-6.343569532003607847e-01
-6.410573845401918991e-01
-6.464471174397217190e-01
-6.504352914935727092e-01
-6.529331419822772542e-01
-6.538638732010881860e-01
-6.531557007368093970e-01
-6.507423631784908791e-01
-6.465704426891315526e-01
-6.405888565292203740e-01
-6.327561444824967296e-01
-6.230394526073312900e-01
-6.114083298067347627e-01
-5.978436352472880078e-01
-5.823300686829145922e-01
-5.648576981009423292e-01
-5.454267339238854095e-01
-5.240392447133730425e-01
-5.007074734217203948e-01
-4.754511240849811915e-01
-4.482935004836307025e-01
-4.192725997784398917e-01
-3.884305121169132624e-01
-3.558186058595704804e-01
-3.215025465632412871e-01
-2.855505981685400596e-01
-2.480455521328573110e-01
-2.090789087365117760e-01
-1.687462182546611289e-01
-1.271564678481705291e-01
-8.442165276452032185e-02
-4.065887637089500573e-02
4.008314593380097463e-03
4.945580205054125877e-02
9.555816723922953837e-02
1.421893598682405502e-01
1.892251604251506403e-01
2.365463711551249459e-01
2.840349407843693608e-01
3.315800467038771959e-01
3.790783474131257380e-01
4.264287826488469824e-01
4.735426820181369290e-01
5.203362849955892599e-01
5.667311710735246644e-01
6.126606769058012825e-01
6.580601410210403790e-01
7.028724178032622616e-01
7.470467455896090403e-01
7.905336823936118806e-01
8.332894522382302549e-01
8.752720802586156923e-01
9.164403850524902584e-01
9.567546052777177179e-01
9.961749683425332735e-01
1.034659649817842197e+00
1.072165397177844648e+00
1.108647298302496198e+00
1.144053853850495850e+00
1.178331780084298730e+00
1.211421546435315522e+00
1.243254489047045386e+00
1.273759906170647493e+00
1.302854175218715271e+00
1.330446328967654690e+00
1.356440260874347992e+00
1.380723573061396481e+00
1.403180274229939739e+00
1.423684015627908472e+00
1.442096042747467166e+00
1.458275357648779913e+00
1.472069402094700719e+00
1.483320277290217870e+00
1.491868029486469682e+00
1.497547466262695304e+00
1.500192709108204125e+00
1.499641208479567167e+00
1.495733687154078284e+00
1.488313683393886588e+00
1.477240855286173549e+00
1.462380943196656569e+00
1.443612279701481427e+00
1.420839475063530921e+00
1.393972241406001178e+00
1.362949355367105264e+00
1.327733036503280450e+00
1.288294487786862730e+00
1.244644652978726507e+00
1.196806585877913331e+00
1.144822882517876339e+00
1.088769319709954164e+00
1.028727050556528688e+00
9.648030925188159079e-01
