BVP Green Neck Signal
5.942582700709423717e-03
5.941155515431205576e-03
1.177296946993795779e-02
2.777120021141906564e-02
5.544533541659162068e-02
9.289136395672574487e-02
1.349738009813162276e-01
1.742307284802376011e-01
2.023031948839222605e-01
2.115989104344521976e-01
1.968735353450047909e-01
1.564388727435986615e-01
9.277299375967794359e-02
1.240525114388266875e-02
-7.493002464402535867e-02
-1.577509251237104726e-01
-2.246653951729994658e-01
-2.662790598364455086e-01
-2.768287632865327197e-01
-2.552184122529149168e-01
-2.052255221641868521e-01
-1.348083453139292953e-01
-5.464223874827312671e-02
2.380759189979683027e-02
9.026742517550905009e-02
1.372833249104854492e-01
1.611912392426207707e-01
1.622936122858454067e-01
1.442978415936574665e-01
1.132294364459925512e-01
7.611277425793830376e-02
3.970234666387440631e-02
9.473616035448384487e-03
-1.101151667886084498e-02
-2.033397018603285561e-02
-1.907770127258692772e-02
-9.407311079541787885e-03
5.521357019138463558e-03
2.219944838858621539e-02
3.735296837188609165e-02
4.840652879879379228e-02
5.377159757801441148e-02
5.293299535456722632e-02
4.634398883148107412e-02
3.518198701300426223e-02
2.104347034698940411e-02
5.654333442095958902e-03
-9.354688180978780465e-03
-2.259112403507383682e-02
-3.297235528159458279e-02
-3.975141620017967614e-02
-4.252741242963018614e-02
-4.126114530284129972e-02
-3.629333881379762788e-02
-2.834008654640046004e-02
-1.843605694052630195e-02
-7.815083212704042326e-03
2.254602966083404762e-03
1.064551906049137145e-02
1.651935834617178703e-02
1.941923693305916757e-02
1.928916680853184906e-02
1.642327949693686215e-02
1.137064674243226658e-02
4.836760541625453533e-03
-2.384390256432424894e-03
-9.441808334842431011e-03
-1.544526014644292955e-02
-1.950022690180040416e-02
-2.077723705579101118e-02
-1.861268758703457649e-02
-1.262501496983703050e-02
-2.823480474917430642e-03
1.031814335685858966e-02
2.585072629467997582e-02
4.241593130507630843e-02
5.837789787895608651e-02
7.198807435415835454e-02
8.155138690924094991e-02
8.558255474600350021e-02
8.296257907726418968e-02
7.310832899160776832e-02
5.614956789749332017e-02
3.307821836410511362e-02
5.808551002541830800e-03
-2.292136522598808152e-02
-4.985373609608611395e-02
-7.170873926192640468e-02
-8.578637132949366861e-02
-9.052389925001073923e-02
-8.585401657402143283e-02
-7.325982864594667021e-02
-5.550492102298935221e-02
-3.609625374803875769e-02
-1.859496207818198132e-02
-5.920299316254692100e-03
2.082127898488288567e-04
-4.200515553150442269e-04
-6.493926758720308494e-03
-1.544289214393142901e-02
-2.390647732572969905e-02
-2.832572989243153233e-02
-2.557327767579278821e-02
-1.353969504279190633e-02
8.408465149021313034e-03
3.917813461212125287e-02
7.596367659366810854e-02
1.145464271355046276e-01
1.498585838864584241e-01
1.767438010913854052e-01
1.907983862613363280e-01
1.891391147507448800e-01
1.709387621867950735e-01
1.376122941712255021e-01
9.261411415818282533e-02
4.089098034501064544e-02
-1.189693487722786464e-02
-6.023073761269417264e-02
-9.949415339319582496e-02
-1.265029497485183618e-01
-1.397393299459673000e-01
-1.393194972163473988e-01
-1.267840092865320234e-01
-1.048061632209581762e-01
-7.687614022376350331e-02
-4.697227476881298686e-02
-1.920181336424501423e-02
2.610805862667550138e-03
1.539125051127355343e-02
1.730122364118901607e-02
8.154415595759217927e-03
-1.036395244786982722e-02
-3.479308856081627516e-02
-6.036254179462163111e-02
-8.178110606473038002e-02
-9.420311432366786086e-02
-9.416398936552307364e-02
-8.026700302856785985e-02
-5.345093813311451586e-02
-1.676883602705748003e-02
2.526276167627782704e-02
6.757065963667811814e-02
1.054581073662771012e-01
1.353501005635149024e-01
1.552078154211437855e-01
1.645649776774956996e-01
1.642340635797249482e-01
1.558062499794378442e-01
1.411092430523661068e-01
1.217775800728416735e-01
9.903190535409842066e-02
7.368180010184467721e-02
4.629724413329374538e-02
1.745965992839013797e-02
-1.199744850092134690e-02
-4.083145595639988551e-02
-6.736605237068472862e-02
-8.961734233296744789e-02
-1.055535372973231550e-01
-1.134392874411679630e-01
-1.121952620216554314e-01
-1.016960209737841070e-01
-8.293266506160421048e-02
-5.798404240425614892e-02
-2.977699301557318323e-02
-1.668099324604508348e-03
2.307203576009309726e-02
4.176609516849792009e-02
5.272760550172193167e-02
5.547291623638724717e-02
5.070914701607968922e-02
4.010642882245109286e-02
2.591471936970044659e-02
1.052648701180995336e-02
-3.905291155859053932e-03
-1.571716597118710812e-02
-2.383322844944763333e-02
-2.774108678305503561e-02
-2.739972645037779680e-02
-2.313226756545984711e-02
-1.554152846835038168e-02
-5.463088589653437681e-03
6.057381336857706362e-03
1.779820791620403617e-02
2.844506553516606973e-02
3.673807135299279186e-02
4.166085192948199706e-02
4.262203609206468430e-02
3.957411450929006203e-02
3.303081276605887573e-02
2.397340139641301535e-02
1.367000249682569224e-02
3.461022631785896399e-03
-5.424623622551037576e-03
-1.197534327321406536e-02
-1.541994577282745221e-02
-1.520646954950834878e-02
-1.099311250125314249e-02
-2.692776725446026191e-03
9.421093514279187120e-03
2.457468166212125812e-02
4.137466132271865049e-02
5.778035319404929010e-02
7.123348538153803644e-02
7.897733093763235901e-02
7.853561644209848536e-02
6.825603162989381245e-02
4.778290518057062841e-02
1.832655596197006048e-02
-1.735863912006567478e-02
-5.530473409447274336e-02
-9.090937332430647222e-02
-1.196406816725620187e-01
-1.377167447841256831e-01
-1.426274285824765398e-01
-1.334233703371127955e-01
-1.107632643827053398e-01
-7.675700737573311339e-02
-3.465988385455739951e-02
1.152731713847766210e-02
5.750189422411847856e-02
9.910141426113897034e-02
1.327079036386203115e-01
1.555870481050671550e-01
1.661386653809341085e-01
1.640307137379118652e-01
1.501887935311965461e-01
1.266284661033383330e-01
9.614751053042003281e-02
6.192563782023219332e-02
2.709747018489346015e-02
-5.631577024426500343e-03
-3.426408221413267813e-02
-5.763953840385296207e-02
-7.539915279933098735e-02
-8.780951158634477116e-02
-9.549800358475624140e-02
-9.916448431500557437e-02
-9.932999164168716810e-02
-9.617485357430856363e-02
-8.950767552102455171e-02
-7.888502082167560270e-02
-6.386398469778052644e-02
-4.432663858404952556e-02
-2.078542268176035435e-02
5.426971421814454945e-03
3.216183682618733997e-02
5.669302043154713505e-02
7.617118835067906990e-02
8.820393663044211185e-02
9.141394022689446064e-02
8.581442108183032214e-02
7.288609966071155077e-02
5.532424851616440237e-02
3.651333582483301532e-02
1.985188378038112503e-02
8.080915265302159728e-03
2.765493711710587978e-03
4.041758860976606312e-03
1.067661342304187730e-02
2.040964368739624918e-02
3.048140846235135315e-02
3.821858734717239331e-02
4.154857721435185197e-02
3.934516797876595057e-02
3.155253660499290902e-02
1.908928501027190236e-02
3.586121977059109241e-03
-1.295807520024013990e-02
-2.851885728877393694e-02
-4.133131339157159606e-02
-5.009170790291121722e-02
-5.406867026015430705e-02
-5.312732031687831397e-02
-4.767969076478705687e-02
-3.858394552403578842e-02
-2.701533240174185807e-02
-1.432224230620525104e-02
-1.872149157002080642e-03
9.104390410921897603e-03
1.765131282187914000e-02
2.317952748656031473e-02
2.549686527709808109e-02
2.477770849055898131e-02
2.149177531978162248e-02
1.631886929919549103e-02
1.007440705658821725e-02
3.660767113346776076e-03
-1.958624477375538360e-03
-5.787713172308123384e-03
-6.866062805219811001e-03
-4.402121103110907992e-03
2.037949232536407501e-03
1.233315343428806679e-02
2.566970383844030881e-02
4.052512883770641866e-02
5.481347174264749461e-02
6.619341348341876985e-02
7.249394841150551272e-02
7.216435154828089449e-02
6.462788071390435096e-02
5.043396511790079750e-02
3.116337200252047163e-02
9.119148357811301953e-03
-1.310358967540795061e-02
-3.305549345785786797e-02
-4.878173561934463082e-02
-5.902361226363991159e-02
-6.326135577168696955e-02
-6.162958609021695205e-02
-5.476384510404971873e-02
-4.363782453259697214e-02
-2.942957754883108318e-02
-1.342762095877901574e-02
3.030530244012977388e-03
1.860243244911355398e-02
3.198556501410757674e-02
4.198112082658878724e-02
4.758676483705800292e-02
4.811225135422763505e-02
4.329752337030967624e-02
3.341012218559005764e-02
1.930508959374509573e-02
2.434118326759338209e-03
-1.521501311034732795e-02
-3.127352905178890780e-02
-4.325573940245119875e-02
-4.891568065805333015e-02
-4.664258824365551809e-02
-3.581691304246142210e-02
-1.704498320922378726e-02
7.794637162178178098e-03
3.572934176095195202e-02
6.308651274316129376e-02
8.604367339442468843e-02
1.012348961722553536e-01
1.062988142584719714e-01
1.002655041439285549e-01
8.370933017931146691e-02
5.863560855549911771e-02
2.811987035931116929e-02
-4.224459940576712723e-03
-3.482859065036058438e-02
-6.067009023846235000e-02
-7.959833549506191430e-02
-9.045073650514351415e-02
-9.298580035296469259e-02
-8.769588756692252296e-02
-7.557626675761321133e-02
-5.792211422304626572e-02
-3.620157803143375652e-02
-1.201289148091322714e-02
1.290969899079832950e-02
3.670159501949918357e-02
5.744007151253645999e-02
7.330722886025738128e-02
8.282707028705273145e-02
8.512335928567067722e-02
8.012273304450635847e-02
6.863017920437919361e-02
5.223710305131040732e-02
3.307643909025156231e-02
1.348877345374262585e-02
-4.317700619409176564e-03
-1.854739066836092604e-02
-2.800500010804513051e-02
-3.218390716515177885e-02
-3.125949291880066733e-02
-2.599775509412887570e-02
-1.759949287951136088e-02
-7.509829071636604618e-03
2.777392320664915683e-03
1.189953894729754366e-02
1.877488827255719556e-02
2.270640774255849176e-02
2.342384936674280632e-02
2.105827818438617965e-02
1.605991480210450587e-02
9.083554060630490840e-03
8.708332627519336025e-04
-7.842631408755445371e-03
-1.637399052294505331e-02
-2.408866584112711803e-02
-3.036444162434757260e-02
-3.456475965183743865e-02
-3.606120804787681794e-02
-3.431960046395318709e-02
-2.902954477550322154e-02
-2.023510123925355286e-02
-8.421682536315287099e-03
5.475333926327216084e-03
2.015924774420307930e-02
3.415512137128449976e-02
4.605471187695333452e-02
5.476201301601866384e-02
5.966853977545045346e-02
6.070738903360962252e-02
5.827646476663322223e-02
5.306417184081837352e-02
4.583959316732978684e-02
3.727794798129527298e-02
2.787918658729383534e-02
1.800251309582301396e-02
7.990724828755079584e-03
-1.683519961425717325e-03
-1.032947855987036145e-02
-1.706392411352295607e-02
-2.096000792538866425e-02
-2.128225217163989824e-02
-1.773860220040153479e-02
-1.066879604056070185e-02
-1.099364459369002282e-03
9.370024587866763316e-03
1.883333353337085167e-02
2.543339680711374437e-02
2.771574352862291035e-02
2.489966929534954618e-02
1.701684825389391739e-02
4.902560053716065701e-03
-9.947459907347230845e-03
-2.561884179141063478e-02
-4.006694588511353766e-02
-5.139771116481030300e-02
-5.810203952103248221e-02
-5.922546573001762765e-02
-5.446670809109414174e-02
-4.419997797200789919e-02
-2.941739794063099461e-02
-1.159761720643236876e-02
7.480247480128433303e-03
2.595243511288962412e-02
4.209398247694175893e-02
5.452893777164539990e-02
6.239912544591905835e-02
6.545510207225185839e-02
6.404016452873532994e-02
5.896584069173060882e-02
5.131146622046891398e-02
4.220219666469340186e-02
3.262134580091635011e-02
2.329866821428743656e-02
1.469258644044173917e-02
7.055249394527612385e-03
5.409968498115398997e-04
-4.696116189152765678e-03
-8.460642570922799477e-03
-1.054465956462376230e-02
-1.080933832615136453e-02
-9.282513116617620991e-03
-6.232911556628618031e-03
-2.188676894744757094e-03
2.117537282121676780e-03
5.870507802320907263e-03
8.327618776371142895e-03
8.959150868314053398e-03
7.536091540747612456e-03
4.155927817537409530e-03
-7.790985465173276905e-04
-6.612245910830766814e-03
-1.250254048618349226e-02
-1.751587897812564854e-02
-2.073674118799136851e-02
-2.139347622099008889e-02
-1.898490479144884779e-02
-1.339211491490649789e-02
-4.953433049282707397e-03
5.523959324229132418e-03
1.683656017283952089e-02
2.754318042624356866e-02
3.618779206134055404e-02
4.154658200286892589e-02
4.285037193337178085e-02
3.993259576097336200e-02
3.326220759735701304e-02
2.384606426640936694e-02
1.302431708281829442e-02
2.218090535595571185e-03
-7.300172839494085096e-03
-1.456327964202763087e-02
-1.897799305393391492e-02
-2.032008162133696824e-02
-1.868266416210506708e-02
-1.440649668376672160e-02
-8.017030009428230408e-03
-1.819794544275976297e-04
8.315740785539593727e-03
1.661176836258790659e-02
2.382387974611150511e-02
2.915095322608066142e-02
3.198887103031691076e-02
3.203045315725622927e-02
2.931765731203662267e-02
2.422668740450870106e-02
1.738453767214931389e-02
9.536621594721392259e-03
1.405307436467494696e-03
-6.413005245687097670e-03
-1.347972273512965113e-02
-1.947560483770080161e-02
-2.412443493254978061e-02
-2.712342726690815387e-02
-2.811685357541147262e-02
-2.673144467589303602e-02
-2.267184555091433101e-02
-1.585258247912871288e-02
-6.522853432049812057e-03
4.667345857334731681e-03
1.669717441098486979e-02
2.830586763489462490e-02
3.819442054790540136e-02
4.524586041229768790e-02
4.870857733613617041e-02
4.829967632349346784e-02
4.420983790661863616e-02
3.702311917010159964e-02
2.759311837807582046e-02
1.692415103767624940e-02
6.085027649329323614e-03
-3.852021450870708567e-03
-1.187662358562104753e-02
-1.713252268780756163e-02
-1.903414092827074647e-02
-1.738204377888234037e-02
-1.244383852234814958e-02
-4.970380195791017884e-03
3.873901343781742564e-03
1.267159142309782355e-02
1.998247665671440063e-02
2.459323566674294012e-02
2.572339631578745428e-02
2.313848167495327623e-02
1.715463087415867657e-02
8.551283304232486226e-03
-1.573629614611215220e-03
-1.196799650773262835e-02
-2.137759596861146805e-02
-2.866819686875325679e-02
-3.291802725713809802e-02
-3.349331215163091346e-02
-3.011688005994953704e-02
-2.292414827131578070e-02
-1.248621109803253401e-02
2.208310475159134048e-04
1.390847983394270793e-02
2.712379111315265864e-02
3.843623956037579836e-02
4.663843384337532094e-02
5.092428689046179374e-02
5.100176881248900951e-02
4.710853488311372850e-02
3.992833381952300836e-02
3.043835961875035467e-02
1.973453423769134032e-02
8.877986852360363751e-03
-1.210399845204368323e-03
-9.799737569299683121e-03
-1.635302968719937189e-02
-2.050850484467899373e-02
-2.206569630545421670e-02
-2.099303289651517287e-02
-1.745288965940403753e-02
-1.182328336882943615e-02
-4.693858150510074427e-03
3.175696357828917092e-03
1.093544039391687941e-02
1.775602950209588873e-02
2.295318075544107786e-02
2.609383746275978008e-02
2.704541118345274442e-02
2.594480988059126580e-02
2.309835629740072255e-02
1.885588880122442135e-02
1.351199831899247902e-02
7.271724226825953229e-03
2.896919479539730377e-04
-7.235511118180899988e-03
-1.494961878603238981e-02
-2.226137509953722560e-02
-2.833495684672002884e-02
-3.217749480208179774e-02
-3.280991431433380456e-02
-2.948047237118327224e-02
-2.186805905966734964e-02
-1.022601043088111963e-02
4.570960708577130778e-03
2.109695715631566479e-02
3.755697176875032184e-02
5.204442372829367475e-02
6.281545042924217837e-02
6.852312772598111168e-02
6.837931249453649274e-02
6.223948889205221935e-02
5.061873561625651607e-02
3.464487359844990039e-02
1.595079975801791741e-02
-3.490278248846809782e-03
-2.157800972952211849e-02
-3.633229490293708730e-02
-4.615173433754250071e-02
-5.004585876783186615e-02
-4.779278716287362061e-02
-3.997904695348453857e-02
-2.790361155729766812e-02
-1.336261163729227791e-02
1.641672658611187559e-03
1.521116343781640443e-02
2.582352470207060352e-02
3.251360063916486354e-02
3.493365225655341300e-02
3.329630045230238394e-02
2.824052272674135861e-02
2.067733678621517385e-02
1.165874842310054421e-02
2.284061473026591411e-03
-6.366335285332434639e-03
-1.328742593671795522e-02
-1.761104594527660924e-02
-1.868149174719439809e-02
-1.614555745543442417e-02
-1.004245976419418374e-02
-8.643234832437932461e-04
1.044490234420817482e-02
2.257108905629024581e-02
3.399019675416346808e-02
4.318604294191477622e-02
4.888899796678956855e-02
5.028678970751261634e-02
4.715559850943517456e-02
3.987551158114104738e-02
2.932919312561509118e-02
1.672042214782833505e-02
3.368957705134859905e-03
-9.468083197994643652e-03
-2.072003408878414152e-02
-2.956486120780467408e-02
-3.543801223377782833e-02
-3.800814716063153492e-02
-3.714829094846806151e-02
-3.292807413747501216e-02
-2.563512588585552948e-02
-1.581060239057697700e-02
-4.270096800459984888e-03
7.917106516031575253e-03
1.950595810202393823e-02
2.921166782426526734e-02
3.588734928668451535e-02
3.870744507316777744e-02
3.730989170758804846e-02
3.185976192150632297e-02
2.302664887947280734e-02
1.189760234996528263e-02
-1.437999810551633326e-04
-1.155464904624745742e-02
-2.078519966481702508e-02
-2.644935411891819604e-02
-2.750629752321784999e-02
-2.343404940409922824e-02
-1.436683291520677100e-02
-1.162251987367701918e-03
1.463711834372817544e-02
3.097169759157770638e-02
4.555637511442230808e-02
5.624919596885278456e-02
6.142030478543655803e-02
6.023825484540045599e-02
5.280913948657899731e-02
4.013710593891163525e-02
2.391561585677652244e-02
6.202218006530071416e-03
-1.093679488418439205e-02
-2.572062764738893004e-02
-3.682835498131982466e-02
-4.344807807007287914e-02
-4.523880393357470470e-02
-4.225678281171273837e-02
-3.488715361462008807e-02
-2.380181584139181433e-02
-9.944035899185486860e-03
5.479595841450032347e-03
2.103403386750395815e-02
3.515049387370418332e-02
4.629106231032178304e-02
5.315836854915775844e-02
5.489937324542123326e-02
5.124911213378843811e-02
4.257751346446650431e-02
2.982850387364149869e-02
1.436721517350988964e-02
-2.225489735027757175e-03
-1.835857978017223224e-02
-3.259043569453443090e-02
-4.372351871876577201e-02
-5.084739561489471510e-02
-5.336005665220676375e-02
-5.099144369384813608e-02
-4.383478821024919952e-02
-3.237531487008156461e-02
-1.749743788762873203e-02
-4.484616207737933055e-04
1.726048728117748898e-02
3.402160187056471607e-02
4.834499612122108991e-02
5.907328356643353623e-02
6.553710721081051904e-02
6.760486863857496920e-02
6.561117599454023563e-02
6.018648958261547943e-02
5.204356636498572858e-02
4.179514505821212145e-02
2.987185104171526454e-02
1.657357660380074857e-02
2.231209477604995974e-03
-1.259486659947729736e-02
-2.697155548620584070e-02
-3.957781476954420202e-02
-4.884750725169870189e-02
-5.325309182482028392e-02
-5.167037387615350946e-02
-4.373118527648033743e-02
-3.005647418918704072e-02
-1.228072537391495730e-02
7.166893987798455580e-03
2.548577794064314089e-02
4.002919407059855883e-02
4.879998407977008401e-02
5.079755522262075634e-02
4.614356879022096097e-02
3.597749594288394970e-02
2.217452716269784768e-02
6.976831419377283079e-03
-7.368935905360750847e-03
-1.890552988051095312e-02
-2.616865271402490922e-02
-2.830567531595851866e-02
-2.512306155100666599e-02
-1.707433530440551767e-02
-5.197805595716152409e-03
8.991085607780325423e-03
2.365522984580280957e-02
3.684411140201577367e-02
4.674736531731241845e-02
5.196020148706474023e-02
5.170451086381297467e-02
4.594840304579281276e-02
3.539172366246950974e-02
2.132289130451130513e-02
5.385454785663133966e-03
-1.068840761793964783e-02
-2.531673893818267573e-02
-3.723073084179415182e-02
-4.554196013555909112e-02
-4.972998895415218362e-02
-4.959142380586387122e-02
-4.519240242526658541e-02
-3.684703729099366581e-02
-2.512075654319469165e-02
-1.084201005158388909e-02
4.901157705060350984e-03
2.080501605950841465e-02
3.545359126138090955e-02
4.748067249505903004e-02
5.576040908087029346e-02
5.957602675528750336e-02
5.871942352647432917e-02
5.349910922908526073e-02
4.466368865476213340e-02
3.326880813911840817e-02
2.052434399049530775e-02
7.657652518348685190e-03
-4.182929095654627609e-03
-1.398253121281620506e-02
-2.089402678467996294e-02
-2.428251334145458545e-02
-2.379593988843737434e-02
-1.945103897811786484e-02
-1.170346984167002988e-02
-1.466936429591295978e-03
9.945533100701790113e-03
2.096971020448685011e-02
3.001702749247549956e-02
3.574039829229623544e-02
3.727421113241337347e-02
3.438164342962784364e-02
2.747146722615444875e-02
1.749172252590088655e-02
5.742512736105999903e-03
-6.339817985516404790e-03
-1.738397820953681630e-02
-2.624258526090545579e-02
-3.209590226864989654e-02
-3.450237050387638255e-02
-3.340818719706838136e-02
-2.912822408150324283e-02
-2.230120033383473088e-02
-1.381369768249109467e-02
-4.690058825853173595e-03
4.043551227028002563e-03
1.150320268502829854e-02
1.707933001210899804e-02
2.053591067989235519e-02
2.205053342284712253e-02
2.216731683261486535e-02
2.165069207001662013e-02
2.126436311733096232e-02
2.153758649300494682e-02
2.259544402641554262e-02
2.411186789318343210e-02
2.540511588654377484e-02
2.565291523965328169e-02
2.416915327987868845e-02
2.066075378122414138e-02
1.538051041595887153e-02
9.118435783930338434e-03
3.026806517647614818e-03
-1.669492947077413740e-03
-3.990887217424107618e-03
-3.459913519875511788e-03
-2.300168470468454129e-04
4.943709091025224808e-03
1.087845282329458728e-02
1.622780843757298461e-02
1.975771344775919050e-02
2.056272110670594525e-02
1.818664694957880523e-02
1.265395560323893595e-02
4.441720187138945529e-03
-5.581549699595535034e-03
-1.624103422609673997e-02
-2.616801251569544906e-02
-3.394431270043651860e-02
-3.827769192764123724e-02
-3.819666933002318493e-02
-3.323812247427066630e-02
-2.358544698980649321e-02
-1.011118484034117387e-02
5.705493327481933781e-03
2.198440267971981527e-02
3.673916284330069199e-02
4.820560351990783171e-02
5.513687439794950212e-02
5.699782972201022230e-02
5.400864014398026186e-02
4.702738200611409486e-02
3.731150749186253751e-02
2.623342983287869912e-02
1.502814970859542645e-02
4.625580183134727665e-03
-4.412651133017415732e-03
-1.185703509240354156e-02
-1.769668878570620357e-02
-2.198571264183363932e-02
-2.469780277482055975e-02
-2.563580022215033311e-02
-2.442591505975859334e-02
-2.060345822869279198e-02
-1.377774839397431089e-02
-3.848275512792639040e-03
8.772873626137035058e-03
2.299346080383027000e-02
3.699350972453259445e-02
4.834714648444804475e-02
5.433319031275239686e-02
5.241904949155683918e-02
4.086501220254137173e-02
1.935131432030135976e-02
-1.051752090551466567e-02
-4.500568872656177805e-02
-7.849200816003720771e-02
-1.042423045080037997e-01
-1.156497356156555995e-01
-1.077363305205147059e-01
-7.858572799987513513e-02
-3.031865827003957237e-02
3.073621537555270428e-02
9.486642441892861877e-02
1.507341267208190949e-01
1.877308831179951287e-01
1.983791418638120307e-01
1.801613968073518257e-01
1.362620921747536018e-01
7.496547050364647802e-02
7.803710830928228294e-03
-5.309886552675342070e-02
-9.779620243079006903e-02
-1.206692364069161111e-01
-1.213926667263371534e-01
-1.045033095364057973e-01
-7.775108504159371214e-02
-4.974140821937512308e-02
-2.754668635307691571e-02
-1.493934826054055601e-02
-1.169636997650535040e-02
-1.410606421768901067e-02
-1.646323961227658117e-02
-1.306973779516439407e-02
-1.419024104427129770e-04
2.291105922408247231e-02
5.316827922430251985e-02
8.488921074069034900e-02
1.109918056135380110e-01
1.248912302594122059e-01
1.222001246379020439e-01
1.018600194388782493e-01
6.644939642990997652e-02
2.163250455868911265e-02
-2.508481115882529172e-02
-6.597555780493058464e-02
-9.469356022430275299e-02
-1.074770981076064447e-01
-1.036922728565617541e-01
-8.564716711050014697e-02
-5.780699166115969151e-02
-2.567351680958376153e-02
5.372919406559270063e-03
3.101846564846331977e-02
4.859203100943312870e-02
5.722559969382805950e-02
5.764968050226756957e-02
5.174114843816212533e-02
4.196138216752647032e-02
3.080446182280790340e-02
2.034191049678138116e-02
1.192183080854773702e-02
6.057026122803181763e-03
2.507468661658084769e-03
5.231631027801204523e-04
-8.241014119768517651e-04
-2.310254467032132018e-03
-4.312848209011953780e-03
-6.706124281852272363e-03
-8.917417181508589807e-03
-1.012383700493334898e-02
-9.529003544066185633e-03
-6.635660295293066731e-03
-1.433835827837019045e-03
5.545466257453644972e-03
1.331986147073438431e-02
2.066055565656560802e-02
2.635773821732976738e-02
2.947510850943703409e-02
2.952334745303009100e-02
2.650955635105813751e-02
2.086854916476916372e-02
1.332827169316831706e-02
4.776879309239800801e-03
-3.825093700714674548e-03
-1.148736402665526818e-02
-1.722012485251772987e-02
-2.009213022410642410e-02
-1.934238597270932641e-02
-1.454363276156525261e-02
-5.782511768491717906e-03
6.206868378889792738e-03
2.002588839483755365e-02
3.375499708820938610e-02
4.525096603525188138e-02
5.253773426535876534e-02
5.419794735442460404e-02
4.966803155811658210e-02
3.936002059510726458e-02
2.457338279551772239e-02
7.216016595903662796e-03
-1.058728231416037474e-02
-2.688392982894250577e-02
-4.017371623634070216e-02
-4.952448722710116324e-02
-5.453273385685476066e-02
-5.518584849691413052e-02
-5.169995049426439476e-02
-4.439928077929516242e-02
-3.367802043644225335e-02
-2.004742677780115695e-02
-4.229769306111011949e-03
1.276530737723760578e-02
2.964028049530806341e-02
4.490844697223776716e-02
5.707328281915860502e-02
6.484303612785255466e-02
6.732958547947137662e-02
6.418991244294940113e-02
5.568569921329410283e-02
4.265810484523516188e-02
2.643476448408830712e-02
8.694439847144703332e-03
-8.693099892037238485e-03
-2.384899068205798001e-02
-3.509032130945134720e-02
-4.114621197950886489e-02
-4.135183262399860088e-02
-3.577611552501108044e-02
-2.524539177270475332e-02
-1.124367216169670780e-02
4.307173646893377485e-03
1.935856880770932265e-02
3.208016109793182524e-02
4.115904344168250933e-02
4.597681351218790846e-02
4.662354517613610111e-02
4.376036941610941117e-02
3.838559424864519676e-02
3.157753618910324328e-02
2.428202045980389079e-02
1.719123037104387797e-02
1.072816270819694842e-02
5.114120395402471826e-03
4.691840609113784658e-04
-3.108538933015378598e-03
-5.518586226652887235e-03
-6.691507412549692509e-03
-6.658697478126455842e-03
-5.626673960766505854e-03
-4.021670525161807029e-03
-2.474353815696473356e-03
-1.729530968920479396e-03
-2.493858096040842652e-03
-5.263194571726851310e-03
-1.018119288778704043e-02
-1.696586907602606192e-02
-2.491455234447011169e-02
-3.297813995829124156e-02
-3.988936018072953421e-02
-4.432969328890222493e-02
-4.511754269602712142e-02
-4.139607402398261943e-02
-3.279681129400322664e-02
-1.955449803574782486e-02
-2.547253040546169044e-03
1.676290527071541692e-02
3.650073988607504399e-02
5.464201320496209907e-02
6.932069190026982075e-02
7.911144572818119836e-02
8.322672715857043491e-02
8.159105597656962638e-02
7.478330949137855510e-02
6.386695416883358956e-02
5.015734712014923574e-02
3.499519830826767347e-02
1.959011336221113883e-02
4.962342836410169218e-03
-8.038257619481840865e-03
-1.868977961020126810e-02
-2.638519549520542545e-02
-3.067482458066700390e-02
-3.135788042587129426e-02
-2.859088218408261522e-02
-2.296465189838402254e-02
-1.549922055708497642e-02
-7.524432161254296543e-03
-4.524697483170763215e-04
4.508333696274994910e-03
6.621299137066078734e-03
5.792594921586677499e-03
2.591546155574587194e-03
-1.893678874527414228e-03
-6.331449440054342202e-03
-9.477553595347257276e-03
-1.046543236675132049e-02
-8.973656449165767074e-03
-5.234365980424977687e-03
9.785487766245711677e-05
6.157794485234597583e-03
1.209219011235810812e-02
1.723436406973755108e-02
2.119389364455635805e-02
2.385070843746881636e-02
2.527259410122183886e-02
2.560038317503225691e-02
2.495257739062894942e-02
2.338428694058303919e-02
2.090428528254390655e-02
1.752774872843555418e-02
1.333300092982095397e-02
8.496618553720667461e-03
3.294172319541192710e-03
-1.931485197117375520e-03
-6.818131619994530386e-03
-1.102385246216400910e-02
-1.424056442782912352e-02
-1.618420438439828815e-02
-1.658465703105174369e-02
-1.520160525078654429e-02
-1.187642359867989439e-02
-6.608493609034558035e-03
3.689114860340120608e-04
8.540254524429378991e-03
1.711079927794309855e-02
2.507811307141486964e-02
3.137353667495122039e-02
3.505063328364062258e-02
3.547524477627189698e-02
3.246601054931908675e-02
2.634840880239159785e-02
1.790972486497859062e-02
8.265686743580320101e-03
-1.331264503593629876e-03
-9.696975661460091600e-03
-1.588397728867961545e-02
-1.927779799702771316e-02
-1.961638357453391809e-02
-1.695635178299011864e-02
-1.161863183836658181e-02
-4.135404343234764905e-03
4.795162796423416314e-03
1.434902631630776901e-02
2.361819190254249926e-02
3.166584411069873345e-02
3.760727087836208266e-02
4.071846947788065191e-02
4.055204868807775476e-02
3.702173519666451806e-02
3.042019435392647603e-02
2.136105259872467937e-02
1.066730965996443362e-02
-7.543752607084485903e-04
-1.201600297469916992e-02
-2.230459611208083712e-02
-3.089102281238880615e-02
-3.711187404505494197e-02
-4.036070152479646206e-02
-4.012350166522018341e-02
-3.607066832798312001e-02
-2.818458019019298710e-02
-1.687795936975389210e-02
-3.054663997601912533e-03
1.192213499878119060e-02
2.636889138759763301e-02
3.851755668234444624e-02
4.680865875643304419e-02
5.017490746553095182e-02
4.824132724737031225e-02
4.139081567488955837e-02
3.068716241229457395e-02
1.768728669204637158e-02
4.193865893924166206e-03
-8.000843855907598806e-03
-1.733943298922274029e-02
-2.266547757351987727e-02
-2.332238164807613062e-02
-1.919373247544727684e-02
-1.070241121833644116e-02
1.221515522335130284e-03
1.520946887244851997e-02
2.957292937147593115e-02
4.247812739292885359e-02
5.216690628677776026e-02
5.719850210653731198e-02
5.667540860890725452e-02
5.040725647782675484e-02
3.896477006821698341e-02
2.359299654688554876e-02
5.992390343106349972e-03
-1.197817994516937878e-02
-2.859639185301228459e-02
-4.249610132397904638e-02
-5.277048306789700743e-02
-5.895742862049373895e-02
-6.094031678535739155e-02
-5.881907517137432290e-02
-5.280982633854828384e-02
-4.321235063483504224e-02
-3.044855586593083613e-02
-1.513923588417245836e-02
1.831119032414348959e-03
1.930519207818924554e-02
3.592146301469663350e-02
5.025769638156214053e-02
6.102314864059057986e-02
6.725386561371761440e-02
6.845794511028019391e-02
6.467301918773471492e-02
5.643416378552690987e-02
4.468499655460182046e-02
3.067324398415787953e-02
1.585122392187510859e-02
1.772538734967865799e-03
-1.003686521247363489e-02
-1.824526052599565948e-02
-2.190876527755351508e-02
-2.065920625152458528e-02
-1.483783975569343341e-02
-5.521971024408918981e-03
5.594447014100645786e-03
1.646807947330788252e-02
2.507350958133210475e-02
2.978424751123795802e-02
2.967368381384860587e-02
2.466683059287384447e-02
1.551571447948708882e-02
3.615553165146018037e-03
-9.283379840115454223e-03
-2.139048152555208734e-02
-3.114125893219493041e-02
-3.737112677995752669e-02
-3.939431280382413997e-02
-3.701435350589033640e-02
-3.049539931552303768e-02
-2.050940512063146107e-02
-8.061471711074751773e-03
5.607203249927837814e-03
1.913678970257669948e-02
3.118309725622974218e-02
4.056207829020137129e-02
4.638839441604032665e-02
4.817993990448154323e-02
4.589982292409729853e-02
3.992584868620872168e-02
3.096442725828476086e-02
1.994218504010238438e-02
7.905900726411167756e-03
-4.053613210707604324e-03
-1.485452332360906111e-02
-2.346750896868419686e-02
-2.897131621014869401e-02
-3.064042986350137832e-02
-2.806817228987027596e-02
-2.129951049687548240e-02
-1.092366178558724227e-02
1.924541461732939308e-03
1.568127934372779558e-02
2.857956777024522194e-02
3.894391167723854769e-02
4.549113985293593010e-02
4.756315551142668158e-02
4.522400597794584004e-02
3.918754675895223111e-02
3.059726201859692268e-02
2.073173191138975163e-02
1.073052495853154750e-02
1.417205982554675149e-03
-6.746938658780984692e-03
-1.359047982141519881e-02
-1.908691291527192177e-02
-2.320159176153869726e-02
-2.579339335847804365e-02
-2.660924849490303723e-02
-2.536814972185869738e-02
-2.189266106098205003e-02
-1.623045313062574518e-02
-8.720059127666261733e-03
1.881927561175802260e-05
9.164215889623825856e-03
1.781425702510096645e-02
2.511635129328481861e-02
3.036936546865547440e-02
3.308399857320756809e-02
3.301262837414684070e-02
3.017389215558673177e-02
2.488632308524008421e-02
1.779694715635645255e-02
9.868275050736816795e-03
2.289455598003048258e-03
-3.696795759172475000e-03
-7.026556616904902804e-03
-7.054771512900592269e-03
-3.737464894693184360e-03
2.306328288712268353e-03
9.889030214209641387e-03
1.749387739889086621e-02
2.359666092888924524e-02
2.697905401797839539e-02
2.695148445534853096e-02
2.344072597181146370e-02
1.694137690423741169e-02
8.364770113577838645e-03
-1.161355529407908337e-03
-1.048523838019312787e-02
-1.857287726882666731e-02
-2.458619522740590826e-02
-2.791448632750250652e-02
-2.818854794457842372e-02
-2.529739766712964938e-02
-1.940858296044707665e-02
-1.098093306372584232e-02
-7.572502153273723627e-04
1.027344708952851807e-02
2.095350829733045109e-02
3.007801179939677619e-02
3.654829070236872285e-02
3.952722223587732536e-02
3.855945617958048827e-02
3.363233851008124581e-02
2.517452043929254563e-02
1.400414295696564629e-02
1.242684334952831073e-03
-1.179035465525120341e-02
-2.368864786026069272e-02
-3.306774494735720965e-02
-3.867194351835602506e-02
-3.948680001293570357e-02
-3.486060027600899891e-02
-2.462363402510716476e-02
-9.181236903557037088e-03
1.044398443832113277e-02
3.263601360110428284e-02
5.528255990641536138e-02
7.594957249028812252e-02
9.213040704394868941e-02
1.015493207033400097e-01
1.024786862909301405e-01
9.402130822202860172e-02
7.631626350949709259e-02
5.063649856706946284e-02
1.934921135461162983e-02
-1.428686534072356323e-02
-4.649329916515108907e-02
-7.347822610951831868e-02
-9.199814592191110640e-02
-9.987209936321632398e-02
-9.634968408933176909e-02
-8.225996531665465128e-02
-5.990498803100368502e-02
-3.270593710634436824e-02
-4.658479790647792988e-03
2.030507717878843321e-02
3.892989761920858521e-02
4.911993711424828685e-02
5.020584667512937443e-02
4.295868956093658320e-02
2.935613571091679613e-02
1.215954513293472997e-02
-5.596265733709935263e-03
-2.108429309260471257e-02
-3.204709563677483886e-02
-3.700198317223398620e-02
-3.530478291718695122e-02
-2.711522144865107647e-02
-1.330769671321023820e-02
4.644722450074256943e-03
2.480696134087321397e-02
4.495199628554993887e-02
6.278228360901558225e-02
7.620323612365691168e-02
8.361449570879334048e-02
8.415411777428011275e-02
7.782741705058263126e-02
6.548070284249456197e-02
4.862485110849131681e-02
2.915419475558436030e-02
9.031136367068811482e-03
-9.986772037622985987e-03
-2.651551252237863143e-02
-3.958526074234062359e-02
-4.857958351656911644e-02
-5.313741394459928907e-02
-5.308542812063257732e-02
-4.843861844686004475e-02
-3.946524705295435115e-02
-2.678037746694951482e-02
-1.141702441860574513e-02
5.176297182847473984e-03
2.124750540984703118e-02
3.496450886288523380e-02
4.470731550914897739e-02
4.935027471549771616e-02
4.845311841056067909e-02
4.231262797331555164e-02
3.187591918185505441e-02
1.855534705242498777e-02
4.001514304719557165e-03
-1.011261415153205667e-02
-2.226072103255697168e-02
-3.117524554735563030e-02
-3.591798421790590168e-02
-3.593649954516327238e-02
-3.112392389677077348e-02
-2.187497650991868450e-02
-9.109429023035901796e-03
5.769640166552834383e-03
2.100203726136620763e-02
3.467961035130905090e-02
4.501548505387918675e-02
5.062870169177993013e-02
5.078158170961055706e-02
4.550634741439766456e-02
3.558426888996430587e-02
2.238626063397645971e-02
7.624133433991845017e-03
-6.922497502428552434e-03
-1.964761351883610729e-02
-2.929350641967910784e-02
-3.504566592414047610e-02
-3.655386617364552587e-02
-3.390045783812489083e-02
-2.754219616435493040e-02
-1.824318267806976715e-02
-6.999676569260573390e-03
5.052921752323386896e-03
1.675575354665196845e-02
2.705501691194731398e-02
3.512159281506648661e-02
4.043714310226427522e-02
4.282595215492459445e-02
4.242133873391865095e-02
3.957366060880460751e-02
3.473171843875204334e-02
2.834643033903445214e-02
2.083772981424024395e-02
1.263139426875509522e-02
4.232392669382940321e-03
-3.719106102553110769e-03
-1.045449308843982364e-02
-1.516468605585614277e-02
-1.715735729219771896e-02
-1.604530808678039655e-02
-1.190875576002356495e-02
-5.369425740239719934e-03
2.466440579910311910e-03
1.019667791992824937e-02
1.639678586797806148e-02
1.990407205893507739e-02
2.004029945404837282e-02
1.672568740806954640e-02
1.046948079437125256e-02
2.252469195669757306e-03
-6.659687385626548127e-03
-1.492291684290458775e-02
-2.129958153867865175e-02
-2.480197220405818553e-02
-2.479432185644869086e-02
-2.105843574432399168e-02
-1.382164981421268174e-02
-3.740675100707747426e-03
8.161698082162112400e-03
2.060297484834617415e-02
3.218322130978877593e-02
4.155514264589239143e-02
4.760641250329326196e-02
4.962340152611456612e-02
4.739587608903063354e-02
4.123327702934834887e-02
3.189215099111786245e-02
2.044187318250166585e-02
8.106358396691635410e-03
-3.885772351361913533e-03
-1.442111173987165734e-02
-2.258192479608508996e-02
-2.769133811247954241e-02
-2.934006064353771037e-02
-2.741358694734157692e-02
-2.212532831189752830e-02
-1.404034285612454358e-02
-4.062581589964263211e-03
6.635515491578877247e-03
1.674450252131151617e-02
2.499540026958611827e-02
3.035324068036371337e-02
3.218527568038209025e-02
3.035913137035748527e-02
2.524065222775789818e-02
1.759420517027175668e-02
8.423699722162746040e-03
-1.191766943787630866e-03
-1.022661000139154022e-02
-1.778946629042823038e-02
-2.316692622648801672e-02
-2.584909695726204243e-02
-2.555259420996866537e-02
-2.224879218550598198e-02
-1.619294934089414092e-02
-7.934247424401224408e-03
1.721946100243361595e-03
1.181767373831962148e-02
2.140057830865512226e-02
2.969467953317459635e-02
3.622927379920200253e-02
4.088297067547533997e-02
4.382645940023419812e-02
4.537861419838756794e-02
4.582026936651174137e-02
4.523143532643741221e-02
4.341800604557619764e-02
3.996432247031875273e-02
3.439796754740166718e-02
2.640866520041821111e-02
1.604576647140053963e-02
3.830335195997747362e-03
-9.254596338309103304e-03
-2.190007544867795045e-02
-3.270547650649316407e-02
-4.045322491641260843e-02
-4.435069214018782374e-02
-4.417625941287035146e-02
-4.030041332262669640e-02
-3.359136014200967552e-02
-2.523879836727454390e-02
-1.653542616300131274e-02
-8.653296085534771531e-03
-2.449739709391668928e-03
1.666131777638119212e-03
3.785127282627116264e-03
4.460795897778945841e-03
4.588466691812427035e-03
5.214796246108918676e-03
7.304173377077676117e-03
1.150519374142403364e-02
1.797215398714014853e-02
2.628957403555866323e-02
3.552085511976624949e-02
4.436918380762186476e-02
5.141435175517366368e-02
5.537636431500128631e-02
5.535199097616138458e-02
5.097518517474928373e-02
4.247196281706831777e-02
3.061186819055257066e-02
1.658564812613963144e-02
1.846265887235268473e-03
-1.206143879994490964e-02
-2.367169450896103311e-02
-3.176176544614971869e-02
-3.549544628312350375e-02
-3.452944345608705001e-02
-2.907017322621809063e-02
-1.987322998096090199e-02
-8.177533744475731781e-03
4.433235651311499305e-03
1.623778267366720110e-02
2.562654355823335006e-02
3.134691248336736458e-02
3.269358652863892795e-02
2.960582832338558984e-02
2.265466861516722552e-02
1.292587038178102422e-02
1.827034770810872545e-03
-9.134493017387574493e-03
-1.855273481565027083e-02
-2.527082783923337295e-02
-2.847242652632283461e-02
-2.773400668796979079e-02
-2.305440652239599403e-02
-1.486337916041439999e-02
-3.999088469046276247e-03
8.356876549380689440e-03
2.079319961788009957e-02
3.183008090403692536e-02
4.011511752883044346e-02
4.462346437247336622e-02
4.481725679742832452e-02
4.072124922855916568e-02
3.289503328386949449e-02
2.231558026997676469e-02
1.020853752031977701e-02
-2.127428785399165627e-03
-1.346834670990508173e-02
-2.276587345711274940e-02
-2.920042058636400373e-02
-3.220198828542552433e-02
-3.146298270626125826e-02
-2.696117030608391474e-02
-1.899196861782696810e-02
-8.190785391573519175e-03
4.478721729969621819e-03
1.778550657289780512e-02
3.034367757731859169e-02
4.077013518306891321e-02
4.787081026773441772e-02
5.082387198270891387e-02
4.931548595084297298e-02
4.358809166110765715e-02
3.438726656130641074e-02
2.282722345122546390e-02
1.021646803430878436e-02
-2.114345574832642537e-03
-1.295299891546471821e-02
-2.130022901684825581e-02
-2.641810909660948642e-02
-2.784717473554180339e-02
-2.541665624287429981e-02
-1.926636169219941158e-02
-9.878153118873387456e-03
1.905617947374143618e-03
1.490476056115103490e-02
2.768279948082488437e-02
3.869038187278257129e-02
4.646021655632068259e-02
4.982753939500998708e-02
4.813075953779205607e-02
4.133651509881911684e-02
3.004785077652580988e-02
1.539274667776539471e-02
-1.168710569455683017e-03
-1.806016380537184968e-02
-3.377651850274869527e-02
-4.701441629102953018e-02
-5.674052340969572977e-02
-6.221096107863393482e-02
-6.296783362016859786e-02
-5.884239284970640277e-02
-4.998331590414124143e-02
-3.690444368671200875e-02
-2.052251852066636420e-02
-2.147355807994843872e-03
1.660223949080227163e-02
3.396287837815237243e-02
4.825559647700399662e-02
5.814162402766472754e-02
6.284654705118909723e-02
6.228790102931428679e-02
5.706286337580459417e-02
4.829979403764169538e-02
3.742545780533472477e-02
2.592120737464645094e-02
1.512811309927541287e-02
6.127857755374018119e-03
-3.057612951989077330e-04
-3.709744007965069638e-03
-3.920903416833542397e-03
-1.075618569146892349e-03
4.375901462258723236e-03
1.166281542368633253e-02
1.972939446133024910e-02
2.733747436000021069e-02
3.323168514887787223e-02
3.633665621931812806e-02
3.594218816799919780e-02
3.183288914190551128e-02
2.432932017494975757e-02
1.422810149770663279e-02
2.657263032408483001e-03
-9.109964456995502113e-03
-1.983083604646909692e-02
-2.842275215837673091e-02
-3.404163099162201694e-02
-3.612557039634600731e-02
-3.442263584244634883e-02
-2.901193782743171495e-02
-2.031809242400469534e-02
-9.113137669547993758e-03
3.507446478942633818e-03
1.619496850928745305e-02
2.748053392986078008e-02
3.596636181144631517e-02
4.054147828725727237e-02
4.056843146181136894e-02
3.599056032857640697e-02
2.733144383619351414e-02
1.558721619046302478e-02
2.039313952759661160e-03
-1.196354983450573228e-02
-2.519539339801158545e-02
-3.666707046955298976e-02
-4.565019744431874499e-02
-5.163695133152581412e-02
-5.428485425859506247e-02
-5.339028881825359091e-02
-4.890980650462177504e-02
-4.102134705064689607e-02
-3.019771380800771732e-02
-1.725276952100619765e-02
-3.319273862248033578e-03
1.026644149843813220e-02
2.216265681280158231e-02
3.125453576536169065e-02
3.685307775591651486e-02
3.880538986282912328e-02
3.749348181718659134e-02
3.373251758667522582e-02
2.860287656683820762e-02
2.326231644003102714e-02
1.878431224080490125e-02
1.605304810281067696e-02
1.571774639510886695e-02
1.818367668839962481e-02
2.360981900241969356e-02
3.189548590936374522e-02
4.265770292265941288e-02
5.521450459495553381e-02
6.859350218145629507e-02
8.158425400283719764e-02
9.284736259676297510e-02
1.010772966830785075e-01
1.051902403758262078e-01
1.044876403163874368e-01
9.874864914588565856e-02
8.823229501852422607e-02
7.360487431249745915e-02
5.582848960157443807e-02
3.604599173568537318e-02
1.548341115676599156e-02
-4.626902045910696697e-03
-2.311506633917309941e-02
-3.895543034667393878e-02
-5.137607546915098217e-02
-5.998826474180760787e-02
-6.490059055796117138e-02
-6.676890639822780082e-02
-6.674384591476305306e-02
-6.630701643893696651e-02
-6.702002360113086532e-02
-7.023633098087934956e-02
-7.683997450320394218e-02
-8.707296482156220985e-02
-1.004901582057195625e-01
-1.160406388390722993e-01
-1.322363538707489738e-01
-1.473532984141437685e-01
-1.596240780092017530e-01
-1.674075014665321326e-01
-1.693385355716399421e-01
-1.644621768685963215e-01
-1.523463003679282890e-01
-1.331615885708585523e-01
-1.077121128778083109e-01
-7.739613835068877290e-02
-4.407846176468006860e-02
-9.871518905966290836e-03
2.314852514321026622e-02
5.323726803130837681e-02
7.922708252607145452e-02
1.006732588827259772e-01
1.178779943933999791e-01
1.317934790694155756e-01
1.438266540089767898e-01
1.555870081002198591e-01
1.686279601554724894e-01
1.842221614607449653e-01
2.031855417411498610e-01
2.257441942725156581e-01
2.514386535826950153e-01
2.790773102903182923e-01
3.067655152066176560e-01
3.320354695365210218e-01
3.520857084103538592e-01
3.641167096771187883e-01
3.657250505602345214e-01
3.552924499968326266e-01
3.322849430429923867e-01
2.973790091761758236e-01
2.523685343868570241e-01
1.998682785717242061e-01
1.428859469083532951e-01
8.436214917679568659e-02
2.677398471911821703e-02
-2.812546534950429583e-02
-7.939590394730526579e-02
-1.268364068556206148e-01
-1.708016887813352536e-01
-2.119802254895470917e-01
-2.511953171264045270e-01
-2.892585747916088801e-01
-3.268748949139334559e-01
-3.645819093986952253e-01
-4.027031271773383603e-01
-4.412962849012690425e-01
-4.800876192031484635e-01
-5.184021995861010090e-01
-5.551227769144201352e-01
-5.887162983318938725e-01
-6.173464859436252894e-01
-6.390530102758539277e-01
-6.519483360558158136e-01
-6.543804774409602842e-01
-6.450308650253747667e-01
-6.229451307558107054e-01
-5.875177291173684369e-01
-5.384642297551205381e-01
-4.758149829258871977e-01
-3.999471089917533417e-01
-3.116423289770421379e-01
-2.121326701443818075e-01
-1.030928437880811316e-01
1.344064361033451074e-02
1.352139645592412565e-01
2.599340121105312429e-01
3.854431250247322138e-01
5.098549759908304058e-01
6.316239348841408141e-01
7.495376002150113681e-01
8.626458715430386226e-01
9.701559392882164179e-01
1.071319178429755992e+00
1.165318825168351946e+00
1.251155603498570024e+00
1.327533983060599443e+00
1.392766807242072247e+00
1.444724698408011099e+00
1.480853438034286151e+00
1.498274237954549282e+00
1.493973256636036417e+00
1.465072605263895600e+00
1.409150121004938638e+00
1.324547632537903530e+00
1.210596310789430641e+00
1.067705009349966705e+00
8.972965260422696154e-01
7.016186487315436704e-01
4.834864464122076155e-01
2.460249945507626823e-01
-7.522463887763906724e-03
-2.738789871648251717e-01
-5.497094545140031041e-01
-8.315289465341134667e-01
-1.115609985583309260e+00
-1.397947551953960366e+00
-1.674310929829659900e+00
-1.940377385865142523e+00
-2.191915739135809282e+00
-2.424968867807821393e+00
-2.635974460898110827e+00
-2.821771135033168676e+00
-2.979468570451332177e+00
-3.106207119088378654e+00
-3.198873483206060797e+00
-3.253857629584204769e+00
-3.266930849720940611e+00
-3.233304236681454835e+00
-3.147895539432813639e+00
-3.005790065396928501e+00
-2.802833875725150747e+00
-2.536260709429720706e+00
-2.205240780680862933e+00
-1.811247700743764177e+00
-1.358158603973597778e+00
-8.520300566857427205e-01
-3.005393871475524614e-01
2.878445869184089734e-01
9.048088380357891536e-01
1.543037156550169708e+00
2.196695581629230620e+00
2.861347565944318827e+00
3.533178364127513404e+00
4.207556783162463176e+00
4.877152110979889876e+00
5.530019096691090930e+00
