BVP Signal
-7.794550643034151016e-03
4.469849451130269991e-05
8.132578164704085122e-03
1.641301397979344490e-02
2.482993155202911639e-02
3.332725649366041765e-02
4.184891441693705527e-02
5.033883093410806975e-02
5.874093165742336198e-02
6.699914219913227775e-02
7.505738817148444042e-02
8.285612921626731020e-02
9.029317008752657525e-02
9.723763101184604296e-02
1.035580989532167706e-01
1.091231608756302873e-01
1.138032453463008742e-01
1.175161676425464097e-01
1.202301049304721758e-01
1.219156717068798912e-01
1.225434824685711632e-01
1.220849873561853927e-01
1.205751468915749469e-01
1.181559348627078121e-01
1.149796108292713837e-01
1.111984343509522244e-01
1.069646996206509715e-01
1.024543787400581385e-01
9.790833791033670686e-02
9.357846154161142405e-02
8.971663404400764819e-02
8.657473982765029330e-02
8.438997198817865808e-02
8.333191340895784727e-02
8.355071016515780435e-02
8.519650660748040449e-02
8.841944708662605179e-02
9.334940655103891871e-02
9.995586240187891158e-02
1.081320360096257316e-01
1.177706849357105789e-01
1.287645667415650008e-01
1.409972343022720676e-01
1.542168990334966683e-01
1.680687941770842020e-01
1.821955728606656777e-01
1.962398882118705501e-01
2.098434063888370282e-01
2.226154386378831340e-01
2.341264475188684635e-01
2.439445962313029348e-01
2.516380479746973542e-01
2.567754867574327804e-01
2.589852867642088441e-01
2.580100013279329474e-01
2.536050615222862348e-01
2.455258984209480744e-01
2.335279787798194562e-01
2.174511757639998599e-01
1.974004882263287186e-01
1.735328354064220591e-01
1.460051365438834736e-01
1.149743108783232159e-01
8.064897658146596982e-02
4.351177202588729642e-02
4.135777374429938646e-03
-3.690587077179263709e-02
-7.904003581166407777e-02
-1.216836346261442880e-01
-1.641616729353260196e-01
-2.057494690470145493e-01
-2.457218546177874496e-01
-2.833536613042256791e-01
-3.179277781408307302e-01
-3.488703995728192897e-01
-3.757309648403728275e-01
-3.980629298134790162e-01
-4.154197503621275267e-01
-4.273603157359877613e-01
-4.336771609236196312e-01
-4.344799844553364210e-01
-4.299011123872533702e-01
-4.200728707754826097e-01
-4.051283284803655071e-01
-3.853416064090020576e-01
-3.612938249028765370e-01
-3.336064746600504449e-01
-3.029010463785866136e-01
-2.697990311226181603e-01
-2.349318593317035742e-01
-1.989668239207404987e-01
-1.625793033874414206e-01
-1.264446762295226012e-01
-9.123832094469808141e-02
-5.759614031800119882e-02
-2.591254810201015779e-02
3.509327475861523382e-03
3.036652862412747567e-02
5.435609755130021981e-02
7.519910416614172810e-02
9.287765795911151478e-02
1.075339876303993414e-01
1.193126415058496370e-01
1.283581679113052765e-01
1.348189490235225385e-01
1.389271234271913791e-01
1.409962006200533580e-01
1.413430467269105595e-01
1.402845278725659561e-01
1.381366499636986767e-01
1.351650099312555753e-01
1.315577554038704911e-01
1.274964510823166641e-01
1.231626616673651142e-01
1.187378145242132810e-01
1.143533519899884165e-01
1.100166127726600607e-01
1.057160030197561440e-01
1.014399288788043751e-01
9.717679649733157454e-02
9.290985970011422790e-02
8.860099065957882658e-02
8.420651586308963710e-02
7.968276178815048016e-02
7.498605491226667530e-02
7.008149478051120540e-02
6.499632217917000743e-02
5.978460828861599519e-02
5.450053043632333005e-02
4.919826594976677014e-02
4.393381384455982697e-02
3.878664035830484830e-02
3.385251538980960095e-02
2.922753796887747613e-02
2.500780712531175398e-02
2.128768002724915065e-02
1.811386544991211434e-02
1.548078475072278692e-02
1.338018710922667109e-02
1.180382170496913075e-02
1.074285886032599890e-02
1.013981464841556823e-02
9.852462834611941389e-03
9.730076520263697404e-03
9.621928806719415306e-03
9.377290834370222150e-03
8.843675276798634854e-03
7.863600867039632902e-03
6.278705826374020305e-03
3.930628376082712094e-03
6.610067374464012602e-04
-3.664867385783310283e-03
-9.068748440807627986e-03
-1.553871202648027250e-02
-2.306282793039438062e-02
-3.162916594014197891e-02
-4.120970952146940647e-02
-5.164393009697487713e-02
-6.270612252567264733e-02
-7.417012777567522086e-02
-8.580978681510131878e-02
-9.739632487767146962e-02
-1.086605877519013497e-01
-1.193016902268240198e-01
-1.290178926068821230e-01
-1.375074551965123071e-01
-1.444702838868969774e-01
-1.496640351072802133e-01
-1.529179721900959521e-01
-1.540658155685679098e-01
-1.529412856759175821e-01
-1.493787341199528385e-01
-1.432942353636956767e-01
-1.347655443436015510e-01
-1.238894122981293311e-01
-1.107625904657354443e-01
-9.548184238980761407e-02
-7.818995973207631955e-02
-5.917964474498360605e-02
-3.877406815634543147e-02
-1.729640069397553326e-02
4.930186914307688184e-03
2.757619796395494038e-02
5.027732776299453921e-02
7.265736319457624659e-02
9.434008072444435844e-02
1.149492568183399510e-01
1.341183424747084962e-01
1.515740026019767039e-01
1.670950042653575607e-01
1.804606840587525407e-01
1.914503785760650889e-01
1.998508840923710894e-01
2.055888096570501200e-01
2.087149232449220237e-01
2.092843078979088056e-01
2.073520466579326094e-01
2.029751495002436457e-01
1.963001360323662348e-01
1.875990331892092300e-01
1.771532532356516754e-01
1.652442084365722819e-01
1.521533538608287328e-01
1.381716247793304264e-01
1.236113108697018959e-01
1.087876228983538640e-01
9.401577163169294593e-02
7.961096753758800659e-02
6.585909187284166855e-02
5.293624784878558920e-02
4.099285921393946985e-02
3.017934971682012524e-02
2.064614310594525826e-02
1.252116950175219401e-02
5.789405053707730175e-03
3.798520512081626777e-04
-3.778617645658011170e-03
-6.757132176801627921e-03
-8.632459000719849840e-03
-9.545378629975509455e-03
-9.677248788052317252e-03
-9.210071795172414255e-03
-8.325849971559495799e-03
-7.205694000302353963e-03
-6.010092180454340571e-03
-4.878846486088495027e-03
-3.950854465916586733e-03
-3.365013668649829981e-03
-3.259672804015067982e-03
-3.738019991365471029e-03
-4.847421823575559507e-03
-6.630285061208107678e-03
-9.129016464825501220e-03
-1.238599850526828083e-02
-1.643275006937039429e-02
-2.127285586051558264e-02
-2.690547251551395069e-02
-3.332975667117499263e-02
-4.054486496430942388e-02
-4.854827362722052841e-02
-5.733022389085790094e-02
-6.687901023662262689e-02
-7.718292711921054261e-02
-8.823026899331642969e-02
-1.000023789404063668e-01
-1.124293943680538255e-01
-1.254185682372325195e-01
-1.388770469721569700e-01
-1.527119769970417262e-01
-1.668240716135233337e-01
-1.810272343585311583e-01
-1.950730676154792120e-01
-2.087118120965003598e-01
-2.216937085137272723e-01
-2.337679031165147969e-01
-2.446516610357307719e-01
-2.540261233486615922e-01
-2.615704839278234495e-01
-2.669639366457324803e-01
-2.698863034457429921e-01
-2.700760733380528356e-01
-2.673773733616042203e-01
-2.616453840501717920e-01
-2.527352859375293082e-01
-2.405023264046839415e-01
-2.248830511222070783e-01
-2.060532917348714133e-01
-1.842326841598264098e-01
-1.596408643142217532e-01
-1.324974681152060185e-01
-1.030600616539043557e-01
-7.177417945402619903e-02
-3.914347610089774498e-02
-5.671623268507453020e-03
2.813770736915621740e-02
6.178269060327035156e-02
9.477734112318225712e-02
1.266437325117146795e-01
1.569040021139693764e-01
1.850802872750485495e-01
2.107048119609868930e-01
2.334734244406073689e-01
2.532147592600477726e-01
2.697612855413487054e-01
2.829454724065525451e-01
2.926037460378041466e-01
2.987215155584370674e-01
3.014749654808815960e-01
3.010527563930122108e-01
2.976435488827049447e-01
2.914363611833343803e-01
2.826728978559357452e-01
2.717026867999188799e-01
2.588884476826991965e-01
2.445929001716929396e-01
2.291787620916111434e-01
2.129967506697242607e-01
1.963570501261958368e-01
1.795612957264540455e-01
1.629111227359299474e-01
1.467081664200532432e-01
1.312318110289850959e-01
1.166343181075937263e-01
1.030228768726637600e-01
9.050462344225973510e-02
7.918669393444827120e-02
6.916488507334350722e-02
6.042101843963265662e-02
5.287105591955543193e-02
4.643016013188094870e-02
4.101349369537843348e-02
3.653366546980052476e-02
3.285278916799982962e-02
2.978667728572059747e-02
2.714942932306196877e-02
2.475514478012408315e-02
2.241808646347853706e-02
1.996073473278581201e-02
1.721747286581876146e-02
1.402361638645810427e-02
1.021448081858522539e-02
5.625513019680616900e-03
1.264661180060411283e-04
-6.332917068200050181e-03
-1.379151524506494475e-02
-2.228820711871715154e-02
-3.186187136937568276e-02
-4.252379438315467830e-02
-5.417811930037141899e-02
-6.670298649543926484e-02
-7.997653634277318568e-02
-9.387690921678876199e-02
-1.082729842363140960e-01
-1.229724786272561876e-01
-1.377583084333293684e-01
-1.524133189251630771e-01
-1.667203553733893062e-01
-1.804638600970820406e-01
-1.934472283741530130e-01
-2.054862696369196828e-01
-2.163970087601141679e-01
-2.259954706184668372e-01
-2.341001462701199909e-01
-2.405899984765990096e-01
-2.454066211446295775e-01
-2.484945064193945508e-01
-2.497981464460769241e-01
-2.492626618540070282e-01
-2.468773574920125058e-01
-2.427040317624007404e-01
-2.368112122462150693e-01
-2.292674265244987186e-01
-2.201412257284920126e-01
-2.095143598023592180e-01
-1.975037345832561797e-01
-1.842320452114475926e-01
-1.698219868271981792e-01
-1.543962545707733280e-01
-1.380783817573534300e-01
-1.209956459335543855e-01
-1.032763697540920039e-01
-8.504887592037888022e-02
-6.644148713382760918e-02
-4.758282137195046779e-02
-2.860375936007771014e-02
-9.636228361900894823e-03
9.187838687667621018e-03
2.773650885371579944e-02
4.587818539593466194e-02
6.348602744624931571e-02
8.043671966897578129e-02
9.660702992208877737e-02
1.118737260635628283e-01
1.261145081453693417e-01
1.392360435538807784e-01
1.511788918604650978e-01
1.618855374191591201e-01
1.712984645840010534e-01
1.793604982494739764e-01
1.860500026346210145e-01
1.914115093976018755e-01
1.954967685285266543e-01
1.983575300175062783e-01
2.000455522063535052e-01
2.006269604204479196e-01
2.002117133589708664e-01
1.989180996549594904e-01
1.968644079414510473e-01
1.941689268514830702e-01
1.909456267533373164e-01
1.872862678593413821e-01
1.832754898511719244e-01
1.789979291492973523e-01
1.745382221741862971e-01
1.699753444402595237e-01
1.653376782834580228e-01
1.606269845891446502e-01
1.558447865968343726e-01
1.509926075460419903e-01
1.460708569566430692e-01
1.410609411509256006e-01
1.359283410442760909e-01
1.306380454211528153e-01
1.251550430660126056e-01
1.194445840581017104e-01
1.134824968705744896e-01
1.072586000588378052e-01
1.007636725683983547e-01
9.398849334476117034e-02
8.692386538380081351e-02
7.956465479119290141e-02
7.191433062239416252e-02
6.397745752177497192e-02
5.575860013370323442e-02
4.726232258588985990e-02
3.848642460705276047e-02
2.940500915586502506e-02
1.998699309097135002e-02
1.020129327101292060e-02
1.682655463465521084e-05
-1.059824497700556645e-02
-2.168023734936024016e-02
-3.326711176648772250e-02
-4.539683196018166889e-02
-5.810736166223166160e-02
-7.143045807465363273e-02
-8.533276537842324205e-02
-9.974203642319556806e-02
-1.145855025465097599e-01
-1.297903950858999567e-01
-1.452799945660687153e-01
-1.608950701297589270e-01
-1.763982715917023214e-01
-1.915491771885430849e-01
-2.061073651569211018e-01
-2.198321680956648594e-01
-2.324694882485177083e-01
-2.437451299339085387e-01
-2.533832500172434887e-01
-2.611080053639263099e-01
-2.666437244651459482e-01
-2.697682880642343628e-01
-2.703888502900507751e-01
-2.684316823905147364e-01
-2.638230556135454652e-01
-2.564892412070620686e-01
-2.464079610714010049e-01
-2.337642103173877550e-01
-2.187951726319709578e-01
-2.017380317027968606e-01
-1.828299712175051051e-01
-1.623233818886924418e-01
-1.405750408222405934e-01
-1.179855535627766239e-01
-9.495567636787849430e-02
-7.188616549512383269e-02
-4.917257936798136164e-02
-2.714594319728413918e-02
-6.093610185471276530e-03
1.369789160906687009e-02
3.194203412793983343e-02
4.835720121741504673e-02
6.278965578133988146e-02
7.522241320822720123e-02
8.564517798095372392e-02
9.404765458239672249e-02
1.004204827877087647e-01
1.048267589988727266e-01
1.074524510718668502e-01
1.084954354304029644e-01
1.081535884981913442e-01
1.066247927478922719e-01
1.041112791487284195e-01
1.008272787605262177e-01
9.698907507304033171e-02
9.281295157602553747e-02
8.851519175923783234e-02
8.429611725180496951e-02
8.028206535698834134e-02
7.657795320034643805e-02
7.328869571692980811e-02
7.051920784178689061e-02
6.836522484963414303e-02
6.684927606054236193e-02
6.595885714585875137e-02
6.568124489442367375e-02
6.600371609507710291e-02
6.691099430071725807e-02
6.834990858852157958e-02
7.023827428003023843e-02
7.249316940238467732e-02
7.503167198272675531e-02
7.777039148891810860e-02
8.061037557583422553e-02
8.343387020111378560e-02
8.612199751197174846e-02
8.855587965562389252e-02
9.061664809955533029e-02
9.218652746115973962e-02
9.314984705636453199e-02
9.339117547454278689e-02
9.279508130506819441e-02
9.124613990472774105e-02
8.864631437947712023e-02
8.495256743158940971e-02
8.013271032126945137e-02
7.415455430871920051e-02
6.698591065414483126e-02
5.861401938302535086e-02
4.912984618831472972e-02
3.865883109838796905e-02
2.732643719117566761e-02
1.525812754461242093e-02
2.587552045806518208e-03
-1.047537724503921908e-02
-2.367925304063511760e-02
-3.677225272908435372e-02
-4.950255369848921561e-02
-6.161929551853928544e-02
-7.288890374027401364e-02
-8.309276270367971229e-02
-9.201275043910661644e-02
-9.943074497690584934e-02
-1.051304914982740257e-01
-1.089772174286245399e-01
-1.109474538882675443e-01
-1.110257458910755002e-01
-1.091966384509210908e-01
-1.054450069429124781e-01
-9.982030403428276966e-02
-9.251346989462749804e-02
-8.373419335898546478e-02
-7.369216326240099479e-02
-6.259706885799483367e-02
-5.067256875917147685e-02
-3.819308359885592585e-02
-2.544456079455681419e-02
-1.271294776378539826e-02
-2.841919240492707388e-04
1.156790167286780857e-02
2.264435697256228508e-02
3.277467786473287070e-02
4.178842383372183278e-02
4.951515436387698976e-02
5.579543554466859234e-02
6.059042419053572992e-02
6.393571915358586821e-02
6.586801746691506310e-02
6.642401616362247907e-02
6.564396963245844319e-02
6.364670251283910396e-02
6.062784602962612013e-02
5.678623597329535144e-02
5.232070813432332379e-02
4.743030833857275752e-02
4.232660119085629447e-02
3.724050763157715771e-02
3.240460809132628128e-02
2.805148300069482126e-02
2.441363634344839717e-02
2.169465607016340947e-02
2.002584943452978550e-02
1.952741458941997799e-02
2.031954968771088055e-02
2.252245288227405773e-02
2.622178945278208495e-02
3.135889216290843606e-02
3.783739142591380222e-02
4.556091754189428578e-02
5.443310081094399067e-02
6.433923229218663220e-02
7.503371702839711777e-02
8.621406887359450710e-02
9.757756919223670167e-02
1.088214993487762738e-01
1.196413728620144279e-01
1.297097254429387947e-01
1.386830283872428349e-01
1.462174235912604980e-01
1.519690529513275656e-01
1.555973143228596978e-01
1.568517500304571488e-01
1.555814383844429105e-01
1.516405977426708018e-01
1.448834464629940033e-01
1.351654834393359317e-01
1.224520175796510180e-01
1.069008498310978217e-01
8.868924951669565626e-02
6.799448595945989382e-02
4.499387912513896914e-02
1.991278463411638722e-02
-6.886078206853940564e-03
-3.501559368403889261e-02
-6.408864608371289684e-02
-9.371811969214977056e-02
-1.235235796050843105e-01
-1.531567235768517277e-01
-1.822788979286741606e-01
-2.105514508435749610e-01
-2.376357305045672663e-01
-2.632091282612720184e-01
-2.870822292349800575e-01
-3.091315614792694566e-01
-3.292341240331940755e-01
-3.472669159357991697e-01
-3.631123988103526212e-01
-3.767381680423191326e-01
-3.881791373611397922e-01
-3.974720583099595750e-01
-4.046536824319189041e-01
-4.097606257971279087e-01
-4.128246858595802093e-01
-4.138716479713223650e-01
-4.129269196441135437e-01
-4.100159083897142454e-01
-4.051638159812172013e-01
-3.983685476460975261e-01
-3.895736508644763729e-01
-3.787162360355842972e-01
-3.657334135586529644e-01
-3.505622939971329566e-01
-3.331406659261132441e-01
-3.134085417368984716e-01
-2.913063890541148782e-01
-2.667746755023968075e-01
-2.397538687063695828e-01
-2.102021573319307057e-01
-1.781759486573719076e-01
-1.437654858462157348e-01
-1.070610435059752286e-01
-6.815289624415166170e-02
-2.714402283471939459e-02
1.573919229735054603e-02
6.020094089541394577e-02
1.059446400110072295e-01
1.526737066956830313e-01
2.000878126668197421e-01
2.478157082791669907e-01
2.954227712648419546e-01
3.424721497664384717e-01
3.885269919265681438e-01
4.331504049496656683e-01
4.759035651553236157e-01
5.163449243813129641e-01
5.540327288861610633e-01
5.885252249284115278e-01
6.193808488810896851e-01
6.462014703321622422e-01
6.686874477257606086e-01
6.865527146312642159e-01
6.995112046180534948e-01
7.072768516510639092e-01
7.096178068978582498e-01
7.065066022115733535e-01
6.979639204050056556e-01
6.840104442909418214e-01
6.646668566821840596e-01
6.399903154114898740e-01
6.102715128187563565e-01
5.758932050458487328e-01
5.372383716495781059e-01
4.946899921867753402e-01
4.486421973362622051e-01
3.996167845180726985e-01
3.482169932093583942e-01
2.950473793573787917e-01
2.407124989094119871e-01
1.858151221897043071e-01
1.309162553979392185e-01
7.653475092561536075e-02
2.318759760240612922e-02
-2.860821574200339557e-02
-7.833764160950640321e-02
-1.256122197019831077e-01
-1.702457434043240792e-01
-2.120701303058720733e-01
-2.509172979959817251e-01
-2.866193390974935973e-01
-3.190899912137115102e-01
-3.484543638756840700e-01
-3.748713214871481902e-01
-3.984997284518452254e-01
-4.194984491735205268e-01
-4.380313030047580103e-01
-4.542835955073257770e-01
-4.684464548394944305e-01
-4.807110092641904142e-01
-4.912683870443481648e-01
-5.002896996684700337e-01
-5.077974816219492649e-01
-5.137474232678986841e-01
-5.180948942402413548e-01
-5.207952641729013399e-01
-5.217963900700686164e-01
-5.209438282731581049e-01
-5.180092543581513720e-01
-5.127627046638135733e-01
-5.049742155289147494e-01
-4.944159152862260820e-01
-4.809216292685777883e-01
-4.643955259122387602e-01
-4.447456041972612795e-01
-4.218798631037007363e-01
-3.957076398338434942e-01
-3.662659291077696166e-01
-3.338230788675350946e-01
-2.986718419494315269e-01
-2.611049711897622805e-01
-2.214152669947655472e-01
-1.799571769624198625e-01
-1.372678590853720904e-01
-9.391816208550007872e-02
-5.047893468469677458e-02
-7.521025604843689649e-03
3.439735892720374721e-02
7.478111614447835453e-02
1.131547923548474888e-01
1.490429401991856251e-01
1.819701123183776748e-01
2.114888163182120084e-01
2.373932726868314969e-01
2.596014838473389430e-01
2.780324552558324225e-01
2.926051923684171996e-01
3.032508628448464805e-01
3.100998527828006113e-01
3.134452298217477173e-01
3.135848222644008754e-01
3.108164584134756048e-01
3.054391902284278038e-01
2.977987834685283386e-01
2.883011962360731428e-01
2.773563604220950496e-01
2.653742079176237278e-01
2.527643502455791946e-01
2.398879673841496918e-01
2.270064700258245249e-01
2.143689670364726796e-01
2.022245672819562579e-01
1.908223726592130909e-01
1.803602154474929220e-01
1.708615344092190291e-01
1.623127221438739332e-01
1.547001712509356031e-01
1.480102743298853385e-01
1.422083053888490989e-01
1.371380020463333071e-01
1.325997122590887312e-01
1.283937300475420651e-01
1.243203494321205027e-01
1.201789251167004191e-01
1.157592923141672059e-01
1.108457500580802835e-01
1.052225288605144748e-01
9.867385923354565769e-02
9.098792205201405858e-02
8.203183214702136627e-02
7.174553228126939741e-02
6.007169189322747460e-02
4.695298042136930583e-02
3.233395263853772184e-02
1.625554612701340940e-02
-1.100811198748663511e-03
-1.954259005188874188e-02
-3.887726114554224122e-02
-5.891211831636827823e-02
-7.940668561217573140e-02
-1.000083563988201085e-01
-1.203484528460516123e-01
-1.400582971236268848e-01
-1.587692114053491088e-01
-1.761222680046602429e-01
-1.917966703285690078e-01
-2.054809420157133193e-01
-2.168636067047355620e-01
-2.256331880342773433e-01
-2.315063544885877511e-01
-2.343870367500065499e-01
-2.342556149785118003e-01
-2.310926957782410418e-01
-2.248788857533312868e-01
-2.156101449502439149e-01
-2.034662293402396127e-01
-1.887480450598666704e-01
-1.717586361852892207e-01
-1.528010467926708971e-01
-1.321803963851698460e-01
-1.102532821778065553e-01
-8.742994855728175585e-02
-6.412314946102987134e-02
-4.074563882648463142e-02
-1.770940020470246345e-02
4.628751968291433538e-03
2.600309930026162286e-02
4.615645066096862870e-02
6.483161492016392691e-02
8.177150533227534046e-02
9.678030609587989774e-02
1.098265207428186230e-01
1.209059117391764748e-01
1.300142415510338600e-01
1.371472726444751822e-01
1.423236445731070332e-01
1.456649237650160522e-01
1.473216104447452324e-01
1.474442063857395180e-01
1.461832133614447138e-01
1.436898265295265820e-01
1.401205955654000468e-01
1.356345630950263337e-01
1.303907856408852983e-01
1.245483197254595581e-01
1.182639177566605082e-01
1.116614356212203701e-01
1.048401898491522211e-01
9.789890942679815855e-02
9.093632334050180677e-02
8.405028487375074131e-02
7.731108692435573193e-02
7.075657542934762900e-02
6.442273513805962804e-02
5.834555079982842174e-02
5.256080956191519493e-02
4.708321522603275966e-02
4.188796310378350984e-02
3.694590375338996369e-02
3.222788773307533328e-02
2.770475811044947889e-02
2.333349739545187429e-02
1.902850388418020344e-02
1.469602468973091325e-02
1.024230692520322616e-02
5.573597703695254424e-03
5.959938039531431642e-04
-4.785186804608487776e-03
-1.066487758794698593e-02
-1.713801213648152855e-02
-2.429952404063495663e-02
-3.223633130583128392e-02
-4.096314026655029084e-02
-5.045641281733057038e-02
-6.069226164156979464e-02
-7.164679942266714840e-02
-8.329078495820704808e-02
-9.550271612170468938e-02
-1.080832905569594771e-01
-1.208307705347238525e-01
-1.335434183257570850e-01
-1.460187758459358109e-01
-1.580248009179550939e-01
-1.692900805107604989e-01
-1.795404736343534369e-01
-1.885018392987378999e-01
-1.959002668031264438e-01
-2.015018359376005153e-01
-2.051578606534684157e-01
-2.067305935850501375e-01
-2.060822873666669497e-01
-2.030751977804978181e-01
-1.976198677866700670e-01
-1.897971997723942317e-01
-1.797256470085603075e-01
-1.675236627660621203e-01
-1.533097003157945504e-01
-1.372208968452939271e-01
-1.195060573604128651e-01
-1.004552939098932174e-01
-8.035878514434013908e-02
-5.950670971436877732e-02
-3.818797587451439046e-02
-1.667805230525037929e-02
4.755671101388525557e-03
2.584591484139014961e-02
4.632539941074370615e-02
6.593015679395863859e-02
8.446612441156875484e-02
1.018058352700146330e-01
1.178244714059634435e-01
1.323972148560723094e-01
1.454001009432834834e-01
1.567565920312055661e-01
1.664615728212642809e-01
1.745158339760050914e-01
1.809201661579748210e-01
1.856754140718824275e-01
1.887999038707036670e-01
1.903544466570540328e-01
1.904061834522482455e-01
1.890222552776013865e-01
1.862698031544282873e-01
1.822238960466548430e-01
1.769917695170929450e-01
1.706888161114966662e-01
1.634304283764813626e-01
1.553319988586581712e-01
1.465121098251433440e-01
1.371114040584886506e-01
1.272798492577653928e-01
1.171674463109452086e-01
1.069241961060049817e-01
9.669828653467624213e-02
8.661519711723547621e-02
7.678494254118020668e-02
6.731724056453528005e-02
5.832180894532709714e-02
4.990603324706982535e-02
4.211586216992957432e-02
3.493113619383914070e-02
2.832842775970040305e-02
2.228430930841934776e-02
1.677481722863660707e-02
1.173365105639834205e-02
7.022254382756387692e-03
2.495009533971914717e-03
-1.993701163694017175e-03
-6.589487720088049727e-03
-1.143216085526116421e-02
-1.664541716318568287e-02
-2.235017694426871815e-02
-2.866736049891477345e-02
-3.571788812752835218e-02
-4.359758741023717077e-02
-5.228514470317213725e-02
-6.172509076778487369e-02
-7.186195236764042482e-02
-8.264025626630949750e-02
-9.399114006143682865e-02
-1.057381338841691248e-01
-1.176529307218334847e-01
-1.295068909869256935e-01
-1.410713750919437293e-01
-1.521174379037029956e-01
-1.624115566855310888e-01
-1.717166819171630499e-01
-1.797956731875018921e-01
-1.864113900854547645e-01
-1.913288148422923052e-01
-1.943843570490129957e-01
-1.955012629351141340e-01
-1.946080201418493028e-01
-1.916331163104729729e-01
-1.865055857117086102e-01
-1.792200887713838453e-01
-1.698984650725247625e-01
-1.586771277426301530e-01
-1.456924899091925907e-01
-1.310809734598631926e-01
-1.150035137650844558e-01
-9.769913045307486443e-02
-7.942235631677471708e-02
-6.042772414912158524e-02
-4.096976674305662786e-02
-2.130187991368549805e-02
-1.671345334584888737e-03
1.767660160246577183e-02
3.649672696889331991e-02
5.454379683611416951e-02
7.157942259146991837e-02
8.742949816431187793e-02
1.019551213557738784e-01
1.150177499698604305e-01
1.264788418105770584e-01
1.362044054884778421e-01
1.441430364575946310e-01
1.503152434434920637e-01
1.547439384396615825e-01
1.574520334395911880e-01
1.584638355644505947e-01
1.578654445182918753e-01
1.558278986759772389e-01
1.525284081392281887e-01
1.481441830097672274e-01
1.428525016249014290e-01
1.368443780130421672e-01
1.303411212568753308e-01
1.235680856927154347e-01
1.167506256568807965e-01
1.101140949248592404e-01
1.038604034934116072e-01
9.810566425690778192e-02
9.294636828873356627e-02
8.847900666227401234e-02
8.480007045091206286e-02
8.198126696826785187e-02
7.994043965707353649e-02
7.853647060059663898e-02
7.762812164365144596e-02
7.707415463105320164e-02
7.672602244395788917e-02
7.635441870652683038e-02
7.567986498010872976e-02
7.442212923836208360e-02
7.230097945494487477e-02
6.903898211686730624e-02
6.442119621962794085e-02
5.829414992959074115e-02
5.050696524145218552e-02
4.090876414991205523e-02
2.935069620420628633e-02
1.580684439441137901e-02
4.425783090323681668e-04
-1.656019093595870184e-02
-3.501955222458627559e-02
-5.475342681488742924e-02
-7.551380019726086634e-02
-9.688671948796226396e-02
-1.184325378476758228e-01
-1.397116084370742528e-01
-1.602842844168302638e-01
-1.797194828905394060e-01
-1.976221704306378724e-01
-2.136067976344969421e-01
-2.272878151438568750e-01
-2.382796736004648697e-01
-2.462261734518587097e-01
-2.509821749650438250e-01
-2.524948930986082862e-01
-2.507119324826366791e-01
-2.455808977472159205e-01
-2.370643741218031730e-01
-2.253214103798708567e-01
-2.106492749107419238e-01
-1.933481145214715480e-01
-1.737180760191053275e-01
-1.520614899242540563e-01
-1.287418807530134046e-01
-1.041907626023903938e-01
-7.884319712641890687e-02
-5.313424597912887182e-02
-2.749851713565740208e-02
-2.330919541215906166e-03
2.204367756241437659e-02
4.530754689063562490e-02
6.714296115886249361e-02
8.723224751657043807e-02
1.053124173623222748e-01
1.212779428991654640e-01
1.350514662531528409e-01
1.465556295503407380e-01
1.557130749167841000e-01
1.624758000784226053e-01
1.669380100035035841e-01
1.692369123449025681e-01
1.695097239934083011e-01
1.678936618398077230e-01
1.645334766268097271e-01
1.596369585753204812e-01
1.534433132973138103e-01
1.461919764629565077e-01
1.381223837424165879e-01
1.294727858806142828e-01
1.204627893090299828e-01
1.112971655395084136e-01
1.021802755353448111e-01
9.331648025983918515e-02
8.490844672099107093e-02
7.709777009945262272e-02
6.994937106644838476e-02
6.352330507691206218e-02
5.787962758577602784e-02
5.307801258333666450e-02
4.912625865322772789e-02
4.592818249989982782e-02
4.337519017730684379e-02
4.135868773940554188e-02
3.977007773614382735e-02
3.848473405780583612e-02
3.732508693491232155e-02
3.610265058144321304e-02
3.462893921137841918e-02
3.271546703869725181e-02
3.018261685037432196e-02
2.690028386809473204e-02
2.275553857874235142e-02
1.763546840079832645e-02
1.142716075274563536e-02
4.029202261797926177e-03
-4.547203651592557350e-03
-1.422708995140742338e-02
-2.493476337834543699e-02
-3.659453067311080332e-02
-4.912628528082163548e-02
-6.236548461551838507e-02
-7.607166796837638856e-02
-9.000167095778532911e-02
-1.039123292021291167e-01
-1.175603195227794551e-01
-1.306947129965359000e-01
-1.430537813172128025e-01
-1.543749739418467382e-01
-1.643957403274795004e-01
-1.728537034812997475e-01
-1.795274021584428725e-01
-1.842887765982793302e-01
-1.870227389787624817e-01
-1.876142014778431621e-01
-1.859480764626388893e-01
-1.819470584812453717e-01
-1.756772847505891355e-01
-1.672389284161422407e-01
-1.567321626233786347e-01
-1.442571605177666583e-01
-1.299295661737286389e-01
-1.139648154354044318e-01
-9.661795172653675490e-02
-7.814411850255786884e-02
-5.879845921890036742e-02
-3.883751352410208524e-02
-1.853394355907406199e-02
1.829238100160446301e-03
2.196884865489040495e-02
4.160170530641549291e-02
6.044651354232349894e-02
7.826664385499257359e-02
9.487082848835715065e-02
1.100698273324592774e-01
1.236744002773416812e-01
1.354962566504996357e-01
1.454101286340376831e-01
1.533920853383309302e-01
1.594273542317174996e-01
1.635011627825385672e-01
1.655988315003446565e-01
1.657509778741286521e-01
1.641062908988619451e-01
1.608324546645495401e-01
1.560971532611972190e-01
1.500680707788115686e-01
1.429256696605487875e-01
1.349062197816001119e-01
1.262612221822970171e-01
1.172421782533518281e-01
1.081005893854815325e-01
9.908017856242087862e-02
9.036649012997605146e-02
8.211871959081676331e-02
7.449593219662363486e-02
6.765719319907836926e-02
6.175279361089296148e-02
5.681245194624741368e-02
5.277826227678773796e-02
4.959034522696371267e-02
4.718882142122748230e-02
4.551129291943113025e-02
4.442015499580825866e-02
4.369152302951584410e-02
4.309676610721870083e-02
4.240725331558166389e-02
4.139448121842814743e-02
3.984236780178031928e-02
3.755748824442485534e-02
3.434882719570936382e-02
3.002536930498257706e-02
2.439613482632232988e-02
1.731939139718652321e-02
8.800383899489977457e-03
-1.128344043479181935e-03
-1.243424880843176095e-02
-2.508478677208475505e-02
-3.901781767666950840e-02
-5.402240745356085005e-02
-6.984096478868029312e-02
-8.621588193453849636e-02
-1.028895511436487831e-01
-1.196006809521676928e-01
-1.360558755737034109e-01
-1.519451909438149784e-01
-1.669585456983357918e-01
-1.807858584731072416e-01
-1.931214707745638193e-01
-2.037328805033479240e-01
-2.124476978882436362e-01
-2.190953156347247854e-01
-2.235051264482605382e-01
-2.255088686890475702e-01
-2.250290855960860315e-01
-2.221060583808109057e-01
-2.167879147125418293e-01
-2.091227822605958575e-01
-1.991591238077765613e-01
-1.869974060907038105e-01
-1.728459312477915177e-01
-1.569264015892856967e-01
-1.394605194254395775e-01
-1.206699885600904520e-01
-1.007889970530388146e-01
-8.009449903070009480e-02
-5.887259858667287515e-02
-3.740939981454421970e-02
-1.599100680791271101e-02
5.102849555201682819e-03
2.562938471362391502e-02
4.535909542348348644e-02
6.406249584129197761e-02
8.151010012356207923e-02
9.748125833877563373e-02
1.118456113058021728e-01
1.245256473312896239e-01
1.354445216958886644e-01
1.445253896802550786e-01
1.516957227883032333e-01
1.569701505621215465e-01
1.604442181976155624e-01
1.622165364751984029e-01
1.623857161752843559e-01
1.610510730388712841e-01
1.583485411048488889e-01
1.544677677956250439e-01
1.496026826087467065e-01
1.439472150417585028e-01
1.376952576579039966e-01
1.310303846482618051e-01
1.241117867070969105e-01
1.170951333455850230e-01
1.101360940749015749e-01
1.033903384035574913e-01
9.699366292991376537e-02
9.100358949610973247e-02
8.545837083345314555e-02
8.039625967324889877e-02
7.585550874680481448e-02
7.186609103559601919e-02
6.840247696225029705e-02
6.541632474304386047e-02
6.285922249867142986e-02
6.068275834982808647e-02
5.883815981442065690e-02
5.727229988152665596e-02
5.592916301883688046e-02
5.475268186785522961e-02
5.368678907008642143e-02
5.267573047072626746e-02
5.167161056761324089e-02
5.063477458145042298e-02
4.952595740466548407e-02
4.830589392968641371e-02
4.693519838148158679e-02
4.536568138067485767e-02
4.353452378250860511e-02
4.137752546807491050e-02
3.883048631846679893e-02
3.582919301040528998e-02
3.230130756792713720e-02
2.815255321930526522e-02
2.328498694702291205e-02
1.760066573356432185e-02
1.100164656141081054e-02
3.399515262226093792e-03
-5.250963636101946275e-03
-1.498280134494278659e-02
-2.582900830022188954e-02
-3.782259493786555016e-02
-5.098122070229510472e-02
-6.520308376499417413e-02
-8.033039469318775661e-02
-9.620504312920424850e-02
-1.126689187153802618e-01
-1.295574107722572421e-01
-1.466122386073203110e-01
-1.635048092415715693e-01
-1.799048217332411825e-01
-1.954819751405613149e-01
-2.099065627962954372e-01
-2.228678220984997571e-01
-2.340774323803387902e-01
-2.432483731256547266e-01
-2.500936238182930316e-01
-2.543269934093029261e-01
-2.557527916283124370e-01
-2.543460234626963024e-01
-2.501006160672630818e-01
-2.430104965968227781e-01
-2.330696249543679488e-01
-2.203372815047521527e-01
-2.050748383347321679e-01
-1.875826306436806368e-01
-1.681609936309602094e-01
-1.471102624959429450e-01
-1.247416482898493217e-01
-1.014231124648795335e-01
-7.754106645613174920e-02
-5.348193154710299824e-02
-2.963212902129039317e-02
-6.366725908880377371e-03
1.604232158109922257e-02
3.737802193267311668e-02
5.742389687530899400e-02
7.596346813846310830e-02
9.278735676436195012e-02
1.078097442396387662e-01
1.210496554387661683e-01
1.325294394461472014e-01
1.422714453461865758e-01
1.502991299774392719e-01
1.566821051537682918e-01
1.615517917764272005e-01
1.650439332704318196e-01
1.672942730607999695e-01
1.684385045237502543e-01
1.686033844644144186e-01
1.678964963007932298e-01
1.664229437719590421e-01
1.642878306169837654e-01
1.615962599739081962e-01
1.584424286846836116e-01
1.548817821563191477e-01
1.509611629335261829e-01
1.467274135610135977e-01
1.422273765834922155e-01
1.375071481831030840e-01
1.326083309051174774e-01
1.275708536301471130e-01
1.224346424095844876e-01
1.172396232948192951e-01
1.120262108008225899e-01
1.068400303709366173e-01
1.017298599080559696e-01
9.674452120043852688e-02
9.193283603634541667e-02
8.734279684653004083e-02
8.300469862200768323e-02
7.893187210671745446e-02
7.513696540792405565e-02
7.163262663289310384e-02
6.843107220048744166e-02
6.552012386914404796e-02
6.285063345176294947e-02
6.037036894055131109e-02
5.802709832771833776e-02
5.576856656042766813e-02
5.353478613102974348e-02
5.124685025820329559e-02
4.882301219711965290e-02
4.618152520295052549e-02
4.324064253086622178e-02
3.992220730075076579e-02
3.616273212897053863e-02
3.190247618162066895e-02
2.708169862612216580e-02
2.164065862989644762e-02
1.552310120596333415e-02
8.697062024593658902e-03
1.140913475390498144e-03
-7.166933992396457009e-03
-1.624806992952206042e-02
-2.612192183423295289e-02
-3.678059630816338244e-02
-4.819747624107731387e-02
-6.034557923880642938e-02
-7.319792290718418748e-02
-8.672590183856693224e-02
-1.008576465688109380e-01
-1.154744446436167249e-01
-1.304552433907562592e-01
-1.456789901380096119e-01
-1.610241242008533802e-01
-1.763281738069730764e-01
-1.913583955029702355e-01
-2.058751214562867804e-01
-2.196386838343671877e-01
-2.324094088589610529e-01
-2.439428817565845731e-01
-2.539814232492204060e-01
-2.622650519739519459e-01
-2.685337865678656954e-01
-2.725276456680443271e-01
-2.740123163047794574e-01
-2.728741745404639762e-01
-2.690350358591892532e-01
-2.624167204627634864e-01
-2.529410485529968722e-01
-2.405534618420565041e-01
-2.253907270682544706e-01
-2.076823851993218617e-01
-1.876585882340510159e-01
-1.655494881712429311e-01
-1.415924323281895769e-01
-1.161335866501019554e-01
-8.960348073598686791e-02
-6.243484895092269588e-02
-3.506042565998825078e-02
-7.911994147743291877e-03
1.861109107794198247e-02
4.414914634408066002e-02
6.834490594286286858e-02
9.084110416646486164e-02
1.112812233176597165e-01
1.294006915959944881e-01
1.451142877583734836e-01
1.583575057850007406e-01
1.690658396560812404e-01
1.771748021628670733e-01
1.826774010224680167e-01
1.857510745015854559e-01
1.866101664653119219e-01
1.854690207787403899e-01
1.825419813069633634e-01
1.780531552338276424e-01
1.722795339394685987e-01
1.655159314966815343e-01
1.580571755841612691e-01
1.501980938805983490e-01
1.422260441044898571e-01
1.343576658599774376e-01
1.267706194474180759e-01
1.196421579882258612e-01
1.131495346038186300e-01
1.074649160606181431e-01
1.026672226975166580e-01
9.875367419056996221e-02
9.571872566897082768e-02
9.355683226191022217e-02
9.226135543916927362e-02
9.177648816896880057e-02
9.197841229920261652e-02
9.273832272076182326e-02
9.392741432453743933e-02
9.541685689065346199e-02
9.707261286427384950e-02
9.874908296600948265e-02
1.002991122627601983e-01
1.015755458214256945e-01
1.024312289661183650e-01
1.027327198619054915e-01
1.023971191392037405e-01
1.013531692183863853e-01
9.952961251982661572e-02
9.685519146389842682e-02
9.327180590098982371e-02
8.880364568985385509e-02
8.350665016030554832e-02
7.743682622767499024e-02
7.065018080728879823e-02
6.320749488687220363e-02
5.522274940650929304e-02
4.684318698998087005e-02
3.821655885159581240e-02
2.949061620566328229e-02
2.081223883822021226e-02
1.230863112088901971e-02
4.087524002479065929e-03
-3.744182596796399171e-03
-1.107958875672826471e-02
-1.781280567178837940e-02
-2.390031580781570852e-02
-2.939627007320852123e-02
-3.436333809984679077e-02
-3.886418951961152779e-02
-4.296158007298674086e-02
-4.675351179637004390e-02
-5.042729351394319159e-02
-5.418416536419692897e-02
-5.822536748562399944e-02
-6.275214001671519659e-02
-6.795379544171623043e-02
-7.396907842612446271e-02
-8.092333511711868876e-02
-8.894191156976682944e-02
-9.815015383913530678e-02
-1.086489098572299972e-01
-1.203615159939229740e-01
-1.331331136688143624e-01
-1.468085038082559968e-01
-1.612324873385931334e-01
-1.762397944427969709e-01
-1.915318906663681098e-01
-2.067158935893086413e-01
-2.213969255484843912e-01
-2.351801088807599638e-01
-2.476714823668403898e-01
-2.585030803826767754e-01
-2.673359993568378834e-01
-2.738328678446099729e-01
-2.776563144012738071e-01
-2.784702984138484605e-01
-2.760576342880391998e-01
-2.704121827532745548e-01
-2.615495014763820625e-01
-2.494851481241910918e-01
-2.342347594536304811e-01
-2.158982372594901444e-01
-1.948198053308285438e-01
-1.713877157856656674e-01
-1.459902207420323283e-01
-1.190155723179560088e-01
-9.086586748007220715e-02
-6.201075450255061350e-02
-3.294045301993436814e-02
-4.145187566243133809e-03
2.388481732451883804e-02
5.067513615670617144e-02
7.588458338136647163e-02
9.923880894078782045e-02
1.204639644698828616e-01
1.392862016035515127e-01
1.554428210198230964e-01
1.688482401947671296e-01
1.795586859315259631e-01
1.876343629852399997e-01
1.931354761110539164e-01
1.961246790345650970e-01
1.967541264565322301e-01
1.952890424290218419e-01
1.920018945345616235e-01
1.871651503556801543e-01
1.810512757446900989e-01
1.739324953171936250e-01
1.660805469627204545e-01
1.577671100211523458e-01
1.492638638323671718e-01
1.408424820325175353e-01
1.327456119762374098e-01
1.251193480841279460e-01
1.180897340948483254e-01
1.117828137470614214e-01
1.063246307794298573e-01
1.018217765056730617e-01
9.827144834746706636e-02
9.563263305024066741e-02
9.386427745504871689e-02
9.292532840294505381e-02
9.276903663666904998e-02
9.329241005382200858e-02
9.436040633184049342e-02
9.583761065098964083e-02
9.758860819153432342e-02
9.947840747971398168e-02
1.013802008815191669e-01
1.031745847790962456e-01
1.047424224454053115e-01
1.059645771534072356e-01
1.067226886307278133e-01
1.069361654689437863e-01
1.065783825118825356e-01
1.056268604263582989e-01
1.040591198791856464e-01
1.018527761299436729e-01
9.900846799635693030e-02
9.557974418740340650e-02
9.162755759690176249e-02
8.721286111866845270e-02
8.239660763605594074e-02
7.723652748299142390e-02
7.177802901732428797e-02
6.606357594940173716e-02
6.013563198957002504e-02
5.403666084817652926e-02
4.779897828379302271e-02
4.138895479197164662e-02
3.474660909508489604e-02
2.781189069787103063e-02
2.052474910507169625e-02
1.282256612044160859e-02
4.612816817971515659e-03
-4.216345591005796201e-03
-1.377709115036394871e-02
-2.418158990397459296e-02
-3.553975557162861176e-02
-4.790752468283027143e-02
-6.128567408315727105e-02
-7.567248776056187398e-02
-9.106624970298922428e-02
-1.074640422072563883e-01
-1.247817337378912261e-01
-1.428037717984252386e-01
-1.613026256768050337e-01
-1.800507646609765255e-01
-1.988205949993406552e-01
-2.173524653066602474e-01
-2.353025907983070097e-01
-2.523135512775463440e-01
-2.680279265476335770e-01
-2.820882964118276437e-01
-2.941566264584724588e-01
-3.039801525815862826e-01
-3.113295487410707718e-01
-3.159754895734090407e-01
-3.176886497150869237e-01
-3.162662208416335274e-01
-3.117052513428791860e-01
-3.040939067739463764e-01
-2.935208165597406604e-01
-2.800746101251668785e-01
-2.638540916322759111e-01
-2.450991652736674020e-01
-2.241529226842032818e-01
-2.013608142011054369e-01
-1.770682901615835414e-01
-1.516209363381190167e-01
-1.253684336137264044e-01
-9.866519017938402136e-02
-7.186587691826357149e-02
-4.532516471355130250e-02
-1.939710574674859134e-02
5.625840763227640817e-03
2.956429249569494933e-02
5.225098972908248651e-02
7.351867274183110368e-02
9.320010925417190895e-02
1.111686486896965309e-01
1.274196003637982910e-01
1.419710902702715494e-01
1.548412444029161339e-01
1.660481887555323721e-01
1.756180053935447738e-01
1.836170634171319094e-01
1.901244535427075999e-01
1.952192713690016346e-01
1.989806124947511856e-01
2.014864199138708678e-01
2.028045114758041945e-01
2.029974518804482653e-01
2.021277612120584988e-01
2.002579595548908409e-01
1.974508355291922090e-01
1.937736631139355403e-01
1.892974248891494682e-01
1.840932148561261472e-01
1.782321270161634219e-01
1.717857200357844061e-01
1.648437950296307575e-01
1.575199545339773799e-01
1.499294022623283429e-01
1.421873419281873829e-01
1.344089751214910533e-01
1.267091650464297059e-01
1.192020685956920178e-01
1.120017542083992790e-01
1.052222903236652296e-01
9.897774354067309655e-02
9.336459711692826624e-02
8.841867374198919549e-02
8.416272438594424310e-02
8.061950001887657757e-02
7.781175161087011682e-02
7.574897886113177159e-02
7.436329868293925505e-02
7.355881874354158745e-02
7.323960807674592677e-02
7.330973571635845953e-02
7.367032994006700308e-02
7.419221852536300732e-02
7.472838027095805857e-02
7.513156431260045731e-02
7.525451978603808767e-02
7.495082478552175798e-02
7.409097476956710837e-02
7.256126852213079514e-02
7.024861065374485292e-02
6.703990577494427228e-02
6.282257343265590377e-02
5.751121382363713619e-02
5.106054921034455796e-02
4.342852875269159751e-02
3.457310161058987918e-02
2.445229718417155085e-02
1.304734496786982834e-02
3.946683753165702857e-04
-1.346127857928675065e-02
-2.847604188175159590e-02
-4.460516751745638442e-02
-6.178354902023586170e-02
-7.986415350550105097e-02
-9.867963591999995288e-02
-1.180626512104601122e-01
-1.378458543236367184e-01
-1.578498410562000076e-01
-1.778137627632972173e-01
-1.974430698177831456e-01
-2.164431052291904967e-01
-2.345192120070732356e-01
-2.513764778987159776e-01
-2.667168811439748488e-01
-2.802403242539951989e-01
-2.916466718789070822e-01
-3.006357886688292291e-01
-3.069114040335552684e-01
-3.102753494045256133e-01
-3.106329668533400756e-01
-3.078945459116987915e-01
-3.019703761112970120e-01
-2.927723134787973969e-01
-2.803286673454907785e-01
-2.648625089774579999e-01
-2.466154484208354092e-01
-2.258290957217551076e-01
-2.027451379396805475e-01
-1.776549817921380670e-01
-1.509852141874255815e-01
-1.231851786155395145e-01
-9.470421856644756220e-02
-6.599167753011669912e-02
-3.748531469462412780e-02
-9.570020258018813175e-03
1.738438959164645414e-02
4.300809978833178282e-02
6.693129526602629997e-02
8.880703059394956522e-02
1.084677098003170442e-01
1.258303491972075083e-01
1.408124636546513320e-01
1.533315680426632632e-01
1.633149305609323809e-01
1.708316767952716142e-01
1.760580839732268921e-01
1.791730697575140141e-01
1.803555518108457822e-01
1.797854224386762345e-01
1.776740456819887182e-01
1.742703007516544500e-01
1.698252618909618650e-01
1.645900033431984544e-01
1.588153241678049166e-01
1.527213133729312666e-01
1.464697597160942166e-01
1.402159373628650285e-01
1.341151204788088580e-01
1.283225698738651999e-01
1.229647655515133109e-01
1.180785197647394313e-01
1.136832318178786494e-01
1.097983010152606687e-01
1.064431266612161919e-01
1.036269918081900721e-01
1.013060102918434957e-01
9.941888925049366388e-02
9.790432582455099730e-02
9.670101715442386281e-02
9.574673105215716906e-02
9.497072795070474194e-02
9.429770380091268001e-02
9.365231097671317118e-02
9.295920185203912500e-02
9.214373190880126296e-02
9.114361656954458879e-02
8.990712425297253674e-02
8.838286226458624828e-02
8.651943790988893268e-02
8.426580828640571619e-02
8.158571781572826476e-02
7.846283791673998309e-02
7.488224649492367102e-02
7.082902145576147612e-02
6.628827970337548836e-02
6.125230076495501164e-02
5.572883358129264442e-02
4.972764318340384959e-02
4.325849460229835852e-02
3.633115282076739699e-02
2.895433655694677408e-02
2.113302058018946827e-02
1.287134254456897414e-02
4.173440104167638540e-03
-4.956549086940905194e-03
-1.451560814162919551e-02
-2.450751776182877664e-02
-3.493860780728606785e-02
-4.581521265147507627e-02
-5.714366666788087135e-02
-6.892758596755051148e-02
-8.114134378066265030e-02
-9.374150898375487040e-02
-1.066843979760918049e-01
-1.199263271569241673e-01
-1.334208477091307077e-01
-1.470618622969145917e-01
-1.606857410796738161e-01
-1.741265123762954503e-01
-1.872182045056660082e-01
-1.997943008439532209e-01
-2.116569718626896690e-01
-2.225606323450339263e-01
-2.322556788108083303e-01
-2.404925077798498179e-01
-2.470215877686041117e-01
-2.516184599258919907e-01
-2.541204271276034099e-01
-2.543741327178989375e-01
-2.522262200409416399e-01
-2.475233324408910307e-01
-2.401551454562354526e-01
-2.301884365495217577e-01
-2.177355376622976679e-01
-2.029087807740148908e-01
-1.858204978641114780e-01
-1.666042030594049872e-01
-1.455421320593121015e-01
-1.229802336386991435e-01
-9.926469913911924181e-02
-7.474171990215107420e-02
-4.975746096544221564e-02
-2.465775201539356642e-02
2.118085390027807380e-04
2.450562687283379393e-02
4.787810916116068405e-02
6.998745002164792617e-02
9.059403987528470703e-02
1.095696067066343898e-01
1.267914995031029224e-01
1.421370672520939626e-01
1.554846251905569188e-01
1.667918459684342714e-01
1.761535893458119062e-01
1.836783451090827912e-01
1.894746030446500529e-01
1.936508683040477630e-01
1.963285713193834714e-01
1.976655553216391803e-01
1.978260293413992843e-01
1.969742024092495380e-01
1.952742835557746970e-01
1.928775548707079845e-01
1.898740812589624349e-01
1.863358243638423839e-01
1.823347431037626309e-01
1.779427963971340620e-01
1.732261265440785125e-01
1.682033952505137819e-01
1.628700888951420678e-01
1.572215372113497933e-01
1.512530699325292660e-01
1.449608363812475986e-01
1.383534986922287380e-01
1.314494805210372208e-01
1.242674641971105998e-01
1.168261320498863998e-01
1.091447480645647006e-01
1.012626735705983161e-01
9.324400892729384216e-02
8.515437707040518500e-02
7.705940093568586224e-02
6.902461683126293046e-02
6.110465590630098642e-02
5.333273833805973752e-02
4.573959169575203543e-02
3.835594354858096189e-02
3.121251546604120186e-02
2.431993794593201308e-02
1.762394012247670005e-02
1.105717034471487281e-02
4.552276961691803514e-03
-1.958091677553230880e-03
-8.545793539907198255e-03
-1.530727314113716764e-02
-2.234731871437573014e-02
-2.977072528185048528e-02
-3.768228786579683187e-02
-4.618060004613952496e-02
-5.530506847168188689e-02
-6.506226510535356722e-02
-7.545841161735847291e-02
-8.649972967788918665e-02
-9.818790426251045034e-02
-1.104405997300515752e-01
-1.231014050602529802e-01
-1.360113714867670909e-01
-1.490115502432468597e-01
-1.619422570583246568e-01
-1.746102402922781183e-01
-1.867755247963403531e-01
-1.981946781544806080e-01
-2.086242679506846998e-01
-2.178209647723373110e-01
-2.255634529754816930e-01
-2.316796197724605433e-01
-2.360040233847481295e-01
-2.383712220338262133e-01
-2.386157744384195811e-01
-2.366068274432039931e-01
-2.323419208629283750e-01
-2.258483797134587800e-01
-2.171535290106685889e-01
-2.062846937704251316e-01
-1.932886086726559038e-01
-1.783343021926930838e-01
-1.616383088960837711e-01
-1.434172688302950971e-01
-1.238878220428145105e-01
-1.032711584470230592e-01
-8.183960273952867182e-02
-5.989765404377417335e-02
-3.775031223684277570e-02
-1.570257719584156053e-02
5.941678512697667891e-03
2.690431883452776285e-02
4.693283821436811110e-02
6.577583720473989537e-02
8.318191635816291063e-02
9.890074523614811319e-02
1.127490917543118587e-01
1.246494636417462831e-01
1.345336706584272235e-01
1.423335225643437008e-01
1.479809683394915920e-01
1.514672975413457190e-01
1.529351806166806826e-01
1.525510782151345002e-01
1.504814509863450778e-01
1.468927595799492392e-01
1.419735967226226914e-01
1.360070560355447766e-01
1.293014488861963240e-01
1.221650868855310712e-01
1.149062816444957891e-01
1.078268859486500308e-01
1.011815955998591199e-01
9.520419448646499916e-02
9.012837256180583623e-02
8.618781977922496118e-02
8.360546069528912438e-02
8.246047370873482718e-02
8.272962722670795799e-02
8.438749059029859723e-02
8.740863314059887923e-02
9.176387808350217057e-02
9.731647984020180830e-02
1.038086870237178161e-01
1.109763030295651265e-01
1.185551312532596158e-01
1.262809113499659963e-01
1.338835719169281513e-01
1.410826563806434619e-01
1.475966317673594874e-01
1.531439651033312810e-01
1.574431627763075991e-01
1.602572707616331804e-01
1.614793727082644015e-01
1.610261566407950040e-01
1.588143105838193403e-01
1.547605225619312908e-01
1.488097144468493727e-01
1.410455578169712010e-01
1.315942757013397468e-01
1.205821023217302362e-01
1.081352718999082502e-01
9.438332887553074757e-02
7.948395452601168809e-02
6.360903666301953585e-02
4.693057237701570017e-02
2.962055875847972516e-02
1.184840340194002681e-02
-6.258021576571863934e-03
-2.460430742258606224e-02
-4.309699678433458886e-02
-6.164263231004983579e-02
-8.014809755671213620e-02
-9.853290667836320238e-02
-1.167326302608922423e-01
-1.346838773599411676e-01
-1.523232570311713052e-01
-1.695872054505664639e-01
-1.863874389694443745e-01
-2.025854703942923662e-01
-2.180367259932312896e-01
-2.325966320343994254e-01
-2.461206127779893282e-01
-2.584526741112707637e-01
-2.693985713544573279e-01
-2.787560593958372523e-01
-2.863228931236888597e-01
-2.918968274263009643e-01
-2.952891132969411858e-01
-2.963874538310475870e-01
-2.951064414927817570e-01
-2.913606984553996360e-01
-2.850648468921614942e-01
-2.761484734597891011e-01
-2.646901401995469527e-01
-2.508538508645763443e-01
-2.348046223631986840e-01
-2.167074716037564464e-01
-1.967320416693904839e-01
-1.751383404684521972e-01
-1.522686383935072940e-01
-1.284682070595776493e-01
-1.040823180816840970e-01
-7.945593988131319230e-02
-5.491906115126148069e-02
-3.078013161571541492e-02
-7.345931477539060367e-03
1.507675906042967723e-02
3.618138838944326419e-02
5.571887260463705138e-02
7.357307904483773031e-02
8.964662141341195323e-02
1.038421134137103019e-01
1.160621688197815971e-01
1.262455880197308478e-01
1.344705252328984857e-01
1.408486748431587166e-01
1.454917312343799729e-01
1.485113887904370156e-01
1.500276362832789201e-01
1.502147650784088073e-01
1.492689132691721321e-01
1.473862785921769558e-01
1.447630587840342264e-01
1.415935518103273449e-01
1.380497366768320133e-01
1.342890811051188349e-01
1.304688058820286378e-01
1.267461317944025834e-01
1.232764619232216141e-01
1.201712183341724360e-01
1.174965994127269431e-01
1.153167372450176753e-01
1.136957639171768397e-01
1.126973247598327399e-01
1.123515671472554156e-01
1.126340852966654094e-01
1.135154590673235209e-01
1.149662683184915490e-01
1.169570599750313078e-01
1.194408726974925949e-01
1.223244810315622377e-01
1.255071060986525655e-01
1.288879690201726325e-01
1.323662909175348235e-01
1.358367685810238090e-01
1.391740556089281766e-01
1.422472571417392195e-01
1.449254781223365540e-01
1.470778234935965767e-01
1.485755586367899506e-01
1.493063571710823156e-01
1.491654232180358308e-01
1.480480003660618049e-01
1.458493322035717688e-01
1.424674379046598771e-01
1.378391817718696011e-01
1.319300143930144387e-01
1.247060494984861823e-01
1.161334008186732936e-01
1.061794264149258371e-01
9.484958476712890274e-02
8.219359057392483514e-02
6.826364268858720052e-02
5.311193996437735265e-02
3.679095657116948637e-02
1.938117485537715901e-02
1.014830465398075532e-03
-1.817024777381726075e-02
-3.803623103733955180e-02
-5.844527974927238301e-02
-7.924252520093977292e-02
-1.002215637266626880e-01
-1.211662803525370702e-01
-1.418605601046372122e-01
-1.620882880090592781e-01
-1.816293810309558276e-01
-2.002435179759183281e-01
-2.176839420622378451e-01
-2.337038938243395925e-01
-2.480566137966322415e-01
-2.605013291127568631e-01
-2.708502761394557257e-01
-2.789433731961502572e-01
-2.846207792093362610e-01
-2.877226531055000480e-01
-2.880958845983118133e-01
-2.857008966737317746e-01
-2.805925699308592924e-01
-2.728286601124768063e-01
-2.624669229613630916e-01
-2.495675470013259400e-01
-2.342875892777561142e-01
-2.169112860030064094e-01
-1.977315094941149987e-01
-1.770411320681021250e-01
-1.551331696885079880e-01
-1.323241496346267976e-01
-1.089799987575601481e-01
-8.547287847573437070e-02
-6.217495020759855606e-02
-3.945837281063391266e-02
-1.766713026567900968e-02
2.952683250271093129e-03
2.217621913430112279e-02
3.977862878347737663e-02
5.553506359488769029e-02
6.924940379867550178e-02
8.089452790946904948e-02
9.050490631124152863e-02
9.811509873272150628e-02
1.037596649026311102e-01
1.074831437051972927e-01
1.094337533973198662e-01
1.098211784236302613e-01
1.088559094110924663e-01
1.067484369866705807e-01
1.037092694511033697e-01
9.994927964542643650e-02
9.567968306144969404e-02
9.111170848159377833e-02
8.645658468827455145e-02
8.192480234792537397e-02
7.768725575724494403e-02
7.385601995648105600e-02
7.053839754883561852e-02
6.784169113750576630e-02
6.587311619101884896e-02
6.471380085091180123e-02
6.438239185428529243e-02
6.488837653665234517e-02
6.624124223352532981e-02
6.845047628041613097e-02
7.151352974859684353e-02
7.537976575263825862e-02
7.998653967608046478e-02
8.527120690246464685e-02
9.117112281532616103e-02
9.761525076003821355e-02
1.044754501985930006e-01
1.115997919029375063e-01
1.188362681153088962e-01
1.260328710779360373e-01
1.330337955427747243e-01
1.396365697271616524e-01
1.456073725765179017e-01
1.507118018121914593e-01
1.547154551555304236e-01
1.573846792797752858e-01
1.585050548192867836e-01
1.578825828824661492e-01
1.553242510987928870e-01
1.506370470977482778e-01
1.436290241887525632e-01
1.341889727174261360e-01
1.223415777478520372e-01
1.081245680027425049e-01
9.157567220479645442e-02
7.273272402470665199e-02
5.170471668086751293e-02
2.879544748847018276e-02
4.341748731020445007e-03
-2.131954730794904940e-02
-4.785160834493229487e-02
-7.489877852063731023e-02
-1.020188780012813989e-01
-1.287448820594965238e-01
-1.546097638167786004e-01
-1.791464963945953448e-01
-2.019010186116759198e-01
-2.225217383437781415e-01
-2.407057256798788569e-01
-2.561503453544690667e-01
-2.685529621020168456e-01
-2.776234873638833145e-01
-2.832560267085220129e-01
-2.854846888239170877e-01
-2.843470818800293287e-01
-2.798808140468151961e-01
-2.721270670712627737e-01
-2.612439186927428825e-01
-2.475296588147346544e-01
-2.312908625586866940e-01
-2.128341050460336170e-01
-1.924661074121387649e-01
-1.705102616444877928e-01
-1.473218142416716780e-01
-1.232595996643355285e-01
-9.868245237315109719e-02
-7.394919620939832683e-02
-4.939387231144287682e-02
-2.527276854424409525e-02
-1.826964372668493652e-03
2.070246073838405421e-02
4.207442732403898766e-02
6.206761486924319837e-02
8.056530528559846527e-02
9.748526500668319716e-02
1.127452817354755721e-01
1.262631431749380861e-01
1.379648180890921116e-01
1.478517713685809087e-01
1.559662372822444021e-01
1.623508479557232431e-01
1.670482355146550857e-01
1.701033932275648475e-01
1.716032385619697398e-01
1.716707071278449348e-01
1.704299059231059732e-01
1.680049419456675630e-01
1.645202074826294658e-01
1.601123328449978178e-01
1.549345435740205335e-01
1.491412473606121836e-01
1.428868518956818434e-01
1.363256983505523878e-01
1.295995568184191704e-01
1.228228666784031697e-01
1.161064779175375039e-01
1.095612405228620773e-01
1.032980037275432750e-01
9.740781547803742391e-02
9.191036267764099432e-02
8.680926223232637851e-02
8.210813104806657936e-02
7.781058603083933212e-02
7.390931387961960364e-02
7.033021874723761890e-02
6.697398896830535076e-02
6.374126614970085369e-02
6.053269189830604025e-02
5.724769285442501271e-02
5.377251465841575984e-02
4.998532643524358776e-02
4.576418066153151859e-02
4.098712981390200544e-02
3.553387290684219268e-02
2.932001481187621050e-02
2.229600762848010786e-02
1.441373820873342870e-02
5.625093404708458866e-03
-4.117264526266192770e-03
-1.481536216384450599e-02
-2.640168260593633159e-02
-3.880280650475816107e-02
-5.194531451251299670e-02
-6.575571030934301842e-02
-8.013266012303700558e-02
-9.490579277292555960e-02
-1.098942181783682248e-01
-1.249170462587085306e-01
-1.397933869333061740e-01
-1.543345506540978185e-01
-1.683195192177431576e-01
-1.815188993891224123e-01
-1.937032979196046945e-01
-2.046433215605461819e-01
-2.141141645153972761e-01
-2.219234738665812334e-01
-2.278928930841431222e-01
-2.318441207102052704e-01
-2.335988552868863422e-01
-2.329864142396045890e-01
-2.299341167875611491e-01
-2.244372967048351430e-01
-2.164926572331197230e-01
-2.060969016141046550e-01
-1.932508231789787367e-01
-1.780668756448543222e-01
-1.607799178020517805e-01
-1.416310531555871333e-01
-1.208613852104578196e-01
-9.871266078395113386e-02
-7.548051925128691775e-02
-5.155436553806545807e-02
-2.733299749772701362e-02
-3.215212983738023611e-03
2.040021138662631572e-02
4.313336724907214370e-02
6.465786934842131239e-02
8.465675796029324685e-02
1.028130733602779373e-01
1.188098558239871760e-01
1.323726268792802530e-01
1.434295292135621402e-01
1.519690490545436423e-01
1.579796828452426083e-01
1.614499270286710586e-01
1.623913569365851850e-01
1.610054143564216278e-01
1.575868255529282447e-01
1.524309636762533893e-01
1.458332018765429450e-01
1.380910491768619075e-01
1.295349341618667327e-01
1.205211274079702188e-01
1.114065937987517851e-01
1.025482982177783053e-01
9.430057916902714887e-02
8.692580990130360785e-02
8.057245103634835814e-02
7.538188421806715778e-02
7.149549109035810424e-02
6.905398079147626045e-02
6.811133932918941869e-02
6.855016646827330473e-02
7.023295172386162522e-02
7.302218461108647696e-02
7.678034871804098604e-02
8.134811087798887730e-02
8.649516532608411690e-02
9.197679876906056373e-02
9.754829791365285385e-02
1.029649494665896281e-01
1.079930180426994790e-01
1.124590999671151448e-01
1.162104082754466250e-01
1.190941738553027707e-01
1.209576275942874923e-01
1.216562729212780636e-01
1.211252110110718483e-01
1.193439866244429270e-01
1.162926286581303092e-01
1.119511660088712141e-01
1.063009952545398568e-01
9.934910295009626024e-02
9.112517701809123849e-02
8.165969274092693686e-02
7.098312540099686874e-02
5.912606875041201415e-02
4.612460576261609435e-02
3.202250815649260174e-02
1.686412174395235386e-02
6.937923369225718062e-04
-1.644402701077476991e-02
-3.448125289497669388e-02
-5.329663299250092523e-02
-7.276165116717153714e-02
-9.274779128279206364e-02
-1.131265369436344481e-01
-1.337451635397279293e-01
-1.543604433805487730e-01
-1.747080032748968281e-01
-1.945234700315716103e-01
-2.135424704593512635e-01
-2.314973325140665672e-01
-2.480994447826027627e-01
-2.630520062864246111e-01
-2.760581970938271179e-01
-2.868211972731017911e-01
-2.950532524369963716e-01
-3.005693665775227008e-01
-3.032496122406702077e-01
-3.029750926238262698e-01
-2.996269109243746565e-01
-2.930923235110105551e-01
-2.834006368278848553e-01
-2.707235008662304265e-01
-2.552387774830063294e-01
-2.371243285351590790e-01
-2.165591548387370557e-01
-1.937950093136785457e-01
-1.691990250326608214e-01
-1.431485722220465218e-01
-1.160210211082263743e-01
-8.819372762151550527e-02
-6.003769796967017847e-02
-3.190762943273101060e-02
-4.155637220605801208e-03
2.286616345675795969e-02
4.880565738944278587e-02
7.333965905864067714e-02
9.626939219331429043e-02
1.174295161729817932e-01
1.366546908145055694e-01
1.537795759347280744e-01
1.686558791408433733e-01
1.812607273540371711e-01
1.916272367794442932e-01
1.997887829570887397e-01
2.057787414269912074e-01
2.096355819226400907e-01
2.114664125200222955e-01
2.114275497720915498e-01
2.096763830415567242e-01
2.063703016911264121e-01
2.016673886528940196e-01
1.957458886965446898e-01
1.888068680820253475e-01
1.810526211307822986e-01
1.726854421642548543e-01
1.639075201586579489e-01
1.549112382005369826e-01
1.458713415145154735e-01
1.369607322736864918e-01
1.283523126511522672e-01
1.202189646423965641e-01
1.127092852787173749e-01
1.059004760276243684e-01
9.985668429834362869e-02
9.464205750010176721e-02
9.032074304213114080e-02
8.693688318167014373e-02
8.443560037061745294e-02
8.273143582658690209e-02
8.173892191497550419e-02
8.137259100118174326e-02
8.153996231722260291e-02
8.208847198102089959e-02
8.283502076756092680e-02
8.359626882056157837e-02
8.418887628374159549e-02
8.443019224290077007e-02
8.414872371830811604e-02
8.318202335456784113e-02
8.136790443475863666e-02
7.854418024195836123e-02
7.454996012990100507e-02
6.927303816386617963e-02
6.266348528228275760e-02
5.467543869527995148e-02
4.526303561299570288e-02
3.438069453142274245e-02
2.202409433875245071e-02
8.273261546185545212e-03
-6.781471131526606300e-03
-2.304977097961636440e-02
-4.044130191246780165e-02
-5.884420542154447653e-02
-7.807401464140233116e-02
-9.793096689428917867e-02
-1.182152995024536440e-01
-1.387272497881227307e-01
-1.592593245945645719e-01
-1.795599192496925567e-01
-1.993618069708775753e-01
-2.183977427375189961e-01
-2.364004815290157158e-01
-2.531037044396810543e-01
-2.682503884141103079e-01
-2.815888761908583171e-01
-2.928675754129760334e-01
-3.018348937235318941e-01
-3.082432283679774621e-01
-3.119237249838160420e-01
-3.127796625201436642e-01
-3.107169833186158581e-01
-3.056416297208908173e-01
-2.974616466015451710e-01
-2.861906004421048699e-01
-2.719947427635961423e-01
-2.550522658012251975e-01
-2.355413617902161194e-01
-2.136404549766020566e-01
-1.895882410936380880e-01
-1.637637901723452138e-01
-1.365661152940729206e-01
-1.083942295401689460e-01
-7.964714598965876025e-02
-5.072164768383525396e-02
-2.200586850268447525e-02
6.114154262697332753e-03
3.325238332121272650e-02
5.902278138173569499e-02
8.306370807523683064e-02
1.051744417166467216e-01
1.252194397893146571e-01
1.430633446101781392e-01
1.585707984961715611e-01
1.716200359948957810e-01
1.822503644417447499e-01
1.906064823182649359e-01
1.968349120151832721e-01
2.010821759232362949e-01
2.034965644962122289e-01
2.042696391067128081e-01
2.036377310188660639e-01
2.018392394633922171e-01
1.991125636710110447e-01
1.956955090580397849e-01
1.917842617770318947e-01
1.875067953326147729e-01
1.829847602936696682e-01
1.783398072290818814e-01
1.736935226879305905e-01
1.691318853888154894e-01
1.646461382925437922e-01
1.602119428429387982e-01
1.558049604838231406e-01
1.514008526590244763e-01
1.469728806407247235e-01
1.424835965820611949e-01
1.378925669847627378e-01
1.331593582212590443e-01
1.282435366639863572e-01
1.231111684956512631e-01
1.177780652695068764e-01
1.122830207777945066e-01
1.066649527647690610e-01
1.009627789746854187e-01
9.521617312106347986e-02
8.947548660279353028e-02
8.379897794036970937e-02
7.824509178925766195e-02
7.287227280491714865e-02
6.773752587292652949e-02
6.285321042159290605e-02
5.817950411479100303e-02
5.367362608003736768e-02
4.929279544485296038e-02
4.499390167803282714e-02
4.069955643348450308e-02
3.626862150523929573e-02
3.155301339281421646e-02
2.640464859573281309e-02
2.067544869719136619e-02
1.422597652659668595e-02
6.943128570653295251e-03
-1.281200352495508177e-03
-1.055511542470781092e-02
-2.098672182783160173e-02
-3.266035666672224141e-02
-4.553825727953288854e-02
-5.954356165055703365e-02
-7.459939009104640806e-02
-9.062886291225433211e-02
-1.075428408664424879e-01
-1.251427628994883912e-01
-1.431725540075944048e-01
-1.613756277112559090e-01
-1.794953975309937499e-01
-1.972742613703178660e-01
-2.144373163383780645e-01
-2.306951758298302069e-01
-2.457580066230324878e-01
-2.593359754963602826e-01
-2.711405540608174403e-01
-2.809359139224335000e-01
-2.885558506197216655e-01
-2.938389318186115928e-01
-2.966237251850273871e-01
-2.967491640060800906e-01
-2.941156696960765538e-01
-2.887537112712649234e-01
-2.807102980522953595e-01
-2.700324393598145800e-01
-2.567671473948049399e-01
-2.409981943282568095e-01
-2.229379765826419724e-01
-2.028270068335906173e-01
-1.809057977567309905e-01
-1.574148620277147359e-01
-1.326057237985609205e-01
-1.067951587364057986e-01
-8.032388738969002684e-02
-5.353266679894223834e-02
-2.676225400469049720e-02
-3.504646529727591803e-04
2.539570106688172901e-02
5.018762911311955288e-02
7.373695121730548807e-02
9.575529911103113079e-02
1.159590825056392022e-01
1.341643197472989768e-01
1.502812383775565253e-01
1.642237629782387354e-01
1.759058181311896896e-01
1.852430016196617013e-01
1.922421450470980786e-01
1.970464636870107589e-01
1.998103360631892922e-01
2.006881406994211192e-01
1.998343508436115357e-01
1.974328210363007763e-01
1.937382517403997972e-01
1.890158071392814831e-01
1.835306514163170533e-01
1.775479487548840274e-01
1.713172451294621701e-01
1.650252418908585983e-01
1.588428357344663644e-01
1.529409233555500680e-01
1.474904014493747528e-01
1.426440378707764245e-01
1.384303133290410992e-01
1.348255828420152902e-01
1.318060232173945134e-01
1.293478112628752841e-01
1.274221560000412257e-01
1.259386797658644530e-01
1.247653707200273299e-01
1.237694324950129321e-01
1.228180687233036417e-01
1.217793772543889486e-01
1.205446909269939915e-01
1.190301641850703557e-01
1.171531634468748889e-01
1.148310551306667010e-01
1.119816675475053674e-01
1.085584973035398637e-01
1.045754625403450266e-01
1.000523292917937790e-01
9.500886359176527463e-02
8.946483508808938945e-02
8.344258960728959118e-02
7.697157404784693568e-02
7.008244835706106679e-02
6.280587248223094832e-02
5.517250637066349606e-02
4.720166043240218989e-02
3.886010183747165558e-02
3.009940318119685987e-02
2.087113554062672294e-02
1.112686999280931843e-02
8.162466236725784974e-04
-1.012647387240822594e-02
-2.177438272878734482e-02
-3.420061690795767051e-02
-4.747831337242935934e-02
-6.167576472021013556e-02
-7.678947691099796691e-02
-9.276104994880857157e-02
-1.095306918502962912e-01
-1.270386106321322317e-01
-1.452222793696837932e-01
-1.639285356689992867e-01
-1.828948253100619037e-01
-2.018520662087193718e-01
-2.205311762807992959e-01
-2.386628428494787235e-01
-2.559508119507424295e-01
-2.720470144062282492e-01
-2.865974981965741519e-01
-2.992483113024158592e-01
-3.096455149173169552e-01
-3.174686480820555490e-01
-3.225030208963949319e-01
-3.245547815754001864e-01
-3.234300783341324537e-01
-3.189350593876543183e-01
-3.109160043283351049e-01
-2.994331867484576470e-01
-2.846179210015161720e-01
-2.666015684019239496e-01
-2.455154902640901415e-01
-2.215093536047228473e-01
-1.949031187095349171e-01
-1.661093047561997271e-01
-1.355413540132353600e-01
-1.036127087491296450e-01
-7.073882011098620026e-02
-3.737116901439396788e-02
-3.992383252024167550e-03
2.891388358038665674e-02
6.086397788706721101e-02
9.137584522404723630e-02
1.200370463867762583e-01
1.465301364160219999e-01
1.705444995366987571e-01
1.917695199736950684e-01
2.098950587386553546e-01
2.247037251660015389e-01
2.361811136632905872e-01
2.443396821150417009e-01
2.491918884057697237e-01
2.507501921661037247e-01
2.490833519055753731e-01
2.444644638261045944e-01
2.372129689772027317e-01
2.276483084083767428e-01
2.160899231691303657e-01
2.028693127947990837e-01
1.883921976740881854e-01
1.730925145725417669e-01
1.574042549317807849e-01
1.417614101934256687e-01
1.265893677396535411e-01
1.122193797206945676e-01
9.892464918968987830e-02
8.697752542731919390e-02
7.665035771424809352e-02
6.820814278853368218e-02
6.175378016922318525e-02
5.723187419376406238e-02
5.458043719876919803e-02
5.373748152085366936e-02
5.463940948225257110e-02
5.712693332911620431e-02
6.089296703493374957e-02
6.561777148195929721e-02
7.098160755244199704e-02
7.666474560353278567e-02
8.235101679259126950e-02
8.773314308359056457e-02
9.250521121033873639e-02
9.636130790664287904e-02
9.899551990630621467e-02
1.001409592645380875e-01
9.969365353004935870e-02
9.759213638767266774e-02
9.377494163989491538e-02
8.818060308920101786e-02
8.076892414758267413e-02
7.165131682227061927e-02
6.100501824441158238e-02
4.900753310299854615e-02
3.583636608701347426e-02
2.167092641408843723e-02
6.715340818358866981e-03
-8.809001382695622051e-03
-2.468035782018363627e-02
-4.067698612523016483e-02
-5.657897002744896597e-02
-7.221684910595423113e-02
-8.747681789631768512e-02
-1.022479399901666808e-01
-1.164192789791129723e-01
-1.298802320380132991e-01
-1.425487064367737533e-01
-1.543925328407763919e-01
-1.653845842026988311e-01
-1.754977334752173546e-01
-1.847048473715646733e-01
-1.929729300118633306e-01
-2.002522400234157396e-01
-2.064900655643862049e-01
-2.116336947929486900e-01
-2.156304158672688875e-01
-2.184235389097154423e-01
-2.199372637406665221e-01
-2.200900586070100862e-01
-2.188003906697383871e-01
-2.159867270898426228e-01
-2.115745081508247361e-01
-2.055469910358878050e-01
-1.979160262506550194e-01
-1.886936676687636649e-01
-1.778919691638433664e-01
-1.655288149233720973e-01
-1.517128095639482532e-01
-1.366242191201432477e-01
-1.204452615587365411e-01
-1.033581548465249134e-01
-8.554598938735508140e-02
-6.722281756874018410e-02
-4.864128240759224564e-02
-3.005644832590809168e-02
-1.172337974570436536e-02
6.103118052760037049e-03
2.320248144353945219e-02
3.942226058775860631e-02
5.461806116823594848e-02
6.864548886778820691e-02
8.136015864745388404e-02
9.265535762784476992e-02
1.025477894560898329e-01
1.110793919558591414e-01
1.182921029508324784e-01
1.242278602646881280e-01
1.289391857813268483e-01
1.325371924145406499e-01
1.351531541534766179e-01
1.369183635371925556e-01
1.379641131047449898e-01
1.384184907678734366e-01
1.383784976292601887e-01
1.379236651734068175e-01
1.371333306101221172e-01
1.360868311492146876e-01
1.348612439632796700e-01
1.334909236421128742e-01
1.319720889436973854e-01
1.302996196499371928e-01
1.284683955427377844e-01
1.264732228364087441e-01
1.243054467002155383e-01
1.219515338744574101e-01
1.193975835432891514e-01
1.166296948908650405e-01
1.136340237790084834e-01
1.104096073904283631e-01
1.069846600517028595e-01
1.033914126097436048e-01
9.966209591146191205e-02
9.582894080706283457e-02
9.192460352655872080e-02
8.798334194010518083e-02
8.403979080759058085e-02
8.012858488889910979e-02
7.628435894391495664e-02
7.253449693825911315e-02
6.886001633251929988e-02
6.522367668193215784e-02
6.158819353123830276e-02
5.791628242517432579e-02
5.416739604514209105e-02
5.026368458141578649e-02
4.610352711904997652e-02
4.158491960404613053e-02
3.660585798240129085e-02
3.106499686974314306e-02
2.487636779536457621e-02
1.796950667005370317e-02
1.027463356834189268e-02
1.721968564768555643e-03
-7.757586401850036228e-03
-1.818879876518500471e-02
-2.952568208742223366e-02
-4.171591856787784658e-02
-5.470719040586904947e-02
-6.844711159848226867e-02
-8.285170674082492637e-02
-9.775531087579664158e-02
-1.129792297553970370e-01
-1.283447691316473849e-01
-1.436732347565470858e-01
-1.587776451322880367e-01
-1.734351253250320801e-01
-1.874130850660104541e-01
-2.004789339192462605e-01
-2.124000814487613242e-01
-2.229481443936816576e-01
-2.319259281051495591e-01
-2.391502540066982596e-01
-2.444380104374910823e-01
-2.476060857366990664e-01
-2.484775769510766952e-01
-2.469599981784690867e-01
-2.430217651546279223e-01
-2.366326415022043106e-01
-2.277623908438568545e-01
-2.163840496987789463e-01
-2.025669795138455576e-01
-1.864902519441992146e-01
-1.683389028133109866e-01
-1.482979679446710386e-01
-1.265530724417804898e-01
-1.033458573595323754e-01
-7.901937205263004360e-02
-5.392734875752023399e-02
-2.842351971064868005e-02
-2.861615406972550790e-03
2.240686652334553108e-02
4.703703857748210704e-02
7.068523065037062014e-02
9.300777263697104780e-02
1.136609944322414800e-01
1.323304419696769707e-01
1.488473148865330498e-01
1.630881132865671934e-01
1.749293516555341099e-01
1.842475444792067429e-01
1.909396443024136691e-01
1.950790889231494574e-01
1.968295965794839009e-01
1.963556141798585564e-01
1.938215886327171456e-01
1.893964328508020156e-01
1.833220950420697271e-01
1.759001021165551015e-01
1.674337206337540573e-01
1.582262171531716999e-01
1.485797898182203425e-01
1.387559437657679418e-01
1.289638043068401241e-01
1.194090441710499717e-01
1.102973360880113440e-01
1.018339416075966231e-01
9.416223101063286860e-02
8.729821778267843335e-02
8.124223232250366022e-02
7.599460502888050195e-02
7.155566316314254660e-02
6.790312515409535621e-02
6.493789593472476529e-02
6.254458250956737575e-02
6.060779188315684740e-02
5.901213106002728415e-02
5.764519275140386756e-02
5.641173136824825796e-02
5.522262118305651390e-02
5.398874400856241984e-02
5.262098165749870549e-02
5.103357264474674138e-02
4.917472716732351756e-02
4.701239096843912169e-02
4.451475326220770412e-02
4.165000326274128500e-02
3.838628654368525517e-02
3.469087820550736945e-02
3.053025104095688502e-02
2.587084786383418017e-02
2.067911148794471590e-02
1.492144127518647487e-02
8.562021090327241735e-03
1.561808816043418202e-03
-6.118492201929157104e-03
-1.451817861785559272e-02
-2.367645787356358056e-02
-3.360857780177360643e-02
-4.427360832824420167e-02
-5.562257775007015126e-02
-6.760651436435780037e-02
-8.017644645587893026e-02
-9.325789519577351583e-02
-1.066767461710118325e-01
-1.202345603251420703e-01
-1.337328986017264354e-01
-1.469733219443276617e-01
-1.597524003974577500e-01
-1.718335382652054766e-01
-1.829666152185599470e-01
-1.929014711148971384e-01
-2.013879458116046850e-01
-2.081826954902826765e-01
-2.131238563433404121e-01
-2.161032159966672084e-01
-2.170135062392978820e-01
-2.157474588602665833e-01
-2.122023561015271009e-01
-2.063881309017566168e-01
-1.984319933016111537e-01
-1.884666295455868501e-01
-1.766247258781918905e-01
-1.630396666454135557e-01
-1.478946747555931751e-01
-1.314551797727536164e-01
-1.139942956583260281e-01
-9.578513637373978207e-02
-7.710079645759575218e-02
-5.820305797169216672e-02
-3.932339922316208797e-02
-2.068827758087753849e-02
-2.524150413690383343e-03
1.494252490954687401e-02
3.150672020699338272e-02
4.705970523932127836e-02
6.151978815176394055e-02
7.480527849515028471e-02
8.683448582032886331e-02
9.753482992411280361e-02
1.069039924709253853e-01
1.149723315202681867e-01
1.217703864292319360e-01
1.273286965549162431e-01
1.316796156362055603e-01
1.348813620207214292e-01
1.370114278001689501e-01
1.381477654224931573e-01
1.383683273356380028e-01
1.377514018863640610e-01
1.363858264821145583e-01
1.343728451326127171e-01
1.318144123210140961e-01
1.288124825304733934e-01
1.254690277263986742e-01
1.218878782664084004e-01
1.181763432228859489e-01
1.144421137124662091e-01
1.107928808517843755e-01
1.073363289864881498e-01
1.041677666442925032e-01
1.013445239340083071e-01
9.891667013077901083e-02
9.693427450974509418e-02
9.544740634604731433e-02
9.449069698438286591e-02
9.401889739740659779e-02
9.396099951306863263e-02
9.424598267044617672e-02
9.480282620861642251e-02
9.555433248487235631e-02
9.636773003118462300e-02
9.708084644166309340e-02
9.753124185520460621e-02
9.755647641070552822e-02
9.699520809467848670e-02
9.570498234236779478e-02
9.355925518901370141e-02
9.043197965221191903e-02
8.619710874956164337e-02
8.073007259025942461e-02
7.396681854352439578e-02
6.592374713213350335e-02
5.662282476621958993e-02
4.608601785591370792e-02
3.433552670776035542e-02
2.143398178849358071e-02
7.530089985778462558e-03
-7.216409223788786131e-03
-2.264577636362676005e-02
-3.859827154041544500e-02
-5.490793273586301593e-02
-7.138687187413900181e-02
-8.784237365403876896e-02
-1.040817227743752460e-01
-1.199122039339610979e-01
-1.351467073719390122e-01
-1.496315849186807545e-01
-1.632255520526084691e-01
-1.757873440285198929e-01
-1.871756961012272513e-01
-1.972529615605832787e-01
-2.059197157427462843e-01
-2.130994855423881396e-01
-2.187161104852425320e-01
-2.226934300970373759e-01
-2.249568312922338720e-01
-2.254643078454165450e-01
-2.242048844889988901e-01
-2.211688179211846461e-01
-2.163463648401804384e-01
-2.097284808065624229e-01
-2.013448586813383900e-01
-1.912834660039951507e-01
-1.796370820824431669e-01
-1.664984862245902919e-01
-1.519605533271635167e-01
-1.361468928206791551e-01
-1.192557240251971018e-01
-1.014963686925818565e-01
-8.307814857467991920e-02
-6.421038542333684651e-02
-4.510751767278089325e-02
-2.600471940959210582e-02
-7.142416745197520400e-03
1.123896420852865674e-02
2.889899733973857326e-02
4.560791491609633708e-02
6.120957160743414893e-02
7.557890725687968492e-02
8.859097171558776018e-02
1.001208148347292048e-01
1.100519003584467803e-01
1.183729238900588232e-01
1.251441706490636074e-01
1.304272967306910613e-01
1.342839582301663115e-01
1.367776807152301100e-01
1.380211403833333517e-01
1.381798466491392374e-01
1.374219161227772101e-01
1.359154654143747698e-01
1.338284140296195912e-01
1.313131645401426351e-01
1.284956651677186534e-01
1.254992824294856590e-01
1.224473828425791666e-01
1.194632948521846538e-01
1.166417850126565958e-01
1.139983476744430568e-01
1.115348360486272394e-01
1.092531033462901258e-01
1.071550027785129200e-01
1.052315096632738256e-01
1.034228781704021327e-01
1.016545907911085012e-01
9.985212832529549720e-02
9.794097157286354993e-02
9.584706924473915257e-02
9.350012574604629756e-02
9.083165270787427192e-02
8.777317330513817462e-02
8.425621071275662954e-02
8.021360559753884512e-02
7.559790603334941295e-02
7.037682773725192908e-02
6.451847640841190668e-02
5.799095774600139530e-02
5.076279445829599141e-02
4.281651100349260358e-02
3.415163659597669765e-02
2.476872517806504026e-02
1.466833069207340579e-02
3.851169562946342093e-03
-7.662610808646962146e-03
-1.981524794597586472e-02
-3.254467472499302655e-02
-4.578882402166415538e-02
-5.948562064770007707e-02
-7.355074637772845980e-02
-8.782911361785834814e-02
-1.021515917178115740e-01
-1.163490500273248740e-01
-1.302523578961352901e-01
-1.436843915942418171e-01
-1.564250961228189074e-01
-1.682400648774143859e-01
-1.788948811044266396e-01
-1.881551280502663515e-01
-1.957924494075662381e-01
-2.016353243363508962e-01
-2.055433240154431740e-01
-2.073763364464766279e-01
-2.069942496310852587e-01
-2.042635660812899823e-01
-1.991706245196774860e-01
-1.918060042899356610e-01
-1.822637611088798182e-01
-1.706379506933358714e-01
-1.570243585834597555e-01
-1.415951975272876640e-01
-1.246276256377139013e-01
-1.064064148752648098e-01
-8.721633720046539917e-02
-6.734214723403592062e-02
-4.706512625114123161e-02
-2.665890328818332211e-02
-6.396086890321894813e-03
1.345071439730449736e-02
3.260889281193807276e-02
5.083730772832933953e-02
6.800984249773356360e-02
8.402665523917229873e-02
9.878790407164958487e-02
1.121937471141868925e-01
1.241597728382237698e-01
1.346972475290817706e-01
1.438540600310518336e-01
1.516781733339248595e-01
1.582175504275016020e-01
1.635208432846016746e-01
1.676443059450330730e-01
1.706489102601542740e-01
1.725956987316532576e-01
1.735457138612160055e-01
1.735589377563184765e-01
1.726717166620648780e-01
1.708971719865068628e-01
1.682474469564767816e-01
1.647346847988055973e-01
1.603711542101449172e-01
1.551767095704764676e-01
1.491829962478708749e-01
1.424226777767416408e-01
1.349284176914929134e-01
1.267329422841479980e-01
1.178935019421412378e-01
1.085289963585933937e-01
9.876785921650990674e-02
8.873852419888655918e-02
7.856942498871841152e-02
6.839512924849566744e-02
5.837599466734919029e-02
4.867915582905281424e-02
3.947174734697048160e-02
3.092090383445542795e-02
2.318320844402004671e-02
1.633946260103374265e-02
1.043734436211066208e-02
5.524392764902186226e-03
1.648146847064879683e-03
-1.152656096060633573e-03
-2.954537148672276015e-03
-3.915021138515495380e-03
-4.193315456864021851e-03
-3.948627494992695830e-03
-3.341877215688571212e-03
-2.581878948684945829e-03
-1.930605094130899424e-03
-1.652796953797164292e-03
-2.013195829455471930e-03
-3.276103811464259330e-03
-5.667519728628112041e-03
-9.345937648470858949e-03
-1.446297754774916733e-02
-2.117025940322198041e-02
-2.961934298964913337e-02
-3.990189113742942384e-02
-5.193729481642433976e-02
-6.561416268759712178e-02
-8.082110341189541192e-02
-9.744672565028739131e-02
-1.153488552861449690e-01
-1.342363753783527569e-01
-1.537731823018627098e-01
-1.736231629360004136e-01
-1.934502041601120492e-01
-2.129155273781815350e-01
-2.316580797591279439e-01
-2.493057203346636386e-01
-2.654862272729227035e-01
-2.798273787420230141e-01
-2.919628278024851697e-01
-3.016185191552028799e-01
-3.085937559321259016e-01
-3.126898668323612740e-01
-3.137081805550114844e-01
-3.114534513453339759e-01
-3.058536553972870387e-01
-2.969913111025718200e-01
-2.849587273423653810e-01
-2.698482129978396760e-01
-2.517526705749151827e-01
-2.308453968369887088e-01
-2.074606594054116959e-01
-1.819519133123244647e-01
-1.546726135898425225e-01
-1.259762192437344219e-01
-9.623405342455905453e-02
-6.587637650333948158e-02
-3.534558611550214779e-02
-5.084079896505860896e-03
2.446574451822294827e-02
5.287874638620154721e-02
7.982601196632815865e-02
1.050119690396074112e-01
1.281410779368906128e-01
1.489177989890562992e-01
1.670651707987450552e-01
1.824879294402108054e-01
1.951935777752273615e-01
2.051907851428390328e-01
2.124882208820800811e-01
2.171016706285456010e-01
2.191828361995515340e-01
2.190054981437672965e-01
2.168477758106821529e-01
2.129877885497824530e-01
2.077042139457008496e-01
2.013023982584237481e-01
1.941255148965199961e-01
1.865196130241123518e-01
1.788307418053131648e-01
1.714047761194638364e-01
1.645467179488655507e-01
1.584683693707379937e-01
1.533686048633306209e-01
1.494462989048782608e-01
1.469003257487181413e-01
1.458875171247899505e-01
1.464052765124074507e-01
1.484132233095267761e-01
1.518709769141069754e-01
1.567381567240991314e-01
1.629546487966425095e-01
1.703332110953950373e-01
1.786362011389941995e-01
1.876258499944059854e-01
1.970643887286034623e-01
2.067095430635692566e-01
2.162670878569324384e-01
2.254094814112780343e-01
2.338086356758518614e-01
2.411364625999002920e-01
2.470657437044079252e-01
2.512897905138605781e-01
2.535227433064370928e-01
2.534796716859906152e-01
2.508756452563740691e-01
2.454268479727215180e-01
2.369232133034835375e-01
2.252731337508100395e-01
2.103956924686383179e-01
1.922099726109098849e-01
1.706352311100522989e-01
1.456747229251278419e-01
1.175504044956687810e-01
8.651937323710101602e-02
5.283872656486732211e-02
1.676556189441069655e-02
-2.139601784199984813e-02
-6.113686439914212123e-02
-1.018919340127999451e-01
-1.430961816830027544e-01
-1.841845624097502299e-01
-2.245888037237411261e-01
-2.637165239963825680e-01
-3.009644347523801056e-01
-3.357291938659457964e-01
-3.674074592113724114e-01
-3.954090677532217102e-01
-4.193246840192055291e-01
-4.388762492576714358e-01
-4.537886539519355167e-01
-4.637867885853568239e-01
-4.686031089098444125e-01
-4.681955081885521563e-01
-4.627802422207153432e-01
-4.525877554636755784e-01
-4.378484923747995028e-01
-4.187940488235573078e-01
-3.957678168016172116e-01
-3.693168895752938496e-01
-3.400099937782885551e-01
-3.084158560442769037e-01
-2.751031977436877440e-01
-2.406335396521048775e-01
-2.055469374763898571e-01
-1.703794649280077067e-01
-1.356671957183950283e-01
-1.019462035590641413e-01
-6.971184225982196558e-02
-3.925499602143411870e-02
-1.080250841090313330e-02
1.541879923431710431e-02
3.918210557679202566e-02
6.028312042317995889e-02
7.871365798295348881e-02
9.456650537081623398e-02
1.079352841882913472e-01
1.189136160369030915e-01
1.275996807151356105e-01
1.341669302748396131e-01
1.388506035837504538e-01
1.418877676235902330e-01
1.435154893760795525e-01
1.439704916674490187e-01
1.434762054187853075e-01
1.422388451393914177e-01
1.404634797769290511e-01
1.383551782790603535e-01
1.361188011345695337e-01
1.339270010099981034e-01
1.318857176304830681e-01
1.300926113602398904e-01
1.286453425634854486e-01
1.276415687831037871e-01
1.271558713168711718e-01
1.271838744733091997e-01
1.277043295335179851e-01
1.286959877785975315e-01
1.301376004896481198e-01
1.319952806855619332e-01
1.341619649648235768e-01
1.365043149076090589e-01
1.388889579676670927e-01
1.411825215987444204e-01
1.432484574251936815e-01
1.449178092314564181e-01
1.460026726346848047e-01
1.463149048852745993e-01
1.456663632336229752e-01
1.438709114932965882e-01
1.407828610299566297e-01
1.362940350924811417e-01
1.302976753139888921e-01
1.226870233276124295e-01
1.133568828768954095e-01
1.022829836641705736e-01
8.955963659443762215e-02
7.529059205472660166e-02
5.957960043209936662e-02
4.253060071548164789e-02
2.429992361329341710e-02
5.167569056895526813e-03
-1.456862651702994782e-02
-3.461082667181714090e-02
-5.466119497037658093e-02
-7.441962871500951149e-02
-9.357710952156483852e-02
-1.118224268101472019e-01
-1.288443700008617965e-01
-1.443317285138241424e-01
-1.579909355729423037e-01
-1.696465507968289987e-01
-1.791716306097185241e-01
-1.864393795503817008e-01
-1.913230021575930140e-01
-1.937068809087848509e-01
-1.936101836436289192e-01
-1.911413922042636271e-01
-1.864105865058993672e-01
-1.795278464637481974e-01
-1.706056851760231474e-01
-1.598175496969730380e-01
-1.474007175897901201e-01
-1.335954793029686671e-01
-1.186421252850033969e-01
-1.027808853427490399e-01
-8.624757876775568377e-02
-6.927070328850329362e-02
-5.207806647898977070e-02
-3.489747591322450715e-02
-1.795670551319944463e-02
-1.462986439705549202e-03
1.443185795041374009e-02
2.958525231560166224e-02
4.385462131428974342e-02
5.709738960490923221e-02
6.918520739208394721e-02
8.005410934873913309e-02
8.965833644263421220e-02
9.795213076504771799e-02
1.048897344072494686e-01
1.104336121964697437e-01
1.146101360828195581e-01
1.174755962284392830e-01
1.190864534971094457e-01
1.194991687526174573e-01
1.187736247347172536e-01
1.170189374987985476e-01
1.143811409928776612e-01
1.110071637917439125e-01
1.070439344701802215e-01
1.026385003628576542e-01
9.794168650378420882e-02
9.310878851581572135e-02
8.829536059275522319e-02
8.365695692841634834e-02
7.934879078672490982e-02
7.548901642332839224e-02
7.212596597015025202e-02
6.930024183717120589e-02
6.705244643437013874e-02
6.542316516360136003e-02
6.441948541092801239e-02
6.394497725955183842e-02
6.388327672006866020e-02
6.411801980307474391e-02
6.453284251916613368e-02
6.500491394083585117e-02
6.537769909151591730e-02
6.548371829115162690e-02
6.515548608963528388e-02
6.422551703685852598e-02
6.253315949368537519e-02
5.997973862813110735e-02
5.649958152453132820e-02
5.202732228748327414e-02
4.649759502158491015e-02
3.984933132326639454e-02
3.209613482243003912e-02
2.331490421546572600e-02
1.358454079001147896e-02
2.983945833704371164e-03
-8.407423908210920338e-03
-2.048702406244928831e-02
-3.312142436230003373e-02
-4.617503791021704274e-02
-5.951227780864520867e-02
-7.299759803406524750e-02
-8.650271694519151566e-02
-9.991492144193592218e-02
-1.131235093099554057e-01
-1.260177783348983560e-01
-1.384870263851805117e-01
-1.504220107518196015e-01
-1.617186681175827312e-01
-1.722740836285870936e-01
-1.819853424309728629e-01
-1.907495296708727750e-01
-1.984610699005462386e-01
-2.049983885876394685e-01
-2.102339591016157971e-01
-2.140402448286439219e-01
-2.162897091549045858e-01
-2.168577756606300810e-01
-2.156514031822153177e-01
-2.125966081752186931e-01
-2.076196715762606559e-01
-2.006468743219557704e-01
-1.916089646238058330e-01
-1.805318452810430463e-01
-1.675325373946614516e-01
-1.527317216078786233e-01
-1.362500785639446654e-01
-1.182096375942557342e-01
-9.880843147867812704e-02
-7.835955436847796829e-02
-5.718568426422265816e-02
-3.560949916646494184e-02
-1.395367646686807017e-02
7.459309512659273445e-03
2.830748074961642047e-02
4.826893362810902310e-02
6.702176453225622277e-02
8.424406984613641569e-02
9.965285324167676151e-02
1.131239191807696387e-01
1.245735813248536883e-01
1.339181533474409491e-01
1.410739489220477205e-01
1.459823723171897458e-01
1.487594490413994830e-01
1.495954304297771875e-01
1.486808395841950903e-01
1.462061996065280312e-01
1.423658601613456698e-01
1.374024541982079572e-01
1.315916697021428661e-01
1.252098378265192880e-01
1.185332897247072248e-01
1.118361937201844958e-01
1.053351782710369999e-01
9.918463640437302775e-02
9.353585739228376106e-02
8.854013050686171393e-02
8.434799527211622738e-02
8.104980906236658456e-02
7.863266671010382680e-02
7.707350184038130880e-02
7.634924807825460569e-02
7.643681468011798152e-02
7.729385008900624410e-02
7.882417605900604585e-02
8.092228395901665539e-02
8.348266515794026954e-02
8.639981102467828022e-02
8.956832772523723452e-02
9.288336054148982335e-02
9.624021287644862754e-02
9.953418815374437401e-02
1.026605897970055969e-01
1.055148959509440987e-01
1.079939980996609261e-01
1.099954723102052334e-01
1.114168991388665431e-01
1.121558591419409279e-01
1.121097755542761476e-01
1.111736960929010642e-01
1.092408287257936594e-01
1.062043334522927429e-01
1.019573702717410102e-01
9.639392699436111211e-02
8.943615500833579368e-02
8.104062310894188936e-02
7.116599445644311572e-02
5.977093221112583787e-02
4.681452632762672650e-02
3.230812188800802343e-02
1.636488259488055874e-02
-8.902831569310709625e-04
-1.933246697261381541e-02
-3.883674889768395921e-02
-5.924340064611910428e-02
-8.028116722067257793e-02
-1.016565032167059401e-01
-1.230758632295821942e-01
-1.442457018546791092e-01
-1.648691568864174561e-01
-1.846314219436428483e-01
-2.032116502102779276e-01
-2.202889903084402357e-01
-2.355425908602470919e-01
-2.486616339496140471e-01
-2.594301603600435158e-01
-2.676844400383956435e-01
-2.732612865963238158e-01
-2.759975136454818068e-01
-2.757369665826739924e-01
-2.724521841411038370e-01
-2.662283470345066516e-01
-2.571544396203150340e-01
-2.453194462559623590e-01
-2.308142443114959697e-01
-2.138146047496234936e-01
-1.946136027977501404e-01
-1.735129020642415809e-01
-1.508141661574744496e-01
-1.268191710717272436e-01
-1.018528829181571949e-01
-7.629169926846235406e-02
-5.051892910713862150e-02
-2.491788141862649741e-02
1.281351213194836802e-04
2.425159265583953783e-02
4.714305908754057306e-02
6.850646801908855110e-02
8.804575305319839451e-02
1.054648477925688166e-01
1.204926381252634515e-01
1.330138760417927113e-01
1.429733822260139675e-01
1.503161043260646812e-01
1.549869899901041848e-01
1.569461611510220012e-01
1.563225953550739789e-01
1.533507302211433720e-01
1.482666111401279574e-01
1.413062835029381126e-01
1.327091198338568034e-01
1.227894755705087881e-01
1.119358427310672144e-01
1.005398711936856815e-01
8.899321083654232467e-02
7.768680119358095659e-02
6.696788987902158041e-02
5.711537876364558564e-02
4.840221706051528461e-02
4.110135398268810469e-02
3.548553325750003484e-02
3.174394848596007179e-02
2.985433386076408180e-02
2.976147795591788103e-02
3.141016934542761874e-02
3.474519660330210868e-02
3.966741821978886362e-02
4.589167017555212391e-02
5.308355805565623253e-02
6.090868712664992968e-02
6.903266265508781196e-02
7.712128662582382055e-02
8.484178462826069689e-02
9.186200866156137013e-02
9.784981343832563350e-02
1.024730536711528084e-01
1.054108923746552851e-01
1.064919095062646925e-01
1.056503576687752299e-01
1.028227184950089579e-01
9.794547361778727090e-02
9.095977412401701212e-02
8.193895481466340058e-02
7.110397402859336413e-02
5.868355934214086744e-02
4.490643833164464915e-02
3.000168440392592117e-02
1.422915139836233855e-02
-2.096709836929000481e-03
-1.865584315489243750e-02
-3.512819240845976854e-02
-5.119372693072432590e-02
-6.655929608657795704e-02
-8.100959660235873550e-02
-9.434333680191020477e-02
-1.063592250091082159e-01
-1.168559695478181837e-01
-1.256562926612846409e-01
-1.326999444761518543e-01
-1.379622718021136230e-01
-1.414186297846607987e-01
-1.430443735692965568e-01
-1.428233384138153372e-01
-1.408107823800158753e-01
-1.370977514095631511e-01
-1.317755589821947293e-01
-1.249355185776419574e-01
-1.166708968964677018e-01
-1.071059403962145162e-01
-9.638967386690455719e-02
-8.467181560427267106e-02
-7.210208390407940593e-02
-5.883067570750610820e-02
-4.502524101003493873e-02
-3.087545589320364603e-02
-1.657240524516202795e-02
-2.307173954049779319e-03
1.172915166126192732e-02
2.534528663702756424e-02
3.834954565538667426e-02
5.055019530155729912e-02
6.175550216076453047e-02
7.177373687357019305e-02
8.043343831063642924e-02
8.763048643950110961e-02
9.327472893292043654e-02
9.727601346364866952e-02
9.954418770444251052e-02
1.000112605149625633e-01
9.873371677099629373e-02
9.581147007752599531e-02
9.134447896364217279e-02
8.543270195843566395e-02
7.818529537779450589e-02
6.980210986638057946e-02
6.053462324420322282e-02
5.063491134366204793e-02
4.035504999715544550e-02
2.994668933500144181e-02
1.965326431539804464e-02
9.710785209109840110e-03
3.549951892420910582e-04
-8.178362571100161738e-03
-1.565501747392517018e-02
-2.191214398746710312e-02
-2.688889429788754448e-02
-3.053224310260860275e-02
-3.278916509904705734e-02
-3.360687570357345777e-02
-3.299086814153545655e-02
-3.108041339568157202e-02
-2.803347964263558367e-02
-2.400803505901771828e-02
-1.916204787845249280e-02
-1.366974108603219440e-02
-7.767416871761745334e-03
-1.706195218161954408e-03
4.262803892233268943e-03
9.888460476903226937e-03
1.492643511119440269e-02
1.917639646236812823e-02
2.245557902253930704e-02
2.458126312478747799e-02
2.537072910219903554e-02
2.465001551747159070e-02
2.234702408736753687e-02
1.845539784113871262e-02
1.296987653705204691e-02
5.885199933386757454e-03
-2.799892051129820869e-03
-1.299114564415018713e-02
-2.449680144633226142e-02
-3.712070149000609720e-02
-5.066668780751143464e-02
-6.493790475295724285e-02
-7.969048704087372537e-02
-9.460457866016303008e-02
-1.093534072679819280e-01
-1.236102005214977373e-01
-1.370482050883431446e-01
-1.493502645958579844e-01
-1.602243807177230472e-01
-1.693826274588127179e-01
-1.765370788239999378e-01
-1.813998088181616453e-01
-1.837191884104979467e-01
-1.834030547037103220e-01
-1.804030250972096239e-01
-1.746707182087933186e-01
-1.661577526562600937e-01
-1.548421531217318847e-01
-1.409007109472213415e-01
-1.246007374909259280e-01
-1.062100026989419854e-01
-8.599627651736463374e-02
-6.423377126238916102e-02
-4.128590397085185604e-02
-1.758125960260426002e-02
6.450090916580442091e-03
3.037807666092984249e-02
5.377451336297084383e-02
7.626814398741821321e-02
9.755335912301466017e-02
1.173281912091035384e-01
1.352906726850115482e-01
1.511398701732988015e-01
1.646774365464062639e-01
1.758931571553327133e-01
1.847969593135930788e-01
1.913987703347266311e-01
1.957085526106757956e-01
1.977875621985603072e-01
1.978510290136782368e-01
1.961429542221172773e-01
1.929073389899658153e-01
1.883881844833117103e-01
1.828284280895468017e-01
1.764656270125328497e-01
1.695356415136175243e-01
1.622743312120321080e-01
1.549175557269941161e-01
1.476890585934665656e-01
1.407062893632937683e-01
1.340316097339454837e-01
1.277269153460227902e-01
1.218541018401404774e-01
1.164705782098773568e-01
1.115589351711951671e-01
1.070399660094309424e-01
1.028326114123856438e-01
9.885581206786936415e-02
9.502830602030437612e-02
9.126089431433104249e-02
8.745403314926902816e-02
8.350748388959944313e-02
7.932100789980101041e-02
7.479444303520843551e-02
6.983976181433199093e-02
6.439423761211687802e-02
5.839830821588976040e-02
5.179241141297774575e-02
4.451698561710043522e-02
3.651832058793752500e-02
2.776286881315959132e-02
1.822142246294888857e-02
7.864773707488226240e-03
-3.336285283048578965e-03
-1.540471236779022979e-02
-2.832701221576067185e-02
-4.207651011643248617e-02
-5.662651333468748938e-02
-7.195032913540799768e-02
-8.801356783274449924e-02
-1.047026426799747556e-01
-1.218573644490811014e-01
-1.393169461987040225e-01
-1.569206009874848373e-01
-1.745042741464312430e-01
-1.918373410426289782e-01
-2.086270550074735552e-01
-2.245782925642068328e-01
-2.393959302360583741e-01
-2.527851162933365536e-01
-2.644653045845842265e-01
-2.741770436041706671e-01
-2.816625759367948900e-01
-2.866641441671470836e-01
-2.889242363706125971e-01
-2.882559124291449448e-01
-2.846399373725103654e-01
-2.780814464522231577e-01
-2.685855749197915143e-01
-2.561574580283532132e-01
-2.408541074286954242e-01
-2.229380797182865803e-01
-2.027228321928148669e-01
-1.805218221480122676e-01
-1.566485068795686053e-01
-1.314258032997909775e-01
-1.052404365193825020e-01
-7.850550528458830057e-02
-5.163419186060684563e-02
-2.503967851269410516e-02
8.729160965095950769e-04
2.579655798388257384e-02
4.948961996060097235e-02
7.171166459109640234e-02
9.222225443975326509e-02
1.107858553005509894e-01
1.272911545093258490e-01
1.417577743662116752e-01
1.542115842515395796e-01
1.646784535456475296e-01
1.731849443448269243e-01
1.798089538433292334e-01
1.847141430211934887e-01
1.880723250962104132e-01
1.900553132861707295e-01
1.908349127200675011e-01
1.905777484253374787e-01
1.894363776086286644e-01
1.875609921551451287e-01
1.851017839500911366e-01
1.822089448786689825e-01
1.790193475369387111e-01
1.756091496460102097e-01
1.720372183071284256e-01
1.683624193675595515e-01
1.646436186745699193e-01
1.609336754093118882e-01
1.572384035265619595e-01
1.535414467098676072e-01
1.498263186053785390e-01
1.460765328592447676e-01
1.422735876013589418e-01
1.383697116714200648e-01
1.342950484494428443e-01
1.299791983806389550e-01
1.253517619102233194e-01
1.203418906925811660e-01
1.148642758101392353e-01
1.088163887954957110e-01
1.020946953151014580e-01
9.459566103541106052e-02
8.621587184234677514e-02
7.686527930998103553e-02
6.647918109847866797e-02
5.499570332980555087e-02
4.235297212590635740e-02
2.848912904364739318e-02
1.337514607181314319e-02
-2.915839350541904462e-03
-2.029087367336664116e-02
-3.865700334657267562e-02
-5.792127482010778899e-02
-7.796730333338232344e-02
-9.855570197641962127e-02
-1.194068617932108473e-01
-1.402411510024412777e-01
-1.607789378228406396e-01
-1.807370683712000714e-01
-1.998001893598913004e-01
-2.176356901406944211e-01
-2.339107959149405724e-01
-2.482927318839268094e-01
-2.604535724975053923e-01
-2.701504953802758568e-01
-2.772132646088465990e-01
-2.814739702864731408e-01
-2.827647025164107264e-01
-2.809203110689888483e-01
-2.758920268899310857e-01
-2.677877494831995553e-01
-2.567264193523657312e-01
-2.428269770009904294e-01
-2.262087098013926822e-01
-2.070543119895464912e-01
-1.856832692207898150e-01
-1.624328720193680131e-01
-1.376404109095261674e-01
-1.116431766981935692e-01
-8.478440957151600621e-02
-5.742861381052000169e-02
-2.994504251552804197e-02
-2.702948786863668129e-03
2.392841427515102204e-02
4.959393418795060571e-02
7.402415802522027688e-02
9.698171938112298829e-02
1.182293082307592780e-01
1.375296145492297395e-01
1.546561881833032892e-01
1.694992452115481329e-01
1.820199577624268539e-01
1.921805010836675764e-01
1.999430504229964267e-01
2.052739268502245529e-01
2.082287194943014397e-01
2.089490299657666417e-01
2.075799543000074743e-01
2.042665885324091435e-01
1.991547423453111088e-01
1.924311179580799613e-01
1.843447175454598630e-01
1.751497777548709223e-01
1.651005352337164278e-01
1.544512128908827886e-01
1.434512789844800684e-01
1.323385027609988995e-01
1.213488863774931925e-01
1.107184319909933073e-01
1.006831417585373617e-01
9.145140780662203150e-02
8.311812608940198632e-02
7.574903348225886512e-02
6.940986683921848699e-02
6.416636301429057276e-02
6.006219382841215815e-02
5.698630529617929041e-02
5.476143209270929735e-02
5.321005820748546389e-02
5.215466762999371175e-02
5.141214004037435170e-02
5.072801081442718241e-02
4.979866385059175671e-02
4.831951139188805922e-02
4.598596568133422879e-02
4.249588038825002911e-02
3.761283756028493963e-02
3.117195332540140251e-02
2.301194898670599898e-02
1.297154584729698357e-02
8.909453946653878020e-04
-1.326848320952367377e-02
-2.933612921442774191e-02
-4.712062151075613325e-02
-6.643058898921727629e-02
-8.707457986150768381e-02
-1.087938824225058720e-01
-1.311405194748164194e-01
-1.536334660288333209e-01
-1.757916970949512381e-01
-1.971341876835643880e-01
-2.171841724130871842e-01
-2.354850337677686367e-01
-2.515861053955937843e-01
-2.650367218224836119e-01
-2.753862175743581053e-01
-2.822114155235398991e-01
-2.853132325187891505e-01
-2.846018462176392316e-01
-2.799881696190910096e-01
-2.713831157221452406e-01
-2.587133403411449595e-01
-2.421454686892847152e-01
-2.220331368107018588e-01
-1.987349249924465211e-01
-1.726094135215792691e-01
-1.440180730283249777e-01
-1.134220201245665915e-01
-8.140490445583647983e-02
-4.855790484903721449e-02
-1.547220013100214508e-02
1.726133267850749053e-02
4.908965838509904422e-02
7.953395888794234647e-02
1.081240448830018686e-01
1.343897270663075849e-01
1.578608396558328630e-01
1.781447774043483090e-01
1.950991904573715630e-01
2.086321072553414258e-01
2.186515562386691647e-01
2.250655658477958010e-01
2.278293464901478549e-01
2.271552234565981099e-01
2.233426759717134225e-01
2.166912534333462759e-01
2.075005052393643079e-01
1.960805244623704535e-01
1.828418976291564801e-01
1.682509013295341860e-01
1.527744042021604853e-01
1.368792748857254049e-01
1.210281491514148822e-01
1.056054022105782364e-01
9.092648346130866033e-02
7.730448583003889096e-02
6.505250224319307495e-02
5.448043852152796573e-02
4.575311057055690689e-02
3.883359008153679237e-02
3.367004338487866733e-02
3.021063681099415976e-02
2.840312798058639010e-02
2.810836557496614041e-02
2.899316389231833269e-02
3.069806309340827877e-02
3.286360333900051334e-02
3.513032478664565583e-02
3.713855395243106927e-02
3.852782524251852081e-02
3.893748952388174922e-02
3.800689766349375776e-02
3.537540052832810478e-02
3.071613337705938335e-02
2.391483338782313117e-02
1.493973122941698317e-02
3.759239464871284853e-03
-9.658229342783597460e-03
-2.532317994889840551e-02
-4.300951040111175572e-02
-6.234240149564593270e-02
-8.294472623268694944e-02
-1.044393576124088285e-01
-1.264458837732380103e-01
-1.485090381059359088e-01
-1.700990844801448798e-01
-1.906830789497718226e-01
-2.097280775687075938e-01
-2.267024624825401680e-01
-2.411576089689493330e-01
-2.527755422403497598e-01
-2.612497645336543384e-01
-2.662737780858017711e-01
-2.675413407716438208e-01
-2.648544345473078376e-01
-2.582908142744427815e-01
-2.479715203093834086e-01
-2.340175930084871236e-01
-2.165500727280907922e-01
-1.957393601780847980e-01
-1.719663677545109071e-01
-1.456681167848581371e-01
-1.172816291099599839e-01
-8.724392657059443223e-02
-5.599501155608932468e-02
-2.399662039955458015e-02
8.279883279649125072e-03
4.036309283928501968e-02
7.178160163704938590e-02
1.020716935963644212e-01
1.308721874906290106e-01
1.578948752174273995e-01
1.828531116659293243e-01
2.054602517253210359e-01
2.254334964645815786e-01
2.426002631994725878e-01
2.569118251265454234e-01
2.683260411953342639e-01
2.768007703553778676e-01
2.822946060495331033e-01
2.848328733520203437e-01
2.845600280266227244e-01
2.816328567278658657e-01
2.762081461102751656e-01
2.684427051666458119e-01
2.585183648957410929e-01
2.466899261728274506e-01
2.332254193147157983e-01
2.183928746382170494e-01
2.024603224601421725e-01
1.856940153304479368e-01
1.683514797573716915e-01
1.506875692986632265e-01
1.329571368203577575e-01
1.154150351884906944e-01
9.830509501947343187e-02
8.177758065674445298e-02
6.593556546208434455e-02
5.088176126641352770e-02
3.671887990066485807e-02
2.354273004598905761e-02
1.133857178191033377e-02
2.693305108714127982e-06
-1.057114111411749935e-02
-2.048916720546056780e-02
-2.985873816160011796e-02
-3.882851440503021223e-02
-4.759961292029413205e-02
-5.637653800828190676e-02
-6.536379396990288360e-02
-7.476562745382286934e-02
-8.474959911403068258e-02
-9.540884535249938292e-02
-1.068274913250292224e-01
-1.190896621873958061e-01
-1.322794739425080524e-01
-1.464299645345554790e-01
-1.614032656544989175e-01
-1.770258051499917773e-01
-1.931240108686547163e-01
-2.095243106581406445e-01
-2.260326237604131094e-01
-2.423388341590272388e-01
-2.580920614019351356e-01
-2.729413804150145895e-01
-2.865358661241100280e-01
-2.985282345576414365e-01
-3.086074003027322599e-01
-3.164830166489057683e-01
-3.218649819842740456e-01
-3.244631946969487868e-01
-3.239943540799542498e-01
-3.203077736618871740e-01
-3.133733660215730077e-01
-3.031654348089385942e-01
-2.896582836739001188e-01
-2.728285467257579588e-01
-2.527676984133344629e-01
-2.297321660582050118e-01
-2.039911437612995093e-01
-1.758138256235475261e-01
-1.454695869782502426e-01
-1.132731179695263823e-01
-7.964382750347309692e-02
-4.501587143321145179e-02
-9.823405611863456066e-03
2.549941411754402809e-02
6.052314971780958786e-02
9.483650978003199672e-02
1.280325653075059522e-01
1.597043873035004502e-01
1.894450467712853747e-01
2.168671110774553767e-01
2.417106302256519790e-01
2.637668845487879388e-01
2.828272933515024734e-01
2.986832759384343561e-01
3.111404103120491982e-01
3.201703748345597900e-01
3.258527286179698779e-01
3.282688613778337317e-01
3.275001628296984046e-01
3.236327714377751907e-01
3.168675081354499490e-01
3.075229949940271323e-01
2.959232267080091905e-01
2.823921979718790887e-01
2.672541358441671844e-01
2.508492100181273221e-01
2.335435260305086524e-01
2.157055700111458474e-01
1.977038280898359424e-01
1.799066961271322262e-01
1.626349383103011803e-01
1.460835992941436623e-01
1.304272230031010837e-01
1.158403533616479408e-01
1.024975342942247986e-01
9.053000816860309885e-02
7.987741554201356620e-02
7.042641946242436668e-02
6.206368115394492180e-02
5.467586184070194477e-02
4.813722526765407128e-02
4.222799820090133993e-02
3.668529713242296708e-02
3.124601370134255651e-02
2.564703954679548037e-02
1.962931221428104722e-02
1.299030639086576344e-02
5.569059250774555103e-03
-2.794430227849559190e-03
-1.226016306687127688e-02
-2.298449556815190808e-02
-3.501241975265276252e-02
-4.825970427499917670e-02
-6.263487646440646373e-02
-7.804646365008985343e-02
-9.440238444650389527e-02
-1.115488563968635716e-01
-1.292182092038278440e-01
-1.471304807766377065e-01
-1.650057090245343749e-01
-1.825639313673569353e-01
-1.995244189335946550e-01
-2.156041265276865682e-01
-2.305195729887770106e-01
-2.439872771560103459e-01
-2.557237578685311319e-01
-2.654644324522725807e-01
-2.730409899156788223e-01
-2.783156972771286819e-01
-2.811508341339978845e-01
-2.814086800836622104e-01
-2.789649169550299512e-01
-2.738137414535821712e-01
-2.660111728664074637e-01
-2.556137657741496816e-01
-2.426780747574556196e-01
-2.272660775190445126e-01
-2.095310779058817685e-01
-1.897022827476743667e-01
-1.680112042386742721e-01
-1.446893545730920938e-01
-1.199694016304527211e-01
-9.412992185721311134e-02
-6.750970254276540683e-02
-4.045161323058399372e-02
-1.329852346408681718e-02
1.360673185858396472e-02
3.992696300652970320e-02
6.533682827122230807e-02
8.951247931871045282e-02
1.121300678149913521e-01
1.328657489243891821e-01
1.514332531057005216e-01
1.676767073265705010e-01
1.814685055469225095e-01
1.926810417266873188e-01
2.011867098257723585e-01
2.068906809453748274e-01
2.098907037018289401e-01
2.103546317995892423e-01
2.084504197938669978e-01
2.043460222398784387e-01
1.982201574672397826e-01
1.903632201629670007e-01
1.811317416217760323e-01
1.708831178223434999e-01
1.599747447433379766e-01
1.487620839064806022e-01
1.375607673651468577e-01
1.266490279733413493e-01
1.163036507859056823e-01
1.068014208576815727e-01
9.841702706547963975e-02
9.131301208798328628e-02
8.548550385417166830e-02
8.091714759497928289e-02
7.759058854134046057e-02
7.548823961738254651e-02
7.452336868374229151e-02
7.444382073152214230e-02
7.497322104213943739e-02
7.583519489701129324e-02
7.675336757755402139e-02
7.744968415883746182e-02
7.763938482294120702e-02
7.703603750236150127e-02
7.535321012959385334e-02
7.230447063713391076e-02
6.762519638877814709e-02
6.119898241754412327e-02
5.297109998081983573e-02
4.288702274160749450e-02
3.089222436291316765e-02
1.694526241226829155e-02
1.165244894173356194e-03
-1.622098033776053772e-02
-3.498457331791332559e-02
-5.489669408065428469e-02
-7.572586906108313975e-02
-9.717312224664920173e-02
-1.188678850060927994e-01
-1.404361361870548053e-01
-1.615038546372222217e-01
-1.816972856935139546e-01
-2.006628003562485607e-01
-2.180806085785906845e-01
-2.336341637927383807e-01
-2.470069194308563421e-01
-2.578824050995431327e-01
-2.659953761972572717e-01
-2.712206618585609186e-01
-2.734568160116876423e-01
-2.726023925848672924e-01
-2.685559455063352696e-01
-2.612563202792426709e-01
-2.508273451855737024e-01
-2.374459027304223757e-01
-2.212888799007096396e-01
-2.025331636833921367e-01
-1.813727509378333935e-01
-1.581366851946511831e-01
-1.332180727331851722e-01
-1.070104059796146978e-01
-7.990717736009950167e-02
-5.230277715728914867e-02
-2.460475630786812529e-02
2.769341456428653370e-03
2.940172321752687612e-02
5.487459605737010637e-02
7.877297593762810912e-02
1.007735621779449753e-01
1.206629107992761574e-01
1.382340586714533304e-01
1.532800426643090574e-01
1.655947961870829488e-01
1.750742232009440125e-01
1.818088609891389540e-01
1.859111404717628258e-01
1.874934925689109022e-01
1.866683666921635787e-01
1.835907896360189362e-01
1.785492148736737006e-01
1.718581625870888585e-01
1.638321529582257297e-01
1.547857061690461888e-01
1.450279171298967107e-01
1.348391943315917496e-01
1.244905001201203065e-01
1.142527910832499827e-01
1.043970238087486568e-01
9.518072952794470742e-02
8.673771405434854698e-02
7.913504114749447815e-02
7.243912561742438250e-02
6.671638227418574818e-02
6.202825463395122974e-02
5.834806386389895794e-02
5.557350130113869469e-02
5.359980381164314300e-02
5.232220826137803926e-02
5.163562050269704384e-02
5.142078156314131010e-02
5.153924446543137888e-02
5.185119747945268059e-02
5.221682887509079829e-02
5.249640202752978158e-02
5.256430620573648849e-02
5.232560780956940771e-02
5.168939697432944902e-02
5.056476383531938179e-02
4.886079890607930576e-02
4.649620747244109786e-02
4.342430416949838445e-02
3.960618814753225081e-02
3.500295855682000745e-02
2.957571454765028918e-02
2.329249747648209912e-02
1.616371293278384691e-02
8.215744230937849224e-03
-5.249959281077298812e-04
-1.003209484341183177e-02
-2.027276485863760414e-02
-3.114515438389831026e-02
-4.250513859122562188e-02
-5.420798395969494976e-02
-6.610895696839436120e-02
-7.806105954188802265e-02
-8.986800032665809290e-02
-1.012856973751077305e-01
-1.120681048122529333e-01
-1.219691767631099211e-01
-1.307432989390802103e-01
-1.381700061810104962e-01
-1.440673914462193839e-01
-1.482568155642675078e-01
-1.505596393647141706e-01
-1.507974145244417308e-01
-1.488602777259973031e-01
-1.448082661729819809e-01
-1.387272718826967899e-01
-1.307031868724401469e-01
-1.208219031595136606e-01
-1.092115310693352603e-01
-9.617496747863872597e-02
-8.206033563156005239e-02
-6.721575883822064612e-02
-5.198936040874135855e-02
-3.672993846841510202e-02
-2.179105896310384871e-02
-7.528341827901186001e-03
5.702584964236923071e-03
1.754609344034485652e-02
2.765879066594412183e-02
3.585442974000452310e-02
4.205571084058179476e-02
4.618752206054832499e-02
4.817475149278815927e-02
4.794784662129880637e-02
4.558872471670083470e-02
4.134517680367433279e-02
3.547344154574894048e-02
2.822975760644896859e-02
1.987080962912379789e-02
1.069051987869218401e-02
1.047529576474470758e-03
-8.693045737695248576e-03
-1.816609052396001012e-02
-2.700653234860994623e-02
-3.488724768142081878e-02
-4.158863798137568679e-02
-4.691001710112896461e-02
-5.065069889333662090e-02
-5.260999721064885115e-02
-5.262345215950392507e-02
-5.069918465291167742e-02
-4.689665233547879453e-02
-4.127532137686151792e-02
-3.389465794673074406e-02
-2.482664732310047029e-02
-1.424613363739168914e-02
-2.378442000491975961e-03
1.055075389853882273e-02
2.431578037065018627e-02
3.868982517961772061e-02
5.342855577102505887e-02
6.827390035902457244e-02
8.296741886580355496e-02
9.725067121354896704e-02
1.108657492547666656e-01
1.235733294331876619e-01
1.351570840896814119e-01
1.454021123212091426e-01
1.540935132247319705e-01
1.610166331096217762e-01
1.659885692883078523e-01
1.688890985708715320e-01
1.696053428525108320e-01
1.680244240284223256e-01
1.640334746514189312e-01
1.575582339975232227e-01
1.486498868234074067e-01
1.373850530253681868e-01
1.238403524997044869e-01
1.080924051427190058e-01
9.024600735636356674e-02
7.056061909342625782e-02
4.934849131523066923e-02
2.692192022810835361e-02
3.593202038407516952e-03
-2.031766485663322186e-02
-4.441667256700188027e-02
-6.826853421530265642e-02
-9.143751481560946637e-02
-1.134878793819780185e-01
-1.339875089543800524e-01
-1.525718268243090314e-01
-1.689361124190340568e-01
-1.827777169320364825e-01
-1.937939915568291926e-01
-2.016852351529080378e-01
-2.062879798615167015e-01
-2.076293800041015825e-01
-2.057508016077731483e-01
-2.006936106996471958e-01
-1.924995819031338762e-01
-1.813000628516244217e-01
-1.674277192101378264e-01
-1.512426853958426798e-01
-1.331050958259439865e-01
-1.133750850631868867e-01
-9.242569001945852292e-02
-7.067812628934287689e-02
-4.856485276453956224e-02
-2.651832833673267720e-02
-4.971011897653254685e-03
1.566351554817957403e-02
3.509135202077995341e-02
5.306535004417012313e-02
6.933846960756462341e-02
8.366367070018654317e-02
9.580766771229332068e-02
1.056928600274278374e-01
1.133401254044227313e-01
1.187718969034564642e-01
1.220106075847078309e-01
1.230824822314899869e-01
1.221011174612591788e-01
1.192675719329614470e-01
1.147867140701543942e-01
1.088634122963954010e-01
1.017027931626819370e-01
9.352642313399828211e-02
8.458191372251433471e-02
7.511918401534178891e-02
6.538815309959455924e-02
5.563870162526951546e-02
4.610375568512448119e-02
3.697274380130743943e-02
2.842821634074477188e-02
2.065272367036863344e-02
1.382881615711317735e-02
8.115135930500283479e-03
3.567632192979841577e-03
2.146875433799433353e-04
-1.915315763012959138e-03
-2.793995470908638978e-03
-2.409531120787233860e-03
-8.717916514546786289e-04
1.655090058973351930e-03
5.006731063674663140e-03
9.018748415825172948e-03
1.352208649077635272e-02
1.828482564576028313e-02
2.303002464459669163e-02
2.747976319179395999e-02
3.135612099187118362e-02
3.438256662767463778e-02
3.632286012695012944e-02
3.698632088704678633e-02
3.618471575787274297e-02
3.372981158933813228e-02
2.943438510085005788e-02
2.320488855579292548e-02
1.511608744451089364e-02
5.260311190660699188e-03
-6.270110782079296036e-03
-1.938279661154733435e-02
-3.392290377684936686e-02
-4.955217328914968133e-02
-6.589885056710298450e-02
-8.259118102937601513e-02
-9.925741009459942976e-02
-1.155192477491131520e-01
-1.309660941463128836e-01
-1.451773825560954689e-01
-1.577325434082765820e-01
-1.682110071326794465e-01
-1.762101562694440293e-01
-1.814809711964469052e-01
-1.838524086114508016e-01
-1.831540372379345527e-01
-1.792154257993754385e-01
-1.718790172931732307e-01
-1.611954271660431814e-01
-1.473838591227303318e-01
-1.306683637469330250e-01
-1.112729916223518245e-01
-8.942493212897595356e-02
-6.546900736043870239e-02
-3.990035732280361458e-02
-1.322392129566019037e-02
1.405536144140295818e-02
4.143257504857000839e-02
6.840622728269529773e-02
9.448181702153757300e-02
1.191656962590279534e-01
1.419642169890789063e-01
1.623837404817347618e-01
1.799887020762720446e-01
1.945392264912984004e-01
2.058366135678029174e-01
2.136821631467631377e-01
2.178771750691557152e-01
2.182691029482510259e-01
2.149684424220442147e-01
2.081787385439128890e-01
1.981036440136927368e-01
1.849468115312182803e-01
1.689283753752408579e-01
1.504336763558549173e-01
1.299433145715145344e-01
1.079390385771370475e-01
8.490259692759671850e-02
6.131574055319344296e-02
3.766026718941084539e-02
1.441801740085679739e-02
-7.929166669560672176e-03
-2.889944287899126607e-02
-4.801304359658598031e-02
-6.489404375062779451e-02
-7.931661619042795763e-02
-9.106665477036379741e-02
-9.993005334478954893e-02
-1.056930951351855441e-01
-1.082426579546940104e-01
-1.076996464143649135e-01
-1.042181716451739959e-01
-9.795234477808500984e-02
-8.905627699466478475e-02
-7.772694155923476345e-02
-6.432735447468962420e-02
-4.926073337580105793e-02
-3.293029589732732187e-02
-1.573925967406281101e-02
1.908745264226810456e-03
1.960737216491903467e-02
3.694917512157769313e-02
5.352670513035073796e-02
6.893251318739790356e-02
8.276863318121430169e-02
9.474931248923579297e-02
1.046621431992518225e-01
1.122959831589800395e-01
1.174396902161383149e-01
1.198869418409183041e-01
1.195491445420588938e-01
1.164593865372893777e-01
1.106563664711492923e-01
1.021787829881835030e-01
9.106632289017158044e-02
7.742771959408889515e-02
6.148475149638055193e-02
4.346966095323989698e-02
2.361469032087026854e-02
2.152133508007247897e-03
-2.065725901010995180e-02
-4.447711336461201981e-02
-6.895863288599990426e-02
-9.375302090475745587e-02
-1.185114807513711899e-01
-1.428807110763867794e-01
-1.664873353788058896e-01
-1.889523869109472898e-01
-2.098968986906357692e-01
-2.289419037356816844e-01
-2.457179478875415324e-01
-2.599282889260821072e-01
-2.713097403061435209e-01
-2.795992956028696685e-01
-2.845339483914315348e-01
-2.858619930673773624e-01
-2.834910978042630703e-01
-2.774468283575698413e-01
-2.677575190642959013e-01
-2.544515042614270417e-01
-2.375620168634863250e-01
-2.172738680712413828e-01
-1.939488510225443330e-01
-1.679587764311416542e-01
-1.396754550108354476e-01
-1.094712106862383294e-01
-7.777153597145136654e-02
-4.510069956848639094e-02
-1.199371705915042163e-02
2.101439597477261501e-02
5.338864300973511501e-02
8.462603965674575512e-02
1.143210432610448635e-01
1.420865841083459591e-01
1.675355924843793254e-01
1.902809986748219551e-01
2.099805301088081277e-01
2.265217669176585735e-01
2.398658080108162505e-01
2.499737850911613046e-01
2.568068298615764355e-01
2.603462913009196855e-01
2.607537267294155470e-01
2.582853114519452209e-01
2.531980590279901966e-01
2.457489830170329626e-01
2.361974384849361286e-01
2.248426019570647361e-01
2.120169527872132476e-01
1.980539950352179779e-01
1.832872327609151031e-01
1.680490143371408118e-01
1.526251226788513660e-01
1.372398854031882109e-01
1.221134244252306544e-01
1.074658616600570049e-01
9.351702490559943293e-02
8.043750317327891253e-02
6.829385974835644468e-02
5.713944427058481601e-02
4.702760637972658309e-02
3.801169378840629776e-02
3.012107376204564702e-02
2.330130415008646594e-02
1.747964452414763059e-02
1.258335445583425027e-02
8.539693516754987002e-03
5.267960604904864397e-03
2.640339041199091241e-03
5.117422402878268883e-04
-1.262942488740481650e-03
-2.828827836795166917e-03
-4.331799407724767903e-03
-5.925828968272206509e-03
-7.769707782361301440e-03
-1.002229133478671486e-02
-1.284243511034643959e-02
-1.638698305653041309e-02
-2.077091840798084288e-02
-2.606967366166601519e-02
-3.235713223897684898e-02
-3.970717756129160669e-02
-4.819236709230056981e-02
-5.781315515914190600e-02
-6.846232391147083485e-02
-8.002385518927784824e-02
-9.238173083252820827e-02
-1.054197759484887253e-01
-1.189734884311880458e-01
-1.327619674090891877e-01
-1.464871417270926512e-01
-1.598509402301101501e-01
-1.725552917630231997e-01
-1.843024600845699634e-01
-1.947960549830389798e-01
-2.037400243552460744e-01
-2.108383160980084048e-01
-2.157948781081450162e-01
-2.183361859213975853e-01
-2.183429662716562802e-01
-2.157605659865552417e-01
-2.105345515420558034e-01
-2.026104894141129709e-01
-1.919483687414037520e-01
-1.786867175241919625e-01
-1.630846337349866060e-01
-1.454034811754169043e-01
-1.259046236471120794e-01
-1.048519409004027292e-01
-8.257455841649197215e-02
-5.947123082535321625e-02
-3.594410655139279598e-02
-1.239533401901504739e-02
1.077350973750346164e-02
3.320483083257785850e-02
5.461546268718853181e-02
7.472943219737260279e-02
9.327076625915109442e-02
1.099635782765608361e-01
1.245931315981961829e-01
1.371130525571436776e-01
1.475056932413212341e-01
1.557534057386357196e-01
1.618385421369942512e-01
1.657711679497194113e-01
1.676894965700749807e-01
1.677687558516506583e-01
1.661841772611646062e-01
1.631109922653329325e-01
1.587280639373029045e-01
1.532431419814667684e-01
1.468777698413331056e-01
1.398535763758478045e-01
1.323921904439432362e-01
1.247130396706519206e-01
1.170029833699615246e-01
1.094239969335124019e-01
1.021374263736749832e-01
9.530461770283518708e-02
8.908540922228884440e-02
8.358978250848411728e-02
7.886760726305541702e-02
7.496517192397142426e-02
7.192876492920899367e-02
6.980426652599280857e-02
6.859004964504558655e-02
6.819321716239593045e-02
6.851052331755591585e-02
6.943872235003895055e-02
7.087455734427561271e-02
7.268689730905281143e-02
7.465664763788570912e-02
7.654740465676534988e-02
7.812276469168305537e-02
7.914632406863053582e-02
7.938157679223134533e-02
