BVP Green Neck Signal
4.483999227861787396e-03
4.967005150133057406e-02
9.006398748788363440e-02
1.262522646092776590e-01
1.603615197927522329e-01
1.874327958788408188e-01
1.911494979976588737e-01
1.516953290503274543e-01
6.239933140157575414e-02
-5.809487168160539644e-02
-1.703886085822772234e-01
-2.353685466676030402e-01
-2.375831890385969591e-01
-1.938638279820717458e-01
-1.410323678790965374e-01
-1.119078147995701267e-01
-1.160046963750445415e-01
-1.359412176064706823e-01
-1.390888998966304801e-01
-9.609516525947400800e-02
2.932723782650532851e-03
1.411895855204122752e-01
2.803492302997246388e-01
3.766584272508925468e-01
4.000753610821230488e-01
3.460195207595779809e-01
2.340254042048074412e-01
9.605051749973220199e-02
-3.734701605559450494e-02
-1.456791763388349537e-01
-2.201113981784772466e-01
-2.607901676315123041e-01
-2.733902096495287593e-01
-2.659159822722184097e-01
-2.452462956363236080e-01
-2.141842953102868208e-01
-1.714301111384706200e-01
-1.155090789152085073e-01
-4.974224811972915300e-02
1.669807857874511942e-02
7.355571125155560552e-02
1.163058728615992687e-01
1.488264351144401865e-01
1.792403278651807930e-01
2.120568515248401897e-01
2.423741917665791501e-01
2.559777054149133257e-01
2.355315146156506945e-01
1.702751423530973751e-01
6.473904083838849521e-02
-5.903005764782161963e-02
-1.693239426915091050e-01
-2.401023866613821722e-01
-2.644251604126377497e-01
-2.561959264655102597e-01
-2.385748071633804201e-01
-2.275874020945620746e-01
-2.225283418452171091e-01
-2.085454818892852891e-01
-1.677172430455304009e-01
-9.057492243327061598e-02
1.808626357103310794e-02
1.407711170974251247e-01
2.540993504733896069e-01
3.367063311319188346e-01
3.744226146311707693e-01
3.617431876885490172e-01
3.015047115135390254e-01
2.045924615156849702e-01
8.880499252500034801e-02
-2.524486972387495615e-02
-1.207189728885329494e-01
-1.895752534709071735e-01
-2.321535573526470053e-01
-2.520772395831381019e-01
-2.517005268586893774e-01
-2.326655840720644464e-01
-2.003150987986738185e-01
-1.654800404572707162e-01
-1.388141011424851301e-01
-1.211066658096490445e-01
-9.961827724910091164e-02
-5.701163316701283318e-02
1.261195757341477403e-02
9.486924796526324810e-02
1.630039193582278056e-01
1.971283797355121159e-01
1.986931439927527854e-01
1.880583892872276230e-01
1.873288486661613961e-01
2.020795790783941337e-01
2.157638364377504059e-01
2.010806904406001461e-01
1.406653207223222402e-01
4.236875709835414422e-02
-6.315596458939651270e-02
-1.427256815394082612e-01
-1.843748318074800996e-01
-2.053198304919506278e-01
-2.360576634874541613e-01
-2.919290764497763924e-01
-3.547327002776506366e-01
-3.802577605798443949e-01
-3.280864391700328841e-01
-1.926402483482470840e-01
-1.226195498705256320e-02
1.516600584416382680e-01
2.514454669566680289e-01
2.792459574872956374e-01
2.634327165034338059e-01
2.388470932362541654e-01
2.158113150119740919e-01
1.751313163363830416e-01
9.491018799871675515e-02
-1.470009198918039578e-02
-1.037480665814964342e-01
-1.150708507134445557e-01
-3.287328662875343283e-02
9.534524380650069575e-02
1.854629268358730376e-01
1.725600427442565143e-01
5.301531785219180254e-02
-1.161258858120055582e-01
-2.552598291786219997e-01
-3.088890659336501754e-01
-2.727582592413329010e-01
-1.899055610636463665e-01
-1.214053740906778922e-01
-1.084459097745160416e-01
-1.462052685311071298e-01
-1.857621640600950474e-01
-1.658364845555228007e-01
-5.588874865765049854e-02
1.191944563754397945e-01
2.917534193501740147e-01
3.928111086393258899e-01
3.923763621380536026e-01
3.112095538917149518e-01
1.994731975228892507e-01
1.009195936728832510e-01
2.823201967464184642e-02
-3.577590385162198600e-02
-1.150398971730509090e-01
-2.133002025647601219e-01
-3.032971340144942074e-01
-3.408731438921751011e-01
-2.951556406579566305e-01
-1.734714705669061496e-01
-2.197824533992492196e-02
9.979460433932640928e-02
1.527355300242470570e-01
1.366674376810135538e-01
8.277112335763486817e-02
2.909633399596558284e-02
-1.433565774464764381e-03
-7.449859972618981530e-03
-1.303239098255217637e-03
3.022412658086098131e-03
-1.860740923153088311e-03
-1.428201086464513103e-02
-2.559545742036536953e-02
-2.554081290433288243e-02
-8.867450841245707455e-03
2.035708491296395889e-02
4.966238095017721371e-02
6.389710033661261113e-02
5.248549779065023874e-02
1.477217680723968973e-02
-3.851145115676154335e-02
-8.837815916653277148e-02
-1.150652758618523064e-01
-1.076845858545389389e-01
-7.114690240454968340e-02
-2.483524952609920955e-02
8.252743443616365748e-03
1.582244180743227688e-02
3.942986625749975160e-03
-8.022329600961794135e-03
-1.789106901611166311e-03
2.654599210008112137e-02
6.345465598096636239e-02
8.666783721147461317e-02
7.928499301643732178e-02
4.025459727605064375e-02
-1.479530349664477662e-02
-6.249603436523600702e-02
-8.512094369938166816e-02
-8.033632330405474087e-02
-6.087430238267434873e-02
-4.405640046987193553e-02
-3.871483929151490339e-02
-3.953284519065936725e-02
-3.305475752322364902e-02
-1.008979310584311173e-02
2.567364116152869719e-02
5.924717354208963033e-02
7.407505361195354521e-02
6.233572273974944539e-02
2.923066947528265430e-02
-1.035291673310098637e-02
-4.007573375569968566e-02
-5.071747592522462406e-02
-4.456077412077987659e-02
-3.281877264399723354e-02
-2.729695769548974235e-02
-3.182643004664773706e-02
-3.973326267328580741e-02
-3.916287877639526571e-02
-2.207124829243303776e-02
9.618162459961013266e-03
4.437690309070144862e-02
6.695130569768961704e-02
6.604621571640292843e-02
4.012599353839171878e-02
-1.187941073442161724e-03
-4.121138314556495319e-02
-6.453133003731605088e-02
-6.526940732595323813e-02
-4.977886819836101207e-02
-3.146708479261092761e-02
-2.137481580654414584e-02
-2.147131832744093166e-02
-2.497087611409478519e-02
-2.215761837313246635e-02
-6.959038373105519426e-03
1.924003154150479705e-02
4.747284393493354099e-02
6.469984873216791388e-02
6.036029789690505049e-02
3.321447053223642448e-02
-6.397831380573447413e-03
-4.195610334365546673e-02
-6.091779674379538267e-02
-6.190846595531399738e-02
-5.316205930804206864e-02
-4.422248482918072349e-02
-3.884331435820188166e-02
-3.479154806075935441e-02
-2.858640312311456350e-02
-1.886266831466038366e-02
-5.426467275089538744e-03
1.278636073106743237e-02
3.647922727525060999e-02
6.202309946304287308e-02
7.984697626834971751e-02
7.873422550828404476e-02
5.349104410875966942e-02
9.683933124910205914e-03
-3.842018095451076726e-02
-7.503829850529908363e-02
-9.035564975861049009e-02
-8.429088487748573333e-02
-6.509407946862366678e-02
-4.387135641818139253e-02
-2.828113048553237974e-02
-1.944351133221484257e-02
-1.399726243058643099e-02
-8.925157754962123602e-03
-4.174564314490598893e-03
-5.661547732898342122e-04
3.958699861061835967e-03
1.426437959816256179e-02
3.275606973284991147e-02
5.411261192410484616e-02
6.653618517565221269e-02
5.986961140910682794e-02
3.365699867728347977e-02
-2.091620199566129878e-03
-3.374973568248845063e-02
-5.234867754118595340e-02
-5.719480809141778976e-02
-5.373587618313361430e-02
-4.865800842939597970e-02
-4.571037864516655502e-02
-4.429531572762792496e-02
-4.123294798983416498e-02
-3.436508304255732338e-02
-2.504297205515415223e-02
-1.684479690949675090e-02
-1.118673410978549693e-02
-4.302988245421461577e-03
1.020032591509485026e-02
3.438719065563130423e-02
6.116512692745292717e-02
7.720654022118528248e-02
7.208037580000542510e-02
4.589507652528729276e-02
9.148112211018653850e-03
-2.433546354451264493e-02
-4.524672328568011409e-02
-5.233084860772880403e-02
-5.088881625146982751e-02
-4.834454169260814921e-02
-4.940090014177665745e-02
-5.318120180213779802e-02
-5.432702746348886530e-02
-4.783526619276041308e-02
-3.399720691749520685e-02
-1.868066132467159288e-02
-7.873014900504349267e-03
-1.274289403798988668e-03
8.305376332753793001e-03
2.797640191653207736e-02
5.612189250012367819e-02
8.044612784055982235e-02
8.539703270739332219e-02
6.321709327801985911e-02
1.989931667376867996e-02
-2.800867043321694783e-02
-6.278720330464768185e-02
-7.477848557597346901e-02
-6.639492226486526372e-02
-4.920164295856268438e-02
-3.600719539386432883e-02
-3.288523985945955574e-02
-3.655327518515514434e-02
-3.886738352702005100e-02
-3.429140806318762419e-02
-2.354153644767734838e-02
-1.056005656334847720e-02
3.040356336591262809e-03
1.938384739270761215e-02
3.982086071406883837e-02
5.975392902198107398e-02
6.930210161095731736e-02
6.026897309586896206e-02
3.315023216513167392e-02
-2.298933881329279921e-03
-3.326727317834481112e-02
-5.142021210771754308e-02
-5.623598225400931738e-02
-5.293786726573304624e-02
-4.772564773524951010e-02
-4.389148599314307564e-02
-4.098635558486721231e-02
-3.695054106914368725e-02
-3.098084179541302913e-02
-2.418601713755627602e-02
-1.713564310604608412e-02
-7.184422401152384952e-03
1.016297315620072472e-02
3.549099475961776246e-02
6.089638191197870726e-02
7.288485028601535132e-02
6.206319243256989276e-02
3.119154393983227663e-02
-6.297134295805618953e-03
-3.616958015140294552e-02
-5.256859855270457765e-02
-5.886752715885144871e-02
-6.118381415312423854e-02
-6.182903121673411634e-02
-5.828987988036148787e-02
-4.701321873669726814e-02
-2.737163950242918128e-02
-2.486699670138189933e-03
2.287101090264993114e-02
4.501905289483120604e-02
6.254649126398595382e-02
7.495062630656659786e-02
7.961008584807174882e-02
7.002384550791493356e-02
3.845259784942575004e-02
-1.714965023230072966e-02
-8.675977910321938658e-02
-1.487855124698134746e-01
-1.793855983432831036e-01
-1.653270302038100104e-01
-1.114142683767827269e-01
-3.724982142638310484e-02
3.361743961654570928e-02
8.379991481413309740e-02
1.057178376560012900e-01
1.001602543220854180e-01
7.434651192095614869e-02
4.056978312783129925e-02
1.259271441260920860e-02
-9.372654686009909697e-04
-1.442979187798565377e-03
1.455918377688013299e-03
-2.148490159201387611e-03
-1.501995790871601955e-02
-3.145772150839679093e-02
-4.201950081939751641e-02
-4.004532965863733668e-02
-2.592946179528964751e-02
-7.295873927028222877e-03
4.948248669920361081e-03
2.873372861206750783e-03
-1.372726095105573918e-02
-3.774686461097021689e-02
-6.001056633220120534e-02
-7.455639090659899049e-02
-7.939240468039499010e-02
-7.348679621021264596e-02
-5.505731362598616230e-02
-2.409944057160701841e-02
1.400832761766045848e-02
4.922640742163312405e-02
7.248546478195916354e-02
8.083844389160790844e-02
7.716333498150709791e-02
6.565112180121884800e-02
4.850170357926432418e-02
2.662718110841660185e-02
1.827122585973915692e-03
-2.309652739914639513e-02
-4.590974850278031066e-02
-6.508177155568750649e-02
-7.770362891307738828e-02
-7.838734846373296428e-02
-6.221786331852001417e-02
-3.024141567873939868e-02
7.757533669986549363e-03
3.684042861970435179e-02
4.499964013563698129e-02
2.997106852302491159e-02
1.967147444780631416e-04
-3.014011846485634832e-02
-4.853913574420375826e-02
-4.999146328377714749e-02
-3.846794466414685948e-02
-2.353738552580073376e-02
-1.412520404878597063e-02
-1.333395873745771287e-02
-1.758831834329261865e-02
-1.997399956089198486e-02
-1.456259515664093743e-02
1.085339799034926167e-03
2.513731387226725983e-02
5.107964875509177910e-02
6.836079138837064528e-02
6.638638765709739542e-02
4.145054355485446734e-02
1.384285873846743953e-03
-3.755804548923898784e-02
-6.060624019123599104e-02
-6.338222236720786329e-02
-5.258347689673580766e-02
-3.891481534787637198e-02
-2.938853451279952247e-02
-2.508781724921128192e-02
-2.395156752124590754e-02
-2.375452377468392079e-02
-2.230244899023797744e-02
-1.648675070366910356e-02
-3.321261348545608005e-03
1.688255805702931073e-02
3.838742846502286171e-02
5.183289445652240063e-02
4.936799441506500852e-02
2.958317134488702010e-02
-1.079041419309929861e-03
-3.125055318205107596e-02
-5.027395761038505606e-02
-5.360488423921800499e-02
-4.483624514063292571e-02
-3.269734399962528903e-02
-2.482101159847058952e-02
-2.304218714787168582e-02
-2.388678722595277693e-02
-2.292336110825303475e-02
-1.802642708508668534e-02
-8.718865570923887282e-03
5.855576431685327599e-03
2.600890175102951035e-02
4.777735923129748652e-02
6.164342409888157875e-02
5.757670723511849192e-02
3.310537186643822821e-02
-3.282912705943288878e-03
-3.712871428501622606e-02
-5.711021171237458394e-02
-6.075523957643241130e-02
-5.333054365257376001e-02
-4.257340268409456202e-02
-3.404388837989015537e-02
-2.954845767585787333e-02
-2.800967797402421910e-02
-2.708424321255403083e-02
-2.436704672793306090e-02
-1.773662717309788112e-02
-5.154411953321037798e-03
1.479169554689983151e-02
4.050027257733199854e-02
6.462206586318441914e-02
7.503479590902903396e-02
6.166706408962766700e-02
2.510790961256768178e-02
-2.091407921975852596e-02
-5.701201325339619319e-02
-7.044303812463117986e-02
-6.230995941386693882e-02
-4.426890364556825691e-02
-2.871238532911594976e-02
-2.127414695779977771e-02
-2.061777510537486993e-02
-2.284623301379633958e-02
-2.473569122457906083e-02
-2.355652404155790525e-02
-1.610945864915588888e-02
-4.673472715258086829e-05
2.303970526306247518e-02
4.609336215799603870e-02
5.899865156564951946e-02
5.398366315039750812e-02
3.062392038072011408e-02
-2.930873201993741684e-03
-3.371053623649137437e-02
-5.081345179263842965e-02
-5.132192546117698984e-02
-4.125514383976291305e-02
-3.066805497922589496e-02
-2.647493405739794956e-02
-2.867480499678833061e-02
-3.261059203503181847e-02
-3.402951447187134437e-02
-3.133692939635965291e-02
-2.354848448036452740e-02
-8.218649883207557183e-03
1.624461532315376461e-02
4.553244508308765953e-02
6.815473217826159558e-02
7.155924663595300550e-02
5.136147692044214924e-02
1.541333979437621571e-02
-2.102909497856221555e-02
-4.481393315777170566e-02
-5.164841735337328404e-02
-4.624341779803074065e-02
-3.748010679895753816e-02
-3.268262032283202057e-02
-3.411561192190881719e-02
-3.883138830312732326e-02
-4.133637365908165301e-02
-3.717852197786754992e-02
-2.504367199991331880e-02
-6.387574709694705810e-03
1.586261019703235492e-02
3.741432581931334461e-02
5.189473376795557952e-02
5.210618515771741482e-02
3.451687382593906367e-02
3.782066278238314927e-03
-2.782543572201653242e-02
-4.725556088314645381e-02
-4.874994882570773957e-02
-3.645195873917782964e-02
-1.992616488720347009e-02
-7.351262790198800391e-03
-2.125305976373896739e-03
-3.822861294469744910e-03
-1.003361408892140295e-02
-1.654574807319793978e-02
-1.742278286573709437e-02
-7.723315998269003613e-03
1.191070488702401786e-02
3.322555527794446295e-02
4.411723431620307584e-02
3.619706161029476871e-02
1.047946277659258033e-02
-2.294771687633374857e-02
-5.061529983732078464e-02
-6.271556092063199084e-02
-5.759680402043209496e-02
-4.184290697218854410e-02
-2.619104602892286318e-02
-1.943083480135095881e-02
-2.371695095958192834e-02
-3.406115767854715759e-02
-4.184557015301242772e-02
-3.942090734846497024e-02
-2.305206779811591611e-02
5.929672149878995047e-03
4.061093444336431185e-02
6.923648878470267665e-02
7.943586465465085622e-02
6.560565690892328217e-02
3.421282353210221977e-02
1.162160223831247563e-03
-1.827123269935403832e-02
-1.910537456512176671e-02
-8.031319383538258749e-03
3.578094052977104020e-03
7.782641577401196165e-03
2.774103805491399261e-03
-9.466003852043502337e-03
-2.561274944093224967e-02
-4.102261440756763133e-02
-4.982636296271392845e-02
-4.812680451020765610e-02
-3.867144835942672859e-02
-3.165106360580684230e-02
-3.874766377460327205e-02
-6.411225998342900967e-02
-9.953561697102839001e-02
-1.278792959915545646e-01
-1.323950462779355519e-01
-1.059169724683937108e-01
-5.480195497047753161e-02
4.502404556146318015e-03
5.497378909003947794e-02
8.954247775315044011e-02
1.152377679018731227e-01
1.464834386205641215e-01
1.913128660029467798e-01
2.410544868051039402e-01
2.720128824104441900e-01
2.581217115400222806e-01
1.856844191100817942e-01
6.160660043207955711e-02
-8.782662011455166784e-02
-2.259567098128024698e-01
-3.190228229208857957e-01
-3.487701233718070726e-01
-3.183444550684191299e-01
-2.478155327452952472e-01
-1.624253387257006687e-01
-8.234599475624504450e-02
-2.065538535662927305e-02
1.273716128022975985e-02
9.964593841463885437e-03
-2.832834762057131334e-02
-8.493930274246430656e-02
-1.277104203863341503e-01
-1.242611784238965289e-01
-6.005286168694750487e-02
5.421489289907616832e-02
1.901865902997372515e-01
3.159239752682606595e-01
4.054432089734328892e-01
4.409744852764185818e-01
4.131217587561456517e-01
3.233297949512656255e-01
1.869704779394595340e-01
3.238988615968527857e-02
-1.060377155051282216e-01
-1.987449085973483631e-01
-2.318701444303685466e-01
-2.141575195778341045e-01
-1.755264413521253619e-01
-1.546168390020765115e-01
-1.787559080096525477e-01
-2.474527415805431174e-01
-3.314192594480678822e-01
-3.891855283760455309e-01
-3.902741874783726139e-01
-3.302200531037070563e-01
-2.311055487670196640e-01
-1.311158588193150343e-01
-6.831235235517740811e-02
-6.125817733774827772e-02
-9.197221749831294146e-02
-1.037212490539887733e-01
-2.474494040588064853e-02
1.874921501197785445e-01
5.073760615016627007e-01
8.384322680557451113e-01
1.058859367996036083e+00
1.094706436082823808e+00
9.742564038989085518e-01
8.168593322316832772e-01
7.432678195837768564e-01
7.534498318127478278e-01
6.673437819527521242e-01
2.127955741855119820e-01
-7.524714907322279656e-01
