BVP Green Neck Signal
3.874132223686519577e-03
1.296605392789791297e-02
2.188365980501600153e-02
3.062590413774704187e-02
3.919174120879730105e-02
4.758012530087302183e-02
5.579001069668049206e-02
6.382035167892595451e-02
7.167010253031566580e-02
7.933821753355591033e-02
8.682365097135291698e-02
9.412675536170746204e-02
1.012656410360253945e-01
1.082706317351181530e-01
1.151722916249078299e-01
1.220011848713165314e-01
1.287868785282899886e-01
1.355316037279505614e-01
1.422075601886119700e-01
1.487854099231768756e-01
1.552358149445477453e-01
1.615290576148794011e-01
1.676022216945597387e-01
1.733338323714445073e-01
1.785964452459902208e-01
1.832626159186531434e-01
1.872048922490739120e-01
1.902871951286130847e-01
1.923483018050871074e-01
1.932224337480172027e-01
1.927438124269244268e-01
1.907466593113299469e-01
1.870785459854314714e-01
1.816533767892105078e-01
1.744056190439454146e-01
1.652697463261444122e-01
1.541802322123158597e-01
1.410859363981942505e-01
1.260612452040451859e-01
1.092453111936478732e-01
9.077782618236880652e-02
7.079848198557402161e-02
4.945231046051262735e-02
2.697435860719918713e-02
3.674533158185765494e-03
-2.013498252650072415e-02
-4.414200508683281676e-02
-6.803433656182744649e-02
-9.149918321174083102e-02
-1.142229606582538665e-01
-1.358920299692680522e-01
-1.561927522126844714e-01
-1.748117964253294299e-01
-1.914913380196235915e-01
-2.060929036610548437e-01
-2.184934951956764293e-01
-2.285701144695412301e-01
-2.361997651210860638e-01
-2.413076278713111866e-01
-2.439926498987186054e-01
-2.443929417806434412e-01
-2.426466140944207317e-01
-2.388917774173855146e-01
-2.332832153781705942e-01
-2.260790182299052542e-01
-2.175767917510884053e-01
-2.080742213736005708e-01
-1.978689925293225793e-01
-1.872569381890657747e-01
-1.765131576110871292e-01
-1.658997443087024959e-01
-1.556785911010179213e-01
-1.461115908071389802e-01
-1.374567272203115753e-01
-1.298814394560193208e-01
-1.234622665963291538e-01
-1.182717676259751050e-01
-1.143825015296912329e-01
-1.118658624476087382e-01
-1.107160393618858568e-01
-1.108031464556683832e-01
-1.119860926043857591e-01
-1.141237866834673154e-01
-1.170750822654631484e-01
-1.206698257400094232e-01
-1.246613717173262192e-01
-1.287906138256253163e-01
-1.327984456931184942e-01
-1.364257609480176159e-01
-1.394174709340773588e-01
-1.415364751302733148e-01
-1.425507052048011203e-01
-1.422280930642119412e-01
-1.403365706150568326e-01
-1.366562181608153292e-01
-1.310617269571405230e-01
-1.234721583754418844e-01
-1.138068288192841393e-01
-1.019850546922317636e-01
-8.793383720283629024e-02
-7.169287191643110291e-02
-5.338744869441383600e-02
-3.314499331806242122e-02
-1.109293156865599587e-02
1.263911950731824371e-02
3.784828962875499969e-02
6.424292923109826969e-02
9.152605626025082930e-02
1.194006886621153674e-01
1.475697343996305866e-01
1.757224913565539337e-01
2.035216605329910888e-01
2.306268640915195289e-01
2.566977241947148158e-01
2.813938689737346954e-01
3.043970355509966197e-01
3.254609174658533166e-01
3.443538223798468523e-01
3.608440579545178495e-01
3.746999318514070976e-01
3.857133994503721963e-01
3.938081345332494210e-01
3.989534020546254833e-01
4.011185110848453084e-01
4.002727706942533215e-01
3.963967415862622579e-01
3.895825070325786843e-01
3.799858923823713486e-01
3.677634707826747951e-01
3.530718153805243453e-01
3.360698148586364065e-01
3.169621820622945396e-01
2.959956694032284674e-01
2.734185861460878275e-01
2.494792415555206477e-01
2.244258149591275009e-01
1.984997507803573091e-01
1.719326227615427249e-01
1.449552186815500354e-01
1.177983263192436403e-01
9.069265926215470952e-02
6.384699062299087347e-02
3.741766820169677155e-02
1.155337478984504174e-02
-1.359720682099395221e-02
-3.788539383924818815e-02
-6.117721970249194452e-02
-8.339811547825753957e-02
-1.044884960229233162e-01
-1.243887761932698510e-01
-1.430393708460790392e-01
-1.603866263824043348e-01
-1.764182375050838969e-01
-1.911395001274652228e-01
-2.045557750762979632e-01
-2.166724231783331289e-01
-2.274965110896898235e-01
-2.370570147343424028e-01
-2.453980992721764010e-01
-2.525642348916442570e-01
-2.585998917811984654e-01
-2.635498248675732791e-01
-2.674667151545417898e-01
-2.704120198502333872e-01
-2.724476514800007187e-01
-2.736355225691962101e-01
-2.740375147833483127e-01
-2.737127405931200630e-01
-2.727153879707483464e-01
-2.710991376600386249e-01
-2.689176704047964717e-01
-2.662246608057874941e-01
-2.630663830081630961e-01
-2.594673522314863146e-01
-2.554481048316524783e-01
-2.510291771645571934e-01
-2.462311055860961495e-01
-2.410697759934691820e-01
-2.355377564606922769e-01
-2.296203221537616024e-01
-2.233027457517424152e-01
-2.165702999337003887e-01
-2.094080457476221180e-01
-2.017991790172124211e-01
-1.937259252288612843e-01
-1.851705015480562544e-01
-1.761151251402854057e-01
-1.665432300548128353e-01
-1.564590202777020322e-01
-1.458841092089175617e-01
-1.348406484576830655e-01
-1.233507896332213249e-01
-1.114371793346733280e-01
-9.914303294045892501e-02
-8.653907889831238820e-02
-7.369796644774774530e-02
-6.069234482827785826e-02
-4.759488008501121248e-02
-3.448137786305655039e-02
-2.143445144274214870e-02
-8.537605410772130046e-03
4.125655646149393313e-03
1.647182738738370289e-02
2.842601960845101902e-02
3.994469198431256640e-02
5.099143387398358263e-02
6.152983463648073470e-02
7.152348363081925675e-02
8.094321593653562574e-02
8.980518259402592296e-02
9.814301839663151783e-02
1.059903953524184983e-01
1.133809854694519115e-01
1.203502777593414563e-01
1.269543186155109860e-01
1.332621536820113028e-01
1.393430337171995270e-01
1.452662094794335834e-01
1.511003436075596951e-01
1.569002815251471783e-01
1.627068881173583115e-01
1.685604074838042143e-01
1.745010837240966450e-01
1.805687599170831825e-01
1.867760881456978217e-01
1.930916689707088407e-01
1.994800817713110741e-01
2.059059059266991065e-01
2.123336879083536910e-01
2.187097005626979507e-01
2.249316109878318759e-01
2.308890940160201743e-01
2.364718244795272484e-01
2.415694772106183330e-01
2.460677463970591949e-01
2.498343423520710815e-01
2.527318990831309287e-01
2.546230502974246579e-01
2.553704297021383018e-01
2.548404969526734121e-01
2.529298003092929070e-01
2.495491172134401969e-01
2.446093097878802580e-01
2.380212401553781221e-01
2.297000702185781895e-01
2.196247667416954819e-01
2.078231426250467806e-01
1.943242517087873100e-01
1.791571478330730161e-01
1.623526509757528546e-01
1.440016134316866314e-01
1.242682186902660524e-01
1.033211095841876509e-01
8.132892894614805746e-02
5.846051550365952143e-02
3.490969495682481882e-02
1.091952765920395016e-02
-1.326116946177222089e-02
-3.738357947867275433e-02
-6.119888752580864011e-02
-8.446693315571113247e-02
-1.069759744099037652e-01
-1.285200936822211981e-01
-1.488933733664980774e-01
-1.678898958565690214e-01
-1.853216136097298739e-01
-2.011009358850317230e-01
-2.151753482016829644e-01
-2.274923726002947844e-01
-2.379995311214784248e-01
-2.466543413405868079e-01
-2.535144285933605968e-01
-2.586951030599317081e-01
-2.623123689615922127e-01
-2.644822305196345424e-01
-2.653225063236429038e-01
-2.649874014233395414e-01
-2.636647649486821288e-01
-2.615437108659956489e-01
-2.588133531416049737e-01
-2.556623645437920977e-01
-2.522560803319875422e-01
-2.487253582572125921e-01
-2.451982799568140636e-01
-2.418029270681388010e-01
-2.386672635027453082e-01
-2.358828491467842015e-01
-2.334535151972362277e-01
-2.313701439509164570e-01
-2.296236177046399041e-01
-2.282048187552216112e-01
-2.270861389654060813e-01
-2.261646637110099611e-01
-2.253183094685174415e-01
-2.244249927103338649e-01
-2.233626299088644629e-01
-2.220071419078149533e-01
-2.202204048728022556e-01
-2.178582654968541643e-01
-2.147765472779340490e-01
-2.108310737140052515e-01
-2.058806242795245267e-01
-1.998223752589749214e-01
-1.925803354529892486e-01
-1.840790632657177683e-01
-1.742431171013117119e-01
-1.629988534393460586e-01
-1.503234549016502497e-01
-1.362508249508741220e-01
-1.208178485165702504e-01
-1.040614105282929858e-01
-8.601875233995520675e-02
-6.675994645037106046e-02
-4.641392749348299818e-02
-2.511575575433094148e-02
-3.000491517951948788e-03
1.979679752804503270e-02
4.313138004359737265e-02
6.682986088056334928e-02
9.071355509962839014e-02
1.146037777614811737e-01
1.383218439268071309e-01
1.616914757937091274e-01
1.845485755047734377e-01
2.067328885416193640e-01
2.280841618480620447e-01
2.484421423679193386e-01
2.676504758380220395e-01
2.855875178333869280e-01
3.021498301148670684e-01
3.172341351755240124e-01
3.307371555084214210e-01
3.425575481892356167e-01
3.526274063274887904e-01
3.609070704546315511e-01
3.673577687030256667e-01
3.719407292050339597e-01
3.746177481423202948e-01
3.753746637958279009e-01
3.742297291762978761e-01
3.712034868784870323e-01
3.663164794971528471e-01
3.595893365236587647e-01
3.510595242365249780e-01
3.408013238148494550e-01
3.288938835047539588e-01
3.154163515523610295e-01
3.004478764126496393e-01
2.840773930014586779e-01
2.664297739740185134e-01
2.476381391349868899e-01
2.278356082890215795e-01
2.071553012407812422e-01
1.857328102902628397e-01
1.637193364721001854e-01
1.412721550353673583e-01
1.185485548651132037e-01
9.570582484638766319e-02
7.289978909277726460e-02
5.026951912566700320e-02
2.794340768081815182e-02
6.049675235895096009e-03
-1.528345773143780298e-02
-3.592918358613048091e-02
-5.579436494322846662e-02
-7.482020060372142345e-02
-9.294943541440127410e-02
-1.101248142220598997e-01
-1.262894273330410488e-01
-1.414103334806712520e-01
-1.554937364655570309e-01
-1.685494517490434552e-01
-1.805872947924757888e-01
-1.916170904592199575e-01
-2.016541986199715530e-01
-2.107288295998789029e-01
-2.188736584074637281e-01
-2.261213600512483324e-01
-2.325046095397548251e-01
-2.380536526970027655e-01
-2.427876610815028480e-01
-2.467226521885523549e-01
-2.498746432842372800e-01
-2.522596516346437556e-01
-2.538928274967843235e-01
-2.547824356095502174e-01
-2.549334571993359666e-01
-2.543508532707503544e-01
-2.530395848284019977e-01
-2.510056923545630481e-01
-2.482714262864977040e-01
-2.448715451297859280e-01
-2.408411308560969022e-01
-2.362152654370997529e-01
-2.310296555359293291e-01
-2.253416006079312639e-01
-2.192349848618418695e-01
-2.127953291472711173e-01
-2.061081543138284788e-01
-1.992589935090259556e-01
-1.923349974367572213e-01
-1.854265305209338854e-01
-1.786243366992448234e-01
-1.720191599093776058e-01
-1.657017407872664050e-01
-1.597470171692908225e-01
-1.541775712598851544e-01
-1.490051571990163581e-01
-1.442415291266495037e-01
-1.398984411827514096e-01
-1.359743422179641448e-01
-1.323921930328504359e-01
-1.290483651198607307e-01
-1.258392002444763402e-01
-1.226610401721796445e-01
-1.194076598122533472e-01
-1.159468569281248695e-01
-1.121313384793217044e-01
-1.078136252697382141e-01
-1.028462381032702738e-01
-9.708394393729519178e-02
-9.042716137213445415e-02
-8.281885218274558091e-02
-7.420360163454303715e-02
-6.452599499294420227e-02
-5.373181324805292869e-02
-4.183139647335525069e-02
-2.893122538115987241e-02
-1.514560842446105796e-02
-5.888540562577933291e-04
1.462464359461058613e-02
3.035276355328008976e-02
4.638599494614158159e-02
6.250478540260837046e-02
7.848958255208950130e-02
9.412083402399967769e-02
1.091880982241154735e-01
1.235183750911495459e-01
1.369482813544809496e-01
1.493144337503302943e-01
1.604534490149226167e-01
1.702177831750750214e-01
1.785724350556091855e-01
1.855311297443463514e-01
1.911077877063459829e-01
1.953163294066697087e-01
1.981773085288978387e-01
1.997984231531950428e-01
2.003487562552360157e-01
1.999986730126389056e-01
1.989185386030216662e-01
1.972789353372551846e-01
1.952566788152069188e-01
1.930355956468563783e-01
1.907998857940494397e-01
1.887337492186318688e-01
1.870209064265759835e-01
1.857997294098230889e-01
1.851266195274189064e-01
1.850493595470523445e-01
1.856157322364121731e-01
1.868734921228094870e-01
1.888303384773357407e-01
1.913741116766347339e-01
1.943703290311296350e-01
1.976845078512438347e-01
2.011821654473996690e-01
2.047171532809449190e-01
2.080837543830336145e-01
2.110572879534255153e-01
2.134130651779904964e-01
2.149263972425978220e-01
2.153779020277880041e-01
2.145959205369937228e-01
2.124340324097949428e-01
2.087460465950623234e-01
2.033857720416676063e-01
1.962130819861128694e-01
1.871939887347343900e-01
1.763848806285727711e-01
1.638450321230585094e-01
1.496337176736193264e-01
1.338119797630455132e-01
1.165170892115947876e-01
9.798990925712341982e-02
7.847870590153124826e-02
5.823174514671329571e-02
3.749732654301088375e-02
1.653049529422747840e-02
-4.398829130311704937e-03
-2.501874169997455460e-02
-4.505733738413457423e-02
-6.424271163514536087e-02
-8.233427963383768700e-02
-9.920750681916168379e-02
-1.147647316674201279e-01
-1.289082926549205144e-01
-1.415405282579696722e-01
-1.525884023708425907e-01
-1.621358011754605866e-01
-1.703282052329196938e-01
-1.773112407665019541e-01
-1.832305339994865778e-01
-1.882373439925326131e-01
-1.925480560126303919e-01
-1.964209040293276309e-01
-2.001148119723129004e-01
-2.038887037712733274e-01
-2.079991040877841313e-01
-2.126445324295875017e-01
-2.179638906667901443e-01
-2.240933588286172784e-01
-2.311691169442920690e-01
-2.393259584331018375e-01
-2.486002105419805874e-01
-2.588660831713596178e-01
-2.699826686746353843e-01
-2.818090594052006237e-01
-2.942042639150707628e-01
-3.069749130273839444e-01
-3.197858847405826155e-01
-3.322783112604943412e-01
-3.440933247929419680e-01
-3.548720575437517288e-01
-3.642592957608614124e-01
-3.719166351732300368e-01
-3.775105020738345196e-01
-3.807073231807949210e-01
-3.811735252122329110e-01
-3.785972883059090521e-01
-3.728412543369802878e-01
-3.638519574498767506e-01
-3.515764661715098938e-01
-3.359618490287873405e-01
-3.169677855763617935e-01
-2.947456023191907248e-01
-2.695956787184038417e-01
-2.418223173931518810e-01
-2.117298209625763927e-01
-1.796247692893966630e-01
-1.458937975773967888e-01
-1.110228836765123905e-01
-7.550419657167377341e-02
-3.982990524779876640e-02
-4.491922183615623329e-03
3.005264589407324535e-02
6.341641833955921626e-02
9.522033081149174072e-02
1.250853189685318667e-01
1.526323303001990705e-01
1.775473154948670196e-01
1.997335123895834785e-01
2.191395069828936393e-01
2.357138852733414447e-01
2.494052332594666743e-01
2.601960379184203309e-01
2.682629067566446590e-01
2.738514220771826602e-01
2.772072488209638697e-01
2.785760519289172121e-01
2.782063158818217641e-01
2.763753595113453976e-01
2.733773887293165505e-01
2.695068229664264736e-01
2.650580816533674722e-01
2.603204859513170710e-01
2.554783364990563799e-01
2.506172942204795695e-01
2.458191995034840760e-01
2.411658927359684457e-01
2.367374453883649144e-01
2.325164247326225175e-01
2.283390308014365266e-01
2.240294137250943840e-01
2.194117236338845867e-01
2.143100861249749578e-01
2.085403100681524347e-01
2.018978173112109253e-01
1.941749630620562550e-01
1.851641025285925002e-01
1.746575909187232101e-01
1.624908765104531305e-01
1.486781052941329451e-01
1.332797366467537714e-01
1.163562300227492241e-01
9.796804487655229321e-02
7.820602532671937224e-02
5.737898426685325570e-02
3.589090736847531937e-02
1.414617776848179839e-02
-7.450821396231207400e-03
-2.849254774033789517e-02
-4.852947918152060447e-02
-6.708228687463656248e-02
-8.367100716824923956e-02
-9.781567641092139831e-02
-1.090414807116110441e-01
-1.170237595935617048e-01
-1.216080712362001826e-01
-1.226491564287504193e-01
-1.200017559604354273e-01
-1.135223925157595598e-01
-1.032407030207824344e-01
-8.950180819836402180e-02
-7.268434106082873047e-02
-5.316693462050624264e-02
-3.132826479287575960e-02
-7.613309627064190899e-03
1.733280035915745962e-02
4.282731458606776898e-02
6.818748247393642548e-02
9.273055344303995917e-02
1.157940405575340059e-01
1.368198750352249693e-01
1.552835254091572414e-01
1.706604758904209651e-01
1.824262106901114455e-01
1.900896545680195449e-01
1.934635214060425323e-01
1.925225104842255563e-01
1.872428351425385051e-01
1.776007087209512392e-01
1.635864891184466430e-01
1.454412489877291714e-01
1.236212255481020372e-01
9.858963838445394812e-02
7.080970708166500760e-02
4.074622372269615100e-02
8.933056333326781090e-03
-2.400130728784035869e-02
-5.742153898606577878e-02
-9.069231060662164001e-02
-1.231785667098920095e-01
-1.543021926283627832e-01
-1.836116891189370492e-01
-2.106726228592596395e-01
-2.350505605269853360e-01
-2.563110695803570982e-01
-2.740927600470540182e-01
-2.883073340284035280e-01
-2.989303047265231550e-01
-3.059371853435347566e-01
-3.093034890815570259e-01
-3.090420869529792447e-01
-3.054061520748630465e-01
-2.987439931790590864e-01
-2.894041557378735363e-01
-2.777351852236156216e-01
-2.640925457307752300e-01
-2.489125701785356859e-01
-2.326839745375376689e-01
-2.158963572953108978e-01
-1.990393169393895600e-01
-1.825994188969073395e-01
-1.669888338435852326e-01
-1.525426681737133139e-01
-1.395924611071571453e-01
-1.284697518637856473e-01
-1.195042913588280353e-01
-1.128958215444333252e-01
-1.086282980540253101e-01
-1.066653397173917411e-01
-1.069705653643209103e-01
-1.095074653737064252e-01
-1.141541632824271957e-01
-1.205557360811319589e-01
-1.283178580806738633e-01
-1.370462035919039201e-01
-1.463464469256759992e-01
-1.558091737883912919e-01
-1.649549279657299694e-01
-1.732839443321385620e-01
-1.802964556241989647e-01
-1.854926945784958758e-01
-1.883917257014096625e-01
-1.886651357741232216e-01
-1.860584670422632536e-01
-1.803177487554737113e-01
-1.711890101633974093e-01
-1.584339373187095279e-01
-1.420550186677045357e-01
-1.222435105082486095e-01
-9.919572528499151498e-02
-7.310797544258192115e-02
-4.418069584630923696e-02
-1.276173123050473521e-02
2.061670165184974202e-02
5.541075499897535339e-02
9.107658100909375720e-02
1.270703156810663592e-01
1.628458263630195857e-01
1.978523978046370091e-01
2.315387627391913561e-01
2.633536538999548537e-01
2.927458139362401068e-01
3.192269988452555163e-01
3.425214873443074848e-01
3.623983157508173791e-01
3.786265203821988501e-01
3.909751375558713216e-01
3.992595631088324271e-01
4.035631148602595308e-01
4.040651418947411866e-01
4.009451163595498246e-01
3.943825104019583194e-01
3.845699545936098751e-01
3.718360648004809810e-01
3.565897459351260457e-01
3.392409431562748434e-01
3.201996016226529851e-01
2.998742020352651028e-01
2.786426480958239527e-01
2.568538983281128951e-01
2.348557734702454713e-01
2.129960942603289775e-01
1.916209501530154458e-01
1.709789856140372655e-01
1.511713920834010516e-01
1.322870870053483305e-01
1.144149878241153689e-01
9.764383335839871281e-02
8.199887188202191479e-02
6.734837963944366457e-02
5.353679707986092051e-02
4.040856465246556173e-02
2.780812280645426557e-02
1.557137673420395246e-02
3.498517342763853358e-03
-8.619604303025217226e-03
-2.099213716856142622e-02
-3.382823021923856560e-02
-4.732241971471810860e-02
-6.156340518360069181e-02
-7.659328215698703313e-02
-9.245394359515077265e-02
-1.091872824583600132e-01
-1.268246006082918154e-01
-1.452548502162831212e-01
-1.642651047976204925e-01
-1.836402259588391650e-01
-2.031650753064677961e-01
-2.226223450250472413e-01
-2.417304739459239515e-01
-2.601344871843895290e-01
-2.774753981537295133e-01
-2.933942202672235045e-01
-3.075323039325898455e-01
-3.195646393528367990e-01
-3.292280255539406508e-01
-3.362658946233031965e-01
-3.404216786483245660e-01
-3.414388491715760199e-01
-3.391275108672573979e-01
-3.335007005502624300e-01
-3.246099479262312681e-01
-3.125067827008066734e-01
-2.972427345796276321e-01
-2.789093335480138380e-01
-2.578061192810136570e-01
-2.343000336336898970e-01
-2.087580531856333133e-01
-1.815471545164259737e-01
-1.530414156422470751e-01
-1.236800850724703582e-01
-9.393744754056357338e-02
-6.428812455468474463e-02
-3.520673762298136278e-02
-7.163097156818023191e-03
1.945935524208503020e-02
4.435188468300493847e-02
6.720821955678420168e-02
8.772208825426462686e-02
1.055900412704589286e-01
1.206349538171822833e-01
1.328541182143515575e-01
1.422575822431197956e-01
1.488553936846390702e-01
1.526579226258223121e-01
1.537454622203760501e-01
1.523551035010260735e-01
1.487452763031943681e-01
1.431744104623018932e-01
1.359009358693596958e-01
1.271912028704009490e-01
1.173414424467064676e-01
1.066549307668800545e-01
9.543494399952502649e-02
8.398475831324780927e-02
7.259466814646538257e-02
6.147067516195545145e-02
5.078512210932226156e-02
4.071026369694190350e-02
3.141835463319310462e-02
2.307321860594594223e-02
1.573904901884800450e-02
9.414984137092879957e-03
4.099042499441258106e-03
-2.107573553479392264e-04
-3.518341114343221006e-03
-5.876020513302618320e-03
-7.386623862049118867e-03
-8.155350049339196369e-03
-8.287397963929736544e-03
-7.887992863325629656e-03
-7.064323054816211422e-03
-5.926861528333184775e-03
-4.586394129723683766e-03
-3.153706704835104388e-03
-1.739566704414967011e-03
-4.417218914192673485e-04
6.779331187375513962e-04
1.563622045288710904e-03
2.159568607466799683e-03
2.409996524504612672e-03
2.269123383919839990e-03
1.737980457457381084e-03
8.312946881657394538e-04
-4.362052754143704025e-04
-2.049790784742947826e-03
-3.990620706808400281e-03
-6.206216242221715418e-03
-8.627652084455325956e-03
-1.118589102016157022e-02
-1.381189583599269285e-02
-1.643616361366026860e-02
-1.898194210011883848e-02
-2.136675118357454772e-02
-2.350795464567927845e-02
-2.532291626808603341e-02
-2.672945204262227453e-02
-2.766182791921122444e-02
-2.807504741441084473e-02
-2.792543822422690822e-02
-2.716932804466539245e-02
-2.576320039092276290e-02
-2.368607106309686405e-02
-2.096284962233313162e-02
-1.762402889872945883e-02
-1.370010172238187579e-02
-9.221562685188132782e-03
-4.231962858354421098e-03
1.180716734524144690e-03
6.919052923167870461e-03
1.288562253729789650e-02
1.898300240663427715e-02
2.511140749127320840e-02
3.115727620044031129e-02
3.700206584255216757e-02
4.252722691073543282e-02
4.761420989811361582e-02
5.214647271144028096e-02
5.602843827876827221e-02
5.917700842530340677e-02
6.150925060550231638e-02
6.294223227382150787e-02
6.339478925102083606e-02
6.282318475348004638e-02
6.121939072079565780e-02
5.857680348625814160e-02
5.488881938315867681e-02
5.014940548591954872e-02
4.438533792841574399e-02
3.767343826224406333e-02
3.009473987918821411e-02
2.173027617103252124e-02
1.266112548593919737e-02
2.985136690130993364e-03
-7.158022075115060001e-03
-1.762227241143671935e-02
-2.826153592046633939e-02
-3.892973420383805810e-02
-4.947939329252205864e-02
-5.975714682551368229e-02
-6.960807355765460946e-02
-7.887725223516567352e-02
-8.740976160427266217e-02
-9.505646163852252140e-02
-1.017104889042434179e-01
-1.072837536848662288e-01
-1.116882511374110709e-01
-1.148359764188994214e-01
-1.166439840439122411e-01
-1.170981130592242403e-01
-1.162338236128396263e-01
-1.140876739363688303e-01
-1.106962222614210761e-01
-1.060977615728667389e-01
-1.003827811999119385e-01
-9.370187841473985590e-02
-8.620897744863739720e-02
-7.805800253289497947e-02
-6.940297713484930298e-02
-6.040810658684406254e-02
-5.125645793751607004e-02
-4.213314312060088829e-02
-3.322327406982919507e-02
-2.471195275825999529e-02
-1.676583909288448596e-02
-9.494929693235881069e-03
-2.998374447694136802e-03
2.624676755356835506e-03
7.275074027533749016e-03
1.087246602755774505e-02
1.343515444417570093e-02
1.501369132667490849e-02
1.565864697002723738e-02
1.542059166920482782e-02
1.435716555789404505e-02
1.259155268044795384e-02
1.028246398306867718e-02
7.588961472255975615e-03
4.670107154509878580e-03
1.684699701763830645e-03
-1.213250397941309164e-03
-3.873906963152841214e-03
-6.147573646553930980e-03
-7.884554100828933959e-03
-8.936176622902263292e-03
-9.200514772865582211e-03
-8.640697935573779173e-03
-7.224668134228933586e-03
-4.920367392033735479e-03
-1.695912949221726335e-03
2.441054802629837386e-03
7.393517097635127905e-03
1.305217397476641020e-02
1.930772547299903705e-02
2.605087157874311568e-02
3.316005893123739889e-02
4.046708943961412064e-02
4.779266764254304356e-02
5.495749807869512726e-02
6.178228528674012399e-02
6.809202044752893368e-02
7.373979195397646624e-02
7.859000418036027336e-02
8.250709258131061485e-02
8.535549261145503053e-02
8.700570168122725989e-02
8.740064256552114441e-02
8.653090952390043999e-02
8.438793491773564914e-02
8.096315110839792661e-02
7.625044883312431798e-02
7.030580191688609593e-02
6.325051081065433123e-02
5.520898357636373766e-02
4.630562827595267883e-02
3.666513554159614441e-02
2.643374324325417288e-02
1.579403624935617201e-02
4.932098050957418184e-03
-5.965987860884912689e-03
-1.671415207884186654e-02
-2.713695893422975874e-02
-3.708851141982065502e-02
-4.642800014575272638e-02
-5.501461572215873841e-02
-6.270754875917333715e-02
-6.938344488664675846e-02
-7.500145694446362643e-02
-7.954509237461331039e-02
-8.299786217190890936e-02
-8.534327733116532644e-02
-8.657401199873715480e-02
-8.675843337637426100e-02
-8.600222597256383661e-02
-8.441133654134792830e-02
-8.209171183676869377e-02
-7.915053959244766624e-02
-7.571456017193800569e-02
-7.192608523076970961e-02
-6.792785817457037967e-02
-6.386262240896548037e-02
-5.987231119520557143e-02
-5.606887343054005324e-02
-5.252615897942389256e-02
-4.931555538697884877e-02
-4.650845019832591798e-02
-4.417599227465740519e-02
-4.235367514019341972e-02
-4.100376357474658229e-02
-4.007952529057852431e-02
-3.953422799995048864e-02
-3.932113792016968257e-02
-3.938048100892037329e-02
-3.960771021434598971e-02
-3.988867691000705373e-02
-4.010923246946395543e-02
-4.015522826627712649e-02
-3.991651865185730230e-02
-3.930652409411155429e-02
-3.824726011358477173e-02
-3.666075476545262862e-02
-3.446903610489132630e-02
-3.160008278308167051e-02
-2.804467983075033255e-02
-2.383129982112949102e-02
-1.898892762826249331e-02
-1.354654812619313781e-02
-7.535249659434516481e-03
-1.031252755325586662e-03
5.845823621863989114e-03
1.297460395337231287e-02
2.023371272044133251e-02
2.750170052317046573e-02
3.465277944869724069e-02
4.155449058948486318e-02
4.807380741976469141e-02
5.407770341376827439e-02
5.943319860170445668e-02
6.402555871316323310e-02
6.778593886467412788e-02
7.065259479002472531e-02
7.256378222300405301e-02
7.345775689739957037e-02
7.328901387739683582e-02
7.208123500107381509e-02
6.987652411204170466e-02
6.671698521468420739e-02
6.264472231338305552e-02
5.770832641682674402e-02
5.200428534874955433e-02
4.565053636181876096e-02
3.876511749870667489e-02
3.146606680208897944e-02
2.387185660459552675e-02
1.610693200178180129e-02
8.300081167216737804e-03
5.801902190420704652e-04
-6.923854724599145562e-03
-1.408398725318516474e-02
-2.079719972704152653e-02
-2.698956909116722799e-02
-3.258880276747025406e-02
-3.752260817785525032e-02
-4.171897578961671071e-02
-4.513575622764996742e-02
-4.778657088574864154e-02
-4.969114926028075918e-02
-5.086922084761420770e-02
-5.134052269384900558e-02
-5.114016877928947991e-02
-5.035093789676861609e-02
-4.906481670153177432e-02
-4.737379184882467564e-02
-4.536984999389336026e-02
-4.314556916335698933e-02
-4.079665934020315632e-02
-3.841986343346731614e-02
-3.611192499180904819e-02
-3.396958756388669676e-02
-3.208536622906400793e-02
-3.051217231459727938e-02
-2.928127421448623383e-02
-2.842372053993743458e-02
-2.797055990215710497e-02
-2.795044880854950439e-02
-2.834798612577148907e-02
-2.910905880430330467e-02
-3.017823644658595289e-02
-3.150008865506101485e-02
-3.301882610402609441e-02
-3.466196805302100559e-02
-3.633361889058387556e-02
-3.793613090592945492e-02
-3.937185638827275097e-02
-4.054318494325956368e-02
-4.136126391585540074e-02
-4.175721344448515837e-02
-4.166492454310759264e-02
-4.101828822568134858e-02
-3.975119553934929051e-02
-3.781153695661748637e-02
-3.520097635187857676e-02
-3.193408679322642246e-02
-2.802544134875621998e-02
-2.348961308656361685e-02
-1.834857793061105830e-02
-1.267329422654357371e-02
-6.554617136466977037e-03
-8.345914866002279719e-05
6.649267248595280150e-03
1.355128857979517182e-02
2.051389083617638151e-02
2.741745166388261448e-02
3.414215286238724001e-02
4.056817623116375227e-02
4.657626652560385716e-02
5.206159599670447113e-02
5.693463759912002764e-02
6.110660207409945865e-02
6.448870016288897611e-02
6.699247963426270547e-02
6.855581940635126215e-02
6.916137643056105566e-02
6.879616334652395582e-02
6.744719279387254018e-02
6.510150265471532915e-02
6.176649798631865529e-02
5.750665525105874698e-02
5.239637189765902758e-02
4.651004537483995060e-02
3.992207313132474511e-02
3.271473162402027679e-02
2.500787912221332301e-02
1.693256678161596598e-02
8.619847654047173985e-03
2.007747913214223690e-04
-8.194256101092475125e-03
-1.644033341680676413e-02
-2.441527177404331436e-02
-3.199690556866423979e-02
-3.906306919652736964e-02
-4.549412181528615651e-02
-5.121068855240207274e-02
-5.616571528443541073e-02
-6.031305950179342845e-02
-6.360657869488556271e-02
-6.600122892622632687e-02
-6.749334027416024895e-02
-6.813223044892582902e-02
-6.797068311507276084e-02
-6.706148193715032180e-02
-6.545752070176259763e-02
-6.322869524346345915e-02
-6.048011182527315843e-02
-5.732124554025141983e-02
-5.386157148145857831e-02
-5.021056435470654111e-02
-4.647368154515518768e-02
-4.274246329634669161e-02
-3.910543819539812060e-02
-3.565113482942858236e-02
-3.246808178555703195e-02
-2.963657830485465217e-02
-2.718802511712031453e-02
-2.513583312504288556e-02
-2.349338531311293693e-02
-2.227406466582019726e-02
-2.148738974891705594e-02
-2.110165732329153526e-02
-2.106022791422623025e-02
-2.130611498078430893e-02
-2.178233198202873463e-02
-2.243140915065295476e-02
-2.318536516928757646e-02
-2.396603146311942351e-02
-2.469482110945588407e-02
-2.529314718560474531e-02
-2.568260909778622911e-02
-2.579598598699053488e-02
-2.558338558310120289e-02
-2.499640624730431818e-02
-2.398664634078601088e-02
-2.250574014019953578e-02
-2.052012508227073900e-02
-1.803379058163619153e-02
-1.505659141769916630e-02
-1.159838236986129693e-02
-7.669018217525770502e-03
-3.287488120987804713e-03
1.487949735999484144e-03
6.588486749905298617e-03
1.194531418096134862e-02
1.748962328939834832e-02
2.314977770030720791e-02
2.883306073578750447e-02
3.443723564994478903e-02
3.986001923026440130e-02
4.499912826422865220e-02
4.975294645070854616e-02
5.402913612516836717e-02
5.774216028406235768e-02
6.080663819457020336e-02
6.313718912387211724e-02
6.464946763067533353e-02
6.529128785939507240e-02
6.504808456844218822e-02
6.390742844267610634e-02
6.185689016695633535e-02
5.888431972123189806e-02
5.500787332243620154e-02
5.030277762165202837e-02
4.485057336135372941e-02
3.873280128401616895e-02
3.203100695838595469e-02
2.483758915763569289e-02
1.727888778893217972e-02
9.487859553732082285e-03
1.597461153496088776e-03
-6.259350710316431005e-03
-1.395363459105751491e-02
-2.137790962705319459e-02
-2.843183531514184917e-02
-3.501507597678710226e-02
-4.102729593345602610e-02
-4.637405797719795775e-02
-5.101673789397036252e-02
-5.494746295179721296e-02
-5.815868123121448185e-02
-6.064284081275592153e-02
-6.239453169584283088e-02
-6.344830623253483459e-02
-6.387410701527455881e-02
-6.374309989910638408e-02
-6.312645073907462157e-02
-6.209538710294316977e-02
-6.072406242626234019e-02
-5.909076733609416876e-02
-5.727410558808815333e-02
-5.535268093789462440e-02
-5.340503859226805594e-02
-5.149541734377484359e-02
-4.965515201755603403e-02
-4.791096863353322410e-02
-4.628959321162705309e-02
-4.481775176206864719e-02
-4.351355846636829894e-02
-4.236174928152439123e-02
-4.133897463645876125e-02
-4.042188496009387066e-02
-3.958713068135209789e-02
-3.881074385217447853e-02
-3.806462608644110845e-02
-3.731898680891901354e-02
-3.654403033487911567e-02
-3.570996097959187876e-02
-3.478800262931215637e-02
-3.376183236321381176e-02
-3.262345631956903302e-02
-3.136503331787565685e-02
-2.997872217763164135e-02
-2.845686015576923134e-02
-2.679642575593264159e-02
-2.499935836539594197e-02
-2.306783982515640125e-02
-2.100405197621027509e-02
-1.881012729778268333e-02
-1.648424594212930666e-02
-1.401781211818529937e-02
-1.140156397912089892e-02
-8.626239678106450287e-03
-5.682576874207579537e-03
-2.560886404966001770e-03
7.497273767832959152e-04
4.260371791397259134e-03
7.982154159234727819e-03
1.192618180065268402e-02
1.609882229176869822e-02
2.048362938609404882e-02
2.505730141552965987e-02
2.979653537394541182e-02
3.467802825521031085e-02
3.967472222514356606e-02
4.472792127534866435e-02
4.976307077261764300e-02
5.470549737069849150e-02
5.948052772333645155e-02
6.401293886137095213e-02
6.821863453759578755e-02
7.200633974126506576e-02
7.528457351981734935e-02
7.796185492069079848e-02
7.994721892636535987e-02
8.116947570487760555e-02
8.158296224885171199e-02
8.114370536862691718e-02
7.980773187454225093e-02
7.753123088869443014e-02
7.429630448365609485e-02
7.013916808036735340e-02
6.510281761669989287e-02
5.923024903052605261e-02
5.256445931799595683e-02
4.516165617484964312e-02
3.712422432176926135e-02
2.856463191631604046e-02
1.959534711605541782e-02
1.032883807855151242e-02
8.787661887078874329e-04
-8.634050937768252693e-03
-1.808613996904692017e-02
-2.735402319439063021e-02
-3.631422290306682288e-02
-4.484586390786363119e-02
-5.285612871101826038e-02
-6.026931030047887050e-02
-6.700994543866709008e-02
-7.300257088800608807e-02
-7.817341114610704134e-02
-8.248591452154492576e-02
-8.593988848855643736e-02
-8.853665529756456209e-02
-9.027753719899352103e-02
-9.116424895911180715e-02
-9.122257364526525913e-02
-9.051590074835726141e-02
-8.911089010547358635e-02
-8.707420155370038106e-02
-8.447250759666700970e-02
-8.137797735153959322e-02
-7.787684381542500645e-02
-7.405755736129655820e-02
-7.000856836212555889e-02
-6.581832719088530348e-02
-6.157081455585013130e-02
-5.733062182957676667e-02
-5.315708400681902479e-02
-4.910953598653257368e-02
-4.524731266767301197e-02
-4.162521601871277399e-02
-3.826392618516852306e-02
-3.516858353313195157e-02
-3.234424969262132687e-02
-2.979598629365656087e-02
-2.752744527782029216e-02
-2.552243681489993130e-02
-2.375011256108184449e-02
-2.217928101665916918e-02
-2.077875068192487282e-02
-1.951740912155765229e-02
-1.836663978795951419e-02
-1.730076888694734999e-02
-1.629429182253931685e-02
-1.532170399875303936e-02
-1.435758225755520354e-02
-1.338559601124387002e-02
-1.240667839509651885e-02
-1.142369194464345865e-02
-1.043949919541500328e-02
-9.456963432018631460e-03
-8.480815133600464947e-03
-7.521675960633338737e-03
-6.591326566235467151e-03
-5.701547603524571850e-03
-4.864119725618871494e-03
-4.087617082804082154e-03
-3.363318170335866629e-03
-2.676696033136051305e-03
-2.013219448271165099e-03
-1.358357192807387384e-03
-6.958163072831261703e-04
7.538112369694788262e-06
7.941965369343516323e-04
1.706749672545479837e-03
2.787788225337317627e-03
4.079438855588131060e-03
5.615057312783102925e-03
7.420170723600426343e-03
9.520031389907614855e-03
1.193989161357171536e-02
1.470447792730745010e-02
1.781309870461647571e-02
2.122883387799799626e-02
2.491199007655221440e-02
2.882287392937752865e-02
3.292173111092845661e-02
3.715328868987578803e-02
4.142627844843194129e-02
4.564434191308222588e-02
4.971112061031117413e-02
5.353025606743826159e-02
5.700740236790426130e-02
6.005608454701841237e-02
6.259175155356898335e-02
6.452985233634249418e-02
6.578583584412611707e-02
6.628277231951326676e-02
6.599512221126026257e-02
6.491858025538005394e-02
6.304890831933572526e-02
6.038186827058932005e-02
5.691716313576609954e-02
5.270317098293718361e-02
4.782108629590843540e-02
4.235271764286417662e-02
3.637987359198804893e-02
2.998484548294682792e-02
2.326267035306726558e-02
1.632211593029804855e-02
9.272630054926747634e-03
2.223660567237155383e-03
-4.715513568918206118e-03
-1.144947488000752980e-02
-1.790676397310918266e-02
-2.401830118669091158e-02
-2.971500685922167512e-02
-3.492781801943080355e-02
-3.960313717431997171e-02
-4.373146609876867041e-02
-4.731111526144146651e-02
-5.034039513100481422e-02
-5.281761617612318327e-02
-5.474757737850238781e-02
-5.616659348199647128e-02
-5.712053426011703960e-02
-5.765527161984421167e-02
-5.781667746815843945e-02
-5.765117832982427637e-02
-5.720992066540099563e-02
-5.654643645891621606e-02
-5.571427611259888169e-02
-5.476699002867829735e-02
-5.375733090343713660e-02
-5.272501411532291848e-02
-5.169912402894577541e-02
-5.070843485333513534e-02
-4.978172079752038459e-02
-4.894737960415102007e-02
-4.821912181769007211e-02
-4.759154861593065111e-02
-4.705798102548421069e-02
-4.661174007296249588e-02
-4.624610879221172088e-02
-4.594809500701620142e-02
-4.569149243619670397e-02
-4.544842274196948806e-02
-4.519100758655084094e-02
-4.489136873986838971e-02
-4.452326762637011381e-02
-4.406624852167369266e-02
-4.350112993800638039e-02
-4.280873038759507032e-02
-4.196986838266697495e-02
-4.096863912242694472e-02
-3.980897281565005941e-02
-3.850222457426086264e-02
-3.705976249858233817e-02
-3.549295468893665095e-02
-3.381427749168840202e-02
-3.204828324866117878e-02
-3.022694827977089396e-02
-2.838235714786383965e-02
-2.654659441578727588e-02
-2.475137303535622849e-02
-2.302009520880136245e-02
-2.136798158685580123e-02
-1.980990705082588677e-02
-1.836074648201713178e-02
-1.703511010130637909e-02
-1.583101955017710005e-02
-1.472036802064827059e-02
-1.367275174398795839e-02
-1.265776695146482791e-02
-1.164499589158796665e-02
-1.059762508183337282e-02
-9.462335237703281207e-03
-8.183180217389240257e-03
-6.704213879083083770e-03
-4.969490080975840635e-03
-2.928220613076812882e-03
-5.521950686862720642e-04
2.180620958161544332e-03
5.292261720368934136e-03
8.804761470837928899e-03
1.273380008120718679e-02
1.704675877960628097e-02
2.168883722178931162e-02
2.660511846692619961e-02
3.174068557418949221e-02
3.703855807925320043e-02
4.241237029140119963e-02
4.775387492285931845e-02
5.295430290510748372e-02
5.790488516962655208e-02
6.249716581380820868e-02
6.663273659991258979e-02
7.022512940429657957e-02
7.318857129570034703e-02
7.543728934286544896e-02
7.688575177040095354e-02
7.747614156905725802e-02
7.720369738455412634e-02
7.606964743890388958e-02
7.407521995411903148e-02
7.122164946251290096e-02
6.752767989952346284e-02
6.306779081240015961e-02
5.792752709039432346e-02
5.219243362275440001e-02
4.594805529873158267e-02
3.928289887266173119e-02
3.230159431321269481e-02
2.511423125932829917e-02
1.783090370495421170e-02
1.056170564403737314e-02
3.414327850909913697e-03
-3.526750919183478834e-03
-1.019005163554718811e-02
-1.650423825948849760e-02
-2.239797475231109641e-02
-2.780162602619481310e-02
-3.267812871424115306e-02
-3.701972087980079373e-02
-4.081968518267782564e-02
-4.407130428267673483e-02
-4.676826133610198499e-02
-4.892398611604512060e-02
-5.058027812788092048e-02
-5.178113329190753289e-02
-5.257054752842221790e-02
-5.299253288877746326e-02
-5.309538362275695311e-02
-5.293741103350538268e-02
-5.257835656885387343e-02
-5.207796167663369946e-02
-5.149596780434097243e-02
-5.088840297186311701e-02
-5.029664085935274531e-02
-4.975844073749936813e-02
-4.931156187699289872e-02
-4.899376354852304216e-02
-4.883854639392321006e-02
-4.885042177309013856e-02
-4.902182028061534413e-02
-4.934513255751091232e-02
-4.981274924478913679e-02
-5.041536317534894840e-02
-5.112246365917040569e-02
-5.188913014477634922e-02
-5.267016687311668055e-02
-5.342037808514092656e-02
-5.409460398504228884e-02
-5.464864859721357826e-02
-5.503936242303338056e-02
-5.522364849357305761e-02
-5.515840983990402679e-02
-5.480073015113587354e-02
-5.412289861653263312e-02
-5.312369989034823603e-02
-5.180457793572502967e-02
-5.016697671580586104e-02
-4.821235127309873858e-02
-4.595319169759250200e-02
-4.343373045983496550e-02
-4.070387266522375314e-02
-3.781352341915696774e-02
-3.481258782703122029e-02
-3.175131231510667368e-02
-2.868161627736679278e-02
-2.565593085583094818e-02
-2.272668732239519276e-02
-1.994631694895550311e-02
-1.736343965387567717e-02
-1.499391464907940015e-02
-1.283690600475949697e-02
-1.089144489886745629e-02
-9.156562509353741511e-03
-7.629370851881611161e-03
-6.275227223322490250e-03
-5.033390501778921798e-03
-3.842345326992499532e-03
-2.640576338704779882e-03
-1.366546750693488875e-03
4.213116958734150486e-05
1.648961098651055210e-03
3.517522362627558546e-03
5.711394287647768298e-03
8.294031956276884388e-03
1.130764878088548128e-02
1.474935318381769347e-02
1.861049013029085486e-02
2.288240458552279546e-02
2.755644062072667641e-02
3.260709053949002734e-02
3.794887755437238719e-02
4.348299091480541112e-02
4.911061987022381781e-02
5.473295367005927281e-02
6.024815869521044087e-02
6.553593167741487979e-02
7.046899548892369969e-02
7.492006007777204935e-02
7.876183539199445305e-02
8.187037832237077650e-02
8.415860784132442318e-02
8.556228805553126038e-02
8.601752386281716345e-02
8.546042016100707794e-02
8.382944968721925405e-02
8.111678515341326501e-02
7.736788020744832239e-02
7.263047252707489909e-02
6.695229979004453658e-02
6.038157790742132436e-02
5.299716985200551844e-02
4.492659994348675856e-02
3.630171680453470051e-02
2.725436905782329181e-02
1.791640939089087642e-02
8.421652588639780973e-03
-1.090979063623943521e-03
-1.048174280094467045e-02
-1.961089585836685995e-02
-2.833869547093981547e-02
-3.653520187870466090e-02
-4.411377499674856706e-02
-5.099972590215481882e-02
-5.711836606281625595e-02
-6.239500694662701574e-02
-6.676279408544452676e-02
-7.021499955419115147e-02
-7.277274148910527207e-02
-7.445728978964909206e-02
-7.528991435528481491e-02
-7.529462468029572697e-02
-7.453490230046587450e-02
-7.310385509657266190e-02
-7.109531044522117427e-02
-6.860309572301641345e-02
-6.572116126447430373e-02
-6.254746740657414483e-02
-5.918477738747443540e-02
-5.573613760305549947e-02
-5.230459444920126932e-02
-4.899304526961069384e-02
-4.588674849568967484e-02
-4.303691632953010604e-02
-4.049087858888521241e-02
-3.829596509150556827e-02
-3.649950052378024556e-02
-3.513288736599338991e-02
-3.417639320485804655e-02
-3.360004090691721956e-02
-3.337385333871396853e-02
-3.346785336679122813e-02
-3.384737547642478750e-02
-3.445199720515420422e-02
-3.521249735066995373e-02
-3.605964711477959578e-02
-3.692421769929070396e-02
-3.773846796403364928e-02
-3.844917466717008570e-02
-3.901131174972820997e-02
-3.937994569356410846e-02
-3.951014298053415197e-02
-3.935838682957826240e-02
-3.890864782572600600e-02
-3.816981884504713068e-02
-3.715169494181749799e-02
-3.586407117031181757e-02
-3.431694976333504732e-02
-3.253075279572111012e-02
-3.054099212832872209e-02
-2.838436112457904878e-02
-2.609755314789407102e-02
-2.371723918638406897e-02
-2.127389201298265919e-02
-1.878336178921598265e-02
-1.625939100359008113e-02
-1.371572214461101724e-02
-1.116609770076467875e-02
-8.618277202200357728e-03
-6.056195904033765710e-03
-3.457859761463919455e-03
-8.012747296889284609e-04
1.935553236093090837e-03
4.774203858132859343e-03
7.733409582860555076e-03
1.083070616765124256e-02
1.408362523328910917e-02
1.750969840055507584e-02
2.112417162315436553e-02
2.491342478478128855e-02
2.884406334531874547e-02
3.288230738734571057e-02
3.699437699343967323e-02
4.114569811963558754e-02
4.528009021622760033e-02
4.931772858696890915e-02
5.317758584304607683e-02
5.677863459564573556e-02
6.003989482452708193e-02
6.288447594043605759e-02
6.524267134954597758e-02
6.704550302761415337e-02
6.822399295039781320e-02
6.870917821860735020e-02
6.844832335336324680e-02
6.743578158140876855e-02
6.567439902699231946e-02
6.316702181436326113e-02
5.991649606777074699e-02
5.593585932700183283e-02
5.128855766637463454e-02
4.605359442628295663e-02
4.030997740836836374e-02
3.413671441426616160e-02
2.761447402981621543e-02
2.083834366691010923e-02
1.391081960448365545e-02
6.934458896820795692e-03
1.181859820547151441e-05
-6.755740369238342688e-03
-1.328689498425738441e-02
-1.951692101123323961e-02
-2.538159486985349170e-02
-3.081669297980571889e-02
-3.575863722615509055e-02
-4.016994986856712441e-02
-4.404765337126333169e-02
-4.739113673477578226e-02
-5.019978895963823906e-02
-5.247307285501758012e-02
-5.422352024628339373e-02
-5.549164695981365081e-02
-5.632157962766544401e-02
-5.675744488189668480e-02
-5.684336939846861003e-02
-5.662452300450729337e-02
-5.614982115174747823e-02
-5.546901967668307898e-02
-5.463187441580791281e-02
-5.368814120561619940e-02
-5.268494278424716570e-02
-5.165316308219852770e-02
-5.061750131140971276e-02
-4.960264455748480961e-02
-4.863327990602790696e-02
-4.773248108081912244e-02
-4.690536108753384781e-02
-4.614581185515327644e-02
-4.544755409135881052e-02
-4.480430850383147756e-02
-4.420953144523860623e-02
-4.365059910293057899e-02
-4.310880749894102637e-02
-4.256518830028926947e-02
-4.200077317399515675e-02
-4.139666090724704317e-02
-4.073834904227466303e-02
-4.001837587162723059e-02
-3.922991213905722974e-02
-3.836612858831747741e-02
-3.742020487116295285e-02
-3.638986393216337573e-02
-3.528475774020438382e-02
-3.411647253760985432e-02
-3.289659456670365051e-02
-3.163671006980964262e-02
-3.034792720540325367e-02
-2.903922329532669308e-02
-2.771898222643045043e-02
-2.639558786058799136e-02
-2.507742405967280583e-02
-2.377054220540847362e-02
-2.246291679234664260e-02
-2.113408009366890550e-02
-1.976351670422907617e-02
-1.833071121888235969e-02
-1.681440096893855457e-02
-1.518242941309422972e-02
-1.339439848916899357e-02
-1.140970632118872008e-02
-9.187751033177144269e-03
-6.688313708106750737e-03
-3.883872095539022025e-03
-7.622312437852649114e-04
2.687888858944014261e-03
6.477768224438311753e-03
1.061850168599014904e-02
1.509860974545429099e-02
1.986267968838782358e-02
2.485023849993805642e-02
3.000081316525228178e-02
3.525392772052055035e-02
4.053882259131036392e-02
4.575141732671413053e-02
5.078089478131203593e-02
5.551643780967860375e-02
5.984722926639027274e-02
6.366618755591732515e-02
6.688694276671723615e-02
6.943026252052686420e-02
7.121692109170225937e-02
7.216769275460123423e-02
7.220946781591508490e-02
7.132944317404622814e-02
6.954914476435120063e-02
6.689049616125311570e-02
6.337542093917510055e-02
5.902810432963870313e-02
5.391719425837537827e-02
4.815196957243121634e-02
4.184320246967919432e-02
3.510166514799230308e-02
2.803816385443296325e-02
2.076525196309126839e-02
1.339803324807650395e-02
6.051813428743581941e-03
-1.158101775555154742e-03
-8.116473767290693572e-03
-1.472748184380253886e-02
-2.094150619510223507e-02
-2.671564995373273965e-02
-3.200701625224311453e-02
-3.677270822317614540e-02
-4.098256363795643731e-02
-4.465758879434578166e-02
-4.783163987371716330e-02
-5.053857305748685191e-02
-5.281224452707040939e-02
-5.468828724319392542e-02
-5.621466110398182225e-02
-5.744455113516376554e-02
-5.843116122497135634e-02
-5.922769526163620957e-02
-5.988579361268542289e-02
-6.043712784183005726e-02
-6.089958059748958041e-02
-6.129076036200797883e-02
-6.162827561772946106e-02
-6.192905264921996777e-02
-6.219117231619521180e-02
-6.239193042730403760e-02
-6.250755150075118505e-02
-6.251426005474117198e-02
-6.238825277043917594e-02
-6.210326054924475425e-02
-6.162864718979423062e-02
-6.093332899100226130e-02
-5.998622225178390499e-02
-5.875624824339348296e-02
-5.721808797947879055e-02
-5.536328322719565043e-02
-5.318644481458831286e-02
-5.068218356970097260e-02
-4.784511032057786606e-02
-4.467393405903981318e-02
-4.118781911048259581e-02
-3.741229911124764607e-02
-3.337290975035917678e-02
-2.909518671684139732e-02
-2.460554126212137135e-02
-1.993806280540667136e-02
-1.513081872560375490e-02
-1.022191001613447642e-02
-5.249437670425806911e-03
-2.511971910049270312e-04
4.740197634462584714e-03
9.696459297072735489e-03
1.458943294374806868e-02
1.939096372141633703e-02
2.407309301891691691e-02
2.861594278721330334e-02
3.301040094531251801e-02
3.724810263453823267e-02
4.132068299621413643e-02
4.521979144558407882e-02
4.893969642829301692e-02
5.248032152526790894e-02
5.584232714163001043e-02
5.902637368250049366e-02
6.203312145294963276e-02
6.486017117956757727e-02
6.749403857862792955e-02
6.991872973067889130e-02
7.211825071626586092e-02
7.407660761593513887e-02
7.577427927507902894e-02
7.716978743739730251e-02
7.821321880638107404e-02
7.885464261069699554e-02
7.904412807901239901e-02
7.873096280764133037e-02
7.785563869028894191e-02
7.635310806086423319e-02
7.415823681099109610e-02
7.120589083229454663e-02
6.743178010361325359e-02
6.279130513282266124e-02
5.725971181707056878e-02
5.081312111336534765e-02
4.342765397871528599e-02
3.507994818969513429e-02
2.578128682515996514e-02
1.559885536956443983e-02
4.604915042178024318e-03
-7.128272937732943113e-03
-1.952840397461800062e-02
-3.249976779104585267e-02
-4.588466623417629398e-02
-5.951525579342942240e-02
-7.322369295823996649e-02
-8.684213421802808308e-02
-1.001995813196512042e-01
-1.131108476518331019e-01
-1.253867595674728330e-01
-1.368381432079530391e-01
-1.472758247146529753e-01
-1.565173121451612359e-01
-1.644324064356093851e-01
-1.709155352447876419e-01
-1.758612702743878875e-01
-1.791641832261018918e-01
-1.807241470620217227e-01
-1.805192361919529531e-01
-1.785871563660224037e-01
-1.749671147908733182e-01
-1.696983186731486903e-01
-1.628214707169259035e-01
-1.544276846111083679e-01
-1.446694105823218002e-01
-1.337028058580478906e-01
-1.216840276657785991e-01
-1.087693000665101439e-01
-9.512324335917002327e-02
-8.092695369479434297e-02
-6.636344401144625427e-02
-5.161572724719422356e-02
-3.686681356971773654e-02
-2.228879701229269372e-02
-8.018085412631199491e-03
5.816194131560975880e-03
1.908491452257807253e-02
3.165894866271432018e-02
4.341823957543684831e-02
5.429348398963919353e-02
6.423302285430415592e-02
7.318521483349925416e-02
8.109841859129210406e-02
8.792456790911436226e-02
9.365121649857792441e-02
9.828636001689720902e-02
1.018382369940404181e-01
1.043150859599779878e-01
1.057262601244396000e-01
1.061033189324575854e-01
1.054982740878495501e-01
1.039639004342465534e-01
1.015529728152778643e-01
9.831855727533167499e-02
9.432896712296176545e-02
8.967495139354407507e-02
8.444905559557684682e-02
7.874382523755837915e-02
7.265181954457670954e-02
6.626974522680231794e-02
5.970426139490465911e-02
5.306348920266139302e-02
4.645554980385016575e-02
3.998856435224862338e-02
3.376430878817920922e-02
2.785883288158618257e-02
2.234166735937372431e-02
1.728234294786454295e-02
1.275039037337919595e-02
8.807874545149953216e-03
5.464568119142129698e-03
2.707889292696779790e-03
5.251720538363841007e-04
-1.096249609413530585e-03
-2.171972446257607568e-03
-2.755447724974270998e-03
-2.926475171219847758e-03
-2.765388904214312500e-03
-2.352523043177820287e-03
-1.768231795174847291e-03
-1.093432840925941812e-03
-4.096702232951193734e-04
2.014793051531103135e-04
6.584389918542331993e-04
8.798541297581289472e-04
8.045566693704944705e-04
4.074234080557442156e-04
-3.329370107248950938e-04
-1.437915943510168111e-03
-2.928892482049481709e-03
-4.811869906460417012e-03
-7.047444449519991473e-03
-9.587870983199922592e-03
-1.238540437947470603e-02
-1.539229951031615903e-02
-1.855701267362769302e-02
-2.180886692681002770e-02
-2.507117459893070180e-02
-2.826724585282119548e-02
-3.132039085131193418e-02
-3.415552231586026222e-02
-3.671174842904240815e-02
-3.893559267884457581e-02
-4.077364307641764829e-02
-4.217248763291252256e-02
-4.308040825999839840e-02
-4.347478006133705108e-02
-4.335746020504728515e-02
-4.273106891694734844e-02
-4.159822642285551653e-02
-3.996210855325368211e-02
-3.784919118857222459e-02
-3.531724030386983182e-02
-3.242621916356805412e-02
-2.923609103209108898e-02
-2.580685997413959681e-02
-2.220629198258054771e-02
-1.851905404336997435e-02
-1.483203671120312053e-02
-1.123213054077650333e-02
-7.806225982005209757e-03
-4.636985750657891467e-03
-1.791617099637974643e-03
6.662035409966179239e-04
2.672799741187966913e-03
4.164495070878146063e-03
5.084062238375245193e-03
5.414796975584527591e-03
5.155697029977229784e-03
4.305794477783871435e-03
2.864121395234986087e-03
8.327325124349947011e-04
-1.751934067184402269e-03
-4.831610727540235593e-03
-8.347681576298572256e-03
-1.224153072112629977e-02
-1.645424272034465632e-02
-2.091981423436267001e-02
-2.556504209790452092e-02
-3.031640120906976474e-02
-3.510036646596309540e-02
-3.984356887451964702e-02
-4.448334629364650294e-02
-4.897445256950852532e-02
-5.327323985948269336e-02
-5.733606032094594462e-02
-6.111928065196910176e-02
-6.458757983446299089e-02
-6.772784242340842975e-02
-7.053062127109104018e-02
-7.298646922979643015e-02
-7.508593915181019374e-02
-7.682029155866688941e-02
-7.818399857790397922e-02
-7.917244294744008037e-02
-7.978100746501173846e-02
-8.000507492835606804e-02
-7.983907833251417674e-02
-7.926994447178911662e-02
-7.828103554140422582e-02
-7.685569215499712947e-02
-7.497725492620635479e-02
-7.262945873329683388e-02
-6.980192381200009399e-02
-6.648879380340218248e-02
-6.268432829378269011e-02
-5.838278686942278972e-02
-5.357899452200429180e-02
-4.828715629970752043e-02
-4.254524393562561513e-02
-3.639268335965238632e-02
-2.986890050168165139e-02
-2.301341955910839523e-02
-1.587849232529593008e-02
-8.541553089845757910e-03
-1.082995220810524170e-03
6.416787913759620238e-03
1.387740328996591929e-02
2.121999921229834538e-02
2.837080781445890446e-02
3.525710789663689948e-02
4.180617825902899209e-02
4.794529770182438810e-02
5.360779296398579530e-02
5.876114626288761467e-02
6.338481803764241251e-02
6.745828165419408273e-02
7.096101047849080745e-02
7.387530977550642308e-02
7.621199511412468652e-02
7.799837734547469814e-02
7.926196828496841207e-02
8.003027974801771305e-02
8.033100317361079046e-02
8.019545639539685244e-02
7.965832349649012989e-02
7.875441606414691764e-02
7.751854568562351055e-02
7.598537754119821797e-02
7.418175288264243494e-02
7.212290809764478061e-02
6.982313994209979335e-02
6.729674517190421812e-02
6.455801113319151185e-02
6.161824877873195438e-02
5.848156573647000922e-02
5.515100136358461191e-02
5.162959501725600253e-02
4.792038605466054924e-02
4.402802860702380305e-02
3.996378303237721474e-02
3.574059886211242154e-02
3.137142562831994608e-02
2.686921286309186876e-02
2.224780447161732802e-02
1.752736883819671840e-02
1.273080101241530829e-02
7.881006753770930517e-03
3.000891821761414446e-03
-1.886912655671385379e-03
-6.763363139709555223e-03
-1.161193317229407274e-02
-1.641614836063445132e-02
-2.115953431194194170e-02
-2.582575557518367385e-02
-3.040243457560196094e-02
-3.488162800237049055e-02
-3.925562714992072988e-02
-4.351672331268878480e-02
-4.765716808702233354e-02
-5.166550780892846528e-02
-5.552361858359507185e-02
-5.921267878269055596e-02
-6.271386677788334807e-02
-6.600835707172028610e-02
-6.907206110483313233e-02
-7.186521055175065786e-02
-7.434513015955057647e-02
-7.646914467531061577e-02
-7.819457884610847564e-02
-7.947868357772717995e-02
-8.027833443926857271e-02
-8.055028803785174718e-02
-8.025130093287123623e-02
-7.933812968372171148e-02
-7.777069739806662108e-02
-7.553726055403063577e-02
-7.264099843427836156e-02
-6.908522397813200711e-02
-6.487325012491668152e-02
-6.001052833188519342e-02
-5.453970389698577226e-02
-4.853496796562677129e-02
-4.207151098821410029e-02
-3.522452341515616703e-02
-2.806960682212931643e-02
-2.069992473126257976e-02
-1.323241252472019160e-02
-5.785694492116750208e-03
1.521605076933137471e-03
8.570895187900023915e-03
1.525015614536845421e-02
2.146179733293565595e-02
2.711014497234292761e-02
3.209952528533403793e-02
3.633426475112661036e-02
3.973281692387369002e-02
4.226574626166904047e-02
4.391562992232508900e-02
4.466504506365591431e-02
4.449656884347365227e-02
4.340142551420091144e-02
4.142568420245082428e-02
3.863684916364010236e-02
3.510247404886912559e-02
3.089011250923435689e-02
2.606953844630984993e-02
2.073605690579102823e-02
1.500131299460351689e-02
8.977218300174887033e-03
2.775684409932721933e-03
-3.491660727794621173e-03
-9.719997352704509014e-03
-1.581147579577475704e-02
-2.166856241334744887e-02
-2.719372356176465166e-02
-3.228972795849277544e-02
-3.688056699263072419e-02
-4.092503288477482293e-02
-4.438514584701266918e-02
-4.722292609142741959e-02
-4.940042208691679260e-02
-5.089681947026955533e-02
-5.173748258239731224e-02
-5.195547558464182203e-02
-5.158386263834507934e-02
-5.065570790484855146e-02
-4.921049141003977501e-02
-4.731707458423968504e-02
-4.505272452937536531e-02
-4.249470902073439194e-02
-3.972029583360528471e-02
-3.680628335425552289e-02
-3.382572391069477158e-02
-3.084987597737967949e-02
-2.794998679255033397e-02
-2.519730359444683973e-02
-2.266136926570943774e-02
-2.038598025133403144e-02
-1.839498768035215462e-02
-1.671172230805132927e-02
-1.535951488971822737e-02
-1.436103615138994115e-02
-1.371594937945587109e-02
-1.339547961908097232e-02
-1.336909041210546101e-02
-1.360624530036958456e-02
-1.407634980634495450e-02
-1.474105876776212604e-02
-1.554656429988845665e-02
-1.643722339742840002e-02
-1.735739305508641334e-02
-1.825143065824605393e-02
-1.906569524281973016e-02
-1.975320703970852992e-02
-2.026837019346656651e-02
-2.056558884864797404e-02
-2.059926714980687967e-02
-2.032696446572724788e-02
-1.972422416085868602e-02
-1.877295184893828725e-02
-1.745506050886092703e-02
-1.575246311952148426e-02
-1.364885625063919430e-02
-1.114608136451569753e-02
-8.256563623011727027e-03
-4.992860370916537942e-03
-1.367528953022399511e-03
2.606039567598850831e-03
6.897395287445446527e-03
1.146012858838679066e-02
1.624721626488358564e-02
2.121163511139473670e-02
2.630612738813039794e-02
3.147064105356567332e-02
3.662599466562763140e-02
4.169144061508703314e-02
4.658623129271463603e-02
5.122961506502968221e-02
5.553950752635633537e-02
5.943057112812455411e-02
6.281698128657005331e-02
6.561291341793022702e-02
6.773254293844235829e-02
6.909847110881241206e-02
6.966808228934517899e-02
6.940773513722636734e-02
6.828378831973926089e-02
6.626260050416757363e-02
6.331887531704771810e-02
5.948689413974744822e-02
5.482684234344535612e-02
4.939901131121189615e-02
4.326369242611158294e-02
3.648414476152034291e-02
2.916283780978516996e-02
2.142997110703919600e-02
1.341632907449643447e-02
5.252696133370891862e-03
-2.930329910938596003e-03
-1.100755023986111324e-02
-1.885986252392842649e-02
-2.636849119584787002e-02
-3.341466068832678327e-02
-3.987989477405880223e-02
-4.567441045912828956e-02
-5.076050208549744147e-02
-5.510596767111257399e-02
-5.867860523391446592e-02
-6.144622619861449253e-02
-6.339648376743828306e-02
-6.457666626475733196e-02
-6.504521968895529693e-02
-6.486059003841625203e-02
-6.408122331152360518e-02
-6.276933750506105691e-02
-6.100649924559131687e-02
-5.888046218437499590e-02
-5.647898272395990293e-02
-5.388981726689483220e-02
-5.119838600632739545e-02
-4.846899311468402805e-02
-4.575472947790096279e-02
-4.310858264292667663e-02
-4.058354015670964654e-02
-3.823113278678347271e-02
-3.607723267555879021e-02
-3.412577795995538898e-02
-3.238000067047300257e-02
-3.084313283761058386e-02
-2.951819982819696084e-02
-2.839923332496968253e-02
-2.746799427309003575e-02
-2.670536164604822224e-02
-2.609221441733367008e-02
-2.560943618507105848e-02
-2.523885804111618975e-02
-2.496440911432942084e-02
-2.477029995662126394e-02
-2.464074111990227287e-02
-2.455994316055363363e-02
-2.451246285512358181e-02
-2.448414562346990994e-02
-2.446113663720855119e-02
-2.442958106795543871e-02
-2.437562408732651259e-02
-2.428443125610357800e-02
-2.413489634706005721e-02
-2.390344076568019088e-02
-2.356647991898401170e-02
-2.310042921399155583e-02
-2.248157977716101763e-02
-2.168477797341920171e-02
-2.068393806347951919e-02
-1.945295877298403725e-02
-1.796573882757585700e-02
-1.619666279678230736e-02
-1.413194611380740214e-02
-1.177001168933439201e-02
-9.109843623879766705e-03
-6.150426017961119207e-03
-2.890963120271980609e-03
6.535234733903837884e-04
4.441864692287170527e-03
8.430440219489396259e-03
1.257562973806806289e-02
1.683380149907353490e-02
2.115395723071067727e-02
2.546507556710315631e-02
2.969276536759616128e-02
3.376263549153486754e-02
3.760029479826443310e-02
4.113296167065856601e-02
4.429529224800571319e-02
4.702408965159207699e-02
4.925615720965716149e-02
5.092829825044163650e-02
5.198126210461520569e-02
5.238760076740374416e-02
5.213522277615145750e-02
5.121213613233648043e-02
4.960634883743578194e-02
4.730805030083261309e-02
4.434077937299689409e-02
4.075411494910520516e-02
3.659832734541616783e-02
3.192368687818832040e-02
2.678093109958827253e-02
2.123736314439915451e-02
1.538092395031275331e-02
9.300848489077185449e-03
3.086371732440570947e-03
-3.173283212633994446e-03
-9.390528726301177603e-03
-1.548106714998857131e-02
-2.136099517322731858e-02
-2.694640948554201387e-02
-3.215340839427664743e-02
-3.690764032600726829e-02
-4.116681967990247493e-02
-4.489538347025735787e-02
-4.805776871137086570e-02
-5.061841241753789467e-02
-5.254917622497493057e-02
-5.386463260434756761e-02
-5.459459631875579477e-02
-5.476890102214772293e-02
-5.441738036847162951e-02
-5.357225911595003831e-02
-5.229034343019942077e-02
-5.064289425883858331e-02
-4.870135756455590270e-02
-4.653717931003974184e-02
-4.422156891270113965e-02
-4.182083015839117845e-02
-3.939664116479389688e-02
-3.701049955761562260e-02
-3.472390296256182285e-02
-3.259801574054075474e-02
-3.067543993797508181e-02
-2.897080137336806999e-02
-2.749640992521453983e-02
-2.626457547200777495e-02
-2.528757501939732019e-02
-2.456627603879563485e-02
-2.407345775854079217e-02
-2.377765434909154610e-02
-2.364739998090667483e-02
-2.365122882444486291e-02
-2.375686467800399576e-02
-2.392865572488296969e-02
-2.413007133713616220e-02
-2.432458088473481855e-02
-2.447565373765019786e-02
-2.454875146291422838e-02
-2.452369561592447969e-02
-2.438660436927336111e-02
-2.412362272522617507e-02
-2.372089568604821008e-02
-2.316514855726385658e-02
-2.245086175609644838e-02
-2.157804397220152229e-02
-2.054682277386613368e-02
-1.935732572937823998e-02
-1.800956775917468208e-02
-1.650025348601119601e-02
-1.482232011629202803e-02
-1.296850030504678036e-02
-1.093152670730582719e-02
-8.704129362325134858e-03
-6.278780723307361353e-03
-3.647481894484999251e-03
-8.021836544385759632e-04
2.265163218251381103e-03
5.562603368626175757e-03
9.090791066856784841e-03
1.282797207508347415e-02
1.674816101406733510e-02
2.082537250456944697e-02
2.503362116735089252e-02
2.934063151667998595e-02
3.368156711691805416e-02
3.798108718849708965e-02
4.216384579444591718e-02
4.615449699779493320e-02
4.987713384419835416e-02
5.325072694234134207e-02
5.619150430334046709e-02
5.861566794114135559e-02
6.043941986969221525e-02
6.158071989063658436e-02
6.198888337095218026e-02
6.164024108579352346e-02
6.051200752228967639e-02
5.858139716756964599e-02
5.582644557972531174e-02
5.226159641060175443e-02
4.795136308105789336e-02
4.296389967171546087e-02
3.736736026319611992e-02
3.122996356595949055e-02
2.463368236327148977e-02
1.769120243701289077e-02
1.051936924762389425e-02
3.235028255542438808e-03
-4.044975121705879015e-03
-1.120871257497348984e-02
-1.816272277825089695e-02
-2.481787892531601633e-02
-3.108505420995383295e-02
-3.687512182594214483e-02
-4.210626303880117549e-02
-4.674388922372191280e-02
-5.077219052895041995e-02
-5.417540501890476257e-02
-5.693777075800214582e-02
-5.904650427382167333e-02
-6.052382680467931209e-02
-6.141472506819466159e-02
-6.176457345849054037e-02
-6.161874636968978081e-02
-6.102293035698762302e-02
-6.003052440504506870e-02
-5.870294803569449382e-02
-5.710199458302603337e-02
-5.528945738112958641e-02
-5.332703357331616822e-02
-5.126934400318973462e-02
-4.915921684400283154e-02
-4.703836297140642775e-02
-4.494849326105383736e-02
-4.293130814324018496e-02
-4.102134562014136954e-02
-3.923350558087293494e-02
-3.757935215358133851e-02
-3.607044946641353722e-02
-3.471836164751490594e-02
-3.353159207922086493e-02
-3.250437160968557004e-02
-3.162677417304068928e-02
-3.088887322686315398e-02
-3.028074222872989898e-02
-2.979180890291061035e-02
-2.940624523461767698e-02
-2.910566417096201175e-02
-2.887166152834347299e-02
-2.868583312316191555e-02
-2.852979941596618663e-02
-2.838556218187614916e-02
-2.823542329483462801e-02
-2.806169273712283765e-02
-2.784668049102212439e-02
-2.757273116558216219e-02
-2.722343820227547326e-02
-2.678396318208749530e-02
-2.623956721374610598e-02
-2.557551140597858971e-02
-2.477705630013398580e-02
-2.382938170006634881e-02
-2.271750364465849326e-02
-2.142641834794613287e-02
-1.994112202396499528e-02
-1.824661093502914777e-02
-1.632821228720357509e-02
-1.417237443998608550e-02
-1.176578294129949215e-02
-9.095123339066603016e-03
-6.147081181210226064e-03
-2.910653765033077711e-03
6.117396156819047970e-04
4.412847829973420843e-03
8.485413347410021567e-03
1.282217863756145507e-02
1.741326484756845067e-02
2.222156034972093408e-02
2.719380937510889815e-02
3.227654444073298212e-02
3.741629806359927923e-02
4.255860018488200058e-02
4.762790510381374742e-02
5.252863790630443730e-02
5.716443055832608200e-02
6.143891502584926390e-02
6.525579990949424702e-02
6.852315281171041106e-02
7.115566379067207736e-02
7.306857719978167298e-02
7.417713739244163884e-02
7.439664916948861284e-02
7.366442551494095659e-02
7.197242501272224646e-02
6.932094323523831092e-02
6.571027575489482575e-02
6.114071814409746675e-02
5.562980366177480707e-02
4.926751941874532581e-02
4.216288580566653066e-02
3.442492329483390345e-02
2.616265235855038188e-02
1.748923691838389499e-02
8.547995514838608450e-03
-5.044189275414997370e-04
-9.511294369209763455e-03
-1.831591877061643919e-02
-2.676383207330276792e-02
-3.473101583440454942e-02
-4.211532515332720716e-02
-4.881509459194149914e-02
-5.472865871211815558e-02
-5.975606213469067396e-02
-6.384839789102898788e-02
-6.701531464852152065e-02
-6.926968144437900543e-02
-7.062436731581375748e-02
-7.109251622427942285e-02
-7.071509415105474428e-02
-6.958439617978950942e-02
-6.779825396452350550e-02
-6.545449915929764384e-02
-6.265096360456466618e-02
-5.948580863559073395e-02
-5.605820350386932216e-02
-5.246750952149932534e-02
-4.881308800058092867e-02
-4.519430025321037603e-02
-4.170302906299783174e-02
-3.839208940558631183e-02
-3.530158094962071447e-02
-3.247159649612818555e-02
-2.994222884613588140e-02
-2.774987008610768635e-02
-2.589677746127708527e-02
-2.436678166755325281e-02
-2.314353380919879910e-02
-2.221068499047633774e-02
-2.155143041876797852e-02
-2.114072864365140747e-02
-2.094638569199850503e-02
-2.093596987552602540e-02
-2.107704950595096910e-02
-2.133728238304269387e-02
-2.168837016597149892e-02
-2.210762009238642634e-02
-2.257275171103229061e-02
-2.306148457065441276e-02
-2.355154400509280876e-02
-2.402193498931801119e-02
-2.445454412620025331e-02
-2.483165207463134891e-02
-2.513553949350311872e-02
-2.534848703483845792e-02
-2.545153649521265243e-02
-2.542103490219498746e-02
-2.523221736108092680e-02
-2.486031897716594816e-02
-2.428057485574552227e-02
-2.346854845991098309e-02
-2.240194539538389179e-02
-2.105933031772719635e-02
-1.941927018534215024e-02
-1.746033195662967386e-02
-1.516254863156664412e-02
-1.252337283192632780e-02
-9.551677234166770780e-03
-6.256533176185254640e-03
-2.647011995875483102e-03
1.266978011980038690e-03
5.454546529250781442e-03
9.862811342883050919e-03
1.443785116870239388e-02
1.912574472253265878e-02
2.387244901997806132e-02
2.861475189554330348e-02
3.327403661115700684e-02
3.777021143148853732e-02
4.202318462120722964e-02
4.595287005044136619e-02
4.948327845731109731e-02
5.254975155123876862e-02
5.508957363795842499e-02
5.704002902320541579e-02
5.833840201271515979e-02
5.893014729426730713e-02
5.879916522880010432e-02
5.794065407673351653e-02
5.634981362298921437e-02
5.402184365248972886e-02
5.095709162490605348e-02
4.719821823197789534e-02
4.280865853168454305e-02
3.785199124452943986e-02
3.239179509101802745e-02
2.649297359950409173e-02
2.024117770625286777e-02
1.373851611215632859e-02
7.087549942884067977e-03
3.908403241057161609e-04
-6.249235962013707096e-03
-1.273706606181521442e-02
-1.898559773461250960e-02
-2.490832868256557392e-02
-3.041875660783439211e-02
-3.543051131857720415e-02
-3.987663772441269600e-02
-4.372988999967057644e-02
-4.696787710654795611e-02
-4.956820800723774068e-02
-5.150849341550957361e-02
-5.278040978068608557e-02
-5.342371216671282230e-02
-5.348841954540305144e-02
-5.302455088857026266e-02
-5.208212516802737668e-02
-5.071475735331883172e-02
-4.899713478819708867e-02
-4.701159702415776132e-02
-4.484049442425516729e-02
-4.256617735154366589e-02
-4.026946259655375671e-02
-3.801506593077189078e-02
-3.585808055163487718e-02
-3.385347040095144922e-02
-3.205619942053025695e-02
-3.051988877043346898e-02
-2.926954519397779314e-02
-2.830276782445042064e-02
-2.761605451523098734e-02
-2.720590311969861910e-02
-2.706857052769361810e-02
-2.718631385564150571e-02
-2.751994992427996348e-02
-2.802848121070601606e-02
-2.867091019201726057e-02
-2.940624425006641354e-02
-3.019536589666070581e-02
-3.100385357385751842e-02
-3.179800893277945351e-02
-3.254413362454910974e-02
-3.320852930028887762e-02
-3.376154513958709580e-02
-3.419069703685849448e-02
-3.448805126476782446e-02
-3.464567412791581119e-02
-3.465563193090320099e-02
-3.451037556582595145e-02
-3.420518188012598021e-02
-3.373658793895716046e-02
-3.310113661636403248e-02
-3.229537078639109493e-02
-3.131513547582123053e-02
-3.014673340645491334e-02
-2.876955611467358134e-02
-2.716284074042762606e-02
-2.530582442366886148e-02
-2.317776803668033722e-02
-2.075865220886678048e-02
-1.802928968451240899e-02
-1.497053956011174664e-02
-1.156326093216060794e-02
-7.788462097177304734e-03
-3.642673318827347254e-03
8.487028996968602051e-04
5.657117932347598133e-03
1.075402315307713227e-02
1.611086305082171447e-02
2.168571792490564878e-02
2.739542488439987780e-02
3.314888996964260315e-02
3.885501922097396588e-02
4.442271867873408275e-02
4.975934936689407895e-02
5.476412707862826634e-02
5.933359310599796432e-02
6.336428715742926931e-02
6.675274894134335113e-02
6.939980075179522090e-02
7.124617127901802793e-02
7.225430849107661313e-02
7.238687793392709069e-02
7.160654515352599114e-02
6.987878453708327997e-02
6.722047196515193446e-02
6.369347107376369110e-02
5.936116444576459983e-02
5.428693466400064116e-02
4.853467748581488661e-02
4.219192505393601356e-02
3.537923538984424909e-02
2.821962370573712423e-02
2.083610521381214567e-02
1.335167165392615526e-02
5.883914655300984120e-03
-1.461837694330785260e-03
-8.581950514520356524e-03
-1.537278892481105073e-02
-2.173071808594258941e-02
-2.756482840225172107e-02
-3.283286987749785280e-02
-3.750422153654035112e-02
-4.154826240423727113e-02
-4.493437150545089021e-02
-4.763887824794596493e-02
-4.968388419424585312e-02
-5.111000439018431596e-02
-5.195790596779090165e-02
-5.226825605909522776e-02
-5.208318194594219186e-02
-5.146235234592794194e-02
-5.047702831260934830e-02
-4.919867685799925172e-02
-4.769876499411049298e-02
-4.604849735434864144e-02
-4.431240368104241711e-02
-4.254796251993100964e-02
-4.081231470607367406e-02
-3.916260107452901318e-02
-3.765577848544986866e-02
-3.633460411222011466e-02
-3.521778516540952086e-02
-3.432170169500516066e-02
-3.366273375099318454e-02
-3.325724902849547249e-02
-3.311197417386909508e-02
-3.320673783432184778e-02
-3.351671439798183799e-02
-3.401707825297714538e-02
-3.468300378743558593e-02
-3.548692722039517577e-02
-3.638828310990471770e-02
-3.734265099942214033e-02
-3.830560982576383666e-02
-3.923273852574622744e-02
-4.008033048444564761e-02
-4.081061012332219684e-02
-4.138873806920838339e-02
-4.177989591497507926e-02
-4.194926525349344792e-02
-4.186290385039237449e-02
-4.150075830821679801e-02
-4.085387968910494938e-02
-3.991362959921453124e-02
-3.867136964470387073e-02
-3.711869990058610375e-02
-3.525612351674748540e-02
-3.309550088278565005e-02
-3.064943082807224106e-02
-2.793051218197990099e-02
-2.495136068299600579e-02
-2.172715985469577879e-02
-1.827838889995601554e-02
-1.462618087377889724e-02
-1.079166883116660855e-02
-6.795985993222557198e-03
-2.661843481932695682e-03
1.582605673612335132e-03
5.908036135177874293e-03
1.028512256453071108e-02
1.468453962343763131e-02
1.907501539517305819e-02
2.341376495432880359e-02
2.765378606693940852e-02
3.174807015328902360e-02
3.564960863365725097e-02
3.931078793745633460e-02
4.267757515924205935e-02
4.569206981256083988e-02
4.829631821144887704e-02
5.043236666994506401e-02
5.204284447088051990e-02
5.308297519888796612e-02
5.352014046997863317e-02
5.332221758087710151e-02
5.245708382830797933e-02
5.089302938073454741e-02
4.862285099880014894e-02
4.567717865926837484e-02
4.208987910819321498e-02
3.789481909162868700e-02
3.312590590988509498e-02
2.783334384157796007e-02
2.210850154099340201e-02
1.604914715249544307e-02
9.753048820454149337e-03
3.317974689237617944e-03
-3.157141144131019213e-03
-9.568374660430553277e-03
-1.581046721093648869e-02
-2.177816013265924250e-02
-2.736619476261558173e-02
-3.247443358676330161e-02
-3.704073390288725731e-02
-4.102003982051567743e-02
-4.436737728565014194e-02
-4.703777224429135650e-02
-4.898948431595388786e-02
-5.022550316742779852e-02
-5.078147305868491168e-02
-5.069378162405713262e-02
-4.999881649787636662e-02
-4.873356796047509376e-02
-4.695359708514756925e-02
-4.473610406475417300e-02
-4.215950990504988005e-02
-3.930223561178913805e-02
-3.624265594923564704e-02
-3.305419842285224619e-02
-2.980101239682998726e-02
-2.654622591460788564e-02
-2.335296701962144561e-02
-2.028435971945084099e-02
-1.739489481495977430e-02
-1.471218368928985804e-02
-1.225862143962734747e-02
-1.005660316315849442e-02
-8.128523957070187336e-03
-6.493277642970132421e-03
-5.151129977716011402e-03
-4.096176020160312639e-03
-3.322506836185890738e-03
-2.824213491675608978e-03
-2.594668719283699070e-03
-2.620482881860817376e-03
-2.884555652417351498e-03
-3.369748509181565502e-03
-4.058922930381729521e-03
-4.934596727397350981e-03
-5.972917136087758580e-03
-7.144411775245651346e-03
-8.419415529576590451e-03
-9.768263283784897610e-03
-1.116115141505231827e-02
-1.256177280352385218e-02
-1.392466083635605228e-02
-1.520365958858899830e-02
-1.635261313526239352e-02
-1.732537015393584984e-02
-1.807688139170945951e-02
-1.856462160258267463e-02
-1.874641738499615087e-02
-1.858009533739054392e-02
-1.802348207078635633e-02
-1.704192704528569371e-02
-1.562980622971237021e-02
-1.378849535443620045e-02
-1.151937014982671800e-02
-8.823806346253465147e-03
-5.709258721659386804e-03
-2.223595562256729108e-03
1.568828468726999464e-03
5.603610075680024935e-03
9.816345962991756408e-03
1.414108142044057104e-02
1.849301708115434414e-02
2.277479999624482457e-02
2.688884947021429397e-02
3.073758480756942288e-02
3.422395371957895338e-02
3.726454647783408736e-02
3.979047842441525706e-02
4.173357002762362322e-02
4.302564175576031880e-02
4.359884726073473549e-02
4.341169148827918323e-02
4.246767369013969284e-02
4.077469284390737581e-02
3.834064792717335746e-02
3.517345808719242461e-02
3.129787734562679280e-02
2.678603927278362315e-02
2.171835174704963081e-02
1.617522264681624938e-02
1.023705985047341366e-02
3.987851362790001755e-03
-2.471260522796355115e-03
-9.034001669367550807e-03
-1.559409700598496373e-02
-2.204527146171701008e-02
-2.828344847915984298e-02
-3.422298441609267217e-02
-3.978743694295716615e-02
-4.490043154064686515e-02
-4.948559369005381403e-02
-5.346867261018234396e-02
-5.680949491679913865e-02
-5.949534851975672722e-02
-6.151430248922090671e-02
-6.285442589535748803e-02
-6.350449806227953520e-02
-6.348028306722258707e-02
-6.283224101609197199e-02
-6.161311513267878071e-02
-5.987564864077431215e-02
-5.767264692549242677e-02
-5.506667402726797556e-02
-5.214058801334731097e-02
-4.897977738824174643e-02
-4.566963065645913977e-02
-4.229553605646994840e-02
-3.893985903233032619e-02
-3.567444625530517832e-02
-3.256885782762797971e-02
-2.969265385153220527e-02
-2.711539442925216953e-02
-2.490081451410089755e-02
-2.307787526486606081e-02
-2.166268890849977480e-02
-2.067134711439570088e-02
-2.011994155194750389e-02
-2.002145763930306827e-02
-2.035557001950623335e-02
-2.108172117295191439e-02
-2.215906866880993503e-02
-2.354677007625010851e-02
-2.520337588926167133e-02
-2.707413957615005876e-02
-2.909137722542907631e-02
-3.118686979656588171e-02
-3.329239824902546774e-02
-3.533980222305661834e-02
-3.726448057124046032e-02
-3.900737109916176115e-02
-4.050989068255646253e-02
-4.171345619716015918e-02
-4.255950288615092947e-02
-4.299723280712564044e-02
-4.299563531487923806e-02
-4.252680493474250700e-02
-4.156283619204625968e-02
-4.007582361212133626e-02
-3.804352958585033306e-02
-3.546819298034333684e-02
-3.235865839200757765e-02
-2.872377051911638446e-02
-2.457237405994305152e-02
-1.991677384888273367e-02
-1.479519534210137731e-02
-9.257619301020739502e-03
-3.354084950229981738e-03
2.865368485683490035e-03
9.349149701465889889e-03
1.602394796547935291e-02
2.280047033616952254e-02
2.958905318326468178e-02
3.630003287650040988e-02
4.284361260906886792e-02
4.912582527263210930e-02
5.504780608960811727e-02
6.051041045261165707e-02
6.541449375425753554e-02
6.966106027969716508e-02
7.316750198233759606e-02
7.588219785867325595e-02
7.775697258868591311e-02
7.874365085235729422e-02
7.879406603136236698e-02
7.788064293636329238e-02
7.604048735280205529e-02
7.332337215315457013e-02
6.977907020989868037e-02
6.545735439551161883e-02
6.041763523016104032e-02
5.477107050680335432e-02
4.864611127210026476e-02
4.217122076506471529e-02
3.547486222471608885e-02
2.868518393981532924e-02
2.192733873608584266e-02
1.532482226286012092e-02
9.001112648654996384e-03
3.079688021989289426e-03
-2.318293067510594253e-03
-7.115230419494570323e-03
-1.127225031881621750e-02
-1.475182806650526292e-02
-1.751643896359141375e-02
-1.952934408938059030e-02
-2.079142333792835182e-02
-2.135696174285042076e-02
-2.128430940648257108e-02
-2.063181643116115266e-02
-1.945787130489782385e-02
-1.783043574188494101e-02
-1.583958268738304767e-02
-1.357849702469437862e-02
-1.114036363711868802e-02
-8.618367403941961519e-03
-6.100050782137408749e-03
-3.650988303189076252e-03
-1.331408968077381350e-03
7.984582222165335225e-04
2.678384266713787140e-03
4.253035147645842229e-03
5.499927768160073685e-03
6.410095188019521162e-03
6.974612231858117600e-03
7.184553724309792472e-03
7.032227658505089268e-03
6.525087854667863119e-03
5.680758657435450859e-03
4.517052783808955807e-03
3.051782950789486484e-03
1.302858249308813665e-03
-7.092867741690482564e-04
-2.961507592195881250e-03
-5.430526340761657363e-03
-8.093065155853975540e-03
-1.092580607767605974e-02
-1.390218076058467866e-02
-1.699002568005987188e-02
-2.015662444023608169e-02
-2.336926064524660202e-02
-2.659521435888943797e-02
-2.979859898640063731e-02
-3.293453766975701358e-02
-3.595656895504705658e-02
-3.881823138835925613e-02
-4.147306351578118611e-02
-4.387617573007233929e-02
-4.599027858428741955e-02
-4.778037663129258705e-02
-4.921147490325049334e-02
-5.024857843232383159e-02
-5.086054861724856324e-02
-5.104890254202890110e-02
-5.083159382272812998e-02
-5.022670103851303858e-02
-4.925230276855056821e-02
-4.792853146538074427e-02
-4.630888164528741691e-02
-4.447394531534264173e-02
-4.250509842807068117e-02
-4.048371693599364662e-02
-3.849134102848694727e-02
-3.661586174846095942e-02
-3.495340059035326880e-02
-3.360062714318820531e-02
-3.265421099599012666e-02
-3.221071190955036856e-02
-3.234885628531807000e-02
-3.310997401138869589e-02
-3.453068609036533815e-02
-3.664761352485113033e-02
-3.949737593529960289e-02
-4.309757387383027216e-02
-4.739902983573389406e-02
-5.233791828203016028e-02
-5.785041367373430776e-02
-6.387269047186296123e-02
-7.033314500614101794e-02
-7.711330803903732045e-02
-8.407724276937396379e-02
-9.108898272476431690e-02
-9.801256143281435185e-02
-1.047121879279561962e-01
-1.110539734793344474e-01
-1.169051940896596448e-01
-1.221331425490741612e-01
-1.266051116477190930e-01
-1.301900490442639557e-01
-1.327936554310207018e-01
-1.343576717243535334e-01
-1.348253511300888108e-01
-1.341399468540530049e-01
-1.322453453908311316e-01
-1.291246926661528127e-01
-1.248227237473706064e-01
-1.193895587799116143e-01
-1.128753179092020636e-01
-1.053301668503704019e-01
-9.682457057461607564e-02
-8.748115646925697098e-02
-7.743081468819096314e-02
-6.680443538530510261e-02
-5.573290871449702866e-02
-4.434803903918604906e-02
-3.278561447789993255e-02
-2.118250799379209348e-02
-9.675592573172313651e-03
1.598258797661948616e-03
1.250880640703974991e-02
2.297598518546174404e-02
3.294267674418967229e-02
4.235188112496005020e-02
5.114659836950945226e-02
5.927432370972982034e-02
6.674619292241008861e-02
7.362054416139683644e-02
7.995683084410445951e-02
8.581450638794729802e-02
9.125389667925458415e-02
9.636309345862316411e-02
1.012630544763456764e-01
1.060766390841860335e-01
1.109267066339029578e-01
1.159359736527975915e-01
1.212109788985556991e-01
1.268274184377800318e-01
1.328575239225194826e-01
1.393735270048204189e-01
1.464476484711552673e-01
1.541235492630685655e-01
1.623543811782068857e-01
1.710754085807316693e-01
1.802218958348043298e-01
1.897291073045828669e-01
1.995173716356601901e-01
2.094260852483445789e-01
2.192673592526612203e-01
2.288532838574909578e-01
2.379959492717146907e-01
2.465062363333944684e-01
2.541834048875828422e-01
2.608202330147140202e-01
2.662094284273111566e-01
2.701436988379005144e-01
2.724183605320686929e-01
2.728783565268295686e-01
2.714130991255236380e-01
2.679135738205519202e-01
2.622707661043109928e-01
2.543769460982594488e-01
2.441871015535777567e-01
2.317459679327809607e-01
2.171051899214381242e-01
2.003164122051186158e-01
1.814314360282176519e-01
1.605427595300226162e-01
1.378376776632959932e-01
1.135169551976437929e-01
8.778135690267206692e-02
6.083164755087827613e-02
3.288217991652836458e-02
4.200688277879718532e-03
-2.493198601963456454e-02
-5.423500163059118140e-02
-8.342751720956687045e-02
-1.122307002181286428e-01
-1.403793277682233998e-01
-1.676138244522524245e-01
-1.936746331258485387e-01
-2.183021966446152540e-01
-2.412424217691062078e-01
-2.623090733703835609e-01
-2.813618488514047500e-01
-2.982613139744407227e-01
-3.128680345017578746e-01
-3.250454844151351441e-01
-3.347344950309809053e-01
-3.419595605137849548e-01
-3.467493467781394001e-01
-3.491325197386360712e-01
-3.491382891020415880e-01
-3.468410615588062296e-01
-3.423936798055824404e-01
-3.359568181978488388e-01
-3.276911510910841541e-01
-3.177573611702463330e-01
-3.063241310045520804e-01
-2.935830544651513718e-01
-2.797298010697497062e-01
-2.649600403360661272e-01
-2.494694417818151266e-01
-2.334470845220613100e-01
-2.170498914293862713e-01
-2.004249926822284089e-01
-1.837195161261176712e-01
-1.670805896065661600e-01
-1.506510435547085691e-01
-1.345369536039060510e-01
-1.188257420395206210e-01
-1.036046849069431480e-01
-8.896105825156452873e-02
-7.498154616579169596e-02
-6.174309843433734013e-02
-4.931469588617716504e-02
-3.776508490533868334e-02
-2.716301187584943197e-02
-1.757719258096417797e-02
-9.075138289854354015e-03
-1.722786885125402248e-03
4.414029780404529063e-03
9.269479853917305529e-03
1.277783339275567059e-02
1.489048463414825718e-02
1.559503809863350618e-02
1.488370266343485085e-02
1.274868720577574180e-02
9.182202075852904238e-03
4.201357691758377325e-03
-2.088521831345252489e-03
-9.562586698938479665e-03
-1.809598711650179520e-02
-2.756387328951568488e-02
-3.782787637468981723e-02
-4.866741010808399437e-02
-5.983097808920230520e-02
-7.106702825360126929e-02
-8.212400853686155355e-02
-9.275001383482410489e-02
-1.026892715390795296e-01
-1.116836218071953768e-01
-1.194748695891133528e-01
-1.258048198347751501e-01
-1.304183519155847626e-01
-1.331295833919990679e-01
-1.338210611607195122e-01
-1.323782447623454983e-01
-1.286865937374764013e-01
-1.226327368395633555e-01
-1.141774024358593320e-01
-1.033985021141346355e-01
-9.038430492544655137e-02
-7.522307992084727168e-02
-5.800316806676637793e-02
-3.884669670684803150e-02
-1.796336375109058164e-02
4.423130939812664267e-03
2.808908750516840233e-02
5.281080608428333212e-02
7.836182859842545645e-02
1.045035688293375897e-01
1.309941080596556950e-01
1.575915274768221186e-01
1.840539082682606242e-01
2.101437266432005513e-01
2.356570271838162312e-01
2.604053358047270783e-01
2.842002612887520874e-01
3.068534124187101697e-01
3.281787313979268594e-01
3.480235839172980405e-01
3.662603230775465790e-01
3.827619033041386731e-01
3.974012790225406877e-01
4.100521586430038168e-01
4.206126396641882148e-01
4.290099164761058126e-01
4.351728882180762592e-01
4.390304540294007185e-01
4.405117217335735580e-01
4.395701347441220985e-01
4.362059153964045755e-01
4.304245936307685150e-01
4.222316993875614433e-01
4.116327700732488881e-01
3.986552374375861296e-01
3.833965366396909769e-01
3.659680641746612118e-01
3.464812165375945607e-01
3.250473902235886392e-01
3.017901747417936487e-01
2.768998386602754547e-01
2.505893288459583590e-01
2.230716109907670830e-01
1.945596507866261815e-01
1.652693935121982982e-01
1.354457121822514043e-01
1.053497467551792743e-01
7.524281846770521087e-02
4.538624855655253032e-02
1.604045590718530118e-02
-1.255153334585469918e-02
-4.016240102993518662e-02
-6.656539326897419062e-02
-9.153375618694574445e-02
-1.148416542602753998e-01
-1.363089823473628559e-01
-1.558215977548342845e-01
-1.732704935465759211e-01
-1.885466627864741673e-01
-2.015412714067153777e-01
-2.121923584223383286e-01
-2.205480758644398076e-01
-2.266723718234849860e-01
-2.306291943899391184e-01
-2.324824916550212173e-01
-2.323243000230253430e-01
-2.303580015160411054e-01
-2.268145649071242331e-01
-2.219249589693342295e-01
-2.159201524757298762e-01
-2.090379999659081889e-01
-2.015634516180797309e-01
-1.938011675677045187e-01
-1.860558745991210128e-01
-1.786322994966677291e-01
-1.718313419703872413e-01
-1.659058386439339894e-01
-1.610758320231023555e-01
-1.575607319141223706e-01
-1.555799481232247872e-01
-1.553491362672620446e-01
-1.569825779079975503e-01
-1.604840543909989981e-01
-1.658517633876545050e-01
-1.730839025693520494e-01
-1.821777447404838712e-01
-1.930517273057686389e-01
-2.054863579601612922e-01
-2.192482285203581072e-01
-2.341039308030553046e-01
-2.498200354599093287e-01
-2.661412402554272916e-01
-2.827490495425810657e-01
-2.993136224107007526e-01
-3.155051179491518698e-01
-3.309936952472643523e-01
-3.454617586052627920e-01
-3.586520047917451937e-01
-3.703256557564252316e-01
-3.802439384501067332e-01
-3.881680798235935814e-01
-3.938739967224048621e-01
-3.972645062967312124e-01
-3.983073627479262191e-01
-3.969708450332527505e-01
-3.932232321099740080e-01
-3.870392336898094698e-01
-3.785006235054996782e-01
-3.677775155595855439e-01
-3.550426664267834487e-01
-3.404688326818096078e-01
-3.242300222412577426e-01
-3.065503889696444273e-01
-2.877201094176497498e-01
-2.680338623265015596e-01
-2.477863264374277064e-01
-2.272721863710968071e-01
-2.067871496445623236e-01
-1.866291049096191756e-01
-1.670962208838472352e-01
-1.484866662848391694e-01
-1.310986085851285898e-01
-1.152039302543850924e-01
-1.009805550167058585e-01
-8.858542056802122533e-02
-7.817546460426151589e-02
-6.990762482135701172e-02
-6.390917825893016602e-02
-6.012532991941282878e-02
-5.843223951793119486e-02
-5.870593513314045775e-02
-6.082244484369581095e-02
-6.464133459581888896e-02
-6.983988745473022897e-02
-7.598196152962620464e-02
-8.262970361335887637e-02
-8.934526049878357967e-02
-9.568788436584529933e-02
-1.011507183553672223e-01
-1.051610550092295093e-01
-1.071433439446862756e-01
-1.065220347789917615e-01
-1.027227853732799040e-01
-9.524955236824771132e-02
-8.373111604185413948e-02
-6.780740908520836718e-02
-4.711836418941955928e-02
-2.130418274890843316e-02
9.861631884174507090e-03
4.625708104676136412e-02
8.770392108451020852e-02
1.340239083430790901e-01
1.850387991681260724e-01
2.404840464427050462e-01
2.997121779868323066e-01
3.619695549146892954e-01
4.265025343906238553e-01
4.925574735789834402e-01
5.593627621855588039e-01
6.260082171425184194e-01
6.915192097040205876e-01
7.549207535570400252e-01
8.152378623884102282e-01
8.715092907345783901e-01
9.229729369086477897e-01
9.690167622690324389e-01
1.009032405821116640e+00
1.042411506570283919e+00
1.068556553117821828e+00
1.087226788894801732e+00
1.098610437450807442e+00
1.102921171073592665e+00
1.100372662050911776e+00
1.091180584587728930e+00
1.075801051045556234e+00
1.055156178737848283e+00
1.030221491996913707e+00
1.001972515155052923e+00
9.713847765849301652e-01
9.394470866538847664e-01
9.071911012338255142e-01
8.756570992727359393e-01
8.458853597185995721e-01
8.189161615194002763e-01
7.956756602575403292e-01
7.764601570672493569e-01
7.613498454078307942e-01
7.504247248292589267e-01
7.437647948814858356e-01
7.413623328262423096e-01
7.423491055356458146e-01
7.453690308700376965e-01
7.490604477728085575e-01
7.520616951873487777e-01
7.529841442707155830e-01
7.499124848371079288e-01
7.404519980353155839e-01
7.221904779827825749e-01
6.927157187969527063e-01
6.496281812374736786e-01
5.911717816773002232e-01
5.165259954587814173e-01
4.249439630506110510e-01
3.156788249216348485e-01
1.879837215406518491e-01
4.111179337646092558e-02
-1.256838191021389661e-01
-3.131499754263488700e-01
-5.220335351273699409e-01
-7.530813577364032785e-01
