BVP Green Neck Signal
4.592378144675867899e-03
1.158757746926208573e-02
1.991800565892068789e-02
2.914340929614248066e-02
3.873954722757488173e-02
4.821278901936615346e-02
5.736151482486851610e-02
6.591992696135151597e-02
7.379775389796355833e-02
8.107196019797188735e-02
8.792038132239990422e-02
9.469184534687399846e-02
1.015758445300739554e-01
1.085888134890559131e-01
1.156961558206685559e-01
1.227983525604417203e-01
1.298577531054999901e-01
1.368385932943075312e-01
1.436069756989360457e-01
1.501240823460138207e-01
1.563857760274955100e-01
1.624401418837305711e-01
1.683616475982032401e-01
1.740396941626939642e-01
1.793521044509447104e-01
1.841253559748458890e-01
1.881718409055304075e-01
1.913699842777838445e-01
1.934717778338161109e-01
1.942934775102831690e-01
1.936774880872212112e-01
1.914968559348224908e-01
1.877429564599782108e-01
1.822656863362067392e-01
1.749583611436682506e-01
1.657282836737024034e-01
1.545143075931468546e-01
1.413917753636764751e-01
1.263680819539491906e-01
1.094894501011010046e-01
9.086611889592791091e-02
7.066110631283772925e-02
4.915978739243879320e-02
2.662781929322358826e-02
3.295134353368327565e-03
-2.056283443104058029e-02
-4.465233305020595983e-02
-6.862460665863440168e-02
-9.211599731930023016e-02
-1.148298148715472533e-01
-1.364512864993417673e-01
-1.566840481837707133e-01
-1.752605903067743220e-01
-1.919438987324471879e-01
-2.065086642162909381e-01
-2.187835712780278885e-01
-2.286475280017169764e-01
-2.360532089588946170e-01
-2.411319841163797328e-01
-2.437839961418001300e-01
-2.440672297757572606e-01
-2.420894222013276753e-01
-2.380195069471816860e-01
-2.323699811280672822e-01
-2.251730311715348376e-01
-2.166364040401601854e-01
-2.070067323447936369e-01
-1.965630226733530161e-01
-1.859272831669680770e-01
-1.752620495190694572e-01
-1.647178007996368543e-01
-1.545130808704422987e-01
-1.448608609747329967e-01
-1.362368364808884402e-01
-1.288168935282215655e-01
-1.225347888111334993e-01
-1.174474609382996915e-01
-1.135837415726275723e-01
-1.111266608421667967e-01
-1.101693258765394368e-01
-1.103916736166685453e-01
-1.116617744687036229e-01
-1.138233060870988966e-01
-1.167820622319366008e-01
-1.205244041726040716e-01
-1.245752413546359072e-01
-1.286895442248369992e-01
-1.326211137346218483e-01
-1.361360380481052568e-01
-1.391408668866641052e-01
-1.411928940243186437e-01
-1.420586869984166722e-01
-1.415305766354022499e-01
-1.394198023479832349e-01
-1.355651157565967158e-01
-1.297725683218616533e-01
-1.219331674276174504e-01
-1.119834194664103555e-01
-9.989168761290001530e-02
-8.554755597766983133e-02
-6.902452191404045978e-02
-5.044911004172655811e-02
-2.995050982171650403e-02
-7.688338213898492091e-03
1.630424872662820587e-02
4.179163872560221621e-02
6.837954896198222832e-02
9.577539722754532803e-02
1.236757232933298201e-01
1.519032299691353283e-01
1.802261124197754583e-01
2.080686226655148463e-01
2.350794720461845677e-01
2.609268485812411553e-01
2.853768708413862987e-01
3.083615874620847519e-01
3.292968278332196741e-01
3.479093050428260780e-01
3.639699777225556820e-01
3.773088791306690726e-01
3.881073193532162957e-01
3.959392159053428673e-01
4.007083831987098277e-01
4.023682782925698254e-01
4.009279057004291880e-01
3.966885518562013324e-01
3.895636976221885095e-01
3.796080057214912817e-01
3.669499405209485365e-01
3.517573263355029956e-01
3.343977494043562371e-01
3.150356399096876925e-01
2.938159298358269389e-01
2.709649090284467765e-01
2.467230155554113180e-01
2.214476770004924766e-01
1.954033048046970034e-01
1.687299070415582136e-01
1.416568240768988907e-01
1.144079002357161756e-01
8.725651373592474558e-02
6.045270651706580872e-02
3.405764459559816604e-02
8.239217495814264713e-03
-1.684639866618415499e-02
-4.104122380539791670e-02
-6.416913259602316510e-02
-8.625499408183012751e-02
-1.072109082939137481e-01
-1.269566084583214349e-01
-1.454299491257232124e-01
-1.625702378380468049e-01
-1.784228160561999454e-01
-1.929681584059188826e-01
-2.061891830855337171e-01
-2.180825284430656930e-01
-2.287279592869126965e-01
-2.381251581274404505e-01
-2.462883514076046609e-01
-2.532493233653932418e-01
-2.590495988581261178e-01
-2.638669310144407532e-01
-2.676864038574231497e-01
-2.704861712582449784e-01
-2.723302204202201482e-01
-2.732911902824129990e-01
-2.735893753943332007e-01
-2.732611878633537938e-01
-2.721737952907802294e-01
-2.703949588542322036e-01
-2.680030766766662298e-01
-2.651920158562766083e-01
-2.621187455909867459e-01
-2.584868645324892578e-01
-2.543333549547863170e-01
-2.497106679046542099e-01
-2.447249511510162234e-01
-2.396934103684701112e-01
-2.341645604543501347e-01
-2.281284967521045870e-01
-2.215972805160884573e-01
-2.145922719095114117e-01
-2.075154192213004012e-01
-1.999147994188941180e-01
-1.917329455865063037e-01
-1.829603902536671434e-01
-1.736092485754018033e-01
-1.639886828700596877e-01
-1.538970266527385222e-01
-1.432387709389006392e-01
-1.320203173045923495e-01
-1.202739873644569635e-01
-1.082213751544993108e-01
-9.590564717077074142e-02
-8.326939551587525523e-02
-7.035463864433597059e-02
-5.721914013832744839e-02
-4.400055152573036782e-02
-3.086827241705573238e-02
-1.784905408356964041e-02
-5.000808487682004838e-03
7.623238940559776827e-03
1.997041041496581265e-02
3.193247536569861905e-02
4.339007503989487924e-02
5.431168636431197433e-02
6.468860242440124808e-02
7.453821846040964427e-02
8.397743185952472045e-02
9.279892059025829365e-02
1.010216109076663704e-01
1.086925156153813188e-01
1.158769644219119765e-01
1.228974980591426847e-01
1.295313411971897033e-01
1.358022785169694102e-01
1.417803942446771992e-01
1.475491567500578638e-01
1.534544581930074314e-01
1.593647734444982866e-01
1.652176651420846909e-01
1.710511784108585953e-01
1.769070571049703999e-01
1.830352039817507159e-01
1.893879009507332956e-01
1.957718379014298238e-01
2.021521124343419740e-01
2.084923881749964902e-01
2.148923984185183156e-01
2.213615053272836031e-01
2.275811175437654210e-01
2.334405834388286471e-01
2.388313728594814167e-01
2.437192166081259548e-01
2.481685161039176024e-01
2.517872445603268616e-01
2.544266415432932527e-01
2.559504015896842399e-01
2.562531786798255551e-01
2.554853463313857542e-01
2.532669593052644386e-01
2.494767144719473029e-01
2.440171148228006404e-01
2.368228428453403034e-01
2.280778020653737859e-01
2.176012342598717952e-01
2.053408105198812894e-01
1.913010878926220681e-01
1.755258881593843023e-01
1.582413743208642698e-01
1.395278477879807189e-01
1.194486757643020147e-01
9.813570640181981664e-02
7.575148390490227257e-02
5.255952529870289158e-02
2.883260262638610849e-02
4.753815950101250923e-03
-1.945907004109577454e-02
-4.358284287979240917e-02
-6.737620696593812908e-02
-9.054562027027823756e-02
-1.128459665023096026e-01
-1.340737322046913205e-01
-1.540506662512273750e-01
-1.726376074575649844e-01
-1.897328600300805523e-01
-2.051072662135291214e-01
-2.186737397147615891e-01
-2.303885110466350195e-01
-2.402517609064045712e-01
-2.485045502559914965e-01
-2.549619087056820832e-01
-2.596856453149362642e-01
-2.627750867118290867e-01
-2.643687516920235625e-01
-2.649160650798760286e-01
-2.643699720411468168e-01
-2.628252716272865275e-01
-2.604420080799530468e-01
-2.573983831100385422e-01
-2.541705943296960757e-01
-2.508183676571199561e-01
-2.473249943417695496e-01
-2.437955585383641266e-01
-2.403317980367305762e-01
-2.372697901466777060e-01
-2.347190813549474842e-01
-2.324565192548583847e-01
-2.304626234572407784e-01
-2.287078929583511722e-01
-2.273122057920082262e-01
-2.264137888214566297e-01
-2.255962390260400352e-01
-2.247312457912364059e-01
-2.236904709981684669e-01
-2.224143333312654514e-01
-2.210776456545146818e-01
-2.191890942444715551e-01
-2.165902230754413460e-01
-2.131391556224471462e-01
-2.087157364411848792e-01
-2.034953761094954183e-01
-1.971041367466992711e-01
-1.894329948546628339e-01
-1.804078141729868745e-01
-1.699815190865944514e-01
-1.582333440927994606e-01
-1.450858714328571164e-01
-1.305223303373410360e-01
-1.145750600754975312e-01
-9.729928146910959974e-02
-7.874397951451939104e-02
-5.903119022014118034e-02
-3.829671070456446003e-02
-1.666816710741025886e-02
5.717105193267162794e-03
2.880056178491101349e-02
5.241811538263293352e-02
7.627573393524156309e-02
1.001964562080666921e-01
1.240110218319664115e-01
1.476407364998452987e-01
1.710290118467358289e-01
1.937669682154637973e-01
2.156827935445282951e-01
2.366267454241945678e-01
2.565074411143464239e-01
2.754613236616411664e-01
2.930294449123251321e-01
3.090834815914291767e-01
3.235232723000046606e-01
3.362756879964445833e-01
3.476110039446624334e-01
3.571405412248657152e-01
3.647706641915073877e-01
3.704574206538969738e-01
3.741834818931687456e-01
3.762132596994217093e-01
3.763577835626651380e-01
3.745237292995556855e-01
3.707224442080568338e-01
3.649896564212468109e-01
3.575725490024876940e-01
3.484648853619224940e-01
3.375822704837891375e-01
3.249944660923130280e-01
3.107938992814461843e-01
2.952153233824295619e-01
2.784111681531605820e-01
2.603131839836210770e-01
2.410468385604408459e-01
2.207571505794600208e-01
1.996663041606179523e-01
1.780500742722523067e-01
1.558501043796437779e-01
1.332199706322625132e-01
1.103251458869450585e-01
8.735111444803780878e-02
6.463122539905510888e-02
4.210221644340388786e-02
1.989454462729045581e-02
-1.861218997712518926e-03
-2.303826584201573019e-02
-4.339053790750313500e-02
-6.293710705489369284e-02
-8.162841017546754174e-02
-9.941230350910046365e-02
-1.162441347198076846e-01
-1.320383958495656429e-01
-1.467618915509927291e-01
-1.604306795489501558e-01
-1.730688524732369726e-01
-1.847065830534886655e-01
-1.953962499788789442e-01
-2.050896596607127420e-01
-2.137796957370285966e-01
-2.215216987352304212e-01
-2.283760687849799853e-01
-2.344615357167414982e-01
-2.397780777220752113e-01
-2.441959231861821344e-01
-2.477548655386624943e-01
-2.505053551426233982e-01
-2.525554455321927239e-01
-2.540441451129279438e-01
-2.546749980422124415e-01
-2.544652015666327149e-01
-2.534553671200843183e-01
-2.517070813671616891e-01
-2.495784207164980784e-01
-2.466462261489797692e-01
-2.429378947957961110e-01
-2.385163610126516398e-01
-2.334646023966584216e-01
-2.281970228716934668e-01
-2.224248282902161200e-01
-2.161554033282205300e-01
-2.094892334378078980e-01
-2.025468272087038724e-01
-1.956981452369999652e-01
-1.888632177674354484e-01
-1.820033120952972705e-01
-1.752146592460275543e-01
-1.686001818204351521e-01
-1.624092099065248818e-01
-1.566880570401176787e-01
-1.513155564569745870e-01
-1.463046392133292295e-01
-1.416595698726972330e-01
-1.374500897633431917e-01
-1.337356257545588567e-01
-1.303013809224047304e-01
-1.270352379870565707e-01
-1.238130295864143804e-01
-1.205386601446703509e-01
-1.172388722364397506e-01
-1.136740233368412900e-01
-1.096628171309470823e-01
-1.050230426172512610e-01
-9.960066105119308455e-02
-9.342714452579437001e-02
-8.638068319028521791e-02
-7.834028157452499475e-02
-6.919643463808344830e-02
-5.888517782255719979e-02
-4.747919189944973389e-02
-3.510711466134625730e-02
-2.180922845343934505e-02
-7.633584303536744033e-03
7.335490906708829612e-03
2.295757811888816252e-02
3.892006815494131189e-02
5.501057967163910239e-02
7.106267517435846393e-02
8.690848637880482785e-02
1.024126073353204547e-01
1.172823110771641641e-01
1.312340563091336232e-01
1.441192649557419825e-01
1.558255439722421032e-01
1.663245794335685979e-01
1.755628303575105520e-01
1.833085974588953282e-01
1.895525600447906522e-01
1.943362623354537300e-01
1.977746874749238826e-01
2.001352935688464341e-01
2.012845420581891587e-01
2.013602545973815217e-01
2.005350181441153679e-01
1.990068232980852503e-01
1.972308928696638319e-01
1.951414350991160507e-01
1.929024215748756654e-01
1.906904451325766581e-01
1.886785255342133816e-01
1.872307348055256837e-01
1.863215454250528591e-01
1.859654028597011732e-01
1.862054316108504859e-01
1.870625521908730604e-01
1.887015620655020653e-01
1.910385057612157544e-01
1.938663925205942051e-01
1.970437928956733920e-01
2.004125466217004659e-01
2.039435634395651009e-01
2.075311752877153082e-01
2.107892304744612699e-01
2.134642640300246641e-01
2.153111464089761118e-01
2.162059237043663096e-01
2.161703723102349206e-01
2.147850524208477219e-01
2.118388362698583327e-01
2.071549623905633297e-01
2.006506876997529443e-01
1.925945715586829809e-01
1.827216141493233637e-01
1.710019692633668875e-01
1.574459631372490676e-01
1.421313485911153973e-01
1.254653823087173437e-01
1.075189181124391602e-01
8.845328968034901762e-02
6.846215493863083701e-02
4.777317482605685645e-02
2.673458935879410164e-02
5.684192702609936615e-03
-1.512118482874561833e-02
-3.543994516620596613e-02
-5.504855030392209053e-02
-7.379098058140168281e-02
-9.139100030223515359e-02
-1.076207655807661090e-01
-1.223673969008054752e-01
-1.355736836102836851e-01
-1.473381852691476868e-01
-1.577193010524448602e-01
-1.666021279845264491e-01
-1.740849315560770993e-01
-1.803194450096051449e-01
-1.855863716482882286e-01
-1.903046168158258333e-01
-1.944327042825901297e-01
-1.981934170968078501e-01
-2.018243081645492709e-01
-2.055965647754712800e-01
-2.100796862097767115e-01
-2.151470101288653902e-01
-2.209451100806607837e-01
-2.275909670937982521e-01
-2.351733243989647115e-01
-2.440522001590897105e-01
-2.539574799843342112e-01
-2.647568651173989318e-01
-2.763116937992496913e-01
-2.884445076740453362e-01
-3.011799451683126461e-01
-3.141086042752445628e-01
-3.268070680001273765e-01
-3.389283829536367532e-01
-3.501177679396233478e-01
-3.601961708460674760e-01
-3.687672769923671101e-01
-3.753062022206941073e-01
-3.794709075194028780e-01
-3.809625131325996006e-01
-3.796360766249942120e-01
-3.753497153198401826e-01
-3.677513430203390721e-01
-3.567448723281796963e-01
-3.423114120888289258e-01
-3.245418222299533695e-01
-3.036556081448693045e-01
-2.796764314787384409e-01
-2.528547280209588743e-01
-2.235087860876494581e-01
-1.920106434787062499e-01
-1.587908263217518434e-01
-1.242522576858473560e-01
-8.887130289990222143e-02
-5.314190133271472216e-02
-1.755559756003153421e-02
1.751013485714774526e-02
5.153068320056830576e-02
8.405809299271296831e-02
1.147042418057231394e-01
1.431359014814348463e-01
1.691976671389885112e-01
1.926060298365892265e-01
2.131560644490813894e-01
2.307780426934447626e-01
2.454723052945148587e-01
2.573655517097485079e-01
2.665257546782537346e-01
2.730501884126821377e-01
2.771837117162364028e-01
2.792115965940336064e-01
2.794455402629315577e-01
2.781179859115576192e-01
2.754727511938312445e-01
2.718535003885984014e-01
2.675955752301850676e-01
2.629852371748968021e-01
2.581507542021563295e-01
2.531964839607457884e-01
2.483006734438522045e-01
2.436075318817581548e-01
2.391869368382192329e-01
2.349967216822167471e-01
2.307857633374691408e-01
2.264627835412779400e-01
2.219280302594881793e-01
2.170444791702828835e-01
2.117309877977724963e-01
2.055191695825410447e-01
1.981585840439627488e-01
1.894907095095123284e-01
1.793925439115993115e-01
1.679603321080523071e-01
1.549237712892599650e-01
1.401044018390467105e-01
1.235499710253179784e-01
1.053943661172082880e-01
8.603179599468796512e-02
6.571048461091921755e-02
4.448223471436862225e-02
2.269485447918944548e-02
7.644031843930185199e-04
-2.073128073065776122e-02
-4.112533604166838941e-02
-6.019429727297283955e-02
-7.749107176816649734e-02
-9.257989382686956925e-02
-1.050148008248163733e-01
-1.142016542830404935e-01
-1.199789776064672520e-01
-1.221595347591920566e-01
-1.206494160467866950e-01
-1.154325678300310576e-01
-1.064897532602236130e-01
-9.392018113590480666e-02
-7.801674253536436399e-02
-5.918592024062430124e-02
-3.791181543593829389e-02
-1.476134670206250346e-02
9.848244911247014399e-03
3.529454343659047671e-02
6.086690573315999692e-02
8.584344768819082705e-02
1.094827854662218380e-01
1.312870765673670448e-01
1.507035511559367269e-01
1.671338970802838109e-01
1.800469474474223619e-01
1.889960096165491377e-01
1.937899956977205129e-01
1.942966535585623211e-01
1.903663451269154150e-01
1.819458953799127643e-01
1.691056731539797020e-01
1.521489171731182921e-01
1.314559290652919099e-01
1.073666146845950464e-01
8.027874153694314341e-02
5.066824598703797283e-02
1.914598496431888300e-02
-1.357723890289512861e-02
-4.691242120357648482e-02
-8.028738462497780892e-02
-1.131337090300897075e-01
-1.449300383710611373e-01
-1.749847100802852662e-01
-2.027885038159270015e-01
-2.279170568004738329e-01
-2.500211045944712440e-01
-2.689459947066190071e-01
-2.843903511202651724e-01
-2.961410705129600696e-01
-3.041115485847089017e-01
-3.083127343854996094e-01
-3.089990303011598272e-01
-3.064137486081359163e-01
-3.006801433243249666e-01
-2.920410336575096633e-01
-2.808045574267420963e-01
-2.674692670317195264e-01
-2.526791498662337432e-01
-2.367649326147129307e-01
-2.201261878157093066e-01
-2.031623367033591476e-01
-1.863574168192262681e-01
-1.704172987333793243e-01
-1.556297418284285361e-01
-1.423041531895169742e-01
-1.306882988702202375e-01
-1.210093746232597522e-01
-1.137256007800086788e-01
-1.088078649719893820e-01
-1.062717632474963758e-01
-1.060496475504936476e-01
-1.080104901939153983e-01
-1.121818138058617575e-01
-1.181649595602827785e-01
-1.256093769132685389e-01
-1.341432394535831685e-01
-1.433523738372733947e-01
-1.529329326647358434e-01
-1.622901442787962334e-01
-1.708673126388299546e-01
-1.781956136300726357e-01
-1.838267704553949444e-01
-1.874087476871230673e-01
-1.884885418243324728e-01
-1.866375896619737740e-01
-1.815906681450074334e-01
-1.731620048045403315e-01
-1.612454138211487642e-01
-1.457832548023510477e-01
-1.267984254511981823e-01
-1.044311088550269606e-01
-7.890877352566541547e-02
-5.050645644085343527e-02
-1.950189626922688851e-02
1.352771126678284710e-02
4.808306822338358211e-02
8.363088701895124433e-02
1.196202093001356992e-01
1.557906098287050178e-01
1.912097953095886205e-01
2.252937010098502169e-01
2.575024166354153432e-01
2.873514011320091321e-01
3.147676224231904518e-01
3.390551940218891613e-01
3.597935627026151439e-01
3.767262324534242368e-01
3.896953738925598154e-01
3.989303147481935707e-01
4.042998250272136218e-01
4.057005314465491064e-01
4.032567121924401921e-01
3.971762844574426854e-01
3.879174031244674858e-01
3.758455043659477135e-01
3.611334713160806453e-01
3.441526095486620584e-01
3.253007295618081662e-01
3.050607742760556018e-01
2.839372037836902507e-01
2.621862447318505929e-01
2.401750189121837353e-01
2.182406113022306582e-01
1.966916238790314131e-01
1.758147453020504902e-01
1.557291249844354464e-01
1.365981832625893233e-01
1.185366521851776989e-01
1.015953980067745011e-01
8.573210171736503349e-02
7.081520872071617179e-02
5.676922340216385837e-02
4.349836090485900697e-02
3.086603335625593553e-02
1.865176229467931449e-02
6.552922176667671031e-03
-5.616843571120135395e-03
-1.800914780546100658e-02
-3.076667267765748753e-02
-4.405743113567119756e-02
-5.811190933198748243e-02
-7.303002709385253421e-02
-8.883602286466368847e-02
-1.055058856829181324e-01
-1.230044329645410828e-01
-1.412890281443856810e-01
-1.602157652840984770e-01
-1.795969019743975659e-01
-1.991978618894219843e-01
-2.187784839068866172e-01
-2.380626887743610698e-01
-2.566321212762062154e-01
-2.741652969967088849e-01
-2.903397444978169650e-01
-3.048493915603552873e-01
-3.174625001436792715e-01
-3.276123946754275207e-01
-3.350432588686085289e-01
-3.395615876379442510e-01
-3.410138196998783178e-01
-3.394687536188895072e-01
-3.344892067256790003e-01
-3.260562912513520484e-01
-3.142727854397673326e-01
-2.993073642560045711e-01
-2.815404550079275148e-01
-2.609396044970851425e-01
-2.377342411433203684e-01
-2.123186265249815685e-01
-1.851375920215124760e-01
-1.567675691209633737e-01
-1.275224861559987322e-01
-9.775722096448619114e-02
-6.797043986370257529e-02
-3.866421757353679517e-02
-1.036860245901315841e-02
1.652909496263992375e-02
4.175586795735625883e-02
6.495963553459807582e-02
8.583028920682320151e-02
1.041024361477979887e-01
1.195940103971855628e-01
1.322687238550309674e-01
1.420731736287262903e-01
1.490087291542383507e-01
1.531358347398053543e-01
1.545762937440122442e-01
1.535261132928355532e-01
1.501974967348631007e-01
1.448341160500313252e-01
1.377064094896976176e-01
1.291321257587885463e-01
1.193852146683448134e-01
1.087692096325698077e-01
9.758782159907977705e-02
8.613124710204736467e-02
7.471194782066456486e-02
6.350666771735832827e-02
5.271557681758551328e-02
4.254310052548522514e-02
3.315994039686519235e-02
2.474661897909827962e-02
1.729928511948337563e-02
1.081101785052279718e-02
5.337105808292826742e-03
9.082766592599950811e-04
-2.434769923066620358e-03
-4.814734236494038963e-03
-6.436504124829140090e-03
-7.346488019655547132e-03
-7.588804464540467934e-03
-7.199484127409955768e-03
-6.284565365106034585e-03
-5.160602751666607674e-03
-3.900092996017095158e-03
-2.548488184136244242e-03
-1.151873411057337780e-03
2.912157520480393447e-04
1.471894875972721076e-03
2.343063348049852224e-03
2.893740940017435967e-03
3.123528068369246444e-03
3.082116119647296607e-03
2.630006210156703508e-03
1.750589326215615596e-03
4.690621568034809147e-04
-1.172226866519364245e-03
-3.100468714929456235e-03
-5.275487204218047566e-03
-7.663022983108320682e-03
-1.021528474000121291e-02
-1.287278450598324138e-02
-1.555951470631900674e-02
-1.813449881687453566e-02
-2.051043049390025019e-02
-2.263977133554740534e-02
-2.447857035491312824e-02
-2.597586606308450660e-02
-2.699610232257244891e-02
-2.743679857084878673e-02
-2.728103293725409398e-02
-2.653152362771743836e-02
-2.519250329428499025e-02
-2.321378664141440784e-02
-2.053650893390350507e-02
-1.719842436174896447e-02
-1.326301132957372585e-02
-8.801000802252276559e-03
-3.868833912488888610e-03
1.513702564295123232e-03
7.255307825689120277e-03
1.324643303571028385e-02
1.936972951895116202e-02
2.550383655009055839e-02
3.155934106271281875e-02
3.742443157163465040e-02
4.298164241250965190e-02
4.811376545181886982e-02
5.269534733277745492e-02
5.662394828551662457e-02
5.981226430524754639e-02
6.217840690529844588e-02
6.365101845565926397e-02
6.415898983968865155e-02
6.364615166563530879e-02
6.208955237381353492e-02
5.947526497416150831e-02
5.580603165933571003e-02
5.109583652998683084e-02
4.537183566883108005e-02
3.869425735457819593e-02
3.112975207597945548e-02
2.276061257491267947e-02
1.368355371998639103e-02
4.007510217931341961e-03
-6.133158659811346718e-03
-1.660392382880961082e-02
-2.726250028549049437e-02
-3.795981322679756187e-02
-4.855006478448884583e-02
-5.886528332899267080e-02
-6.874529663077247332e-02
-7.803455420796456821e-02
-8.658616251564185684e-02
-9.428619901169285611e-02
-1.010070245816530043e-01
-1.066266168083769839e-01
-1.110423107720934499e-01
-1.141750055857098656e-01
-1.160060224701065512e-01
-1.165261979127948655e-01
-1.157109398542978951e-01
-1.135672577578155651e-01
-1.101302731115500477e-01
-1.055000818870966972e-01
-9.981633538031986497e-02
-9.316618047141186909e-02
-8.567273259194158053e-02
-7.747599314643155433e-02
-6.875671604839826700e-02
-5.974852634203316887e-02
-5.059433182202632134e-02
-4.146936209140909130e-02
-3.254402745864455604e-02
-2.398981921356023797e-02
-1.601546479030666395e-02
-8.715039035436994430e-03
-2.211503322721026198e-03
3.394569001598990096e-03
8.029859597087577600e-03
1.162793951069424764e-02
1.421971259091913201e-02
1.581341961253638490e-02
1.643659836811766847e-02
1.614730266444971626e-02
1.504248634038522076e-02
1.328059465541847617e-02
1.099073226012456037e-02
8.301079490182241422e-03
5.351912964783355972e-03
2.317070254374655955e-03
-5.985133478116130140e-04
-3.241940579209612143e-03
-5.479976717431118971e-03
-7.193183375565377971e-03
-8.252308762665430675e-03
-8.523005009646438326e-03
-7.947407781193729578e-03
-6.484684879731899415e-03
-4.122245685799553507e-03
-8.569025940444894782e-04
3.315322711206275183e-03
8.288377728249633758e-03
1.397604551447691190e-02
2.027060826981035013e-02
2.704943199241933299e-02
3.423071841435527951e-02
4.156440618330280168e-02
4.888453831755367601e-02
5.602638311618828720e-02
6.282512434946721513e-02
6.918935830150532706e-02
7.485826896927785801e-02
7.967050044201065551e-02
8.350144322492697446e-02
8.624756215982395946e-02
8.788231711107369337e-02
8.827443861990286189e-02
8.734917923443294430e-02
8.509548664704258414e-02
8.153283124153734573e-02
7.673758891232704271e-02
7.075765118868332371e-02
6.364819393251366919e-02
5.552274534292995362e-02
4.651758003507159428e-02
3.679037945024903056e-02
2.650581605412021674e-02
1.582934123366351586e-02
4.943654249518798435e-03
-5.966033560409020331e-03
-1.672503688586358256e-02
-2.718438852282445764e-02
-3.714588904442071154e-02
-4.645065347723167926e-02
-5.495803643274132372e-02
-6.255277899114428108e-02
-6.921595664078510068e-02
-7.481593664760896600e-02
-7.929827066092226540e-02
-8.263527351001151433e-02
-8.483106467092998981e-02
-8.598963066892734153e-02
-8.613670063776401875e-02
-8.533126902049156803e-02
-8.365995351688043646e-02
-8.122959623179706878e-02
-7.820867132780726094e-02
-7.473608368483322661e-02
-7.093094981117395448e-02
-6.692461543527115919e-02
-6.284539248077730678e-02
-5.883609304657030914e-02
-5.502234589754533695e-02
-5.148980392489149044e-02
-4.832013159617987857e-02
-4.557411609156440668e-02
-4.329720406163505703e-02
-4.150295649318599261e-02
-4.016856461934704969e-02
-3.927479463086561845e-02
-3.878300979578720720e-02
-3.863522950812912915e-02
-3.874148498734242274e-02
-3.896822565062837973e-02
-3.922438328891129922e-02
-3.941929395958122806e-02
-3.945583661319043700e-02
-3.923908929548491908e-02
-3.860233660622944263e-02
-3.746611193724064259e-02
-3.577478800142529225e-02
-3.348645332976846883e-02
-3.058003259147503566e-02
-2.697808595766599746e-02
-2.267928392616334887e-02
-1.772138392876819457e-02
-1.216363552220857056e-02
-6.083061662841927897e-03
4.635455934098395986e-04
7.383995677145191450e-03
1.455900006035374880e-02
2.185729669161411148e-02
2.915181629048309297e-02
3.631032444200552045e-02
4.318689930541549232e-02
4.964880371244517754e-02
5.557003608769713748e-02
6.084964625622105855e-02
6.539568283210006605e-02
6.907125587060025662e-02
7.180423802126700838e-02
7.354411192205334569e-02
7.426881385253564227e-02
7.401184894081941357e-02
7.269624254451531598e-02
7.034610142668237809e-02
6.700998528140433841e-02
6.275585353587095905e-02
5.772716748155971161e-02
5.193857644871271301e-02
4.549051448452880175e-02
3.850335396410118488e-02
3.110674340176464853e-02
2.346562286565526817e-02
1.567488152423006029e-02
7.856192138207498954e-03
1.442884198087340114e-04
-7.331282934720122213e-03
-1.444834181858864995e-02
-2.111894193992219088e-02
-2.725180471069115970e-02
-3.275786294639097818e-02
-3.756444795654218655e-02
-4.163185244486825032e-02
-4.495818385140168405e-02
-4.752179941238069555e-02
-4.931540456953708434e-02
-5.034927789394771230e-02
-5.066815140843840271e-02
-5.037458594786508453e-02
-4.952128216038927805e-02
-4.817499733955979413e-02
-4.640958851287074055e-02
-4.431594311926343593e-02
-4.204811972770113038e-02
-3.968935835645528293e-02
-3.732928084036039179e-02
-3.504921845201662556e-02
-3.292660902842688142e-02
-3.107499207162450067e-02
-2.954262163692622511e-02
-2.837427732534968799e-02
-2.760109141170723895e-02
-2.723760231244606519e-02
-2.730146168864720779e-02
-2.775473662810797743e-02
-2.856140275173569068e-02
-2.968320290508143569e-02
-3.106692226072463661e-02
-3.264941576079813390e-02
-3.431419908580798928e-02
-3.596423251816666111e-02
-3.752412516711517432e-02
-3.891770531943731376e-02
-4.006379218623782462e-02
-4.083658912331194352e-02
-4.113747049167443270e-02
-4.091271279955811802e-02
-4.012362075583972981e-02
-3.873709621180537743e-02
-3.669359340117625545e-02
-3.395445880277309786e-02
-3.053169921735346751e-02
-2.645876263271743772e-02
-2.178055886994417420e-02
-1.652895158537696224e-02
-1.075522677772818014e-02
-4.540607882695404940e-03
2.018563167953424733e-03
8.817119328632046921e-03
1.576474156679896418e-02
2.274021993707243949e-02
2.962497600675101372e-02
3.630174955587813640e-02
4.265434636285090481e-02
4.859013613693882738e-02
5.398180715267320712e-02
5.871880365748616964e-02
6.271352238843719284e-02
6.589053116474902216e-02
6.820509725055559636e-02
6.959278448876260459e-02
6.999393796551486857e-02
6.938936169091169948e-02
6.777861344284843992e-02
6.519086426228493103e-02
6.166186137025191777e-02
5.720929022492863419e-02
5.189577510900585111e-02
4.580110192954822690e-02
3.902451255510220457e-02
3.168659524923379822e-02
2.387721869145142950e-02
1.572008652178014457e-02
7.346237944059936381e-03
-1.109586110504730445e-03
-9.504058964992278050e-03
-1.772032529601644951e-02
-2.562692165527753405e-02
-3.309828861608214018e-02
-4.002044833679160168e-02
-4.630435563169491009e-02
-5.187539375215723114e-02
-5.665793383466420641e-02
-6.059079654748946581e-02
-6.363430352505261567e-02
-6.579436414472455974e-02
-6.709707775247142347e-02
-6.755518260292063537e-02
-6.719675927470229737e-02
-6.606832820341093648e-02
-6.426040461122382863e-02
-6.189253345037740162e-02
-5.904412450902963433e-02
-5.580391093026963734e-02
-5.226459363951544562e-02
-4.854241387932967805e-02
-4.478290821034099090e-02
-4.106504662097217040e-02
-3.747474594077501719e-02
-3.408695404434486376e-02
-3.097498936031072014e-02
-2.823429894886473127e-02
-2.587544136687995253e-02
-2.392837585738157025e-02
-2.240814808699874428e-02
-2.131392797705158881e-02
-2.065745325923117048e-02
-2.036122424383320084e-02
-2.038917839357993339e-02
-2.070097107382615209e-02
-2.124474391070268683e-02
-2.196421702148725758e-02
-2.273893893879543049e-02
-2.349534936897441570e-02
-2.417591616689799758e-02
-2.472290140321873469e-02
-2.507120804562409239e-02
-2.511281086889315117e-02
-2.478554792801828527e-02
-2.405551591836975825e-02
-2.289856961211224340e-02
-2.128571832570976680e-02
-1.916546986402266339e-02
-1.652759582931773857e-02
-1.338537451688274343e-02
-9.765629241640439925e-03
-5.693364290502150350e-03
-1.181013010787559936e-03
3.706123753166382095e-03
8.904149747558546407e-03
1.433896160154601168e-02
1.993493867630444921e-02
2.564541437214103159e-02
3.133159108691282307e-02
3.689585191736606540e-02
4.223993826748807801e-02
4.726571379067003725e-02
5.192820538993179330e-02
5.606842871191295569e-02
5.959008482563708103e-02
6.241337591614640884e-02
6.446972655441637889e-02
6.574260077265275948e-02
6.614247449519616850e-02
6.561976577256858900e-02
6.416111931334367302e-02
6.177271111347721472e-02
5.850259721369798632e-02
5.437447399003329102e-02
4.942294693158898883e-02
4.372185803766830137e-02
3.736224694164021892e-02
3.045832721615770317e-02
2.312468470179860486e-02
1.546761634036881994e-02
7.615958162711582852e-03
-2.979648893275295418e-04
-8.141285700634290010e-03
-1.578796488699072548e-02
-2.312539913540114997e-02
-3.004187008918577859e-02
-3.643797505325960251e-02
-4.223138026666754807e-02
-4.737055304614123941e-02
-5.180747747634831951e-02
-5.550831675186612690e-02
-5.845683603325766559e-02
-6.065817024918403189e-02
-6.216697770872701284e-02
-6.302136586596840395e-02
-6.326524373288094916e-02
-6.295250449449488195e-02
-6.214904929002790929e-02
-6.097202646330589226e-02
-5.950722810657203127e-02
-5.781541963992510580e-02
-5.595957697546817544e-02
-5.400027439697917958e-02
-5.204070702571077234e-02
-5.015542990769719656e-02
-4.835445251717315762e-02
-4.665786824108233977e-02
-4.507643300003482539e-02
-4.365115687130659283e-02
-4.242168797034915478e-02
-4.132678164832340184e-02
-4.034317008072580563e-02
-3.944295421506829880e-02
-3.861576837310015664e-02
-3.788601885082862331e-02
-3.715411746551867261e-02
-3.639170878160145201e-02
-3.557525992239822521e-02
-3.468642945598085503e-02
-3.375706604590383852e-02
-3.269643654354284501e-02
-3.150010562531195546e-02
-3.017333509661878146e-02
-2.872250746314639405e-02
-2.715885759816533823e-02
-2.543946135577415321e-02
-2.357165954312773898e-02
-2.157507206608384395e-02
-1.946569840686731764e-02
-1.722513505015967061e-02
-1.482733910032777574e-02
-1.227986502787822495e-02
-9.591332407136493945e-03
-6.766263426706675861e-03
-3.763806632398765915e-03
-5.480628851605613694e-04
2.862318299078518008e-03
6.467690457199299151e-03
1.026687513436665838e-02
1.428884182925024143e-02
1.857003482743267014e-02
2.304820139203082874e-02
2.770162582524383216e-02
3.250138675779318254e-02
3.742539005433342253e-02
4.248331407146980349e-02
4.755076927090323702e-02
5.256159649637622000e-02
5.744438841132972623e-02
6.212259808377166431e-02
6.657302003613047026e-02
7.063823019391446412e-02
7.422752516307842829e-02
7.725600222730466538e-02
7.964381772285183958e-02
8.135069184927073982e-02
8.226999879901292223e-02
8.233434535572928259e-02
8.150142323662354360e-02
7.974453225877703444e-02
7.707121594548344001e-02
7.346544893233003526e-02
6.893266601371900171e-02
6.351096712969567237e-02
5.725595850780320489e-02
5.024892290070528261e-02
4.256554895833510738e-02
3.428473114651661713e-02
2.551413002091787452e-02
1.637108944300574506e-02
6.983481474393704591e-03
-2.524277273325812622e-03
-1.204353984969539285e-02
-2.144770654366287901e-02
-3.061220755263964477e-02
-3.941772352639079380e-02
-4.775365708991700930e-02
-5.553616606147913914e-02
-6.267654319559956555e-02
-6.909716022381950928e-02
-7.473466618954474616e-02
-7.954354624695750275e-02
-8.349797477426626480e-02
-8.658035446974404747e-02
-8.878697988407549535e-02
-9.012916306265050803e-02
-9.064311531592306181e-02
-9.036424257516828540e-02
-8.934030180208332728e-02
-8.763173192548953661e-02
-8.530843812772812007e-02
-8.246763537824436385e-02
-7.918402064822635533e-02
-7.552782075608588386e-02
-7.158396532513391919e-02
-6.743816116480622069e-02
-6.320196365487511236e-02
-5.895944076488728730e-02
-5.474206951827052803e-02
-5.061141882031607725e-02
-4.662320531405172996e-02
-4.285160892150530199e-02
-3.937630137029049515e-02
-3.614402224533653368e-02
-3.316590123074333873e-02
-3.044747662547855546e-02
-2.799961083193194117e-02
-2.590680949522052370e-02
-2.403417662085378242e-02
-2.235340404779413703e-02
-2.083782306505171586e-02
-1.946254393430263407e-02
-1.830098160104660573e-02
-1.722190070983180277e-02
-1.618519743006819125e-02
-1.516960713451687148e-02
-1.416129682998254133e-02
-1.320491265422226237e-02
-1.224888506253993606e-02
-1.126875350251769353e-02
-1.026900280586552638e-02
-9.260082695112728871e-03
-8.264323317618565631e-03
-7.288583213685489830e-03
-6.337860483581827208e-03
-5.425910538693963503e-03
-4.564519251287289109e-03
-3.745000327646374506e-03
-2.963770795237116729e-03
-2.244386999268599414e-03
-1.577481288463427125e-03
-9.451024291047349993e-04
-3.034331455976316955e-04
4.150972254282556118e-04
1.176039922326423820e-03
2.018039203371076173e-03
2.986444355778867729e-03
4.134057201120340877e-03
5.581822958606871138e-03
7.267154703935104279e-03
9.220959222337735822e-03
1.147209979165240284e-02
1.404223740116112423e-02
1.701161998327460970e-02
2.029447196575434598e-02
2.385537945093560430e-02
2.766150723720710997e-02
3.166934387604806306e-02
3.586993239651344728e-02
4.015502247323859270e-02
4.441697548068741785e-02
4.856514544138901268e-02
5.250663948459214497e-02
5.617588700642926064e-02
5.947321436017023039e-02
6.227718438163101083e-02
6.449889004791722891e-02
6.606120146163704798e-02
6.691669141370398810e-02
6.703235127555950967e-02
6.634661305978464818e-02
6.483893792153141988e-02
6.250783499075243665e-02
5.937859545709046200e-02
5.551447499192289220e-02
5.094362829631050860e-02
4.573038988586891618e-02
3.995235791136556719e-02
3.370015040066180745e-02
2.710027667017349956e-02
2.023813579441793159e-02
1.321847595947991949e-02
6.145689806938950742e-03
-8.775210383897558142e-04
-7.739360736703906896e-03
-1.435300813321989388e-02
-2.063985571576104627e-02
-2.653071315397601687e-02
-3.196784938148053423e-02
-3.690182529610319673e-02
-4.129637396350597373e-02
-4.513248398284352286e-02
-4.840382097598214944e-02
-5.111594850303365078e-02
-5.328590091920501481e-02
-5.493522847589643598e-02
-5.609505007661037823e-02
-5.680697076656050087e-02
-5.711857183346441547e-02
-5.708480293796952543e-02
-5.676001892897698103e-02
-5.618799442554190532e-02
-5.542182830855576364e-02
-5.451382543652728146e-02
-5.351847031827523804e-02
-5.250046831183152740e-02
-5.147081215364963241e-02
-5.046116525193048569e-02
-4.949863058047738323e-02
-4.860598551477344348e-02
-4.785838068149819713e-02
-4.720194732712339192e-02
-4.663106351384352366e-02
-4.613787669692739207e-02
-4.571251724689959911e-02
-4.541967570690612355e-02
-4.517877481733100636e-02
-4.494024972128802392e-02
-4.467450238190349282e-02
-4.435547290767609396e-02
-4.403546445338845511e-02
-4.365979277719505419e-02
-4.315523487735839492e-02
-4.249825666490300580e-02
-4.167425275213532815e-02
-4.072839106165839634e-02
-3.967019539437514203e-02
-3.843800140219582467e-02
-3.703644065513314598e-02
-3.547958902717182617e-02
-3.381077474022033125e-02
-3.209021801936254997e-02
-3.029443840853095204e-02
-2.845165705543874560e-02
-2.659301685148632993e-02
-2.475291711471186776e-02
-2.297853567123321963e-02
-2.128234367054482323e-02
-1.968455484476808875e-02
-1.819882797980074476e-02
-1.683096940851443180e-02
-1.555286790810237949e-02
-1.438450485277412323e-02
-1.331003018105101667e-02
-1.230113630828163183e-02
-1.131976584037289180e-02
-1.027668554056400049e-02
-9.158673191863458268e-03
-7.930714123033904411e-03
-6.539658213455049919e-03
-4.930657594043572761e-03
-3.011133220896701143e-03
-7.519250872830320065e-04
1.851905393076785575e-03
4.825532412432961479e-03
8.184833273634877643e-03
1.196082534618966853e-02
1.614946788606700864e-02
2.068133237574110161e-02
2.551100813040849125e-02
3.058100559576289179e-02
3.583683481326693787e-02
4.122505863986021535e-02
4.660480755184507468e-02
5.187248484364211792e-02
5.692223312048396572e-02
6.165329499569390664e-02
6.601063711862900640e-02
6.983825603082394196e-02
7.303917752415950426e-02
7.552911186639807428e-02
7.723953818364917567e-02
7.817194397606958001e-02
7.824102526110296441e-02
7.741642625703454295e-02
7.569367196353141147e-02
7.308934319251547684e-02
6.968299770387667569e-02
6.550180111840217534e-02
6.059236228036782995e-02
5.503102281097520948e-02
4.890736544383614964e-02
4.234936768620613246e-02
3.546061151289088553e-02
2.832574196045240661e-02
2.105115136228147971e-02
1.374277706983701233e-02
6.516296602752149822e-03
-5.215067111628947719e-04
-7.302018399755819122e-03
-1.374789204493488334e-02
-1.979198307445095839e-02
-2.537525345242361632e-02
-3.044544953847577382e-02
-3.498240483032909187e-02
-3.896769066220209105e-02
-4.239466774429472007e-02
-4.526822424074517653e-02
-4.760351621787917847e-02
-4.942843296886647447e-02
-5.077697774081877530e-02
-5.169039270772075867e-02
-5.221636240700649328e-02
-5.241515229793020786e-02
-5.233709263293855746e-02
-5.203803567051918516e-02
-5.157547700391074824e-02
-5.100641068749509066e-02
-5.040324984301114419e-02
-4.980494610218168250e-02
-4.924702384312527881e-02
-4.876799826016874062e-02
-4.840070960734419586e-02
-4.820058752047023942e-02
-4.817749078636480997e-02
-4.830565947798808046e-02
-4.858072249396986481e-02
-4.899242164583587911e-02
-4.955841050384902913e-02
-5.027935749489190198e-02
-5.104978396957000203e-02
-5.182527932823817463e-02
-5.256165289450596273e-02
-5.323887152574237336e-02
-5.389499580120871158e-02
-5.437120689770857940e-02
-5.461633913312782806e-02
-5.458867404552390085e-02
-5.425854636647343965e-02
-5.373266161882728209e-02
-5.286485006592672731e-02
-5.163968571386598483e-02
-5.005630298334881600e-02
-4.812907216432218971e-02
-4.596314192582241775e-02
-4.353403590276680446e-02
-4.086220746338253829e-02
-3.799322464426233004e-02
-3.498045849852794709e-02
-3.190558523214510889e-02
-2.882056623977978863e-02
-2.577082306600455078e-02
-2.281010439538139895e-02
-1.998628627335390096e-02
-1.732626659289472626e-02
-1.485957527320945840e-02
-1.262230908933104426e-02
-1.062507223326457015e-02
-8.863801745359589299e-03
-7.297355817144552705e-03
-5.863812752156520591e-03
-4.569813570611599464e-03
-3.368362024855391795e-03
-2.202068163341592590e-03
-9.923874899158214094e-04
3.957300633178947175e-04
1.961729565185778984e-03
3.766556439222405739e-03
5.867419331841488769e-03
8.316573174989683181e-03
1.122926834160305892e-02
1.456547290778562390e-02
1.832907442123245939e-02
2.251172310106012986e-02
2.708962490894902680e-02
3.206859864830029910e-02
3.735341049692459531e-02
4.285277688215329700e-02
4.847532800804877501e-02
5.411874265345772983e-02
5.970084598819252325e-02
6.508418561001150238e-02
7.012318172124509807e-02
7.469487740136784848e-02
7.868176854272337928e-02
8.199509432564142108e-02
8.453108604192305364e-02
8.616883825124646568e-02
8.683609910943099197e-02
8.648136802459277517e-02
8.508816689988635273e-02
8.266328005383205557e-02
7.917092550858159661e-02
7.464040771625690684e-02
6.912471981843082425e-02
6.270311312064050235e-02
5.550475427845260462e-02
4.758499804171924946e-02
3.906060325498828673e-02
3.006155358908438324e-02
2.072748902794481138e-02
1.123724906109018623e-02
1.702119710958731325e-03
-7.739922853253975929e-03
-1.695110473061903211e-02
-2.579958151883521636e-02
-3.414812466377387806e-02
-4.189521933485081118e-02
-4.895099052577094739e-02
-5.523659907434148170e-02
-6.068991088890268032e-02
-6.526544599488076637e-02
-6.893614883589482822e-02
-7.169455554015807808e-02
-7.355124831501855254e-02
-7.453477343102418717e-02
-7.469630694827297801e-02
-7.409943713723363135e-02
-7.280797410325640096e-02
-7.090444202314674649e-02
-6.848115104207866399e-02
-6.564631949211469086e-02
-6.252414063559166846e-02
-5.919316768316876948e-02
-5.575307795029969121e-02
-5.230065086127139162e-02
-4.893281632107290835e-02
-4.579077499599259332e-02
-4.288819484359639861e-02
-4.028055328312185601e-02
-3.801172390510893645e-02
-3.611478529176223584e-02
-3.469515495956500273e-02
-3.367727746011565937e-02
-3.303270505588742911e-02
-3.273427109739250607e-02
-3.274693992964516215e-02
-3.311281494762140232e-02
-3.371798208781966871e-02
-3.446093101148879623e-02
-3.527706871579225356e-02
-3.610502524554778936e-02
-3.694915657914785850e-02
-3.773060112019457901e-02
-3.833528997320016785e-02
-3.871817623366338029e-02
-3.884721749121401724e-02
-3.873058221959929659e-02
-3.836477816084442327e-02
-3.768621148544883809e-02
-3.670052117389903390e-02
-3.542586765193014853e-02
-3.389282835116494419e-02
-3.214001462046801871e-02
-3.017650432072975161e-02
-2.803909827473182598e-02
-2.576674349299487923e-02
-2.339521560279456125e-02
-2.092514462821720017e-02
-1.841591686729052851e-02
-1.589037908677078462e-02
-1.336306121151293810e-02
-1.083922649314611464e-02
-8.258127586620783722e-03
-5.667044215946199712e-03
-3.064877459071781163e-03
-4.308705669908569069e-04
2.261886627320811027e-03
5.096747133537939817e-03
8.061678638205359293e-03
1.114863412235106085e-02
1.437701908623538125e-02
1.776311472575151096e-02
2.135303903823394106e-02
2.513665469626259058e-02
2.905698610181797065e-02
3.308682248902879153e-02
3.719079869150716117e-02
4.134381476060542543e-02
4.550763962963381287e-02
4.957266706038269966e-02
5.346230264933127252e-02
5.709735538548637440e-02
6.040585173042733319e-02
6.334113541538866077e-02
6.578475697969990432e-02
6.766034499534070989e-02
6.890083136482369475e-02
6.945163319843378202e-02
6.931336422165026989e-02
6.841689922065147256e-02
6.674510104389205778e-02
6.429841508122968730e-02
6.109494906035239231e-02
5.720290921603462392e-02
5.264391213174211825e-02
4.747071175701984835e-02
4.175752540811410174e-02
3.558994469669040511e-02
2.908585360487720567e-02
2.232908362105741340e-02
1.540485680356414033e-02
8.415042528451373988e-03
1.460751429917236943e-03
-5.347421332709347691e-03
-1.192222914263180861e-02
-1.820146483958821546e-02
-2.411422255425370656e-02
-2.959931188956944556e-02
-3.460210992009807307e-02
-3.908117263330828511e-02
-4.302672980061507391e-02
-4.642750473492452540e-02
-4.928309164597406700e-02
-5.160371458865378735e-02
-5.340992398923705142e-02
-5.473150066393099589e-02
-5.560398044047113603e-02
-5.606871696395630822e-02
-5.617211873575934239e-02
-5.598531077483839824e-02
-5.553852810504016774e-02
-5.487730710482584262e-02
-5.404743834168489885e-02
-5.309423924084333973e-02
-5.210335830845899685e-02
-5.108516654111406458e-02
-5.005427007093984221e-02
-4.903184102116053128e-02
-4.803630130776553181e-02
-4.713706240806082859e-02
-4.632895336499825295e-02
-4.557401957653364755e-02
-4.486357274804408241e-02
-4.418800866861887638e-02
-4.358630312845867411e-02
-4.306325662563054851e-02
-4.253555461941963683e-02
-4.198226356297767720e-02
-4.138619630524979776e-02
-4.076283518045260845e-02
-4.014980590618801026e-02
-3.945074516077649862e-02
-3.865668001934927794e-02
-3.776627414388258192e-02
-3.679043820113628294e-02
-3.579311643203005044e-02
-3.470223671868472026e-02
-3.352929332277088115e-02
-3.229246726397966283e-02
-3.101140766000580820e-02
-2.972510460751339595e-02
-2.841181303991409390e-02
-2.708353056788420643e-02
-2.575573509933620428e-02
-2.443904013470557177e-02
-2.312012110319013394e-02
-2.179271852054530390e-02
-2.045252263677187210e-02
-1.908691293502510697e-02
-1.767597262755952331e-02
-1.616140062704703867e-02
-1.451184105189231091e-02
-1.271556456863659479e-02
-1.073750261829479503e-02
-8.540779826259500135e-03
-6.060881560567049978e-03
-3.249782508952589813e-03
-1.273527737762278345e-04
3.320167920569593381e-03
7.098816060294476857e-03
1.122177243329403398e-02
1.571341851655150973e-02
2.048014069164947465e-02
2.547101472599391098e-02
3.062404452625086537e-02
3.587094586277492919e-02
4.119444409988427119e-02
4.642985915722729062e-02
5.147019788759998188e-02
5.620663970808100623e-02
6.053251234274806963e-02
6.440302952185428254e-02
6.767065478622458219e-02
7.023261928411858590e-02
7.200829539665296042e-02
7.293443139520935925e-02
7.300502290402643979e-02
7.217165435114908378e-02
7.040956218178220927e-02
6.773269907863035955e-02
6.417698966076065825e-02
5.981769928219248661e-02
5.472133691308659481e-02
4.895833911212638806e-02
4.263342488187102375e-02
3.586223819678473895e-02
2.877066308050348076e-02
2.147557142240993228e-02
1.408685808411263424e-02
6.728061758013936799e-03
-4.835460014367878173e-04
-7.445538612219189216e-03
-1.408772965113078146e-02
-2.033568138362620847e-02
-2.612312284274090693e-02
-3.139871240281976589e-02
-3.613220291529244121e-02
-4.035507054854059472e-02
-4.405654933758548081e-02
-4.724583142415160475e-02
-4.994127235756084388e-02
-5.217495752774998358e-02
-5.404190396255070111e-02
-5.557997755584144495e-02
-5.682413474466341957e-02
-5.781233201389633647e-02
-5.858368767508919522e-02
-5.922921875097450495e-02
-5.978838157307624079e-02
-6.026263626192936845e-02
-6.066003762069585581e-02
-6.098296239207148806e-02
-6.127524138896305733e-02
-6.155432517427469191e-02
-6.176518073653813196e-02
-6.187911854842385873e-02
-6.186421807631517500e-02
-6.172052310989813162e-02
-6.146071115093771492e-02
-6.099247612844747174e-02
-6.028172905800062431e-02
-5.929840013876705451e-02
-5.803083544579814429e-02
-5.651355417845333601e-02
-5.465495105061378422e-02
-5.244978370381594979e-02
-4.990281652745006541e-02
-4.702364618092332721e-02
-4.385711370606016485e-02
-4.035145703000372203e-02
-3.653820226744740329e-02
-3.246242014223046923e-02
-2.816856831063343017e-02
-2.366926445415870606e-02
-1.896724268444325082e-02
-1.411722658632530089e-02
-9.184885479269065678e-03
-4.230030438984381906e-03
7.657681848177878142e-04
5.799600942831323672e-03
1.079859811095847111e-02
1.570372610771130287e-02
2.046376842111002556e-02
2.511284996381824008e-02
2.969559747248276538e-02
3.412667239803145874e-02
3.837087376090164009e-02
4.239871537612811131e-02
4.623883036155199827e-02
4.998601741578505286e-02
5.354898458761120361e-02
5.691344020004376197e-02
6.006586854077173437e-02
6.301206631838407457e-02
6.584839769634409645e-02
6.848057076643443430e-02
7.089431752217295601e-02
7.307181866588846608e-02
7.499149012232123046e-02
7.667659701313267462e-02
7.803915505476119452e-02
7.904047343436093609e-02
7.964336639625260728e-02
7.980260566399322020e-02
7.945698555000468843e-02
7.851737481063117419e-02
7.693001718333072891e-02
7.465191469150739279e-02
7.163878447455343523e-02
6.781179902646367053e-02
6.308423818531866401e-02
5.743592107452242385e-02
5.086302561448650256e-02
4.337381945540757372e-02
3.495285083337699300e-02
2.556259480572761755e-02
1.526770363399208158e-02
4.149590846776343364e-03
-7.689138645061699244e-03
-2.015253931150787908e-02
-3.318890310252826242e-02
-4.663473940268098028e-02
-6.032069719743109182e-02
-7.406084387207317876e-02
-8.766995139535901926e-02
-1.010251247356258042e-01
-1.139104561302963226e-01
-1.261287276813373159e-01
-1.374842222707182426e-01
-1.477928561760260273e-01
-1.569315761607986415e-01
-1.647298422740770540e-01
-1.710523416139744790e-01
-1.757897344031428832e-01
-1.788581072314992526e-01
-1.802276737502592485e-01
-1.798494401661930031e-01
-1.777138092461287011e-01
-1.738530157425968170e-01
-1.683271058608154791e-01
-1.612414888448350514e-01
-1.526816928419255925e-01
-1.427529194922877442e-01
-1.316059773182726711e-01
-1.194082461372142079e-01
-1.063551887536089979e-01
-9.261895265569639046e-02
-7.834038348473060243e-02
-6.370802650576820603e-02
-4.891093202013285790e-02
-3.414346045798624663e-02
-1.959131399969063145e-02
-5.343607189938256313e-03
8.452327731982112874e-03
2.165782531785693729e-02
3.414789984292051356e-02
4.577569158477323708e-02
5.654101676300903739e-02
6.636965702959177205e-02
7.519483301232318673e-02
8.296421535430936745e-02
8.961307117306951953e-02
9.518438057415301579e-02
9.967487120817958290e-02
1.030766056349570747e-01
1.053917398298388486e-01
1.066330331811092824e-01
1.068588825726469738e-01
1.061131888533797252e-01
1.044361143174920015e-01
1.018759459144829294e-01
9.851091892429827968e-02
9.441955430397253046e-02
8.966761911173035116e-02
8.434199035423181612e-02
7.853639419385577414e-02
7.237705345337389073e-02
6.597770270588226849e-02
5.938737954829490656e-02
5.272095052830964856e-02
4.609589282534189841e-02
3.964239689873585992e-02
3.350187123358775582e-02
2.764968864891149264e-02
2.217853131037825221e-02
1.717858470681840957e-02
1.272277818289244480e-02
8.942698927367077888e-03
5.701824967597938706e-03
3.019107449150995950e-03
9.120094254597109484e-04
-6.198744257169238117e-04
-1.544701047603905079e-03
-2.030611053018108007e-03
-2.155281225025953810e-03
-1.971316183117785559e-03
-1.536788021909867887e-03
-8.912976131987765741e-04
-1.759762438254125483e-04
4.981325297925501966e-04
1.059727776037654168e-03
1.447526339567541814e-03
1.616313016748513465e-03
1.506881273782460090e-03
1.058452531357556570e-03
2.377045436848940207e-04
-9.726302918918678167e-04
-2.573841295055833388e-03
-4.534312343185017274e-03
-6.819694525141218981e-03
-9.406595397987030718e-03
-1.226294344674775869e-02
-1.534378837252284994e-02
-1.857016822058289024e-02
-2.182752323803028444e-02
-2.506079697518634117e-02
-2.822095221336524268e-02
-3.125247096004904468e-02
-3.408731932913797169e-02
-3.658862849922538130e-02
-3.871098753795441938e-02
-4.042949891200362661e-02
-4.172328625601806618e-02
-4.256412254757846458e-02
-4.286426011234019395e-02
-4.261586648968716112e-02
-4.184306756944167205e-02
-4.058020830406493251e-02
-3.885612113739573409e-02
-3.665780490592429608e-02
-3.402691212397795234e-02
-3.103524157604102204e-02
-2.776447482510790293e-02
-2.429183874234555271e-02
-2.066605635044004366e-02
-1.696299746278374238e-02
-1.327457541452702582e-02
-9.695670885013461804e-03
-6.317126196867825158e-03
-3.211918233213174705e-03
-4.469974680959380720e-04
1.909626335720509757e-03
3.796865765939580820e-03
5.160277205489982241e-03
5.938743871658892434e-03
6.126072428400573464e-03
5.714983844511035624e-03
4.711046874982669636e-03
3.128769921092176484e-03
9.397102679077323079e-04
-1.788870617407422627e-03
-4.997384427702226614e-03
-8.619749046228147513e-03
-1.258729712526902855e-02
-1.689039668314140652e-02
-2.144238527911269954e-02
-2.614490300344948781e-02
-3.091328338923566080e-02
-3.566923673829586194e-02
-4.039263643591962244e-02
-4.503688470281586032e-02
-4.951236590983724983e-02
-5.375861671890284216e-02
-5.772515809095889877e-02
-6.140393292437425210e-02
-6.480917908589589604e-02
-6.788724813999486019e-02
-7.061097498230234359e-02
-7.295807849127328160e-02
-7.492702046254254289e-02
-7.656120068428606817e-02
-7.783608998627997155e-02
-7.873552188543053720e-02
-7.924018227396750769e-02
-7.933587622037735487e-02
-7.904822816928797069e-02
-7.836459235326850847e-02
-7.726256573579792786e-02
-7.571466906878959735e-02
-7.369601975722581133e-02
-7.120226869340706699e-02
-6.823503032254746303e-02
-6.478085360103680301e-02
-6.082753297815468585e-02
-5.636943225442054423e-02
-5.141130361795915454e-02
-4.598109301246106062e-02
-4.010817673691437907e-02
-3.382809706465265270e-02
-2.718482656486933061e-02
-2.022487201047157290e-02
-1.300743251627957398e-02
-5.610501706017361270e-03
1.884019460688085568e-03
9.391380800527260320e-03
1.683654649317749968e-02
2.415767987055746080e-02
3.126364979247143322e-02
3.806964541806068247e-02
4.449709262718236358e-02
5.048778370035540003e-02
5.602820013670669480e-02
6.105487795951145685e-02
6.552677819704635920e-02
6.941296601900018293e-02
7.270007212472048841e-02
7.545481434804968135e-02
7.764405469641644242e-02
7.927792906150141206e-02
8.037236655844012811e-02
8.095268414762929465e-02
8.112002116477071145e-02
8.086804044899681410e-02
8.021621871276296556e-02
7.919436556976652830e-02
7.783270149123944215e-02
7.621347835644606827e-02
7.433503101057992168e-02
7.219212299262028898e-02
6.980382919996702684e-02
6.718706349979308712e-02
6.438493227645164518e-02
6.139152077547690295e-02
5.818031199499746481e-02
5.476492369334145377e-02
5.116066403080302832e-02
4.739059608991965517e-02
4.345083995578997993e-02
3.931916742381309782e-02
3.502019750225809913e-02
3.058416900290506640e-02
2.603923540328632880e-02
2.138712167365197647e-02
1.662279766794317118e-02
1.178087816619701952e-02
6.901399561164181864e-03
2.018979838008071528e-03
-2.866795316638554893e-03
-7.751023715884482017e-03
-1.260693881976436212e-02
-1.740492019076758656e-02
-2.211994258119140411e-02
-2.675694522260805772e-02
-3.130970973548100056e-02
-3.576485727428278111e-02
-4.011032307852056139e-02
-4.433371065968551988e-02
-4.843648866541953174e-02
-5.239683968817156201e-02
-5.619565228198585005e-02
-5.982233983212904144e-02
-6.326158211495616635e-02
-6.649797257988751542e-02
-6.947787205576944070e-02
-7.215222636154378089e-02
-7.449557911473297933e-02
-7.648043321154043839e-02
-7.807615626437283685e-02
-7.921394575350543255e-02
-7.981746879105924841e-02
-7.985793961999398949e-02
-7.931490765685891842e-02
-7.817068112263259039e-02
-7.639437577047100691e-02
-7.391753473186762902e-02
-7.074503887228120180e-02
-6.690077643816716435e-02
-6.241787588889678023e-02
-5.734920935739151043e-02
-5.167779043580601056e-02
-4.546773199183557629e-02
-3.880636345457837144e-02
-3.179217500334846624e-02
-2.454844011960976430e-02
-1.713060006749921732e-02
-9.641943332936274078e-03
-2.207981916469648788e-03
5.042981617607635372e-03
1.197060441379366527e-02
1.848800811783372564e-02
2.450404028110856475e-02
2.991354016022197693e-02
3.462047934892404505e-02
3.853641469720434781e-02
4.160833794431277599e-02
4.380578055776772339e-02
4.509626687032745884e-02
4.546307407249844390e-02
4.490829874522307003e-02
4.345840276502819371e-02
4.115449758367046434e-02
3.804913438849743396e-02
3.420828240444149376e-02
2.971249502506890378e-02
2.466714912919680536e-02
1.915292302886582518e-02
1.327609907753542554e-02
7.148094436906322555e-03
8.821578325874743914e-04
-5.386637176107461622e-03
-1.158321205074056177e-02
-1.760335979399380024e-02
-2.334308597424798043e-02
-2.870736852172732501e-02
-3.359692685748751073e-02
-3.797835391915278802e-02
-4.180026381866409901e-02
-4.500787292321801331e-02
-4.756073580686637214e-02
-4.943113125015827919e-02
-5.065179293033632291e-02
-5.124332818791706157e-02
-5.121404171831434732e-02
-5.058392245066536258e-02
-4.939414742185704171e-02
-4.773883807287550296e-02
-4.569144423966123303e-02
-4.330522130667897179e-02
-4.063550794631407004e-02
-3.775452544060504956e-02
-3.478505827576101883e-02
-3.180323624213049483e-02
-2.886764311319774470e-02
-2.602799031072417987e-02
-2.333621323590065119e-02
-2.090072873673278625e-02
-1.874544263268783720e-02
-1.689659716809922135e-02
-1.536690417021699742e-02
-1.416148604353064180e-02
-1.332775569196675142e-02
-1.282991937811051378e-02
-1.264335904003721991e-02
-1.274129636979245625e-02
-1.308923770302938480e-02
-1.367026352371074338e-02
-1.441159660042248304e-02
-1.525437938993749742e-02
-1.615543500642497438e-02
-1.706993730900499204e-02
-1.795222133048886282e-02
-1.872383898543844571e-02
-1.932794933766313755e-02
-1.973145571067404930e-02
-1.990594501574861203e-02
-1.981432162624615495e-02
-1.939438145640594649e-02
-1.862118449149283844e-02
-1.748397189377430549e-02
-1.597931965072817845e-02
-1.409727162120734574e-02
-1.179581964513974103e-02
-9.097380951730153417e-03
-6.015222316041552927e-03
-2.569650457707401206e-03
1.216215138543856600e-03
5.367473683904003950e-03
9.806868518085196107e-03
1.449288048528155071e-02
1.937834163716459224e-02
2.441057595530962687e-02
2.957179706061398988e-02
3.475708658609328455e-02
3.988434688487006718e-02
4.487786376450705189e-02
4.965883816080888385e-02
5.417271119768664323e-02
5.831085576788163499e-02
6.196933134918478775e-02
6.506564062084149724e-02
6.752331000944372663e-02
6.928804014202416539e-02
7.029210820187614672e-02
7.046221927202228619e-02
6.975821899350631572e-02
6.815654230343401454e-02
6.565786916087679170e-02
6.228039686868238473e-02
5.803470544445320928e-02
5.296490776443488896e-02
4.713389182817073753e-02
4.062494746822075536e-02
3.354810247712002730e-02
2.600001941511159015e-02
1.809873891099397086e-02
9.970253474180935938e-03
1.746310796862143161e-03
-6.424197576964678705e-03
-1.442100168754164441e-02
-2.211972745820880992e-02
-2.940438510570482847e-02
-3.617023324775692911e-02
-4.231634233430512509e-02
-4.777571943145669797e-02
-5.249365306183182561e-02
-5.643100835857250974e-02
-5.956795636475083200e-02
-6.190260767854866703e-02
-6.345868591946418613e-02
-6.427076451995730744e-02
-6.438409705137068673e-02
-6.385698266997151540e-02
-6.276780288041983180e-02
-6.120587593134781124e-02
-5.924516488628621402e-02
-5.696436610300107534e-02
-5.444191155258452930e-02
-5.176899373823350831e-02
-4.904966314141945283e-02
-4.632248519455853253e-02
-4.364055492537827208e-02
-4.104842347800715524e-02
-3.859254527471684543e-02
-3.636469153852928127e-02
-3.432619742632612991e-02
-3.248470619582888991e-02
-3.084158308406716870e-02
-2.939483991088032502e-02
-2.821722742587334451e-02
-2.722041650544126251e-02
-2.638158146053029215e-02
-2.568559855576068793e-02
-2.511840665679601625e-02
-2.472386955046738596e-02
-2.442929232916341703e-02
-2.419868292984632061e-02
-2.402421177708825156e-02
-2.390042077453320701e-02
-2.384946416758370463e-02
-2.382785438226457664e-02
-2.379834120431695635e-02
-2.375821536581751089e-02
-2.370532133047376783e-02
-2.363647392627386129e-02
-2.351688685140551627e-02
-2.331333157556083127e-02
-2.301376214774513568e-02
-2.260585528671443106e-02
-2.206466293325445166e-02
-2.133912388429536067e-02
-2.041692786732325626e-02
-1.927773732951199720e-02
-1.790329739036009352e-02
-1.627113665658302954e-02
-1.431344263604900600e-02
-1.206668514983338762e-02
-9.525533365247652526e-03
-6.689715717013681659e-03
-3.564864035019278329e-03
-1.100915554465252411e-04
3.594229200422007983e-03
7.508300279238624281e-03
1.159467032421219318e-02
1.580924171644461362e-02
2.013735955503785646e-02
2.448102799985318878e-02
2.875555876028419028e-02
3.289369953125106244e-02
3.682784251715610913e-02
4.051105381940710987e-02
4.385814765463565135e-02
4.677758979468717854e-02
4.920708265235632789e-02
5.109262985736778145e-02
5.239969902421325737e-02
5.309139530626596354e-02
5.311372260589185962e-02
5.244722563993925446e-02
5.108578494508761447e-02
4.904136516330713513e-02
4.634560266321013228e-02
4.300383102856129847e-02
3.905517754004031450e-02
3.455074850593001928e-02
2.955318039883695486e-02
2.415365974667378623e-02
1.840616249733744922e-02
1.239309354086237311e-02
6.202245583445568228e-03
-7.521728752786158156e-05
-6.332457997553473522e-03
-1.249370279889808893e-02
-1.847343412560402409e-02
-2.418670158924264915e-02
-2.955436097772695322e-02
-3.449907316930116846e-02
-3.896791000478987133e-02
-4.291225142717598057e-02
-4.628911748452724934e-02
-4.906771555631841281e-02
-5.123315517461087681e-02
-5.279065896935197094e-02
-5.374827872106339999e-02
-5.412234708733999061e-02
-5.394101295112068567e-02
-5.325370903763158859e-02
-5.213141567538596283e-02
-5.062137114787917253e-02
-4.878168971188122371e-02
-4.667456889105006668e-02
-4.437655181996479764e-02
-4.200214247025517433e-02
-3.958635846478190251e-02
-3.718565044913575007e-02
-3.485067324086110752e-02
-3.262993230168444170e-02
-3.064503140489427055e-02
-2.886779965912122242e-02
-2.731464160097757041e-02
-2.599293180101949416e-02
-2.490399669766238042e-02
-2.411349739020888366e-02
-2.355811296784409564e-02
-2.319811453394806516e-02
-2.300465146357130036e-02
-2.294649236966913447e-02
-2.303704324797185843e-02
-2.321169537832693669e-02
-2.340708685319271842e-02
-2.359272130295599762e-02
-2.374202693011964044e-02
-2.384905222909202566e-02
-2.387534787140521003e-02
-2.377533569305009462e-02
-2.354161771834206371e-02
-2.317266403993533883e-02
-2.266711414143925823e-02
-2.200460609166105669e-02
-2.117421380047064539e-02
-2.018400365092170440e-02
-1.904435235139097932e-02
-1.775661829506164011e-02
-1.628394742986984806e-02
-1.464328579633979860e-02
-1.283614214373616016e-02
-1.086303588461399842e-02
-8.719349623658941700e-03
-6.338189771348527735e-03
-3.755021113689009475e-03
-9.670803694175620149e-04
2.029754894473462246e-03
5.238460552627374756e-03
8.708691438955164926e-03
1.239636490896384169e-02
1.627028880832881094e-02
2.030712346189778375e-02
2.447618045126320058e-02
2.877202314660720628e-02
3.312564737935815712e-02
3.745057756983558722e-02
4.167803176410177918e-02
4.573436932838119418e-02
4.956057089901858698e-02
5.307466929298729208e-02
5.616315827770341357e-02
5.874271955847478605e-02
6.073669923684098942e-02
6.208551319095861193e-02
6.274390298044121850e-02
6.263689718239762172e-02
6.172899912983220022e-02
6.000199046811203335e-02
5.745836353597159191e-02
5.413756454615286512e-02
5.004902834963225605e-02
4.524186483199729714e-02
3.978183015674756351e-02
3.375009201455830832e-02
2.726323074983310474e-02
2.040372404213345800e-02
1.327757928714306049e-02
5.997499469563681226e-03
-1.321830813247063842e-03
-8.549917066019478706e-03
-1.559029187325761817e-02
-2.234892821883373987e-02
-2.873458637634522528e-02
-3.466675814827220592e-02
-4.006793094849023934e-02
-4.488892848597145907e-02
-4.909864316942361140e-02
-5.267182414298156312e-02
-5.559717618994437088e-02
-5.787607714274464743e-02
-5.952725789177994165e-02
-6.058062517736828578e-02
-6.107064181252922636e-02
-6.103990472541223622e-02
-6.054318270699558108e-02
-5.965189112179600933e-02
-5.841212598981867371e-02
-5.687881401882056986e-02
-5.510682233141648428e-02
-5.315523120486762704e-02
-5.112816708207441191e-02
-4.903594532605069778e-02
-4.691764462290891335e-02
-4.480759263815754095e-02
-4.273909380396865437e-02
-4.081837412976097035e-02
-3.901619031653462411e-02
-3.733386512309916361e-02
-3.577735512994516254e-02
-3.435200734234171438e-02
-3.313831112646374588e-02
-3.209898359714949412e-02
-3.119397957938161228e-02
-3.041129426222628773e-02
-2.973977037263889761e-02
-2.922457852469321007e-02
-2.884393920563461944e-02
-2.853147296446420164e-02
-2.827134544370249122e-02
-2.804995689017840757e-02
-2.787964130140838104e-02
-2.775446047330029642e-02
-2.760827006026373223e-02
-2.742981557326007805e-02
-2.721096023369579120e-02
-2.694534073706585445e-02
-2.661817759875412942e-02
-2.619247695619861607e-02
-2.566161507573344255e-02
-2.502163897236696355e-02
-2.426428723071627491e-02
-2.333509332554163651e-02
-2.224306249467992297e-02
-2.098081567326263996e-02
-1.954184902819142144e-02
-1.791584870885105235e-02
-1.602735872825613098e-02
-1.390050934375665695e-02
-1.153597829189034404e-02
-8.924474332650738501e-03
-6.055927434303320749e-03
-2.869534777044265711e-03
6.145275744905871751e-04
4.369405108221710923e-03
8.390003190490699647e-03
1.266667921938701216e-02
1.721408052516974763e-02
2.199903281122158813e-02
2.694916099332871767e-02
3.201930145150836543e-02
3.715678524240014630e-02
4.231415317243082674e-02
4.742609205779194093e-02
5.237341516736528785e-02
5.706791123206748223e-02
6.141904026694141455e-02
6.533881883484718434e-02
6.874965668991603329e-02
7.152361264701165289e-02
7.357212280007408012e-02
7.481719365601582905e-02
7.519264954149326718e-02
7.466884216010291619e-02
7.317664514480551330e-02
7.069430359304973432e-02
6.722235661404310503e-02
6.278322421290113975e-02
5.744018044590707556e-02
5.123781692076628813e-02
4.425305671911548833e-02
3.658786153037070499e-02
2.836167628438786975e-02
1.972425222560673930e-02
1.080980499002161255e-02
1.756772022625975940e-03
-7.282585063764832230e-03
-1.615591789341480275e-02
-2.470394191568559342e-02
-3.278756110609495900e-02
-4.029529428985639816e-02
-4.711653179071094433e-02
-5.315788045176673970e-02
-5.834093727972339272e-02
-6.260936601122077394e-02
-6.594752817436798364e-02
-6.834771472050471530e-02
-6.982329630940167786e-02
-7.040871173404784911e-02
-7.016152193614544341e-02
-6.915410475522092149e-02
-6.746668591864307674e-02
-6.518926238340344570e-02
-6.242093645053761741e-02
-5.929530414413118622e-02
-5.589949804291503843e-02
-5.232936004078602571e-02
-4.867642138826741571e-02
-4.502749097507371262e-02
-4.151064125056006665e-02
-3.817091240370329430e-02
-3.504640996967332833e-02
-3.217544559494904532e-02
-2.958684456982864017e-02
-2.735359351132989059e-02
-2.547204758199306598e-02
-2.390181711487236391e-02
-2.262919691674463579e-02
-2.163624734909101732e-02
-2.094413307740038838e-02
-2.053766262356097883e-02
-2.032654148531683191e-02
-2.028153761660458909e-02
-2.037689476019220042e-02
-2.061047526253991652e-02
-2.098803586110947056e-02
-2.141062326422289719e-02
-2.185992477523458766e-02
-2.232419596664702785e-02
-2.279641347697027726e-02
-2.329245248973539975e-02
-2.373316885225361383e-02
-2.410770409098681941e-02
-2.440988461788679009e-02
-2.463073545896741351e-02
-2.474967980784459343e-02
-2.472810678185556957e-02
-2.454803537240074496e-02
-2.419427014601215759e-02
-2.364902491211368085e-02
-2.285699869800626727e-02
-2.180524945254497943e-02
-2.048377249960435520e-02
-1.887434787233440575e-02
-1.696052576032048426e-02
-1.469112592150290109e-02
-1.206874651550649338e-02
-9.123229828481781503e-03
-5.858386685943741193e-03
-2.283714303658074436e-03
1.608949375899896422e-03
5.796457909692277755e-03
1.019334749332624288e-02
1.475527500730656333e-02
1.943322782562947187e-02
2.418249479121555023e-02
2.895974317235775614e-02
3.364253662702262893e-02
3.815591290173211275e-02
4.242640107092746082e-02
4.638259436028390609e-02
4.998237469848939435e-02
5.311017219195528910e-02
5.569695493873993292e-02
5.768283442311073622e-02
5.901770174127215357e-02
5.968631378982900554e-02
5.963417867930046606e-02
5.883511812793414814e-02
5.728052377244021581e-02
5.497657260962478948e-02
5.196404477520887716e-02
4.826824681832769803e-02
4.392442802159669119e-02
3.898798284596680791e-02
3.352668685938245408e-02
2.763529024507142828e-02
2.140403355757499598e-02
1.491230314081053512e-02
8.256500585309162199e-03
1.536554882888256299e-03
-5.135645810833189967e-03
-1.164893290183319219e-02
-1.792529310509056659e-02
-2.387560014448421655e-02
-2.941790869539914755e-02
-3.447490337139674788e-02
-3.897003464217419638e-02
-4.287371445533772613e-02
-4.615018046842771920e-02
-4.877713709762594718e-02
-5.074682978902506775e-02
-5.205890615700189961e-02
-5.274821535048659915e-02
-5.284687466112399784e-02
-5.239784544257880539e-02
-5.145594324313612633e-02
-5.010158434844543679e-02
-4.840590605320977541e-02
-4.643853045259500184e-02
-4.427146162420990405e-02
-4.197901126464870236e-02
-3.967150726511547987e-02
-3.741840954007472769e-02
-3.526369936255785431e-02
-3.325567229570174088e-02
-3.143588908079936184e-02
-2.988203807327755729e-02
-2.863586232166693418e-02
-2.766751963447708351e-02
-2.697300330195418622e-02
-2.654049943618568691e-02
-2.638573789768794420e-02
-2.652960410193713411e-02
-2.687164639569606175e-02
-2.737200241560151098e-02
-2.799037172944498358e-02
-2.870140548802651431e-02
-2.953144860444953737e-02
-3.035868989278042371e-02
-3.114780796260136278e-02
-3.187124038482786609e-02
-3.250705441705749321e-02
-3.308876600021475739e-02
-3.353219954466857972e-02
-3.382606074824972414e-02
-3.397001937614221867e-02
-3.396632507483025865e-02
-3.382362639499411627e-02
-3.351535931544899483e-02
-3.303915712344572542e-02
-3.240009174366598882e-02
-3.160020211229375153e-02
-3.061663252935546004e-02
-2.943167260962284426e-02
-2.804108882445238357e-02
-2.643204562171311625e-02
-2.458808553149575277e-02
-2.246435119438033173e-02
-2.002747680500249067e-02
-1.728429654610456889e-02
-1.421705891384048709e-02
-1.081091999914009921e-02
-7.039377090780342752e-03
-2.876054314274761013e-03
1.625266859552713938e-03
6.444940717521729229e-03
1.155390340073981364e-02
1.691716040022711240e-02
2.251835270126209196e-02
2.823799577382631043e-02
3.399628777321506146e-02
3.970664722703096811e-02
4.527618358700999379e-02
5.064234356390266006e-02
5.566180203164191459e-02
6.022560261179901037e-02
6.423322940721787333e-02
6.759227577199772297e-02
7.024680618241782581e-02
7.210635554932698366e-02
7.310137569512129008e-02
7.318821483750609369e-02
7.234305877154889597e-02
7.058443990087404085e-02
6.792507087782523323e-02
6.438204325623703150e-02
6.000522512714272921e-02
5.486307499045874753e-02
4.905809959000420606e-02
4.269972981074371399e-02
3.587247659306191244e-02
2.869037358901798535e-02
2.127319506409059563e-02
1.375340186033572817e-02
6.274187839080298812e-03
-1.078064775412282232e-03
-8.194589149728922356e-03
-1.497478345468805996e-02
-2.132648816377828715e-02
-2.714819178187345694e-02
-3.240872533341361550e-02
-3.706014673872921883e-02
-4.106818267818331675e-02
-4.441392945473700976e-02
-4.708513294408226552e-02
-4.911120459993612714e-02
-5.051563631192683423e-02
-5.132952884368382346e-02
-5.159503716446122573e-02
-5.137457292743670412e-02
-5.073645831090724950e-02
-4.974043661814535333e-02
-4.844767271793722074e-02
-4.692199923645851145e-02
-4.525248332562865211e-02
-4.351624133304512337e-02
-4.175841775146812984e-02
-4.003007179387828990e-02
-3.837788798958873676e-02
-3.687112236986948843e-02
-3.557477302093303706e-02
-3.447924791033119690e-02
-3.360143511428910490e-02
-3.295138349334711392e-02
-3.255157649688096566e-02
-3.245181933553030473e-02
-3.257284681875376176e-02
-3.289561923555234246e-02
-3.339749811505337423e-02
-3.405455232288191747e-02
-3.490894624620968778e-02
-3.582993959000355111e-02
-3.677931994796116572e-02
-3.772272878965531040e-02
-3.862558678457871791e-02
-3.949661619018043912e-02
-4.023046052906045084e-02
-4.078423332225498965e-02
-4.113580711171098414e-02
-4.126677664800307288e-02
-4.116936947110636652e-02
-4.078976374247797465e-02
-4.010618564616268839e-02
-3.911988084858124270e-02
-3.783711484171770056e-02
-3.625367329603418343e-02
-3.435512114317855470e-02
-3.215428715017251693e-02
-2.966902762342274111e-02
-2.692017510526426016e-02
-2.391316229104985258e-02
-2.064537132121705559e-02
-1.716071101801021348e-02
-1.348141141560952119e-02
-9.630162430510362873e-03
-5.621723783614375122e-03
-1.450394232868852488e-03
2.816828041117078879e-03
7.153934067259381038e-03
1.153484944292535938e-02
1.593083942727428412e-02
2.034056206466576186e-02
2.467895240752776553e-02
2.890538024028580649e-02
3.297952326830885100e-02
3.685745861783814442e-02
4.050560878939621356e-02
4.384171842907519379e-02
4.680646544536515991e-02
4.934906043068197634e-02
5.142002270631548799e-02
5.297734506364112222e-02
5.395763591025615202e-02
5.431317481744304260e-02
5.401392332108877897e-02
5.303988244470698304e-02
5.138540117656737599e-02
4.904095513021587693e-02
4.600906334692220906e-02
4.231778657750447092e-02
3.801016527755462365e-02
3.314743229687431431e-02
2.779703488481441442e-02
2.202010815027368243e-02
1.590688532440299660e-02
9.557613896874886383e-03
3.082050664471454662e-03
-3.396389303540820609e-03
-9.798312274384079687e-03
-1.601594175535010767e-02
-2.194384282074742301e-02
-2.748333482611569137e-02
-3.252246114367595559e-02
-3.702006264107214617e-02
-4.091516646860340889e-02
-4.415748786352408084e-02
-4.671222563318849774e-02
-4.855015497616412684e-02
-4.969104573767489652e-02
-5.015315506542778606e-02
-4.996135455871549697e-02
-4.915374156472362976e-02
-4.778674543874455310e-02
-4.593282347421938361e-02
-4.365794093423037980e-02
-4.102960613965916242e-02
-3.811845328793315307e-02
-3.501475439071305429e-02
-3.180889929017137463e-02
-2.855242206459655818e-02
-2.530467184253032409e-02
-2.211960042772714852e-02
-1.906341544451455733e-02
-1.621595005425174874e-02
-1.357297859392072800e-02
-1.115978982378455428e-02
-8.995542747465714792e-03
-7.101356872488105709e-03
-5.541128551962331075e-03
-4.257026921025181161e-03
-3.248486419293564360e-03
-2.513792184126636617e-03
-2.048817055994908015e-03
-1.890568510574653326e-03
-1.968984035202186664e-03
-2.268939957235534093e-03
-2.783461747380849144e-03
-3.502813238797801432e-03
-4.426328219988387089e-03
-5.494459426891093803e-03
-6.678315832803962716e-03
-7.962652677344118912e-03
-9.328211744811206949e-03
-1.073971419874316172e-02
-1.213380350634212478e-02
-1.347122262991964046e-02
-1.472025795203786916e-02
-1.584720537236448956e-02
-1.679609038112305636e-02
-1.749428302810345642e-02
-1.791316124984368777e-02
-1.801720724699445303e-02
-1.777526913346999873e-02
-1.714608756545699803e-02
-1.606842243799842113e-02
-1.456225011192354563e-02
-1.262276985147933739e-02
-1.025516253884480034e-02
-7.471773054514129452e-03
-4.253583807934383475e-03
-6.924145952032657175e-04
3.160604218364716084e-03
7.245947120568722519e-03
1.149484945864979665e-02
1.586184917360543289e-02
2.022093601045540923e-02
2.447504500315340198e-02
2.853329722182813832e-02
3.230574000575659604e-02
3.572161206239875264e-02
3.867691064981610555e-02
4.108213157672727794e-02
4.286795391997184901e-02
4.397772564465677464e-02
4.437849945092268988e-02
4.403856125924372755e-02
4.292982444673131698e-02
4.104841440431104826e-02
3.840730222804693977e-02
3.504420865194680240e-02
3.101732802123230437e-02
2.637292462290418554e-02
2.117610436868574628e-02
1.550285845924508077e-02
9.445247547894095042e-03
3.123371812756778332e-03
-3.374124922283288849e-03
-9.949035233375666185e-03
-1.650362609464390423e-02
-2.293887990809836616e-02
-2.913033253236441134e-02
-3.499777991777529296e-02
-4.045929887664319324e-02
-4.544312289736335969e-02
-4.988672242103374399e-02
-5.372472057597700579e-02
-5.691927911619094893e-02
-5.944240706941075758e-02
-6.127768744121563083e-02
-6.242279077862771669e-02
-6.289427028441040013e-02
-6.271964913073456438e-02
-6.192864760784395212e-02
-6.056089379444535431e-02
-5.866776398596969255e-02
-5.633135313424474794e-02
-5.364150811257688278e-02
-5.065752798304409138e-02
-4.744937650932935097e-02
-4.409040390249629321e-02
-4.068159715582995994e-02
-3.734791044205422461e-02
-3.412970355362523328e-02
-3.108760258522895448e-02
-2.827587156797154236e-02
-2.576017400365050031e-02
-2.366215579919974527e-02
-2.195853918687557318e-02
-2.066740859015589460e-02
-1.979578000351743181e-02
-1.934438979588033042e-02
-1.939489371671631462e-02
-1.985386894916622846e-02
-2.068689606909020900e-02
-2.185424011170508662e-02
-2.331030307210996480e-02
-2.505804357572483446e-02
-2.699341013157803906e-02
-2.904011332573510143e-02
-3.113689884359477009e-02
-3.322218101122234590e-02
-3.525457191188144379e-02
-3.714811962699268028e-02
-3.882582786253649387e-02
-4.023425917273190655e-02
-4.132526614161632916e-02
-4.205477874679187239e-02
-4.237109240049485165e-02
-4.223123724703203852e-02
-4.160601458967992661e-02
-4.047366941210153030e-02
-3.881301413387914373e-02
-3.660683002307872635e-02
-3.386406402449478048e-02
-3.058529500040706867e-02
-2.677785247558230747e-02
-2.245450310429125684e-02
-1.762810099669529645e-02
-1.236610150659537416e-02
-6.704895298227512776e-03
-6.858544244961132380e-04
5.639562158074418879e-03
1.222344740486307202e-02
1.894946854174936468e-02
2.573982813093162597e-02
3.251757325971448703e-02
3.919942966783217936e-02
4.570282766242703132e-02
5.189757717313780300e-02
5.768103064068186986e-02
6.296389035305741122e-02
6.766123123184550336e-02
7.169672983761049556e-02
7.497564784509572200e-02
7.742331191422391345e-02
7.899001147984890947e-02
7.964269194996551060e-02
7.936911064293492024e-02
7.816429549356632145e-02
7.603450739622413801e-02
7.301540244596857465e-02
6.916290755190226958e-02
6.455722246582756840e-02
5.930114425804835360e-02
5.348255697774841055e-02
4.721517589624408401e-02
4.062263238071303628e-02
3.383938510362229785e-02
2.703407432107174380e-02
2.030840083274100191e-02
1.378664315202621921e-02
7.585521948300831541e-03
1.813045295785870731e-03
-3.388556512992140987e-03
-7.977964731760524286e-03
-1.190325618596458149e-02
-1.512586476272829994e-02
-1.762479611449233735e-02
-1.935734358350980205e-02
-2.036410931816916986e-02
-2.069651892266547583e-02
-2.040549450156508779e-02
-1.955364148427998425e-02
-1.818851642430799678e-02
-1.639794111345459562e-02
-1.429138598525801600e-02
-1.195904358025472354e-02
-9.489080952006279795e-03
-6.954965092077544826e-03
-4.428596665040924162e-03
-2.003422089993783621e-03
2.513556105150725056e-04
2.277152475926583902e-03
4.030588607315617813e-03
5.494666532023203750e-03
6.635131542503417898e-03
7.424967153203388542e-03
7.844908901572786308e-03
7.888458642400720394e-03
7.587855328199440835e-03
6.963519040962071888e-03
6.012949484319265320e-03
4.731726901982572300e-03
3.124718193026803162e-03
1.244938346442001076e-03
-8.539811409854223059e-04
-3.169661695792709739e-03
-5.708792185385825474e-03
-8.470661982936720721e-03
-1.139910170392956223e-02
-1.441653695734729929e-02
-1.751352395985290508e-02
-2.068977244549523309e-02
-2.393926424205140152e-02
-2.720484791970536817e-02
-3.038708640643031714e-02
-3.346174315609247440e-02
-3.640870660859707453e-02
-3.920761057575312958e-02
-4.180730028150703853e-02
-4.410962453659832833e-02
-4.608994592912683125e-02
-4.772279253391923520e-02
-4.899117850038564592e-02
-4.987496350006034862e-02
-5.032803663889297285e-02
-5.035890585669088731e-02
-4.997443869642823056e-02
-4.919510509037442608e-02
-4.805497502324616865e-02
-4.660680665345144635e-02
-4.490705474650240336e-02
-4.301595534008175598e-02
-4.100217555389277374e-02
-3.894662342161064883e-02
-3.698378652307030001e-02
-3.520078922379631103e-02
-3.367660365489342361e-02
-3.249052815160031332e-02
-3.172134947542645800e-02
-3.150468413658145950e-02
-3.191547773885051315e-02
-3.297650416740353918e-02
-3.471273105023762323e-02
-3.713612954155917634e-02
-4.030430661674080928e-02
-4.424084528854138609e-02
-4.885511169179150570e-02
-5.407588100162957073e-02
-5.981717680224400008e-02
-6.603018650783279431e-02
-7.270057799351561933e-02
-7.962517615240671809e-02
-8.665193813625218788e-02
-9.362333331608144182e-02
-1.004145291086177838e-01
-1.070451277844697013e-01
-1.132557047284000473e-01
-1.188768524791702641e-01
-1.237455548773161440e-01
-1.277275002190064734e-01
-1.309392427808200587e-01
-1.331644053076511125e-01
-1.342827902735024559e-01
-1.341929346516772259e-01
-1.328306737899597745e-01
-1.303684881046279498e-01
-1.267728343751692577e-01
-1.219948704800301598e-01
-1.160307596065300317e-01
-1.089087999546030916e-01
-1.008344783805057987e-01
-9.195549549091000530e-02
-8.230370582036691807e-02
-7.196258164816751735e-02
-6.102980119766911182e-02
-4.969318492898017886e-02
-3.818257469702157625e-02
-2.658484344864662369e-02
-1.501601656402278342e-02
-3.583053961129990805e-03
7.598056041490337809e-03
1.837658154011229464e-02
2.865932998203783721e-02
3.837154387637024822e-02
4.746355083338371639e-02
5.591913302990119544e-02
6.380791112133241128e-02
7.106701142643398472e-02
7.770839588405725751e-02
8.376631415411894821e-02
8.930860513738733686e-02
9.462635380884198977e-02
9.970663353283243380e-02
1.046117868943288731e-01
1.094170302719430776e-01
1.142162427115919754e-01
1.193449353326293538e-01
1.248530648688127020e-01
1.307364597617239332e-01
1.370212727001423325e-01
1.437283112947840558e-01
1.510743100446879372e-01
1.591028911890463859e-01
1.676510125414383268e-01
1.766267166155964241e-01
1.859199187193681380e-01
1.955485031963242193e-01
2.055054238215564266e-01
2.154611672643771680e-01
2.252159224134775151e-01
2.345601985314807181e-01
2.433546582144124892e-01
2.515691511525994795e-01
2.587979803436908921e-01
2.648203162358586660e-01
2.694278898012545942e-01
2.724465353230407505e-01
2.738924044824447290e-01
2.734223765114904281e-01
2.709005822948438169e-01
2.662236410293251088e-01
2.593206404016999422e-01
2.502563903449824823e-01
2.389104132346195064e-01
2.252833710412235901e-01
2.094284568500961174e-01
1.914319160703871481e-01
1.714346633264568209e-01
1.495472117493114039e-01
1.259234529470707742e-01
1.007591753226445286e-01
7.427341186761615699e-02
4.668853621073279503e-02
1.825557822905864505e-02
-1.075014555001713862e-02
-4.005554257682283903e-02
-6.938192230987422215e-02
-9.846924188824265900e-02
-1.270392312756169206e-01
-1.547779151010862941e-01
-1.814295458335410116e-01
-2.067542667372041509e-01
-2.305355566497777897e-01
-2.525642945802150097e-01
-2.725943643655260873e-01
-2.904814604566519076e-01
-3.061159702427703189e-01
-3.194114309434168963e-01
-3.302890568068604371e-01
-3.386427771134259967e-01
-3.444913735625890761e-01
-3.478967994021890386e-01
-3.489417506238482458e-01
-3.476971349727066563e-01
-3.441868422054522036e-01
-3.385636572169911096e-01
-3.310239102488540808e-01
-3.217736133637823515e-01
-3.110164257101833973e-01
-2.988238822671038242e-01
-2.853779541494026462e-01
-2.709132948864113599e-01
-2.556633992129125343e-01
-2.398906953424209398e-01
-2.236733327319709863e-01
-2.070909944623145482e-01
-1.903260975615809758e-01
-1.735598243853210820e-01
-1.570286383702090283e-01
-1.408698533080283422e-01
-1.249877587306711391e-01
-1.094840322244238218e-01
-9.446966257616573603e-02
-8.010836977906629630e-02
-6.669839501745986055e-02
-5.399475901211017725e-02
-4.204696898609307232e-02
-3.092113910510387031e-02
-2.070382378734444279e-02
-1.187722946049162356e-02
-4.150975270659060593e-03
2.457682399300857232e-03
7.921383990527070679e-03
1.219077086663051743e-02
1.486595856314741268e-02
1.604769256889059317e-02
1.582876831459543304e-02
1.426691999088253865e-02
1.141504735908826021e-02
7.085201384705594810e-03
1.253977262984706798e-03
-5.858711249865238696e-03
-1.405424295976363466e-02
-2.311933534254314443e-02
-3.296623653458375519e-02
-4.361250746980649406e-02
-5.476361562785132114e-02
-6.609640263843982733e-02
-7.726876438309077111e-02
-8.799197832596128421e-02
-9.819314222700745165e-02
-1.076448911448467105e-01
-1.160175785606611942e-01
-1.229751002482486477e-01
-1.282188779140883694e-01
-1.315883014772703530e-01
-1.330847105386614992e-01
-1.325237157821043399e-01
-1.297290567242194992e-01
-1.245718300135993106e-01
-1.168800592445040087e-01
-1.069226299724104212e-01
-9.474667079691220795e-02
-8.039975969526375055e-02
-6.395757399428712853e-02
-4.537005596912238592e-02
-2.499190666497145760e-02
-3.089508071096118934e-03
2.012443322261843470e-02
4.443630081254202474e-02
6.978227242674972519e-02
9.587812383691002305e-02
1.223598689598092149e-01
1.489661374866685928e-01
1.754523957820613711e-01
2.016980406970652340e-01
2.275641046526698519e-01
2.527101001346241937e-01
2.769114593913058475e-01
2.999615868318322165e-01
3.217290094004696677e-01
3.421905941405016249e-01
3.610906862804972306e-01
3.782659693646489574e-01
3.935638847906415272e-01
4.068672610678720214e-01
4.182066863939664092e-01
4.274177901581868722e-01
4.343966007983299793e-01
4.390468228475336021e-01
4.412953864780182478e-01
4.412096142367784024e-01
4.387171128626376482e-01
4.337766296643841835e-01
4.263668911416300666e-01
4.164936918135280219e-01
4.043158714314373237e-01
3.898644642714664266e-01
3.731653766829329810e-01
3.542951261609670888e-01
3.333611522206635369e-01
3.106507430983280194e-01
2.863428438782157914e-01
2.605007992853122789e-01
2.332934482366069429e-01
2.049165808713342418e-01
1.757372773864132598e-01
1.461277270119612781e-01
1.161275422256268230e-01
8.595145683607585685e-02
5.582736348671950982e-02
2.609470536928054640e-02
-2.711075889120681016e-03
-3.061944766181472211e-02
-5.744185315667242608e-02
-8.299748854736307968e-02
-1.070767968590481956e-01
-1.291258462726619372e-01
-1.492371358071433729e-01
-1.673210304425066242e-01
-1.833192063626485069e-01
-1.971789270152944362e-01
-2.086224235604665911e-01
-2.176852041804436533e-01
-2.244493510217737131e-01
-2.290260530691776986e-01
-2.315473786748956653e-01
-2.320891923055464212e-01
-2.306898005252897288e-01
-2.275608439359212698e-01
-2.229752607449899116e-01
-2.172293404228869962e-01
-2.106609316639693197e-01
-2.034003634668140326e-01
-1.956627733142338732e-01
-1.878002082439331477e-01
-1.801745527301811256e-01
-1.731955538751697721e-01
-1.670777900518621018e-01
-1.618808369176879258e-01
-1.578935690216768939e-01
-1.553945455002943010e-01
-1.546558206950935377e-01
-1.558685466091754845e-01
-1.588176087049439356e-01
-1.635943659977187603e-01
-1.702718701530734624e-01
-1.788620721457395979e-01
-1.894181217325193456e-01
-2.014511762520324323e-01
-2.148145940184682245e-01
-2.293594806669557173e-01
-2.448955637421078857e-01
-2.612468309634823904e-01
-2.778805933511275805e-01
-2.944696270442585528e-01
-3.107439667431606267e-01
-3.264371575932382141e-01
-3.413321403989896807e-01
-3.550212255238743286e-01
-3.671678145592787712e-01
-3.775263885208519077e-01
-3.858962461673773880e-01
-3.922095946500483432e-01
-3.963704348793012922e-01
-3.981522100616483040e-01
-3.974312213385878256e-01
-3.941416717869692943e-01
-3.884146072926157323e-01
-3.806076595412492547e-01
-3.706107988511284090e-01
-3.584368900148505177e-01
-3.441360540943288471e-01
-3.279407818735641800e-01
-3.106929925046122420e-01
-2.923323308762447725e-01
-2.729687078591381821e-01
-2.527068135263927373e-01
-2.317494805193756613e-01
-2.112501250247244555e-01
-1.911726617245496918e-01
-1.716412663723140275e-01
-1.527432332032504503e-01
-1.346222629409102034e-01
-1.182200066264828542e-01
-1.037108216885415934e-01
-9.104728259212904740e-02
-8.020532561001084138e-02
-7.116144184674602635e-02
-6.442590783704002511e-02
-6.020635748542725596e-02
-5.818667255009404848e-02
-5.811858520382675447e-02
-5.971241678438930084e-02
-6.297515017740257237e-02
-6.796451185463275868e-02
-7.405999301239377108e-02
-8.073440229612793839e-02
-8.741701329037113166e-02
-9.370558484107607833e-02
-9.952530414138274772e-02
-1.040636471988332090e-01
-1.066297124650136541e-01
-1.065274414385014301e-01
-1.031923692536672876e-01
-9.665443214971780606e-02
-8.622598659227950768e-02
-7.136345655873754801e-02
-5.156707219421350491e-02
-2.648221790032011247e-02
3.639283770412317376e-03
3.885411594882340336e-02
7.920723332263773786e-02
1.246609396482558640e-01
1.750374992886426784e-01
2.299777439701672643e-01
2.886983107671290405e-01
3.505072241222365048e-01
4.146918933774823013e-01
4.804927781771047846e-01
5.475993449139573421e-01
6.150016733732976970e-01
6.812450936461965645e-01
7.451644984819012496e-01
8.056864824279273973e-01
8.620412780452949564e-01
9.136107197932417101e-01
9.599733232468450339e-01
1.001040909330283446e+00
1.036645510682718152e+00
1.066339382162581728e+00
1.089258719751325488e+00
1.104137170530151923e+00
1.110018976109990119e+00
1.106570890865784529e+00
1.094451618163900131e+00
1.075436344791224297e+00
1.051936552406770531e+00
1.026629888461425555e+00
1.001555822184175826e+00
9.774548450029517666e-01
9.535883227886673419e-01
9.280456696573057274e-01
8.988409919603177478e-01
8.650811138052707516e-01
8.279298707550694081e-01
7.909045249032544689e-01
7.591246900825363575e-01
7.378572756911504493e-01
7.305692438236965902e-01
7.372712575676773072e-01
7.539035424726577839e-01
7.730311562413265669e-01
7.860467225666155633e-01
7.860699699433042476e-01
7.705053197969838896e-01
7.423332636269489582e-01
7.093005593777585993e-01
6.811198406474402445e-01
6.654502077627262313e-01
6.637622872140388486e-01
6.688414186322143573e-01
6.650790912884240180e-01
6.319242117220295052e-01
5.498606444523150838e-01
4.071963705322287352e-01
2.055839146854830934e-01
-3.775694611475148565e-02
-2.917301724165435317e-01
-5.180222214440345363e-01
-6.798072744249601396e-01
-7.509003347011252716e-01
-7.228273225472217067e-01
-6.064406142414886514e-01
-4.303089073136661113e-01
-2.333184102360020551e-01
-5.500187806705472693e-02
