BVP Signal
-7.794276418789478078e-03
-3.460096138339321947e-03
3.389667446067889944e-03
1.226401858881528972e-02
2.241898807799225235e-02
3.302747370202305244e-02
4.318852438993006637e-02
5.249243944443010568e-02
6.084272888430561355e-02
6.839967964477963736e-02
7.548100477843036615e-02
8.234297164689052817e-02
8.917736849066515425e-02
9.602238970401580365e-02
1.026973157371999235e-01
1.088843485344089812e-01
1.142573378274518159e-01
1.185251103145764373e-01
1.214410995610334665e-01
1.229294737146248706e-01
1.230576548253698999e-01
1.220770620972869147e-01
1.203642485020680608e-01
1.179450975912849087e-01
1.148904803528794649e-01
1.112335700121616089e-01
1.070775434153189432e-01
1.028638461671056437e-01
9.852694574169829078e-02
9.423034457320966784e-02
9.018613869653357984e-02
8.666528570919607155e-02
8.432959720886124000e-02
8.323929726436185561e-02
8.353582170327394918e-02
8.529606081644075521e-02
8.855592016916330467e-02
9.352730621297493385e-02
1.001581485776899261e-01
1.083507343051871574e-01
1.180039140904871053e-01
1.289780322637386067e-01
1.411416522796375972e-01
1.542808500773458213e-01
1.680931555253819543e-01
1.822459621483911718e-01
1.963635012707101168e-01
2.100161570397891531e-01
2.227615815336392302e-01
2.342085392359773977e-01
2.439558786434221638e-01
2.516107382083476729e-01
2.567589511900725263e-01
2.589527259982471463e-01
2.579236048698403394e-01
2.534108959389040905e-01
2.452113293519619930e-01
2.331625552891853914e-01
2.170517514508993884e-01
1.969736791439644641e-01
1.730151230751597602e-01
1.453465733447609765e-01
1.142161632040434860e-01
7.981016034425625350e-02
4.265373877651201795e-02
3.248122393047836454e-03
-3.785300810444391928e-02
-8.004343926645640650e-02
-1.227861382480075481e-01
-1.653099100233149099e-01
-2.068674004170782121e-01
-2.467543422260788932e-01
-2.842851089223148442e-01
-3.188846373849529847e-01
-3.498988993415841353e-01
-3.767098699263251582e-01
-3.988476298522827257e-01
-4.159368769151008394e-01
-4.277455786718493691e-01
-4.341005114168297041e-01
-4.348639675817160821e-01
-4.300929235417090268e-01
-4.199634113420382953e-01
-4.047779599025087549e-01
-3.849410493710867520e-01
-3.608513161259834234e-01
-3.330609551092016396e-01
-3.021901860996600853e-01
-2.689088380218933594e-01
-2.339499805940929988e-01
-1.979234621872922872e-01
-1.615192311040232198e-01
-1.254065292073576199e-01
-9.021023443903430916e-02
-5.656135100979464703e-02
-2.483200799689622151e-02
4.576716646298661928e-03
3.132657036237262993e-02
5.516976755064950666e-02
7.587530374367879027e-02
9.351735989014930972e-02
1.081618379084157144e-01
1.198814592418715463e-01
1.288112436363517688e-01
1.350851938678025999e-01
1.390661849062209132e-01
1.411145111107450223e-01
1.414867674059934188e-01
1.404343320979146714e-01
1.381891861969739566e-01
1.350862027878387828e-01
1.314471044900586971e-01
1.274356071584734629e-01
1.231673267052990628e-01
1.187438439064372186e-01
1.143275498791131994e-01
1.099790103896782778e-01
1.056927224564817580e-01
1.014288259021304262e-01
9.714321680568571704e-02
9.296856929890606747e-02
8.869513645046889216e-02
8.427696106184806579e-02
7.968101713931874386e-02
7.488915437905990791e-02
7.010950133336421586e-02
6.509393577681357734e-02
5.984650715894741790e-02
5.446209893802717028e-02
4.905211942664296221e-02
4.388161054260589916e-02
3.880397238598474324e-02
3.383223764695865443e-02
2.913184668033223790e-02
2.486515364151004048e-02
2.122326335419563725e-02
1.810071721825343150e-02
1.542191691283778532e-02
1.326661681260782322e-02
1.169743702613978975e-02
1.072043552085233387e-02
1.014660101581971174e-02
9.805181528341644359e-03
9.618330757938942099e-03
9.501968801425286770e-03
9.319471433138715177e-03
8.777307274980716834e-03
7.744081001287095312e-03
6.080952333267886090e-03
3.669680996448931865e-03
4.017890733156725958e-04
-3.991937718849980499e-03
-9.442370644153319503e-03
-1.597375050285920750e-02
-2.357593094404486500e-02
-3.220000102993658686e-02
-4.187324383656987337e-02
-5.234709038528384539e-02
-6.342098898325132517e-02
-7.489968681195735556e-02
-8.655951204006795408e-02
-9.820925119906487311e-02
-1.094981701829393916e-01
-1.200938048114850165e-01
-1.297205009813400256e-01
-1.381122881018228554e-01
-1.450420989686236339e-01
-1.502270926563822329e-01
-1.533970884058928341e-01
-1.543808074563715049e-01
-1.530529790955761360e-01
-1.493460272092581587e-01
-1.432098887211388227e-01
-1.345900288786501253e-01
-1.235497356585069095e-01
-1.102092107790293429e-01
-9.474214705549099946e-02
-7.737519441599272074e-02
-5.829699831033308133e-02
-3.779768779939318701e-02
-1.620451687981816491e-02
6.130855412774138813e-03
2.883015442353803470e-02
5.155687868374497773e-02
7.393280460985532376e-02
9.558005258209351096e-02
1.161359491104258790e-01
1.352816235739940365e-01
1.527185754199689438e-01
1.681650296435596437e-01
1.813789367160969501e-01
1.921677160648015414e-01
2.004390194178893858e-01
2.061266812804470605e-01
2.091686957666117896e-01
2.095701479218858854e-01
2.073937753107135684e-01
2.028199305451532375e-01
1.960887876870781588e-01
1.873476454977399119e-01
1.768164560665017593e-01
1.647474681418491516e-01
1.514808192815582100e-01
1.374771638786851380e-01
1.229390867263921994e-01
1.081433611763201741e-01
9.335531472762359506e-02
7.886299341823543863e-02
6.516495936516308873e-02
5.231253080012754353e-02
4.046219363520475731e-02
2.972835633955472900e-02
2.020035760836647043e-02
1.218953781660725433e-02
5.548026085838708710e-03
2.194335533076685607e-04
-3.867645112531903351e-03
-6.810725753823243522e-03
-8.581351942128057075e-03
-9.419187838254794443e-03
-9.530007186991928947e-03
-9.067245747437668868e-03
-8.189015866439719460e-03
-7.026404621195969646e-03
-5.811182262318470571e-03
-4.724009469672774131e-03
-3.866574556475987912e-03
-3.325413797320986298e-03
-3.230757681263130010e-03
-3.772576833446339428e-03
-4.977722311142573908e-03
-6.852690684820028633e-03
-9.388248448946479030e-03
-1.264096243533469055e-02
-1.682358231730235465e-02
-2.179370351297321706e-02
-2.751710483922337191e-02
-3.395562845737182256e-02
-4.110577048230856789e-02
-4.927515665753690044e-02
-5.819235079397794275e-02
-6.782712245047606281e-02
-7.814904966329722091e-02
-8.913324716076725940e-02
-1.010286464613490143e-01
-1.135567344053030059e-01
-1.266025972658689769e-01
-1.400795511431135454e-01
-1.538831582955487165e-01
-1.680540681185180296e-01
-1.822951607886809655e-01
-1.963207655459313916e-01
-2.099081472762027722e-01
-2.228148829688014754e-01
-2.348579038751265891e-01
-2.457047749682928495e-01
-2.549591123509047930e-01
-2.623170826403836697e-01
-2.674889583187753939e-01
-2.702311739673251001e-01
-2.703014370341657036e-01
-2.674157698332497723e-01
-2.613996449747719719e-01
-2.521375507229817736e-01
-2.395833209368927186e-01
-2.237709284436801838e-01
-2.047549212878544411e-01
-1.826848083834831105e-01
-1.577813979001604361e-01
-1.303347172536072351e-01
-1.007014042494052131e-01
-6.929467463665661686e-02
-3.656888349183562426e-02
-3.011576446575014998e-03
3.086843440303455033e-02
6.457933298178542003e-02
9.758630866832351813e-02
1.293733877237563945e-01
1.594563325969984291e-01
1.873949335130900007e-01
2.128613208272280843e-01
2.355264364513658393e-01
2.550865003465898617e-01
2.713227906484252383e-01
2.840942054772397363e-01
2.934202873151172675e-01
2.993669113771428858e-01
3.019381019338156502e-01
3.012485023134926498e-01
2.974738115791726312e-01
2.909255495354885479e-01
2.820206255169876997e-01
2.709440571146693455e-01
2.580060035407467645e-01
2.435325006170555029e-01
2.279103085805640749e-01
2.117104968319123981e-01
1.950721872568428883e-01
1.782921429130339686e-01
1.616451309109673273e-01
1.453905758437266660e-01
1.300425981048544677e-01
1.155392444263911855e-01
1.020154313191730111e-01
8.958215686728926430e-02
7.831877261136227508e-02
6.848033329606229014e-02
5.987296726439716998e-02
5.240389171887482878e-02
4.602195955244980929e-02
4.065168334881619217e-02
3.631883658543277882e-02
3.275392741728289092e-02
2.970736637646165246e-02
2.703995164446104660e-02
2.461003866603728163e-02
2.231317292919909878e-02
1.989827449914050028e-02
1.709870767076460130e-02
1.378613948293128111e-02
9.854490742639665513e-03
5.195793140886140193e-03
-3.636896118781596243e-04
-6.933072822871921836e-03
-1.454197316289496111e-02
-2.318431613767202304e-02
-3.285579380408587546e-02
-4.367484840287372272e-02
-5.545326035586795044e-02
-6.808210577232898242e-02
-8.142620199808392467e-02
-9.533581741680902111e-02
-1.099139747203375927e-01
-1.247139931616786934e-01
-1.395080229139248895e-01
-1.540909867782645493e-01
-1.682626422845587832e-01
-1.820785780926575392e-01
-1.951103690034334259e-01
-2.070668267791608841e-01
-2.177774181853006641e-01
-2.271011959875862407e-01
-2.351083300636292450e-01
-2.415786031573610715e-01
-2.462631928000113268e-01
-2.491041940467891291e-01
-2.500836498007017461e-01
-2.493234783932287424e-01
-2.468593855822456828e-01
-2.425468010435523902e-01
-2.364407189367259132e-01
-2.286260201138558823e-01
-2.192554470159744640e-01
-2.085298673157945371e-01
-1.964020601012069211e-01
-1.829840164078191944e-01
-1.684003447231621209e-01
-1.527937946543694581e-01
-1.364043348014634949e-01
-1.192489172688230709e-01
-1.014515148925671517e-01
-8.313967465224987585e-02
-6.444502539187253742e-02
-4.555932360788990387e-02
-2.656591392661519779e-02
-7.589426429734411061e-03
1.123680620716538403e-02
2.977860352593056370e-02
4.789330255909049483e-02
6.546200031203439074e-02
8.235574876608564576e-02
9.844272819615854098e-02
1.135999673007277722e-01
1.277454530536878963e-01
1.407969692833781761e-01
1.526458289593035089e-01
1.632097493418780965e-01
1.724283223532642462e-01
1.803219745450004297e-01
1.869429656909870063e-01
1.922216565227810592e-01
1.961699082788728732e-01
1.988237428854854882e-01
2.003011401350536236e-01
2.008556720732013190e-01
2.004055490411563167e-01
1.990339743691683094e-01
1.968349192782062329e-01
1.939324500717164446e-01
1.907600794049310045e-01
1.871204762898908136e-01
1.830874812290163023e-01
1.787315423165960482e-01
1.741243379742846153e-01
1.696389126467641728e-01
1.650566124697179227e-01
1.603383441520570551e-01
1.554930070182354851e-01
1.505273405013080046e-01
1.456492524340570749e-01
1.406968040900962724e-01
1.355415024894705556e-01
1.301696217247804155e-01
1.245747239960972030e-01
1.188462786718382791e-01
1.129098688275330109e-01
1.066446231523696109e-01
1.000649959968787361e-01
9.319753945448505661e-02
8.608574783807099173e-02
7.870557355416779588e-02
7.099706937990502009e-02
6.299026326050485847e-02
5.471952676699393114e-02
4.619763327557410704e-02
3.736193319808406299e-02
2.820190708131645185e-02
1.871150021890533033e-02
8.881768126872954805e-03
-1.310473250416374635e-03
-1.201954323640316846e-02
-2.319609265366946727e-02
-3.487310158244738556e-02
-4.707912721026224351e-02
-5.983561714200509585e-02
-7.327060166807289332e-02
-8.725936723730941258e-02
-1.017353995977475500e-01
-1.166404389788860130e-01
-1.318886553045297561e-01
-1.474656588520932288e-01
-1.631182255332201958e-01
-1.785850948109517777e-01
-1.936580999020312277e-01
-2.081113312760863865e-01
-2.217821986156739422e-01
-2.343617563851130015e-01
-2.454581182476886780e-01
-2.548109578759709670e-01
-2.621845771607613229e-01
-2.674236082145546867e-01
-2.703745355477514822e-01
-2.707232874786565935e-01
-2.683654116471098083e-01
-2.632614265404905063e-01
-2.554570890964049101e-01
-2.451412422799698621e-01
-2.322492942823682904e-01
-2.169601510855442283e-01
-1.995174474236879880e-01
-1.802179488086932402e-01
-1.595495028827065287e-01
-1.376895758468296149e-01
-1.150051747713788375e-01
-9.189174510899422721e-02
-6.875006336972167009e-02
-4.606912550377173510e-02
-2.411463083603571089e-02
-3.187820607237878967e-03
1.640909470193940844e-02
3.441568211376344610e-02
5.058542569349222529e-02
6.480844405681984721e-02
7.701643435637406387e-02
8.715551294826529016e-02
9.522316051531987124e-02
1.012793631288897434e-01
1.054576358029813976e-01
1.078944394530241269e-01
1.087444463651104920e-01
1.081859714494227687e-01
1.064458945123742950e-01
1.038086949016172600e-01
1.004454103011647170e-01
9.656010465796072140e-02
9.234671821523343649e-02
8.800457371302050635e-02
8.381833006533645491e-02
7.983415161223739176e-02
7.617789255180451580e-02
7.295399306590300004e-02
7.024556244019292128e-02
6.823241285302455994e-02
6.680785857674853556e-02
6.598239517653214925e-02
6.576969765476786689e-02
6.616449300183521731e-02
6.722541861752867609e-02
6.875883353633488460e-02
7.067243734365821761e-02
7.292801437131582465e-02
7.547755994945301583e-02
7.831160043556351091e-02
8.120532327200655209e-02
8.398466912837515563e-02
8.658005311123090353e-02
8.892399609021806040e-02
9.096994348533088415e-02
9.252724307263104908e-02
9.337447992617131654e-02
9.343039612810655203e-02
9.263241785808107309e-02
9.093362150970962787e-02
8.824365399308131686e-02
8.439253382248956825e-02
7.934785043517078584e-02
7.311189583579391638e-02
6.571097045271589998e-02
5.718986809495052448e-02
4.756706388327369694e-02
3.693664888083225684e-02
2.542772679757820953e-02
1.320002823131760650e-02
4.024628685508346848e-04
-1.271399481859925018e-02
-2.591668658848611528e-02
-3.896804723285951511e-02
-5.162316031630576063e-02
-6.370760029317334983e-02
-7.490569686091075319e-02
-8.493861406620717425e-02
-9.358729767494211593e-02
-1.006648248619597119e-01
-1.061055794107874650e-01
-1.097717105642317392e-01
-1.114920935659460266e-01
-1.112164653968827910e-01
-1.089485609071765282e-01
-1.048154835614055758e-01
-9.898516078633989856e-02
-9.147888377188473363e-02
-8.245975493358645436e-02
-7.212952936231559198e-02
-6.075912807198990961e-02
-4.872548929274539420e-02
-3.618549978171825554e-02
-2.341180298469280885e-02
-1.067726068179697396e-02
1.748151095830929869e-03
1.353311693973102692e-02
2.452671467327638410e-02
3.451474840561230550e-02
4.331180961854097511e-02
5.077447188084027729e-02
5.684313378275351880e-02
6.148771057096347192e-02
6.466096530766751727e-02
6.634500077249017025e-02
6.657238776622875776e-02
6.554438246227833886e-02
6.344354038852340061e-02
6.035967075297987705e-02
5.641310016287870432e-02
5.175540170677095375e-02
4.671184111330584088e-02
4.164278724335135351e-02
3.666746578847757121e-02
3.194348339411456905e-02
2.762662231955936853e-02
2.399609182146744679e-02
2.146777666330246248e-02
2.005507197905709305e-02
1.983108019937196431e-02
2.083524544979753479e-02
2.315613480522604739e-02
2.713138183557539662e-02
3.254844680950919056e-02
3.930147936528705088e-02
4.723584291847604533e-02
5.618086561935342615e-02
6.630134434974865876e-02
7.714011601406201013e-02
8.840058619625046354e-02
9.975785788103108676e-02
1.108774925347649765e-01
1.216470496701624882e-01
1.316052921580782575e-01
1.403551980325147830e-01
1.475570916832167068e-01
1.528928360059221836e-01
1.561474925955240456e-01
1.570244534939317926e-01
1.552822844089280785e-01
1.507855219088640730e-01
1.434504731698900137e-01
1.331887161712566048e-01
1.199446038397307679e-01
1.038589396610298810e-01
8.512616293272268209e-02
6.399125647987136123e-02
4.061893414322548246e-02
1.505897522686794332e-02
-1.213927582739382505e-02
-4.053461594623825048e-02
-6.967150315259412752e-02
-9.919514558537834148e-02
-1.292304286410063119e-01
-1.590216173614145134e-01
-1.881181316477892607e-01
-2.160941732803575432e-01
-2.426104519059919251e-01
-2.680665002133553187e-01
-2.918628704771094595e-01
-3.137088858746882591e-01
-3.333738635556238172e-01
-3.507090554449873721e-01
-3.661410961440130230e-01
-3.795272231871285040e-01
-3.907001498757014524e-01
-3.996027258380267511e-01
-4.062138997654778372e-01
-4.108281582266194443e-01
-4.135595943649610362e-01
-4.142897055031469211e-01
-4.130034821984353011e-01
-4.096774894999202221e-01
-4.043807524826243949e-01
-3.971860397627975381e-01
-3.879790186071108149e-01
-3.767127236846287142e-01
-3.633249318410364248e-01
-3.477396762814149445e-01
-3.298505747760287488e-01
-3.095987930143127009e-01
-2.869640924336332444e-01
-2.619401202676757134e-01
-2.345042207458654937e-01
-2.044540526534086022e-01
-1.718807746277123405e-01
-1.369074966792092063e-01
-9.970620352492620686e-02
-6.045489414679416917e-02
-1.905419389535312202e-02
2.424720142189829009e-02
6.911136957245955781e-02
1.151530953273738334e-01
1.619802526873984627e-01
2.094878247625647782e-01
2.573401648995561342e-01
3.050087005864573486e-01
3.519705563965080941e-01
3.977075926276080753e-01
4.419839257005032107e-01
4.844718068107650155e-01
5.245445560337775870e-01
5.616810413358601650e-01
5.953850451639663977e-01
6.254125732020074935e-01
6.515992553642157015e-01
6.733319366416441465e-01
6.902521338441099941e-01
7.020535585250435862e-01
7.086170506427955651e-01
7.100985829827661799e-01
7.060364010447131022e-01
6.963839096498425363e-01
6.811739829906959809e-01
6.605408056360484448e-01
6.350234319004508521e-01
6.044381136580279090e-01
5.691171602048736844e-01
5.294810219558414577e-01
4.860061252969607448e-01
4.393951743507358287e-01
3.898609294184528506e-01
3.379707553529371911e-01
2.843942451180165865e-01
2.298036509334512867e-01
1.748761616281210851e-01
1.199671392271337844e-01
6.562405905847558396e-02
1.246702690282186499e-02
-3.893569645105987576e-02
-8.814259494809673079e-02
-1.349970041841176416e-01
-1.792293367532002968e-01
-2.205412901946689486e-01
-2.587025546851697833e-01
-2.936327202397610581e-01
-3.255051851405368346e-01
-3.543763471563028400e-01
-3.803008108098400175e-01
-4.033636011368044727e-01
-4.237360502241658278e-01
-4.417862087638892987e-01
-4.576344627733454073e-01
-4.714522775187476311e-01
-4.833858170754598005e-01
-4.935649283098347828e-01
-5.023553066986613524e-01
-5.095501470323561266e-01
-5.151622727438966987e-01
-5.191674361995988196e-01
-5.214972038789799091e-01
-5.223322707518182062e-01
-5.211503363457995475e-01
-5.176987810529003475e-01
-5.118156128813663441e-01
-5.033409736541345492e-01
-4.924092310431694708e-01
-4.785083688899803844e-01
-4.613061162518582448e-01
-4.407704658423812760e-01
-4.169431649197881673e-01
-3.901574903517268100e-01
-3.603338236425490670e-01
-3.273138142216860391e-01
-2.914169256723521118e-01
-2.530634907314405213e-01
-2.128627981752179155e-01
-1.712826505832832913e-01
-1.284139022274801700e-01
-8.485706057780573186e-02
-4.127065275665264821e-02
1.656422255094214258e-03
4.325071140674807690e-02
8.330977676337469884e-02
1.212767711545376104e-01
1.566115669217878481e-01
1.888483338435489878e-01
2.176632412375467951e-01
2.429079719918521563e-01
2.643768536531306834e-01
2.819276014977469269e-01
2.955110370237244988e-01
3.053720642107808914e-01
3.115636026764859179e-01
3.142387152083875868e-01
3.136523862756021019e-01
3.101170013820309102e-01
3.042174106989222748e-01
2.962216107201201543e-01
2.863820068243295713e-01
2.751166282341948599e-01
2.628462041851716280e-01
2.501429536252044450e-01
2.373120318492861758e-01
2.244287598476044088e-01
2.118107864067323431e-01
1.997468664276665917e-01
1.885586166319879187e-01
1.784175296162215929e-01
1.690867557691337897e-01
1.606548837270178609e-01
1.531892456912101741e-01
1.467237362101858622e-01
1.412785104709765038e-01
1.363335296751176928e-01
1.317807103056907181e-01
1.275265967904296027e-01
1.234425402345335487e-01
1.194653900567058669e-01
1.149986846191017320e-01
1.098510667918675132e-01
1.039061638352896111e-01
9.705624042588573142e-02
8.924368337441845878e-02
8.007806964039815290e-02
6.942876129298169996e-02
5.729823426627361771e-02
4.373412503106421934e-02
2.881522790924784250e-02
1.249776107576250350e-02
-5.133940798899283564e-03
-2.388067007681715648e-02
-4.349170956631343010e-02
-6.371675878103444379e-02
-8.429460109260961120e-02
-1.048726291597529836e-01
-1.251051488168145043e-01
-1.446309185347282034e-01
-1.631229256029699815e-01
-1.802656685431481831e-01
-1.955550627601929103e-01
-2.086832755106741155e-01
-2.193879443338659641e-01
-2.274590787106592626e-01
-2.328423731538998565e-01
-2.351198450881220592e-01
-2.342304666310543459e-01
-2.302013650282960511e-01
-2.231224601089144000e-01
-2.132772738983113037e-01
-2.005858471796106435e-01
-1.852744501154978685e-01
-1.676724052928076358e-01
-1.481528226203283061e-01
-1.271911334198255750e-01
-1.050211202117757314e-01
-8.200632714860317529e-02
-5.858886418365016890e-02
-3.520509163400403763e-02
-1.228383910219982278e-02
9.908658746758447489e-03
3.108838602635388693e-02
5.093943389762506380e-02
6.918858091282881206e-02
8.563744372946530126e-02
1.002314264072166061e-01
1.128921686513500444e-01
1.235369335395598567e-01
1.321225161864802988e-01
1.386808170227162296e-01
1.434028196958636592e-01
1.463806066961054753e-01
1.477016562102362041e-01
1.474621279262966211e-01
1.457921158710911991e-01
1.429903424513764010e-01
1.391974483627885784e-01
1.345470810941052919e-01
1.291557608165989079e-01
1.231430152222346003e-01
1.167407326906282072e-01
1.100651053676498237e-01
1.032110570717948983e-01
9.626492528033689378e-02
8.930209093849518498e-02
8.244791427829052666e-02
7.573904795515676303e-02
6.921308450102570120e-02
6.292754584062118517e-02
5.692540394648193391e-02
5.125403163694591813e-02
4.585021147811785269e-02
4.067636454348044772e-02
3.575389076588714188e-02
3.109233809646960722e-02
2.667714452080877097e-02
2.235904701024538088e-02
1.800625942505174049e-02
1.358738619522953384e-02
9.072373547906242841e-03
4.401660204117807673e-03
-6.102865758912390248e-04
-6.136782281677577444e-03
-1.223067920217296711e-02
-1.891921092538495497e-02
-2.623422889636156663e-02
-3.431974828477632466e-02
-4.324096619321954327e-02
-5.297693068912989744e-02
-6.346202500307895900e-02
-7.460702508577149450e-02
-8.641288436778607474e-02
-9.873838173364105075e-02
-1.113987581282584183e-01
-1.241889562424435545e-01
-1.368800227106199419e-01
-1.493180739407403701e-01
-1.612131540296447563e-01
-1.722526885571425970e-01
-1.821752117677325200e-01
-1.907285473581549207e-01
-1.977362542114967647e-01
-2.029562504854077187e-01
-2.061176521706813425e-01
-2.070772466559170910e-01
-2.057391727794608549e-01
-2.020824352320781947e-01
-1.960993819466219090e-01
-1.877224498058823188e-01
-1.770432508053509379e-01
-1.642080911256011411e-01
-1.494128466517082310e-01
-1.329000470353315366e-01
-1.148156244342519172e-01
-9.543551107148590118e-02
-7.506181343832113440e-02
-5.400378774090608403e-02
-3.257594109381767300e-02
-1.101250742828657758e-02
1.039395880229543323e-02
3.135803898826355907e-02
5.161978347414175605e-02
7.099004999922781112e-02
8.929671098499175619e-02
1.063551261295468398e-01
1.220047990109315306e-01
1.361194433303271056e-01
1.486808241068156566e-01
1.596639815706910881e-01
1.689894454677953739e-01
1.766151788378725884e-01
1.825226011015176064e-01
1.867951128665015781e-01
1.895448653801699579e-01
1.907408877121726798e-01
1.904132885022206956e-01
1.886049376382165632e-01
1.854306230023283486e-01
1.811005909677056436e-01
1.756074593002389383e-01
1.690404923834312179e-01
1.614985834140130194e-01
1.531144902104247807e-01
1.441606501849518884e-01
1.346472171239913862e-01
1.247183330668123064e-01
1.145239702617580069e-01
1.042151862035674698e-01
9.403994997166453818e-02
8.400228525675734748e-02
7.423127357712311358e-02
6.486406577897071979e-02
5.601452112220689505e-02
4.780231720776845217e-02
4.015182685851714783e-02
3.307303265510974644e-02
2.659969373256193537e-02
2.073402212729796856e-02
1.543258625084636959e-02
1.049404107407736486e-02
5.788532117028899471e-03
1.233253991253513426e-03
-3.264377889495240215e-03
-7.840913966614515562e-03
-1.273691930716541743e-02
-1.810172060838266539e-02
-2.402656674886155530e-02
-3.057647333264457146e-02
-3.782515857897478240e-02
-4.590804198777215239e-02
-5.480719292476365911e-02
-6.448327143010845752e-02
-7.485488847192603434e-02
-8.581743966493965425e-02
-9.735204679453701715e-02
-1.091818408068126467e-01
-1.211062626143821208e-01
-1.329052825712755403e-01
-1.443453922401101708e-01
-1.553170811908320958e-01
-1.654266545926558196e-01
-1.744099876748125000e-01
-1.820464964790258211e-01
-1.881386422049007023e-01
-1.926327606094258016e-01
-1.952569858071634135e-01
-1.958295778798244680e-01
-1.942798398595778075e-01
-1.905835726265387720e-01
-1.848470314484595145e-01
-1.770598429341889435e-01
-1.672046826612286763e-01
-1.554082836756927044e-01
-1.418383246112624174e-01
-1.267355902692522962e-01
-1.103105549388212342e-01
-9.269398942107123784e-02
-7.414369487096467148e-02
-5.493471386566951137e-02
-3.534781788666495339e-02
-1.563206577909719355e-02
3.995712798522395998e-03
2.325839382485668516e-02
4.188447751397131325e-02
5.963128371255996263e-02
7.640715092931031627e-02
9.197818582318241509e-02
1.061466653672897692e-01
1.187338502429708814e-01
1.296049952905204972e-01
1.388522291923300900e-01
1.463736398793470672e-01
1.520959665710823749e-01
1.559923535367044312e-01
1.580811333242684580e-01
1.585828375404120805e-01
1.576138711969082562e-01
1.552385570597690501e-01
1.515910636869832184e-01
1.468328816212277621e-01
1.412402636620752883e-01
1.350698059226927150e-01
1.284736811212487395e-01
1.216676661171688101e-01
1.148612411678490153e-01
1.082809225287628407e-01
1.021241639313895944e-01
9.648877961743043685e-02
9.151551647746894447e-02
8.730939129282516697e-02
8.392817020028067732e-02
8.133911096681797903e-02
7.943032301634361803e-02
7.814200477433058678e-02
7.738154616724557400e-02
7.700057402708146426e-02
7.674569893933917697e-02
7.628532600428557242e-02
7.539665896846767246e-02
7.386859300604710354e-02
7.147925495435679399e-02
6.795101709078769925e-02
6.294917451117693075e-02
5.629499842274521965e-02
4.788177367043743027e-02
3.764991730011135740e-02
2.554803888155787739e-02
1.151456696560751447e-02
-4.363342280306298226e-03
-2.190803195903245904e-02
-4.087587530338207542e-02
-6.099958014805875739e-02
-8.199027093724114978e-02
-1.034597892780537709e-01
-1.249908310263933287e-01
-1.461406997409238351e-01
-1.664827546650599899e-01
-1.856038071838828629e-01
-2.030131568294026578e-01
-2.183122308187837590e-01
-2.311446816890720679e-01
-2.412168341225025825e-01
-2.483453980549015228e-01
-2.522102933997537044e-01
-2.526968331078704999e-01
-2.497727357627754219e-01
-2.434790473019947665e-01
-2.340261127050314860e-01
-2.214248356971700860e-01
-2.059011226151529761e-01
-1.877577239950560251e-01
-1.673458650766006528e-01
-1.451150938155029158e-01
-1.213664684750936501e-01
-9.649645442289020436e-02
-7.094991852396137499e-02
-4.517047171084050128e-02
-1.959886128167273589e-02
5.425245595088973305e-03
2.955010025234565407e-02
5.241851050122588174e-02
7.371238821435946442e-02
9.318655349479115779e-02
1.106958691912695303e-01
1.260682713729622817e-01
1.391604316641413264e-01
1.498758053756608088e-01
1.582029526775652339e-01
1.642712731089015499e-01
1.681109466638378291e-01
1.697904198448690616e-01
1.694070990240145180e-01
1.671129836770564314e-01
1.632290675265940794e-01
1.579266319234510219e-01
1.514026938704153835e-01
1.438549181233066410e-01
1.354967642741477518e-01
1.266621818801749733e-01
1.175596789545030330e-01
1.083917614997403911e-01
9.934594492283654876e-02
9.059200214516849314e-02
8.234005042008374353e-02
7.468959566738919698e-02
6.773258576802532183e-02
6.155542400909319589e-02
5.620851991687936255e-02
5.172998484168489508e-02
4.801708681841920789e-02
4.498476498800374479e-02
4.258636714866992357e-02
4.074888750471850063e-02
3.937153286730954438e-02
3.820181821435647551e-02
3.700734335599431546e-02
3.566240508248327834e-02
3.404868939592116395e-02
3.203400165281414247e-02
2.937591427661778720e-02
2.583438236098833940e-02
2.132246039655427694e-02
1.579592069379343044e-02
9.223697310117295878e-03
1.515683796555644669e-03
-7.396499046630644614e-03
-1.745546063559122452e-02
-2.855093258322072280e-02
-4.054188265187308460e-02
-5.333780706968438423e-02
-6.675461934948079268e-02
-8.057244825593579129e-02
-9.455000478271013975e-02
-1.084288097240477811e-01
-1.220164798972669384e-01
-1.349921671995535366e-01
-1.470550404440570391e-01
-1.579545422132923038e-01
-1.674569695322398744e-01
-1.754158714314252299e-01
-1.815894456409922197e-01
-1.857326468142840026e-01
-1.877263402598331465e-01
-1.874961700633552553e-01
-1.850537983622750626e-01
-1.803968927258652877e-01
-1.734408193553654831e-01
-1.642655763972362681e-01
-1.529987446786268412e-01
-1.398220562969687553e-01
-1.249657753563668816e-01
-1.085257452005972678e-01
-9.074363633616672198e-02
-7.188905605856099612e-02
-5.224456279922973234e-02
-3.211581492716508723e-02
-1.172301565465605488e-02
8.634870066068001115e-03
2.865659677307930142e-02
4.805623093151029090e-02
6.662775133975284980e-02
8.414125621783705156e-02
1.003500111146302526e-01
1.150289309339459498e-01
1.279899320690000841e-01
1.391857827929887104e-01
1.485441219170700600e-01
1.559417060175410930e-01
1.613085240738529325e-01
1.646187439272010222e-01
1.659891541858321273e-01
1.655822378646794879e-01
1.634335711534301572e-01
1.596517819528159576e-01
1.543766874036300307e-01
1.478433045331908058e-01
1.403869975542532123e-01
1.321568429595530725e-01
1.233731144779716682e-01
1.142564368459309393e-01
1.050512476729342781e-01
9.609085616024183596e-02
8.749318538178298132e-02
7.944152057026751534e-02
7.208928268472505896e-02
6.555416330039440242e-02
5.998235796876649761e-02
5.530558529273221779e-02
5.153079473382990439e-02
4.863519689063386386e-02
4.654769658152719397e-02
4.515730316454050208e-02
4.419494059435612188e-02
4.347833758847587105e-02
4.284101837836462590e-02
4.209768815097575390e-02
4.102159365222168841e-02
3.927860015034638497e-02
3.665450564918579929e-02
3.300366724584281181e-02
2.820888830989068397e-02
2.214254084842617182e-02
1.462173706116604022e-02
5.602003158571053354e-03
-4.879553849294046564e-03
-1.673295072105733527e-02
-2.985845487429827916e-02
-4.419122486736737354e-02
-5.951409367870813538e-02
-7.558674977794385685e-02
-9.213429594860975125e-02
-1.088770583346719001e-01
-1.256170633926190494e-01
-1.419517624396580135e-01
-1.575708138271791348e-01
-1.721736095348814222e-01
-1.854763326665449519e-01
-1.973434236272323394e-01
-2.073881459825839824e-01
-2.153929615582692025e-01
-2.211977359071836680e-01
-2.246839741756341269e-01
-2.258794603194994588e-01
-2.246166099899046809e-01
-2.208458584704378336e-01
-2.146146378453880899e-01
-2.060151120283525428e-01
-1.952512617685198126e-01
-1.824143765951971863e-01
-1.676135688191354445e-01
-1.510627602328845354e-01
-1.330057311250090191e-01
-1.137479601370936372e-01
-9.355787019133282589e-02
-7.263550612558669628e-02
-5.126351262786077445e-02
-2.973108185579384499e-02
-8.342514964129910116e-03
1.259690312110528509e-02
3.288989623176918897e-02
5.229289065889441979e-02
7.057924164134865563e-02
8.754260791380230611e-02
1.029801125870513090e-01
1.167923895928879574e-01
1.288630946969549496e-01
1.391067777096355873e-01
1.474748947078913242e-01
1.539701983828847265e-01
1.586343701238530635e-01
1.615117070148023859e-01
1.626716567463374341e-01
1.622173201793755126e-01
1.603516237883850226e-01
1.572400203742039260e-01
1.530189357156873098e-01
1.478431952086351198e-01
1.418802541432318820e-01
1.354188891610072221e-01
1.286783437992384538e-01
1.217418578023761189e-01
1.147380553789832391e-01
1.077853461761423826e-01
1.011061927063996169e-01
9.491261487210361780e-02
8.911259379120667345e-02
8.373964164102754015e-02
7.881191833829281901e-02
7.440536550371329438e-02
7.071486184762348914e-02
6.747036051359353581e-02
6.463117360789326360e-02
6.215641308807280663e-02
6.001356582961128727e-02
5.839221293991278539e-02
5.695604784673199972e-02
5.565750528979082623e-02
5.446661621035207845e-02
5.335705248347373530e-02
5.240707911748818115e-02
5.141385245315965163e-02
5.032754763741856957e-02
4.914231574826306848e-02
4.784930880748347604e-02
4.641858668878831584e-02
4.473664376464251552e-02
4.275300382528859910e-02
4.043871192555152649e-02
3.775468869534261834e-02
3.457775655417962002e-02
3.078061302912839942e-02
2.632718811590456509e-02
2.114626278085654509e-02
1.516409922154388079e-02
8.233369550653124591e-03
1.918066807267138074e-04
-8.897990477069350757e-03
-1.906964793213206111e-02
-3.033763383278426096e-02
-4.273334033094883244e-02
-5.637181663307666568e-02
-7.097597381222509050e-02
-8.641909868071984135e-02
-1.025432827691388216e-01
-1.191592302263786429e-01
-1.362513020235918138e-01
-1.533231353126466856e-01
-1.700684458296896628e-01
-1.861730119221069457e-01
-2.013171524101051157e-01
-2.153251969728705584e-01
-2.277429832230446483e-01
-2.382192352154660631e-01
-2.464718827659568290e-01
-2.522609917446383410e-01
-2.554821370023894200e-01
-2.559388941049003385e-01
-2.534811481664218658e-01
-2.480763114359739174e-01
-2.397601887749585825e-01
-2.286839842475611451e-01
-2.150090048756172212e-01
-1.988869278967962118e-01
-1.805792621947269194e-01
-1.603942932415996503e-01
-1.387023461985644190e-01
-1.159024551903304889e-01
-9.230887505147802874e-02
-6.830015506784825607e-02
-4.425036577327086385e-02
-2.052748428820529158e-02
2.486878521089891381e-03
2.456173553151921873e-02
4.544130990976694151e-02
6.491068178872447247e-02
8.279996858720561903e-02
9.894564606159356179e-02
1.133249946055445156e-01
1.259081407092095262e-01
1.366994203857908596e-01
1.457389881308678303e-01
1.530971132017446834e-01
1.588916995718194225e-01
1.632331646479712739e-01
1.662351530528135002e-01
1.680193039709099168e-01
1.687523270126930486e-01
1.685739619824671021e-01
1.675724988652700920e-01
1.658371119146240802e-01
1.634498408655101764e-01
1.605603870908871023e-01
1.572932716737540093e-01
1.536196223172080488e-01
1.495687011558798352e-01
1.451684890672210460e-01
1.405275714381513386e-01
1.358386357705225478e-01
1.309451837182892542e-01
1.258621181152453083e-01
1.206138179301015911e-01
1.152760511857850723e-01
1.102015043526047289e-01
1.051181770422154604e-01
1.000555526173228238e-01
9.505366517228736045e-02
9.016510840171063079e-02
8.577592611608139683e-02
8.160678632188078652e-02
7.764203683574702475e-02
7.390260293765435473e-02
7.040771441697668553e-02
6.736662639224777482e-02
6.459844568235534323e-02
6.199639410906641890e-02
5.953365424905894543e-02
5.717814412493710252e-02
5.494245495899073572e-02
5.270680537966161011e-02
5.034896964053615920e-02
4.781517982205158585e-02
4.505276494001336091e-02
4.197006236165682497e-02
3.844793816074537629e-02
3.445779141980574722e-02
2.995865522557382768e-02
2.491434770548741837e-02
1.923829427994672159e-02
1.275899532305000555e-02
5.589176773075812954e-03
-2.283327115844002719e-03
-1.086820748670137837e-02
-2.019129541342876144e-02
-3.048343170399715751e-02
-4.150969763669881685e-02
-5.324463018608130427e-02
-6.565939643189344643e-02
-7.871972902768847868e-02
-9.257475560892899913e-02
-1.069648234672574971e-01
-1.217604588336839710e-01
-1.368499606120672785e-01
-1.521054669947388693e-01
-1.675095319138918404e-01
-1.827772383878011331e-01
-1.976355497406298567e-01
-2.118622863928221189e-01
-2.252253457902626543e-01
-2.375683944070112186e-01
-2.486016662676784894e-01
-2.579718156677821006e-01
-2.654230204740717913e-01
-2.707210138358979168e-01
-2.737114214015113900e-01
-2.742432905475740701e-01
-2.720553242699031427e-01
-2.670348899413836352e-01
-2.591265436642509190e-01
-2.483622243202842639e-01
-2.348933664799795484e-01
-2.187164046885821944e-01
-1.999979413416443086e-01
-1.789662127203645037e-01
-1.559105039667547377e-01
-1.312890688801249262e-01
-1.053546152121590945e-01
-7.850000282002572716e-02
-5.114127525193964963e-02
-2.370837830486294609e-02
3.289797581564404827e-03
2.949784676942471956e-02
5.454131053670141505e-02
7.806178071373839900e-02
9.974105274373398777e-02
1.192781772758058911e-01
1.364828346202772436e-01
1.512175744162162494e-01
1.633852587043005400e-01
1.729495919034166607e-01
1.799366422358301965e-01
1.844415414049526136e-01
1.866012901723169970e-01
1.865908950915246556e-01
1.846232355374894385e-01
1.809598305891446657e-01
1.758927531077223994e-01
1.696735192731210207e-01
1.625862661451349944e-01
1.549128843988932802e-01
1.469425921227066056e-01
1.389983899475069618e-01
1.312152484526761809e-01
1.237949839843778821e-01
1.169135876265927909e-01
1.107172364221689076e-01
1.054825170835647086e-01
1.010786650270801834e-01
9.752858519085019773e-02
9.483858623473037652e-02
9.299226718808656367e-02
9.216597286609715112e-02
9.207321482018238079e-02
9.253832977166473461e-02
9.344211898564103169e-02
9.466581047384625691e-02
9.632012398418812738e-02
9.814430212389932406e-02
9.982832823792495147e-02
1.012190591619252789e-01
1.021861969490517330e-01
1.028002060020240804e-01
1.029897702244334246e-01
1.024261742902447259e-01
1.010138079000553191e-01
9.869217283707840127e-02
9.552254897725451221e-02
9.164868642563470114e-02
8.687515008038855513e-02
8.122436343363084732e-02
7.474979650348467786e-02
6.755017457618432697e-02
5.984017897848963041e-02
5.167073656384302272e-02
4.317068166132402574e-02
3.447552930640530866e-02
2.572580814254661966e-02
1.698822485728242529e-02
8.514684767819781508e-03
4.418522794380000396e-04
-7.128164755777504150e-03
-1.412483369482444608e-02
-2.068212479437807685e-02
-2.663841756821711676e-02
-3.193835690969738794e-02
-3.662813777804489052e-02
-4.079990283429864306e-02
-4.474957463389056533e-02
-4.857424097186065909e-02
-5.231616729942204641e-02
-5.615338434152399028e-02
-6.028348281603559955e-02
-6.501725143831835196e-02
-7.059378226102930309e-02
-7.703155798979119395e-02
-8.446141420968958369e-02
-9.298549069692510494e-02
-1.027167902570786384e-01
-1.137704172461492802e-01
-1.259579239547421459e-01
-1.391678062314292141e-01
-1.532361731224253787e-01
-1.679605706006327970e-01
-1.832008453644999868e-01
-1.985045902626546566e-01
-2.135123257183588752e-01
-2.278425883032292321e-01
-2.411036050364859795e-01
-2.530231727629519978e-01
-2.630967052388902827e-01
-2.709371869995335635e-01
-2.762124168103456401e-01
-2.786428991218968809e-01
-2.781145403774116232e-01
-2.743952531676831508e-01
-2.673489984421439369e-01
-2.569619490308607257e-01
-2.433048071058757089e-01
-2.266128916646322766e-01
-2.070909650273639602e-01
-1.849519974834437641e-01
-1.605383893616386948e-01
-1.342493124433390972e-01
-1.065786942983796004e-01
-7.803453405981530810e-02
-4.901622073513200312e-02
-1.999835681868169027e-02
8.551496181325415197e-03
3.616507270420206421e-02
6.236297081372062234e-02
8.683264383777550277e-02
1.092633707375135765e-01
1.294014819198160415e-01
1.470489375073870675e-01
1.620276833253973536e-01
1.742798580538512110e-01
1.838036011504013967e-01
1.906594025339132803e-01
1.949603108968051557e-01
1.968683650053533185e-01
1.965502424687842198e-01
1.942358950449343813e-01
1.901888473821949921e-01
1.846919561528563292e-01
1.780782926905482566e-01
1.705964851422360207e-01
1.625016073330181610e-01
1.540629391992164865e-01
1.455371596989890048e-01
1.372379496530248266e-01
1.293611151729905373e-01
1.219965550222815720e-01
1.152765873520543438e-01
1.093088497069105158e-01
1.042703732788229920e-01
1.002943895006749020e-01
9.720243175086770715e-02
9.495868061182080599e-02
9.351132065204083299e-02
9.286730768284270909e-02
9.320162565539125143e-02
9.407447300237729848e-02
9.534234605703127696e-02
9.686696238025460648e-02
9.852503292550580938e-02
1.006330419675623700e-01
1.026180054756364590e-01
1.043318406599566400e-01
1.056534176875891240e-01
1.064927198076672660e-01
1.070952717553186051e-01
1.071565611530477802e-01
1.065498795526918785e-01
1.052446382505618783e-01
1.032418098775736287e-01
1.007067276519482690e-01
9.762346325103490874e-02
9.395941642729420396e-02
8.976571334326406693e-02
8.510493261218615713e-02
8.004833756017512569e-02
7.468370100523877286e-02
6.907713614281138503e-02
6.327469256909959427e-02
5.730521985722390743e-02
5.112711779031751946e-02
4.469111586223101229e-02
3.811250318702634476e-02
3.135273072097854996e-02
2.434389905369702123e-02
1.695768024886695757e-02
8.911245556559879710e-03
3.485261348539631099e-04
-8.825574888307805010e-03
-1.871676464675012252e-02
-2.943451479708586449e-02
-4.134164360695578855e-02
-5.423432869922427402e-02
-6.811655132191658801e-02
-8.297939627508543747e-02
-9.878852842806798429e-02
-1.156780294519423324e-01
-1.333906386401070010e-01
-1.516891981966633218e-01
-1.703508239412235004e-01
-1.891237643066161211e-01
-2.078642388076481495e-01
-2.262332597529528311e-01
-2.438099744282438142e-01
-2.602399730437339742e-01
-2.751741418313440324e-01
-2.883576822747250801e-01
-2.995075439084567415e-01
-3.082383146551582742e-01
-3.142947345005003834e-01
-3.174730006154456441e-01
-3.176678357680537412e-01
-3.148571395781846194e-01
-3.089023636926175320e-01
-2.998368229898593640e-01
-2.877618752434534244e-01
-2.728554325864355201e-01
-2.554340523651305039e-01
-2.356288228579095922e-01
-2.137406929682866275e-01
-1.901097521409359503e-01
-1.651024378957714478e-01
-1.392073735283430869e-01
-1.126774889747111097e-01
-8.586405920773192146e-02
-5.911892885033331185e-02
-3.277508163881995285e-02
-7.221084589917922680e-03
1.734413610679128026e-02
4.073292818574925089e-02
6.276523620129242920e-02
8.329722769076741695e-02
1.021710240596271635e-01
1.193310135066762145e-01
1.347855558181006719e-01
1.485353752152136497e-01
1.606034843827272296e-01
1.710164548306994936e-01
1.798200310895137211e-01
1.870979840629890811e-01
1.929207939555785123e-01
1.973617338624547857e-01
2.005083039909948961e-01
2.024634931362775947e-01
2.032479993738977586e-01
2.029168757532263667e-01
2.015255385064249061e-01
1.991468320204640985e-01
1.960066888734812163e-01
1.919953603080740978e-01
1.871606628061182331e-01
1.815624192264018721e-01
1.752812405853758637e-01
1.687000096257271764e-01
1.616650280192627465e-01
1.542214114790445012e-01
1.464679042545985743e-01
1.385253678401568433e-01
1.308370510506089990e-01
1.233378851525213371e-01
1.160028645497348243e-01
1.089375141377788569e-01
1.022543540913907756e-01
9.630650506992552429e-02
9.112436632965809080e-02
8.654148858599947092e-02
8.259330346256202326e-02
7.930767785061082487e-02
7.682467797187750302e-02
7.518947619231797219e-02
7.411244871070793439e-02
7.352502133946683949e-02
7.335232050782383717e-02
7.353641156165177661e-02
7.403824367869724088e-02
7.458085606853254168e-02
7.503901204728466445e-02
7.529324384119148728e-02
7.521877742464815053e-02
7.463374013038388821e-02
7.342923765476011555e-02
7.149949538136934901e-02
6.875135090651569858e-02
6.509486010225142005e-02
6.027983862912966728e-02
5.435116726506203366e-02
4.729079272116953891e-02
3.906410987474329133e-02
2.964255286730549388e-02
1.883237538787096987e-02
6.726241075968891758e-03
-6.563843472564750980e-03
-2.099814019775625429e-02
-3.652588092926989383e-02
-5.321076014541190058e-02
-7.093562155730245844e-02
-8.943281945949743683e-02
-1.085535722108820489e-01
-1.281325757745990779e-01
-1.480593849803028272e-01
-1.681670946950681866e-01
-1.880275194384298798e-01
-2.073688742094555171e-01
-2.259126824382581000e-01
-2.434034712826122215e-01
-2.596577059296119039e-01
-2.741747083251345751e-01
-2.866496840686690861e-01
-2.968043436430019000e-01
-3.043897380143169018e-01
-3.093415822467173171e-01
-3.112911718198813071e-01
-3.100873829804217663e-01
-3.056440622997967926e-01
-2.979399602712352602e-01
-2.871283928527285645e-01
-2.732131870716781319e-01
-2.563201965269052418e-01
-2.366677148978393319e-01
-2.145364396840043764e-01
-1.903379232989847736e-01
-1.644123380350324959e-01
-1.371170243568258229e-01
-1.088788158653622440e-01
-8.014153139150273497e-02
-5.140191336589006177e-02
-2.310052316700353381e-02
4.405988465564378287e-03
3.073240033857733977e-02
5.552948938799827372e-02
7.847021324098718553e-02
9.928425689343976790e-02
1.178432025601657690e-01
1.340097950649923597e-01
1.477021940646982556e-01
1.588930268418541347e-01
1.676045764127697679e-01
1.739718939607284576e-01
1.781181723828233754e-01
1.801997721067582214e-01
1.804073889774854278e-01
1.790004407863433622e-01
1.762078889770528345e-01
1.722589553616877822e-01
1.673803361672885348e-01
1.617981091639320579e-01
1.558413686445698776e-01
1.496629445744241949e-01
1.434042883046527939e-01
1.372097264897498281e-01
1.312062472025912196e-01
1.256580132057932842e-01
1.206065548055516023e-01
1.159941227234546623e-01
1.118396016432597340e-01
1.081507161017085106e-01
1.050816410223139874e-01
1.026559538419007100e-01
1.006131360239061745e-01
9.889333803580407922e-02
9.744155863654019312e-02
9.631135615026120700e-02
9.561653543205311800e-02
9.496469480100230842e-02
9.428176774729229992e-02
9.351189577566598743e-02
9.263967313763656064e-02
9.187473721739362886e-02
9.081221215433554761e-02
8.940300441645206153e-02
8.762265831882057321e-02
8.545661285834411924e-02
8.304151950415772365e-02
8.015503021132887318e-02
7.676869083437104502e-02
7.289390595625505620e-02
6.854738358069040194e-02
6.372783103842075136e-02
5.840697013949541772e-02
5.260157100448276113e-02
4.634146758798407539e-02
3.965402659796600504e-02
3.245702218887928925e-02
2.476374921018607150e-02
1.666495446877023709e-02
8.180260000688336502e-03
-6.808363143175517884e-04
-1.002520529377780301e-02
-1.992013540975451705e-02
-3.020279047484936141e-02
-4.086792384387349930e-02
-5.191823367840280035e-02
-6.342359122449983677e-02
-7.553754034427670461e-02
-8.801689656111545690e-02
-1.008188950138999840e-01
-1.138946263798794600e-01
-1.271982712876431332e-01
-1.408736858004464576e-01
-1.545676724339097863e-01
-1.681301036304763130e-01
-1.813956145835072808e-01
-1.941855836611759978e-01
-2.064830425191210850e-01
-2.179150390476080057e-01
-2.282119890241353644e-01
-2.371302536738892353e-01
-2.444342567919330356e-01
-2.500134349736182204e-01
-2.535900923674023755e-01
-2.549205937423292823e-01
-2.538458443619671656e-01
-2.502499931408069811e-01
-2.441272908875236625e-01
-2.354378332224347226e-01
-2.241477012401049129e-01
-2.103426874399287883e-01
-1.941665284457989027e-01
-1.758452360757467581e-01
-1.556248868692945431e-01
-1.337212540030417451e-01
-1.104577007532997479e-01
-8.618923682013342191e-02
-6.129662746392255945e-02
-3.616642707759916420e-02
-1.110606036473944791e-02
1.351891699559186477e-02
3.735928895085872947e-02
6.009962580502598017e-02
8.147284593578162093e-02
1.012930655265920077e-01
1.193706845162800789e-01
1.355597510869604450e-01
1.497695954854358913e-01
1.620200399324907004e-01
1.723282675138420039e-01
1.807279549361889004e-01
1.872871746596886655e-01
1.921092678126809228e-01
1.954256816674581620e-01
1.973906839203553032e-01
1.981069710715611665e-01
1.977056677260879414e-01
1.963185336796539060e-01
1.941909035050749244e-01
1.914950578729191777e-01
1.882211428300537559e-01
1.844269735515623732e-01
1.801572375582767560e-01
1.755440439612066528e-01
1.707473633233599353e-01
1.655970404599309553e-01
1.600812175187620034e-01
1.541890610145152385e-01
1.479640383478378340e-01
1.416188281635967772e-01
1.349026430048061997e-01
1.278255827455889448e-01
1.204180227439698991e-01
1.127263182442587164e-01
1.050322907437202247e-01
9.710821916997403047e-02
8.901730365838145254e-02
8.085299270822099427e-02
7.270935733522865263e-02
6.477700254657470236e-02
5.693761477774317292e-02
4.921766999257726205e-02
4.169385556389115788e-02
3.442561961430490314e-02
2.744992471142981838e-02
2.065196009900904794e-02
1.397916296155254923e-02
7.415974444419437539e-03
9.311903992798020724e-04
-5.577295638129864397e-03
-1.227098370723356258e-02
-1.921943292199451703e-02
-2.649873530556351442e-02
-3.417920503959262502e-02
-4.237839374375404478e-02
-5.125408602437789285e-02
-6.075009404613567615e-02
-7.088506629138419113e-02
-8.165336657686467214e-02
-9.304578743247528261e-02
-1.051409995640685130e-01
-1.176592198149822299e-01
-1.304765668170155268e-01
-1.434508042997930666e-01
-1.564168225058794603e-01
-1.693487477703931043e-01
-1.818205587577692295e-01
-1.935900391398257536e-01
-2.044383976774805101e-01
-2.141527305391266733e-01
-2.226649421367225545e-01
-2.296181359991845694e-01
-2.347619035272610066e-01
-2.379357746197932610e-01
-2.390170307017218110e-01
-2.380407409017822884e-01
-2.348789497938318926e-01
-2.293951427576956248e-01
-2.215939429716072273e-01
-2.115298529551666862e-01
-1.993968253665406309e-01
-1.853614380389653205e-01
-1.694408479933735556e-01
-1.518175729716154665e-01
-1.327118748801126014e-01
-1.124275966528190951e-01
-9.134981778500744776e-02
-6.961184763742866988e-02
-4.749843095593697662e-02
-2.530529847964635426e-02
-3.345614974712418643e-03
1.796200178114260027e-02
3.844727712556744725e-02
5.784511207683185052e-02
7.590887738365015291e-02
9.241579001908500901e-02
1.071386889588349101e-01
1.199522507974199736e-01
1.307376247385775014e-01
1.394115414751492255e-01
1.459377148946920943e-01
1.503768514339976492e-01
1.527780893765544323e-01
1.532160777483289604e-01
1.518186632048361129e-01
1.487600879400911014e-01
1.443535723393158665e-01
1.388695386957564393e-01
1.325006658209686994e-01
1.255116977982207449e-01
1.181836481529909277e-01
1.109148234947022194e-01
1.041013683897250020e-01
9.785454089810363687e-02
9.239196125606802257e-02
8.790513767934188261e-02
8.463576667810590592e-02
8.294324654539342312e-02
8.264299546341014047e-02
8.373270306954466724e-02
8.616452064807322841e-02
8.986907646711672637e-02
9.507275850547847185e-02
1.012470218802446476e-01
1.081574140460894173e-01
1.155491830277604048e-01
1.231564330375697347e-01
1.309768287073638238e-01
1.384706030728913850e-01
1.453007015735033602e-01
1.512055598930463485e-01
1.559528223021419135e-01
1.594721389005160084e-01
1.614669453501127172e-01
1.617309817958550999e-01
1.601883458430206908e-01
1.568113174134162513e-01
1.516296621985222248e-01
1.446326882244676204e-01
1.358631808553577569e-01
1.254483425038723232e-01
1.135438503837361279e-01
1.002822501986679049e-01
8.577034371028172122e-02
7.023101949452223436e-02
5.385143167588026664e-02
3.681201173334677779e-02
1.924202152849871159e-02
1.152154347033506818e-03
-1.718369508889846728e-02
-3.564644657632932978e-02
-5.413785827221918173e-02
-7.258101279880405099e-02
-9.111811386880432073e-02
-1.094657781324109569e-01
-1.275520170678724474e-01
-1.453120908316101745e-01
-1.626803633625641121e-01
-1.797383071551287292e-01
-1.962447204656974920e-01
-2.120365656728968318e-01
-2.269770010194470111e-01
-2.409185772308468088e-01
-2.538073060224231847e-01
-2.654070760201374113e-01
-2.754575158560688131e-01
-2.837587444553266725e-01
-2.901221084999491828e-01
-2.944482796147267489e-01
-2.965936806780908874e-01
-2.963378731830924595e-01
-2.935685538789224447e-01
-2.882177578102486093e-01
-2.803200697466975977e-01
-2.699796753781530390e-01
-2.571535230203791933e-01
-2.419547157234117618e-01
-2.245492857931749853e-01
-2.051835010552041927e-01
-1.842682607735291467e-01
-1.619171155937201290e-01
-1.384382379027079557e-01
-1.141658828997008657e-01
-8.945327392922633458e-02
-6.486277597758413616e-02
-4.052572280775021407e-02
-1.675308725635826432e-02
6.148031157595365559e-03
2.789354724896214721e-02
4.808878774129235478e-02
6.665890700309975991e-02
8.349123233937957855e-02
9.846502422672562260e-02
1.114997457849001561e-01
1.225001207426535677e-01
1.315234872400453670e-01
1.386645572481233213e-01
1.440005546671868086e-01
1.476372016744285087e-01
1.497251305350728035e-01
1.504495839338563234e-01
1.499677026239534805e-01
1.484481455571969311e-01
1.460659691181824260e-01
1.430548396385262766e-01
1.397029442794355258e-01
1.360536741208322464e-01
1.322496371346512656e-01
1.284256622585425167e-01
1.247467102460217969e-01
1.216014341505732288e-01
1.188136437905948917e-01
1.164422564502038959e-01
1.145368642490361966e-01
1.131461952302863505e-01
1.126718911238637766e-01
1.127939335465287241e-01
1.134549359404875557e-01
1.146250480749571032e-01
1.162730199424218958e-01
1.186530318422767682e-01
1.214813558292787699e-01
1.245653856474328858e-01
1.278206672743414929e-01
1.311636595658326188e-01
1.346802553015227777e-01
1.381670341942418390e-01
1.413579793972484788e-01
1.441479340518407315e-01
1.464403291016646291e-01
1.482008743860984135e-01
1.492989854260231009e-01
1.495027741604028626e-01
1.487276859251180916e-01
1.469067614820694923e-01
1.439783039855132563e-01
1.398469758337107516e-01
1.344229629764218670e-01
1.276773169714119360e-01
1.196012248223758956e-01
1.101879792731186303e-01
9.933896168383737901e-02
8.715945384814860475e-02
7.369279986046306519e-02
5.899714121651067344e-02
4.314182767902852156e-02
2.606945968901919208e-02
8.012414869524420169e-03
-1.089000037563359058e-02
-3.050935489854178506e-02
-5.070540724794714293e-02
-7.143388832701969005e-02
-9.242032956154611067e-02
-1.134168981516188168e-01
-1.342241893351671100e-01
-1.546361692501242446e-01
-1.745120318872704912e-01
-1.935777460166235864e-01
-2.115128947253464009e-01
-2.280814400531940844e-01
-2.430576167006723298e-01
-2.562737478111093981e-01
-2.675353829918266646e-01
-2.765431645730890287e-01
-2.831227333639064758e-01
-2.871362939138293324e-01
-2.885128319173073663e-01
-2.872704195076695166e-01
-2.832478800459596879e-01
-2.764544623671421064e-01
-2.669538478027448924e-01
-2.548690173658494373e-01
-2.405379715232970339e-01
-2.239845268220174712e-01
-2.054427522318643673e-01
-1.851907032533807174e-01
-1.635472818739286405e-01
-1.410409917832496918e-01
-1.178823319169223227e-01
-9.439121977716602441e-02
-7.092564793172440041e-02
-4.784283881007489470e-02
-2.563236131572388388e-02
-4.529069856308298725e-03
1.526511318607970402e-02
3.350955612336781186e-02
5.000206314509725303e-02
6.450927012847285091e-02
7.695209232726285542e-02
8.736251871456834905e-02
9.572548101118050212e-02
1.020691918410239207e-01
1.064611280722145281e-01
1.090565666697218550e-01
1.100477007870808155e-01
1.095895471013161870e-01
1.078532046409448331e-01
1.050565512011524261e-01
1.015491392819444227e-01
9.748198998487678235e-02
9.303411518964088689e-02
8.837006371724753784e-02
8.366010629243747498e-02
7.935347076423959756e-02
7.540516893405213583e-02
7.191180694195853373e-02
6.895190320069072287e-02
6.659918056298103073e-02
6.520015895290079411e-02
6.462980875603732689e-02
6.484450893629425949e-02
6.585131871561705763e-02
6.765200617593401800e-02
7.044639076759179330e-02
7.409946108947013110e-02
7.844758576142966955e-02
8.345249660676740122e-02
8.906859802389337222e-02
9.534279177893109636e-02
1.021287590293311343e-01
1.091571439878666339e-01
1.163241617889330115e-01
1.235172020941506799e-01
1.306299155941836876e-01
1.374535697670880019e-01
1.436481885792932900e-01
1.490317087212279512e-01
1.534265680200253001e-01
1.566369083431142784e-01
1.583868735551694495e-01
1.583970065325921439e-01
1.564924373909915012e-01
1.525334975395584713e-01
1.463981237382914191e-01
1.378536490268986725e-01
1.268722874873438045e-01
1.134584795597195495e-01
9.767194810831791862e-02
7.962102685488092746e-02
5.931856029382664985e-02
3.703518793854021496e-02
1.308144991683368730e-02
-1.221758346967494191e-02
-3.849754846002362285e-02
-6.547312576574815246e-02
-9.269047960658172158e-02
-1.196263304237077385e-01
-1.458244318527365246e-01
-1.708377702123670128e-01
-1.943038214967250377e-01
-2.158362079559758284e-01
-2.349676714147010959e-01
-2.513683371656733057e-01
-2.647669413941126093e-01
-2.749849494282031737e-01
-2.819291629501355922e-01
-2.854203973485898160e-01
-2.854361049738862732e-01
-2.820235351541757751e-01
-2.753031804539212146e-01
-2.655187844887572091e-01
-2.527991169342840294e-01
-2.374026542122540384e-01
-2.196277585192596415e-01
-1.998031590972582094e-01
-1.783416176588545898e-01
-1.555273828657082191e-01
-1.317134665920332015e-01
-1.072602705446731308e-01
-8.251712663371968404e-02
-5.785139749093504147e-02
-3.351037057236716521e-02
-9.763094367618130320e-03
1.312045131240802132e-02
3.490165310073731209e-02
5.536954360608958847e-02
7.442746253899086561e-02
9.195847868331653852e-02
1.078277503399771020e-01
1.219292005391864331e-01
1.342080948138648366e-01
1.447300928851698032e-01
1.535108917237000270e-01
1.605296721934938442e-01
1.657816440454870088e-01
1.693185845371268927e-01
1.713412993734321765e-01
1.719421430895823888e-01
1.711861099620600735e-01
1.691405340770085197e-01
1.659105629368870516e-01
1.618062805985586161e-01
1.569142623679783410e-01
1.513537070231396331e-01
1.452347783322786856e-01
1.386790239975384531e-01
1.320063080475650796e-01
1.252531469653724028e-01
1.185130965334865727e-01
1.118891775148809636e-01
1.054724001727631866e-01
9.948008757610818376e-02
9.386189341018359722e-02
8.859778272469012728e-02
8.372881927676449620e-02
7.927494413289117026e-02
7.530114517845097610e-02
7.165837353278491084e-02
6.819136403429792992e-02
6.486420611970793171e-02
6.163314608571791864e-02
5.844861333368043393e-02
5.511236126405610891e-02
5.140904877451413224e-02
4.727011846379197690e-02
4.264416438311884050e-02
3.746671923258552972e-02
3.157145665338738361e-02
2.481287907065114762e-02
1.716188009073106591e-02
8.623083373560366804e-03
-7.915139687518363276e-04
-1.116538746359872769e-02
-2.246795949442551010e-02
-3.463790385850833153e-02
-4.758283456749572149e-02
-6.119196847075202700e-02
-7.543661915835560283e-02
-9.012137348176765816e-02
-1.050702773489530506e-01
-1.201101861147229610e-01
-1.350548075733870590e-01
-1.497947950864744748e-01
-1.640485165659902600e-01
-1.775428359470750117e-01
-1.900630316783198936e-01
-2.013992424728839048e-01
-2.114249542762094980e-01
-2.199007609066498392e-01
-2.265215693468889957e-01
-2.311083900124984436e-01
-2.335126001264278273e-01
-2.336738543576168947e-01
-2.315432509557741048e-01
-2.268991425710678023e-01
-2.197071921434356478e-01
-2.099852194792738436e-01
-1.978290531177570311e-01
-1.834784546772263714e-01
-1.669106253226262937e-01
-1.483142381989791814e-01
-1.279303232163902515e-01
-1.060486495719735189e-01
-8.314629945904822295e-02
-5.942547257452268639e-02
-3.524814384140529527e-02
-1.100157562144420120e-02
1.291632756936959142e-02
3.602973306045532259e-02
5.802556461355953821e-02
7.857088517991042687e-02
9.734039039821663908e-02
1.140506239576758035e-01
1.284557438569340904e-01
1.404127238808209888e-01
1.498180238861229197e-01
1.566102598061400453e-01
1.607964687277430305e-01
1.624905495046896076e-01
1.618903443483729887e-01
1.591637400244918510e-01
1.545353213786310742e-01
1.482737147910903885e-01
1.407458380424514155e-01
1.324310313871028821e-01
1.235747540604948680e-01
1.144927360644655834e-01
1.054880930232435510e-01
9.689049561178131320e-02
8.924103384414402984e-02
8.256924345108807017e-02
7.703061632021948602e-02
7.272875078364127166e-02
6.973264663432171551e-02
6.839718398747141048e-02
6.844829510253838678e-02
6.976564813790783748e-02
7.221016272502434052e-02
7.561694826451478835e-02
8.004187771443266319e-02
8.511089587037456994e-02
9.051593437805477427e-02
9.603159756036036554e-02
1.014408730117658808e-01
1.066639161398992841e-01
1.114122045838815966e-01
1.154040317885075551e-01
1.185074602213717632e-01
1.206211994794526288e-01
1.216929445416235073e-01
1.215877103021030942e-01
1.201782961171711933e-01
1.174677894068076600e-01
1.134845363999138074e-01
1.082407367744434995e-01
1.016604303365897383e-01
9.377365867114671738e-02
8.464034418738340670e-02
7.433021743939487169e-02
6.288682911527115893e-02
5.016384022368594597e-02
3.632780593715032036e-02
2.144266635222749628e-02
5.579547226048087172e-03
-1.119368359592678996e-02
-2.903302513305094923e-02
-4.768066529392420150e-02
-6.699471833587075653e-02
-8.684214645666082921e-02
-1.070742575408233921e-01
-1.276955172792082482e-01
-1.483946420240906394e-01
-1.688683834730992372e-01
-1.888667997387702968e-01
-2.081277923490588710e-01
-2.264813583535535968e-01
-2.436069754495582829e-01
-2.591115990003330372e-01
-2.727031598974533066e-01
-2.841099062826838995e-01
-2.931361941518960124e-01
-2.995884635509388216e-01
-3.031826585704421317e-01
-3.037672048412520809e-01
-3.012452067081969331e-01
-2.956007303304515887e-01
-2.869172127515911552e-01
-2.751718354154274460e-01
-2.604834992664720739e-01
-2.430291200891406822e-01
-2.230450866720226077e-01
-2.009209213752674028e-01
-1.768540217701811135e-01
-1.511832637334086238e-01
-1.242741883435942718e-01
-9.651044940244934978e-02
-6.838928728494642062e-02
-4.018974046140116885e-02
-1.226238417769681677e-02
1.503516377771341173e-02
4.136818902767444572e-02
6.636436510268206579e-02
8.983006103060167669e-02
1.115754558261723706e-01
1.314009838776664940e-01
1.491466778639627955e-01
1.646832116249494771e-01
1.779914624744707019e-01
1.890659682587031709e-01
1.978887089172095548e-01
2.044737110585275186e-01
2.089038320513338376e-01
2.113513864364607309e-01
2.119001155560937821e-01
2.106544203242982638e-01
2.077351785318347632e-01
2.033302808279329743e-01
1.978033054035968630e-01
1.912041017200137860e-01
1.836911820461540334e-01
1.754258888745237610e-01
1.665921182441040260e-01
1.577278980047078782e-01
1.487508766833119389e-01
1.398105789646275632e-01
1.310505761429235361e-01
1.226176369601660876e-01
1.149777297538773224e-01
1.080228533285831904e-01
1.017647218941443166e-01
9.626810987266570807e-02
9.158254699003040566e-02
8.797005221816583953e-02
8.528560940815593794e-02
8.335262798934267581e-02
8.212102181625585695e-02
8.152317292314933961e-02
8.158187989313092636e-02
8.210867721445130885e-02
8.279661012099630291e-02
8.351188307988272053e-02
8.412153689419749059e-02
8.450259128397660802e-02
8.444364669388410016e-02
8.366791848031845946e-02
8.204687699926560551e-02
7.947621876724988987e-02
7.584350479443111026e-02
7.093864905981114855e-02
6.468357519784705134e-02
5.703842276740896111e-02
4.799620763234521692e-02
3.756209791802116171e-02
2.554676064837416161e-02
1.212744291737923030e-02
-2.608489873495087319e-03
-1.855803290393322896e-02
-3.560439643708653012e-02
-5.382473039064200604e-02
-7.292353326967838945e-02
-9.265966431422871519e-02
-1.128384510294538345e-01
-1.332570936003503459e-01
-1.538691478810923219e-01
-1.743612337887726627e-01
-1.943625194561282021e-01
-2.136159913347316919e-01
-2.318684069960749161e-01
-2.489783373757099016e-01
-2.646956777375396030e-01
-2.785972746029292124e-01
-2.904303924337485743e-01
-2.999678742034005419e-01
-3.070640564139144324e-01
-3.116230237070203302e-01
-3.133150450188568747e-01
-3.120155029313811390e-01
-3.076513009826802314e-01
-3.002162041263298775e-01
-2.898600413961284206e-01
-2.764991329558170730e-01
-2.602538223143755491e-01
-2.413047460594123783e-01
-2.198885114934879814e-01
-1.963913643738152137e-01
-1.710291051263428397e-01
-1.441461433687459825e-01
-1.161307450768066241e-01
-8.739409189764053842e-02
-5.842191987045637636e-02
-2.957344908880033679e-02
-1.229446691632635202e-03
2.621952429270561075e-02
5.241057928119866038e-02
7.698142048558087591e-02
9.969058276539170815e-02
1.203510583854193738e-01
1.387880568714854046e-01
1.548827460344524842e-01
1.685664878983777204e-01
1.798662351963909722e-01
1.888666399538847518e-01
1.956583028240957978e-01
2.003711913708053349e-01
2.031887677149096239e-01
2.043740448363887685e-01
2.041215463671414709e-01
2.026364241296991775e-01
2.001207296868711683e-01
1.967895710169045298e-01
1.930220489460859890e-01
1.888529710483192736e-01
1.844051290798029985e-01
1.797724052098271796e-01
1.750342563425829057e-01
1.705349276415164261e-01
1.660983110061758639e-01
1.616694208533634713e-01
1.572126352541207417e-01
1.526921647063383680e-01
1.483606490735391303e-01
1.440183023783276617e-01
1.394875120333684271e-01
1.347220615718925374e-01
1.296993253349146280e-01
1.246371369978059862e-01
1.194909806473962721e-01
1.140719178772757192e-01
1.084183227929676752e-01
1.025948490390111156e-01
9.679518287939592458e-02
9.113367958571547134e-02
8.544645573222839352e-02
7.981377560645251668e-02
7.432170060744597295e-02
6.906963419510250834e-02
6.414487459023630878e-02
5.938825213304992079e-02
5.480476475090290123e-02
5.038781865423584694e-02
4.609676548675096380e-02
4.179341561077910827e-02
3.735665167273381770e-02
3.268096493571678862e-02
2.765614159396746416e-02
2.215561324360749984e-02
1.586956582894875206e-02
8.759087259770710621e-03
7.424324643785645828e-04
-8.271389866277473885e-03
-1.835729559305128433e-02
-2.975184049639595374e-02
-4.238660599271016488e-02
-5.614142958987798637e-02
-7.095240285072955400e-02
-8.672558317326778399e-02
-1.034721822477358971e-01
-1.210112854277603511e-01
-1.389848999703221233e-01
-1.571588975999384519e-01
-1.752863954930008739e-01
-1.931886346995991266e-01
-2.106562619680000525e-01
-2.272152943296533723e-01
-2.425772340183867115e-01
-2.564732183712225555e-01
-2.686882368274026711e-01
-2.791268685867623889e-01
-2.873682356156141426e-01
-2.932194869821540539e-01
-2.965318021840729346e-01
-2.971999244513676142e-01
-2.953413944460589469e-01
-2.907140170171466642e-01
-2.833080285835548051e-01
-2.731683223898385693e-01
-2.603873933849818467e-01
-2.452363720226378163e-01
-2.277617574184537252e-01
-2.081185395162085117e-01
-1.865356567941146571e-01
-1.632773053720709133e-01
-1.387220592765675276e-01
-1.131352000842230088e-01
-8.678180098662333086e-02
-5.999379903194312913e-02
-3.311274728738276135e-02
-6.522936996253029737e-03
1.944129990735200125e-02
4.451471353272527104e-02
6.839737610551244185e-02
9.081197312304778446e-02
1.115012401103325224e-01
1.302505903578163871e-01
1.469240668400779715e-01
1.613922026098295603e-01
1.735702743320235442e-01
1.834279475834027506e-01
1.910185207110816352e-01
1.963914500844041733e-01
1.996401072987139813e-01
2.008964462325235900e-01
2.003361516678419940e-01
1.983009972430752887e-01
1.949384398261276574e-01
1.904663214154198869e-01
1.851143015976857154e-01
1.791232843929667085e-01
1.729409065788994337e-01
1.666936960581428817e-01
1.605038046529594087e-01
1.545184721717005882e-01
1.488664737600596255e-01
1.438860850394440560e-01
1.396085481042719512e-01
1.358978562090673303e-01
1.327276892647923368e-01
1.300528240587774109e-01
1.280019654487775937e-01
1.265686094707290654e-01
1.253837715617287241e-01
1.243181952905075549e-01
1.232506297175973708e-01
1.221703053020340157e-01
1.211452483826070681e-01
1.197597753210696281e-01
1.179281356889894244e-01
1.155977741776319095e-01
1.127577273247550027e-01
1.095588177472177627e-01
1.057265336903044639e-01
1.012846769202829789e-01
9.628875328326397254e-02
9.079912954214887366e-02
8.487345106541439865e-02
7.845799508324091676e-02
7.161063359289512875e-02
6.440387909115417864e-02
5.689039080170608942e-02
4.896085557897862650e-02
4.061379196683462256e-02
3.188311969479099006e-02
2.276339646974040454e-02
1.322638484540619719e-02
3.056028090159979005e-03
-7.829181944322249898e-03
-1.937653313420345524e-02
-3.163837477967784695e-02
-4.466547542291909867e-02
-5.861981192857379508e-02
-7.360085684505751624e-02
-8.941855368673656823e-02
-1.060335104505408244e-01
-1.233790859754601565e-01
-1.414071394951211813e-01
-1.600930646515781874e-01
-1.790365877092252866e-01
-1.980116946952814871e-01
-2.167690955391859131e-01
-2.350386092926248782e-01
-2.526517310721748122e-01
-2.690740896892492851e-01
-2.839659647198664594e-01
-2.970017609659477698e-01
-3.078691850148356224e-01
-3.163794679119522613e-01
-3.221166486752411462e-01
-3.248157710580924507e-01
-3.242886636291735236e-01
-3.204049186635725133e-01
-3.131871640891599751e-01
-3.025348892439469473e-01
-2.884341897547738620e-01
-2.709905278220245961e-01
-2.503795806784832600e-01
-2.269236208064660532e-01
-2.008949992554638353e-01
-1.725457937779552586e-01
-1.422572759328636915e-01
-1.104539193248332829e-01
-7.764309297131261056e-02
-4.433249475407824436e-02
-1.090026097977242481e-02
2.217155715118424020e-02
5.440453562971081514e-02
8.532221262699657416e-02
1.144525637991252731e-01
1.414827448796205367e-01
1.660535843042162119e-01
1.878500773308818261e-01
2.066158386547342352e-01
2.221777768050789414e-01
2.344307301222031403e-01
2.432983578218393395e-01
2.487647278669110062e-01
2.508864669037038642e-01
2.498849551260580726e-01
2.459263778106169640e-01
2.392264445885824153e-01
2.300590732030273755e-01
2.187492785898538794e-01
2.057971097238128766e-01
1.915831272840684829e-01
1.764489742088784785e-01
1.607945150135047796e-01
1.450225604455194495e-01
1.296646288877988940e-01
1.151254378292254354e-01
1.015996727692235757e-01
8.936888177874040273e-02
7.867154779653394436e-02
6.980228785618336484e-02
6.300325170747299308e-02
5.809276241378379113e-02
5.506234564886415550e-02
5.385199833538800718e-02
5.439588102334874664e-02
5.673211107868669778e-02
6.029346429068137281e-02
6.481372866413644129e-02
7.001566209046351796e-02
7.560424199829365866e-02
8.150308881370997571e-02
8.704861689715542861e-02
9.192547414534901762e-02
9.587667561901080937e-02
9.867743901232321757e-02
1.002285280130489759e-01
1.001861082989767976e-01
9.839768003514237638e-02
9.482339516692890602e-02
8.947665021688713805e-02
8.239461450351215355e-02
7.360576897843833233e-02
6.323102128943003386e-02
5.144563986227816688e-02
3.845356648809482303e-02
2.440010888278797141e-02
9.479250534357330782e-03
-5.998233450367110309e-03
-2.180853629499384522e-02
-3.774251892508612843e-02
-5.367892391684109255e-02
-6.953409347915869010e-02
-8.495418022177825268e-02
-9.981225090509440734e-02
-1.140173319437295107e-01
-1.275325075107043848e-01
-1.404947203869433003e-01
-1.525717204977272423e-01
-1.637257680832455986e-01
-1.739434031788726354e-01
-1.832203082136035777e-01
-1.917555685663704379e-01
-1.992751311830891492e-01
-2.057133954471594972e-01
-2.110284071919052429e-01
-2.151770989020952429e-01
-2.182417906280689768e-01
-2.200468265376604449e-01
-2.204608819029287847e-01
-2.194054743696171039e-01
-2.168147228822817629e-01
-2.127110159412617940e-01
-2.070388117601180689e-01
-1.997173547103734403e-01
-1.907423681124223447e-01
-1.801424787834796093e-01
-1.680228053816457123e-01
-1.545034652192119051e-01
-1.396536386858219236e-01
-1.236286511342737926e-01
-1.066145785743760621e-01
-8.884736186531005941e-02
-7.060293464437093769e-02
-5.204516035503155280e-02
-3.342405982649988838e-02
-1.499233476564773571e-02
2.999135118908896613e-03
2.025621708058816806e-02
3.668142993635367666e-02
5.209494769460257246e-02
6.634118668130412066e-02
7.929973328852846226e-02
9.085437984100469544e-02
1.010361172538751240e-01
1.098409557765598898e-01
1.172826315274482778e-01
1.234058927938350148e-01
1.283170427464073171e-01
1.321297747352947471e-01
1.349406728122688470e-01
1.368538328519025016e-01
1.379796637012832283e-01
1.385192106349415475e-01
1.385960970408338655e-01
1.382338026696260380e-01
1.374983785512159107e-01
1.364465034559809442e-01
1.352278306440044264e-01
1.339665284387455968e-01
1.325148898819200616e-01
1.308589552453571780e-01
1.289828860124965504e-01
1.269433955909371470e-01
1.249352531931048199e-01
1.226826516744107948e-01
1.201543200880417911e-01
1.173340535798888390e-01
1.142355704154902618e-01
1.111755559044656505e-01
1.078524429319781958e-01
1.042825186711444085e-01
1.005024404945300265e-01
9.656287524398947386e-02
9.272020873836342436e-02
8.881565290958187697e-02
8.485677087883654324e-02
8.089900805461043565e-02
7.699150583839425854e-02
7.323530798860525270e-02
6.953983937159237405e-02
6.586106910950463578e-02
6.220228022977228322e-02
5.855021205986046806e-02
5.483977700134320954e-02
5.093827328452205788e-02
4.677481983806200394e-02
4.228938071649118724e-02
3.741638938976307033e-02
3.201974495541110022e-02
2.590676493653397416e-02
1.907757695492300065e-02
1.148058660313150403e-02
3.078229980342461758e-03
-6.196766798326175385e-03
-1.652899329215617996e-02
-2.775607736694962746e-02
-3.983608348635164775e-02
-5.270496459855059102e-02
-6.628241366996912021e-02
-8.067093885641790640e-02
-9.554382355145280004e-02
-1.107400370331275696e-01
-1.260881727516753870e-01
-1.414050586587132230e-01
-1.566319486526439597e-01
-1.714292442427680641e-01
-1.855381652300953088e-01
-1.987386230200178239e-01
-2.108153694460376260e-01
-2.216470897843723087e-01
-2.309553502650660839e-01
-2.384791437179810125e-01
-2.440393944917685909e-01
-2.474823241066811952e-01
-2.487374015553348028e-01
-2.476775749463003828e-01
-2.441398106417752012e-01
-2.380803359744561587e-01
-2.294982943376371876e-01
-2.184669995293247180e-01
-2.050881242836830598e-01
-1.893762888889793383e-01
-1.714865153288424593e-01
-1.516208240449550271e-01
-1.300331908559556882e-01
-1.070554749495741392e-01
-8.288946960311269208e-02
-5.786423797748619507e-02
-3.233565845464991817e-02
-6.674319556322333424e-03
1.869412005916452901e-02
4.347706331615228126e-02
6.731693093872610778e-02
8.986565438926484573e-02
1.108024821538107219e-01
1.298360605844895710e-01
1.467633483953262596e-01
1.613924340438581129e-01
1.735703711495487356e-01
1.832016084531222777e-01
1.902847132528589502e-01
1.948727582593909324e-01
1.970254903658288093e-01
1.968546608910422824e-01
1.945214784443290157e-01
1.902947566888954778e-01
1.844816694986129435e-01
1.772852822809316553e-01
1.689667395301507336e-01
1.597956605450713274e-01
1.501080827450337885e-01
1.403128227317860799e-01
1.305198334510724867e-01
1.209337959058214840e-01
1.117306298512764084e-01
1.030882670533710965e-01
9.536075262710658196e-02
8.839281610297405889e-02
8.221415574962398498e-02
7.682586369022209594e-02
7.220608719934923370e-02
6.855235996001990406e-02
6.554071164050012666e-02
6.305324627128619519e-02
6.099979092160603966e-02
5.928886545583933465e-02
5.797933089721005184e-02
5.679916828587708300e-02
5.559319080444083405e-02
5.430284124873094309e-02
5.288408509251341094e-02
5.135934045159709638e-02
4.958254539411299788e-02
4.744560634047680081e-02
4.494703397655575722e-02
4.209563248786411804e-02
3.889162910983016280e-02
3.525250035316271346e-02
3.112355135012835269e-02
2.650130934254705736e-02
2.138342393240223044e-02
1.572896432401110420e-02
9.416094982382397505e-03
2.465233251398982195e-03
-5.148026989248835616e-03
-1.344271696732594890e-02
-2.244689458795535997e-02
-3.234134973032667948e-02
-4.294246960641401323e-02
-5.421832588585645540e-02
-6.612049821085358436e-02
-7.857974055461447449e-02
-9.168617886123867078e-02
-1.051122319578236819e-01
-1.186641326041246169e-01
-1.321644527169870686e-01
-1.454197113926452012e-01
-1.583601640383177633e-01
-1.706284934162299871e-01
-1.819081767540172145e-01
-1.919651037509278457e-01
-2.005823891260282155e-01
-2.076518445927580392e-01
-2.129528676055659209e-01
-2.162291539641403304e-01
-2.173572176631839437e-01
-2.162624566677746052e-01
-2.129697805110478126e-01
-2.075277071849468413e-01
-1.998873813788010767e-01
-1.901402834143151033e-01
-1.784255264359985993e-01
-1.649494423076119931e-01
-1.500096961128858652e-01
-1.337387269022146385e-01
-1.163825303686029378e-01
-9.820231424778344542e-02
-7.947135588425660591e-02
-6.056665165659124578e-02
-4.164832733988702018e-02
-2.295654750418357759e-02
-4.714430153846392579e-03
1.287560427850854838e-02
2.958339802724707646e-02
4.530804825090213594e-02
5.993684282046252143e-02
7.337076146587218073e-02
8.553879157270957712e-02
9.640507634197643949e-02
1.059726919379346821e-01
1.142347007843568518e-01
1.211921715564609481e-01
1.268645179421724889e-01
1.313402654761139376e-01
1.347173566839846570e-01
1.370134085563010085e-01
1.382739722218246925e-01
1.385543679630188429e-01
1.379862289319273017e-01
1.367628039489854341e-01
1.348723242236632980e-01
1.323844402276616872e-01
1.293753134524653070e-01
1.259761415488540592e-01
1.224883317220229195e-01
1.188405922719317775e-01
1.151184753328199084e-01
1.114080778663167348e-01
1.078046979835370067e-01
1.046720325077361846e-01
1.018470358410104026e-01
9.937865257058509094e-02
9.731357775228549611e-02
9.568773785726281123e-02
9.472141234790004694e-02
9.422627438633371377e-02
9.411243107542369146e-02
9.433284481757196749e-02
9.482208572533244728e-02
9.560320540553154944e-02
9.645429547341931309e-02
9.716231879961539919e-02
9.760265986649843684e-02
9.764837420658811773e-02
9.719530028289337376e-02
9.603943971026741855e-02
9.397813026420377691e-02
9.090895102142632078e-02
8.675346746735110304e-02
8.143423312180171625e-02
7.483345169701065280e-02
6.691976747390505909e-02
5.771303735142681302e-02
4.726764868370335326e-02
3.564384203399345585e-02
2.281673368330962293e-02
8.985119101988583989e-03
-5.700843027554788889e-03
-2.107194890213932859e-02
-3.695212843395360991e-02
-5.332136134447972020e-02
-6.985356715371449088e-02
-8.633979246891279602e-02
-1.025876534268712892e-01
-1.184156139570423649e-01
-1.337898416034701554e-01
-1.484394843656834662e-01
-1.621584376531969851e-01
-1.748038122261514893e-01
-1.862516490565585270e-01
-1.964962290390593336e-01
-2.053870593686925872e-01
-2.127490219039537556e-01
-2.185016302199402072e-01
-2.225832764204330461e-01
-2.250148197143617135e-01
-2.257702358724041902e-01
-2.247140010488746231e-01
-2.218277733208898761e-01
-2.171152900611949543e-01
-2.106350357681723851e-01
-2.024876985532068630e-01
-1.926151428218779160e-01
-1.810921470539409439e-01
-1.680218224135442695e-01
-1.535413920245237984e-01
-1.378826615959435897e-01
-1.211037862173247048e-01
-1.033958754051914897e-01
-8.497418728122098364e-02
-6.606921609052347766e-02
-4.696967895430656514e-02
-2.783599376484033328e-02
-8.911217411848804115e-03
9.550197997549983442e-03
2.730672157455301535e-02
4.413904257726786878e-02
5.991186259071326625e-02
7.445476729717080688e-02
8.760411736744867783e-02
9.923320654402989494e-02
1.093010702355785013e-01
1.178363402632705004e-01
1.248184590397937166e-01
1.302511443634623289e-01
1.341724018113437666e-01
1.367196803826323803e-01
1.381096891833910045e-01
1.384169897504215485e-01
1.377638670566184165e-01
1.362800515427083914e-01
1.341548559980473843e-01
1.316962244889049449e-01
1.289248847838891376e-01
1.259570697282933471e-01
1.228921998260041892e-01
1.198286225770108238e-01
1.170428581324857165e-01
1.143914053036719780e-01
1.119008494478157534e-01
1.095825620222438124e-01
1.074306098979001534e-01
1.055642233380059691e-01
1.037672396291653976e-01
1.019666604401064935e-01
1.001239637096954516e-01
9.819383759838423709e-02
9.618412358000416607e-02
9.389253953724147062e-02
9.121700401190591112e-02
8.813394460586471135e-02
8.462530115927774377e-02
8.067457954808129883e-02
7.613231209839677049e-02
7.092367409105333753e-02
6.506020557383447589e-02
5.856385007434616180e-02
5.142937058302291670e-02
4.354977282917611714e-02
3.490274989745657808e-02
2.552333929413764385e-02
1.546068680614965177e-02
4.738388398042218605e-03
-6.729913082920186904e-03
-1.886716085833063661e-02
-3.159842892445753615e-02
-4.482760556354255937e-02
-5.845313818845124243e-02
-7.253545542572514826e-02
-8.683063062717720493e-02
-1.011804505859213998e-01
-1.154067593533782132e-01
-1.293193964262077666e-01
-1.428615725547085213e-01
-1.557115839166551274e-01
-1.676128013726632116e-01
-1.783409394386988311e-01
-1.876784702977152830e-01
-1.955142073771322098e-01
-2.015830725522474443e-01
-2.056533966697922655e-01
-2.075894312966327648e-01
-2.072942586715245117e-01
-2.047589528848243190e-01
-1.999281319151198222e-01
-1.927526154470429742e-01
-1.833110676562924590e-01
-1.717335253939202833e-01
-1.582132017474943142e-01
-1.429464064498104925e-01
-1.260908549636715614e-01
-1.079169932445771529e-01
-8.872284922934253748e-02
-6.882557361913266281e-02
-4.855368939682380702e-02
-2.811842168272310483e-02
-7.810812668775535261e-03
1.208931184046946328e-02
3.132822456800432587e-02
4.964317952278163304e-02
6.694239527657380728e-02
8.307935342229993969e-02
9.793297944631912388e-02
1.114183896804600282e-01
1.234740613751622307e-01
1.341406820532673183e-01
1.434315497210663648e-01
1.513620137335814075e-01
1.579654212296317806e-01
1.633279638202781714e-01
1.675472384265002668e-01
1.706605581530305504e-01
1.726977185272971504e-01
1.736867303381122996e-01
1.737362028615443699e-01
1.729558517122719852e-01
1.712834152079497074e-01
1.686989266415428179e-01
1.651821966358539007e-01
1.608071189109097909e-01
1.557657546657855996e-01
1.498957558194446982e-01
1.431856948825058762e-01
1.356404796879724373e-01
1.273368788868504131e-01
1.186541493563143812e-01
1.094066424167220442e-01
9.967690826859551545e-02
8.957046492053069575e-02
7.922551959969753588e-02
6.911583228868742323e-02
5.913811536367002963e-02
4.942441203520059334e-02
4.013837420626809038e-02
3.144196013598697659e-02
2.365717333812183965e-02
1.675678295576594340e-02
1.077540070257690386e-02
5.793657762172443881e-03
1.857960189264290518e-03
-9.914073995466454736e-04
-2.880671341086826764e-03
-3.939461671701949275e-03
-4.266940112796824280e-03
-3.996799676194318085e-03
-3.344977384109604213e-03
-2.611276045522414879e-03
-2.001447339144979409e-03
-1.733161489015366818e-03
-2.025445126928149264e-03
-3.154561026759261644e-03
-5.496457728003556475e-03
-9.129497966747002202e-03
-1.420617219711622914e-02
-2.084280371571634038e-02
-2.914178578766801753e-02
-3.938092935358622482e-02
-5.134390225653523432e-02
-6.496134806057940470e-02
-8.011760753580368655e-02
-9.665608162071734344e-02
-1.145928707763373966e-01
-1.334862643242443747e-01
-1.530109557144816446e-01
-1.728467659540902090e-01
-1.926563482605319622e-01
-2.122503153352473804e-01
-2.311422716830334179e-01
-2.488799494159173453e-01
-2.650965061557788438e-01
-2.794497343786507271e-01
-2.917504180724311835e-01
-3.016769910453854786e-01
-3.088446268454900778e-01
-3.130247759569676491e-01
-3.140474745194814510e-01
-3.118961647816253513e-01
-3.065930734957642567e-01
-2.979651827269801934e-01
-2.860385451147479663e-01
-2.709057574952159486e-01
-2.527815564850187102e-01
-2.320764077442654394e-01
-2.088721088250937996e-01
-1.834468567203818290e-01
-1.561214278780860276e-01
-1.272746265503145180e-01
-9.755963684990226481e-02
-6.723992684737689629e-02
-3.672074190478874511e-02
-6.403233711884309676e-03
2.330724721616381223e-02
5.186966815811941411e-02
7.894752810369889962e-02
1.042243431696301403e-01
1.274137281664149968e-01
1.482765202243337410e-01
1.666106058308126359e-01
1.822650324433718327e-01
1.951449830905647997e-01
2.052123333125694116e-01
2.124975318566220961e-01
2.171847240406812596e-01
2.194787134172020981e-01
2.194870584702577898e-01
2.174046131662164538e-01
2.134718650233633774e-01
2.080977957584660976e-01
2.018145597299048910e-01
1.947588522464037963e-01
1.872068225802657193e-01
1.794324887662165080e-01
1.718026294572233825e-01
1.649936685098153943e-01
1.589537917941573897e-01
1.538620752148259219e-01
1.498602628822298388e-01
1.470791975799146112e-01
1.461201054361865037e-01
1.466389147997899378e-01
1.486158882274974113e-01
1.520000874496665877e-01
1.567128281242018972e-01
1.629786822541467450e-01
1.703794101318983067e-01
1.786456756984569072e-01
1.875731000927362280e-01
1.969361158738529294e-01
2.066527916821181421e-01
2.162828190179361676e-01
2.254155792324831209e-01
2.337747569687749771e-01
2.410846953234566659e-01
2.471088264390620681e-01
2.514520811767753106e-01
2.537197263629662469e-01
2.536635711488876010e-01
2.510660697200719493e-01
2.457153531578140093e-01
2.373438530192124585e-01
2.257692316790991249e-01
2.109027633167108728e-01
1.927149381447939014e-01
1.712058779140992471e-01
1.463160523959157189e-01
1.182669925632446883e-01
8.725983698323713789e-02
5.356227636507560064e-02
1.750210386491257708e-02
-2.072799463648999918e-02
-6.047719073726431915e-02
-1.012282534133799317e-01
-1.424418689821114192e-01
-1.835500519088228977e-01
-2.241405548176391704e-01
-2.634298154586807161e-01
-3.007433702716405532e-01
-3.354977896719746333e-01
-3.671499135308124995e-01
-3.953433375100414149e-01
-4.195418421906684792e-01
-4.392453533541017530e-01
-4.541489202036083084e-01
-4.640463538346412675e-01
-4.689265082644061833e-01
-4.687854864519224729e-01
-4.635463978036347132e-01
-4.533670700631233785e-01
-4.385052520913862439e-01
-4.193646670378117225e-01
-3.964641108662387836e-01
-3.701090617147493322e-01
-3.408151880119465460e-01
-3.091413522569865791e-01
-2.756917180392197686e-01
-2.412143810005635824e-01
-2.060948969807852027e-01
-1.708938742744114947e-01
-1.361481900205661066e-01
-1.023529242171028475e-01
-7.008038475797495614e-02
-3.951823472493654066e-02
-1.097331704690041043e-02
1.528107628375297011e-02
3.904240507369038937e-02
6.012443401655298558e-02
7.863200479628074113e-02
9.459472251663281206e-02
1.080262608892371690e-01
1.189894040977602652e-01
1.276000855183511140e-01
1.341697061384132805e-01
1.389287366324426509e-01
1.420414708975590301e-01
1.436787300062336015e-01
1.440621730079068574e-01
1.435338214709614424e-01
1.423232910527001405e-01
1.406002414543134071e-01
1.385121413113586941e-01
1.362370960309374213e-01
1.340462932491411352e-01
1.320068088159376818e-01
1.302236708149741573e-01
1.287773762490097007e-01
1.277420085773152969e-01
1.273413175192768254e-01
1.273760763833308440e-01
1.278664021169971243e-01
1.288243557614589530e-01
1.302354616565882250e-01
1.322397629460400070e-01
1.344419285151413346e-01
1.367279086899971519e-01
1.390389988458387849e-01
1.412956600387289263e-01
1.435224192193910731e-01
1.452744794493630032e-01
1.463028113686989373e-01
1.465051054622391880e-01
1.457855578824337195e-01
1.441080667508160551e-01
1.411403502775455676e-01
1.366242843777835392e-01
1.305084603903047258e-01
1.227839670903348723e-01
1.134780605184716740e-01
1.025017235481277961e-01
8.978118438002613555e-02
7.542538999374814868e-02
5.960023713807333090e-02
4.249728618825326931e-02
2.426931532461973351e-02
5.129805021375055674e-03
-1.464164805463330499e-02
-3.473404443161642874e-02
-5.482393921761985478e-02
-7.468076677418922227e-02
-9.389403291002362817e-02
-1.121447678957618876e-01
-1.291321311358568646e-01
-1.445791913186610378e-01
-1.583417352213873919e-01
-1.700893937668885858e-01
-1.796199783910719106e-01
-1.868078623085155376e-01
-1.915769619601794815e-01
-1.939874291332440714e-01
-1.939664766199258317e-01
-1.915052962350559662e-01
-1.867009845066305296e-01
-1.796941713583571909e-01
-1.707253337872898236e-01
-1.599639529100762569e-01
-1.475389191723925908e-01
-1.336839045841640150e-01
-1.186495026103576711e-01
-1.027294402454276279e-01
-8.619287353031945820e-02
-6.918765937631649043e-02
-5.195759635233006268e-02
-3.474152134564716110e-02
-1.777454512463963465e-02
-1.286149373002976048e-03
1.464111493294739663e-02
2.982891011898131106e-02
4.410891724125043378e-02
5.733845293106687446e-02
6.939826537010673757e-02
8.029184208564699166e-02
8.992783664648584807e-02
9.821892061308434840e-02
1.051061616008648336e-01
1.106054365698162512e-01
1.148017143580113419e-01
1.177003304501754721e-01
1.193037621425426797e-01
1.196417625799163775e-01
1.188499945497227261e-01
1.171107239593885962e-01
1.145110163245532664e-01
1.111421170162901206e-01
1.071103709936171017e-01
1.026247603387425988e-01
9.793568466256544203e-02
9.313485325660147973e-02
8.834463658543603715e-02
8.367834560326942173e-02
7.930793327951657368e-02
7.546541082025559621e-02
7.211492625703774806e-02
6.930653064920433426e-02
6.706356258250290026e-02
6.540854591775213667e-02
6.446443794551759421e-02
6.399211405971616529e-02
6.391372932733607737e-02
6.413551316585719420e-02
6.454162958753761892e-02
6.510177775100300934e-02
6.548733959764729828e-02
6.554646633679717116e-02
6.515660587348837129e-02
6.419793782711002983e-02
6.256290910621437051e-02
6.002729144813995221e-02
5.649643681730820433e-02
5.194128622931956651e-02
4.635709294007519382e-02
3.971136030963908631e-02
3.194828788379519557e-02
2.312443316792894832e-02
1.333643088651015329e-02
2.701714476336825044e-03
-8.706899648913468681e-03
-2.083654088385755720e-02
-3.351216911402599141e-02
-4.658693758850485089e-02
-5.991249593735781254e-02
-7.338292962821801879e-02
-8.695054163069282360e-02
-1.003998307468680906e-01
-1.136101294852736032e-01
-1.264696635952584636e-01
-1.388854074555418983e-01
-1.508709315332897871e-01
-1.621864540621618112e-01
-1.727287597117208584e-01
-1.823997082431013661e-01
-1.911009133812071603e-01
-1.988459129089156230e-01
-2.053886015786972052e-01
-2.105884837945415367e-01
-2.143262199334168838e-01
-2.164883729626457809e-01
-2.170640526101598189e-01
-2.158728511352473178e-01
-2.127723606630109732e-01
-2.076843997129629860e-01
-2.005625979294317074e-01
-1.914711916282494375e-01
-1.804194064817947751e-01
-1.673939846808394361e-01
-1.524842658918497129e-01
-1.358287022474085060e-01
-1.176673949968150001e-01
-9.827369753069037372e-02
-7.782601833130242674e-02
-5.660985097635951035e-02
-3.493945467225556545e-02
-1.317842778908373536e-02
8.246306619862364684e-03
2.908598591112615539e-02
4.901465606994492852e-02
6.772547254944788486e-02
8.493611711143114751e-02
1.003308548069918316e-01
1.137984842385241779e-01
1.251929617083286095e-01
1.344194020002774659e-01
1.414412246337067858e-01
1.462898974142243791e-01
1.490627072563620592e-01
1.498732026743055945e-01
1.488718359048479822e-01
1.462521561413299143e-01
1.423376141109629067e-01
1.373775802418363279e-01
1.315836114775933430e-01
1.251929868036772975e-01
1.184450398417131733e-01
1.117103127205602009e-01
1.052553904985569222e-01
9.915341943647637546e-02
9.354119661466131497e-02
8.853085253032899615e-02
8.432895128738837620e-02
8.113942699294263150e-02
7.879077623548069731e-02
7.726384652339246539e-02
7.652022279560111162e-02
7.656795878176486658e-02
7.756370633104181511e-02
7.916335350470110610e-02
8.126772095056813972e-02
8.378017582488810067e-02
8.660747106239068127e-02
8.988567780781360483e-02
9.323923803026798462e-02
9.657169031108014945e-02
9.980457918426316466e-02
1.028605004959743385e-01
1.057411872160212152e-01
1.082053317221295385e-01
1.101447476893565591e-01
1.114960390178155736e-01
1.121909359072709167e-01
1.121266622592163031e-01
1.111283838387301381e-01
1.090976071502770539e-01
1.059652816425318278e-01
1.016645539868332726e-01
9.605934871613430737e-02
8.901212699313520993e-02
8.050842934209578861e-02
7.051800324386270358e-02
5.903212306987526414e-02
4.600647857590423051e-02
3.139306067353442309e-02
1.536606916255534028e-02
-1.975970808796412292e-03
-2.050309665607930043e-02
-4.007402566995366122e-02
-6.059254047900741735e-02
-8.167015948228151245e-02
-1.030505308834177569e-01
-1.244627973246492658e-01
-1.456173470832741179e-01
-1.663076518693122896e-01
-1.860616159574041695e-01
-2.045555374215172195e-01
-2.214919278130353386e-01
-2.365911213177062100e-01
-2.496633905829417910e-01
-2.603752488199386206e-01
-2.684876134754791144e-01
-2.738338508263449822e-01
-2.762959656173205603e-01
-2.758704042021702385e-01
-2.724919608347665112e-01
-2.661223227596210550e-01
-2.568197457459626687e-01
-2.446961319142358093e-01
-2.299745429081732628e-01
-2.128813611220510826e-01
-1.935770731012440016e-01
-1.723295789870885053e-01
-1.494417499518016501e-01
-1.252842965627478655e-01
-1.002759398271794167e-01
-7.468475353468606581e-02
-4.888577067748844929e-02
-2.325965981261535198e-02
1.806668813440048815e-03
2.588443022619058009e-02
4.872967106903303147e-02
7.001012801819983533e-02
8.941694653063014808e-02
1.066819350366645658e-01
1.215749771174078342e-01
1.340018069838692094e-01
1.438299485894350971e-01
1.509650215796231043e-01
1.553753607063944608e-01
1.571397196514324746e-01
1.564161209604825187e-01
1.533458378930285804e-01
1.481074549531232187e-01
1.409310998398889958e-01
1.321603159113706183e-01
1.221770460930809432e-01
1.113071420912532528e-01
9.990177457278404116e-02
8.831830187695521861e-02
7.697182910054600757e-02
6.626740719165935545e-02
5.646942571876223393e-02
4.786811200651197584e-02
4.070906620114700392e-02
3.522160577529587222e-02
3.159997844614770290e-02
2.978790158138788779e-02
2.980661469557965848e-02
3.161922974984832102e-02
3.512821512405189806e-02
4.024384099152661376e-02
4.652548192673799932e-02
5.371756221862222791e-02
6.154817223896233425e-02
6.971202956183583654e-02
7.793919471731296233e-02
8.567129293033676207e-02
9.256984161008388612e-02
9.836489112276733393e-02
1.028148526436550858e-01
1.057260952721312819e-01
1.067593634930698587e-01
1.057517415936840566e-01
1.026610577892566600e-01
9.750816668915862628e-02
9.035898823242205502e-02
8.124171395173362953e-02
7.028242732795320080e-02
5.769497301935233580e-02
4.373854399386734038e-02
2.868711725998485118e-02
1.281980665910953388e-02
-3.546634146702976054e-03
-2.010709371126684353e-02
-3.655914819464667342e-02
-5.261964571296473547e-02
-6.801644585138832966e-02
-8.242428596438056143e-02
-9.563464238819163743e-02
-1.074784861573921946e-01
-1.178150895480873928e-01
-1.265653430140494251e-01
-1.335098832837048333e-01
-1.386029934972080602e-01
-1.418438954495715443e-01
-1.432575411551202382e-01
-1.429282307264178042e-01
-1.408010540467254934e-01
-1.369337739518713404e-01
-1.314280835213940124e-01
-1.244032758153044149e-01
-1.160230805462212911e-01
-1.063686179151572819e-01
-9.554966757441429870e-02
-8.371465730787586157e-02
-7.102464823521484338e-02
-5.767176168645835044e-02
-4.382690955325806159e-02
-2.964567196868246601e-02
-1.531418077029151822e-02
-1.025157186935993225e-03
1.301601742474861600e-02
2.661008116979202143e-02
3.957586125788226106e-02
5.171029954826661390e-02
6.281798135890470647e-02
7.272060757703890932e-02
8.128906777999200806e-02
8.840273332107317916e-02
9.392404565286927021e-02
9.773931725308726559e-02
9.977926317526131239e-02
1.000950715333379648e-01
9.872709175569238660e-02
9.570013896162654632e-02
9.106458332986100412e-02
8.491972650343082574e-02
7.751289786352699718e-02
6.907003298220104615e-02
5.977646894813626322e-02
4.983166600007571390e-02
3.945552048051681471e-02
2.897541006665227403e-02
1.868485664615548991e-02
8.798079318574902885e-03
-4.658441956788550442e-04
-8.908902135184249005e-03
-1.630596395775019136e-02
-2.248553393767904751e-02
-2.737193532442505628e-02
-3.087561798876148345e-02
-3.294933832803070839e-02
-3.358201781643821437e-02
-3.284527887712757055e-02
-3.087045070986238482e-02
-2.774981718119806651e-02
-2.360383081326700161e-02
-1.859954143589692688e-02
-1.301903182015096139e-02
-7.123516399161478052e-03
-1.112949783171779394e-03
4.819925343018893749e-03
1.046646395641381844e-02
1.548847594756097568e-02
1.964533995570133529e-02
2.276654074719336451e-02
2.471694203772092924e-02
2.537750032842006620e-02
2.453282713625293265e-02
2.207514926754206019e-02
1.798711088532915781e-02
1.228323655307380496e-02
5.011866086412596066e-03
-3.838680064377819612e-03
-1.418534418899469740e-02
-2.583615672622394110e-02
-3.860042961594525868e-02
-5.225608565501643765e-02
-6.662035197689408772e-02
-8.145742977055231426e-02
-9.639109339152224232e-02
-1.111059211246922529e-01
-1.252789866508728922e-01
-1.386235383375221675e-01
-1.508849587764917732e-01
-1.616338846519941308e-01
-1.705690941055363341e-01
-1.774204882928910321e-01
-1.819644346026787485e-01
-1.841005910089431596e-01
-1.835637545702919482e-01
-1.802493479147690980e-01
-1.741145050449738330e-01
-1.651797971715578406e-01
-1.535820841697191907e-01
-1.394143607072980684e-01
-1.228663969267423939e-01
-1.041896887150584039e-01
-8.368642588660513137e-02
-6.169416333528865426e-02
-3.860346596932939800e-02
-1.482472395498213302e-02
9.223347460156183786e-03
3.312293734049776006e-02
5.651610405005585980e-02
7.901340057971695252e-02
1.002089332061319449e-01
1.197679577998799760e-01
1.374096917636028481e-01
1.529767639428051829e-01
1.663841523408372269e-01
1.774425165326868892e-01
1.860821237100543923e-01
1.922977581696004301e-01
1.962024010813054331e-01
1.980981519247711486e-01
1.980357731921685571e-01
1.961800738363710939e-01
1.927210251429188892e-01
1.878995152878958352e-01
1.822229984367931543e-01
1.758137736837591114e-01
1.688797654546856930e-01
1.616029675199431859e-01
1.541596941370759755e-01
1.469259466595861097e-01
1.399686730401354384e-01
1.333507907397531445e-01
1.271150862703482598e-01
1.212777214792532809e-01
1.159580242445570064e-01
1.110995520846338180e-01
1.066093682571783441e-01
1.024221601131077297e-01
9.845778532938648242e-02
9.467564947125300945e-02
9.093583140543731735e-02
8.709267473581416841e-02
8.307853679879440012e-02
7.883112104685979782e-02
7.429035479781015416e-02
6.930881194899490838e-02
6.376568460826909090e-02
5.763985381617542370e-02
5.092497807707346835e-02
4.359638973256424466e-02
3.552144539488705233e-02
2.662872915055475298e-02
1.692409743897282937e-02
6.431568099880602407e-03
-4.835735937385010619e-03
-1.701843208228204229e-02
-3.008321569936933670e-02
-4.399178124065167284e-02
-5.868022951585938340e-02
-7.407555345117150525e-02
-9.025699744812104575e-02
-1.070482882839816630e-01
-1.242844161810928161e-01
-1.417979681944906700e-01
-1.593988788705031634e-01
-1.770282897534493083e-01
-1.943744312028266585e-01
-2.110889760398429738e-01
-2.268910597059347334e-01
-2.414951303906779367e-01
-2.547324997257455204e-01
-2.662969306531545177e-01
-2.757652390684542931e-01
-2.828775944820839383e-01
-2.874138450226498831e-01
-2.892653292874474702e-01
-2.883520838868418590e-01
-2.844083310629035299e-01
-2.773974560931554700e-01
-2.673540023192682025e-01
-2.544032708822588917e-01
-2.388090364961973355e-01
-2.206129677787441179e-01
-2.000780158400979336e-01
-1.775233956022618798e-01
-1.533093387230510807e-01
-1.279078134451480109e-01
-1.015967087942186292e-01
-7.478804674445771461e-02
-4.790348210374710536e-02
-2.134866605650081670e-02
4.502339532742555099e-03
2.936650333859304116e-02
5.293373597007013792e-02
7.492031540195626116e-02
9.509833413319479511e-02
1.133708454194245485e-01
1.296898660105081369e-01
1.439616284131174651e-01
1.561399011118571878e-01
1.662283695491442725e-01
1.743777405451013007e-01
1.808044636349398493e-01
1.855549446568386940e-01
1.887376053508162677e-01
1.904755671524724081e-01
1.909885853898999619e-01
1.906226865707859874e-01
1.894075350242478972e-01
1.874660832655436760e-01
1.849080622354708492e-01
1.818719009286381971e-01
1.786857607813220061e-01
1.752652216041916400e-01
1.716765164629275864e-01
1.679706000930034360e-01
1.641888890263110967e-01
1.605404750231340660e-01
1.568539095100261183e-01
1.531279807501059187e-01
1.493756055813820760e-01
1.455950245649132169e-01
1.418480796742553063e-01
1.379307498987704939e-01
1.337718803463133488e-01
1.293611862607877971e-01
1.246754186923808988e-01
1.196837496685916463e-01
1.141483031284620947e-01
1.079416891310416571e-01
1.010322175470521056e-01
9.338967583257382077e-02
8.495020005485454107e-02
7.549224684424456211e-02
6.489622381446605304e-02
5.315081789814143920e-02
4.027250122128460397e-02
2.625993583383076646e-02
1.100236298215567787e-02
-5.476124985677774393e-03
-2.307792635176253437e-02
-4.165959411600107798e-02
-6.106236094303774120e-02
-8.123230373043383024e-02
-1.018905690464154135e-01
-1.227827947934131553e-01
-1.436229520030637419e-01
-1.641056983532845071e-01
-1.840447098025381201e-01
-2.029930511896836931e-01
-2.206061329634090296e-01
-2.365686018669171942e-01
-2.505810514089695240e-01
-2.624725781776811595e-01
-2.718736853322893943e-01
-2.785138985022913016e-01
-2.822309366440395317e-01
-2.829158442715743460e-01
-2.805935377689295351e-01
-2.751798434103879254e-01
-2.666194529844824190e-01
-2.550147299942016610e-01
-2.405288451462769261e-01
-2.234285684104906078e-01
-2.039532193398994886e-01
-1.822638676092452614e-01
-1.586845875100948433e-01
-1.335744424984896817e-01
-1.073315045762237296e-01
-8.036043533793552074e-02
-5.292019852017232351e-02
-2.540253696960365071e-02
1.801219958395716692e-03
2.832227665512776493e-02
5.383724622980745611e-02
7.812284780421435704e-02
1.008761175804454568e-01
1.218149500943330743e-01
1.407066603515814140e-01
1.574763489426984631e-01
1.720306980896291194e-01
1.842367571258358705e-01
1.939888711136269484e-01
2.012339852390181982e-01
2.061206277688544253e-01
2.087647150621937953e-01
2.091950552089722470e-01
2.074864037287570406e-01
2.037508407800333599e-01
1.982647927327414183e-01
1.913245173474920624e-01
1.830720899490745346e-01
1.737187259421867636e-01
1.634868486151800360e-01
1.526782468734149134e-01
1.416325429211928166e-01
1.305101166651469469e-01
1.195585053826726946e-01
1.090086151393781372e-01
9.908336062226003049e-02
8.998704918963829069e-02
8.175020348067928155e-02
7.451204963704521900e-02
6.838016868530141790e-02
6.339991870297197185e-02
5.952993375512759255e-02
5.654430861229024774e-02
5.436699661619090462e-02
5.290520139109779196e-02
5.200968948091300170e-02
5.141769267711472635e-02
5.070407225593345779e-02
4.961354807236567632e-02
4.792891626345066602e-02
4.542784539687788614e-02
4.183376548132294870e-02
3.675912162399719296e-02
2.998699267238597033e-02
2.139285910854327177e-02
1.090784930047850043e-02
-1.518839695963003500e-03
-1.595374389053072495e-02
-3.232578768310900852e-02
-5.047241045990158437e-02
-7.015650580206789222e-02
-9.110075255800942351e-02
-1.129902233575528214e-01
-1.353877724632193136e-01
-1.578584545175115705e-01
-1.799368740499255326e-01
-2.011515115600170933e-01
-2.210662701108158101e-01
-2.390600121369723663e-01
-2.546746585349799474e-01
-2.674985483408924836e-01
-2.771667637359483960e-01
-2.834933972564570581e-01
-2.860223525940338019e-01
-2.845739335505959033e-01
-2.790764727323773453e-01
-2.695472533784222247e-01
-2.561930547291464411e-01
-2.390367746232308632e-01
-2.182955370456162725e-01
-1.943204979937166177e-01
-1.675354943803389896e-01
-1.384643317748764924e-01
-1.075453411602439457e-01
-7.529007007746801872e-02
-4.229663982662668076e-02
-9.174463219164041838e-03
2.349810469613211605e-02
5.522111193954359898e-02
8.545046359487384890e-02
1.136556082026934922e-01
1.393580490624144463e-01
1.621973347918810315e-01
1.819960467440957519e-01
1.984445746338994176e-01
2.113400753827607836e-01
2.205577119209368719e-01
2.260935281468038349e-01
2.282359301553993358e-01
2.270428273979712142e-01
2.227034563829462521e-01
2.154615691310221015e-01
2.056330849394999993e-01
1.937651760849662397e-01
1.802363411744106192e-01
1.654624995504744289e-01
1.498691777817270088e-01
1.338841993240955375e-01
1.179881359834859811e-01
1.025914118998143554e-01
8.805969696084570142e-02
7.472299923707391434e-02
6.284983105045538476e-02
5.262826141876128516e-02
4.414373082829960160e-02
3.747710986893812435e-02
3.266195064137869530e-02
2.965424014614585768e-02
2.829402998972117833e-02
2.823520206591165205e-02
2.921017053028726607e-02
3.096860857942854151e-02
3.322908674182017963e-02
3.564242626365277111e-02
3.766292449530045383e-02
3.885411606462033096e-02
3.891436930926012172e-02
3.759085267411285680e-02
3.464175540227165673e-02
2.970927604629580027e-02
2.252258166525201305e-02
1.302103890756917820e-02
1.246849058663658527e-03
-1.269326283535461564e-02
-2.873724691909113060e-02
-4.673710835297328892e-02
-6.638586848855548839e-02
-8.729424871425020549e-02
-1.090179434494342736e-01
-1.311573319262276105e-01
-1.532113208203753629e-01
-1.746452130713684880e-01
-1.949440890459546716e-01
-2.136018597309800038e-01
-2.302001506940666298e-01
-2.442418028115048712e-01
-2.552689698603260449e-01
-2.629738394774188137e-01
-2.671226880954500338e-01
-2.675914936301293512e-01
-2.642389085244285507e-01
-2.569327628509818773e-01
-2.457648490349403358e-01
-2.309170732573948559e-01
-2.126480907156321765e-01
-1.912310378225672292e-01
-1.668959871426978214e-01
-1.400631086560553129e-01
-1.112046783364267766e-01
-8.080889519696710099e-02
-4.930320942156030117e-02
-1.712719812031737732e-02
1.521162153800698080e-02
4.720748013877384963e-02
7.838904084725750732e-02
1.084696415797022362e-01
1.370526901599931624e-01
1.637479812398140722e-01
1.882130047347812252e-01
2.101650434383861010e-01
2.295547208080029322e-01
2.462482670901585680e-01
2.600439559977637538e-01
2.708244204534714372e-01
2.785283602438695105e-01
2.832954956468081154e-01
2.853009178872597529e-01
2.845287782309916524e-01
2.810612437148148901e-01
2.750158429622181488e-01
2.666347939890845176e-01
2.562944196564368449e-01
2.441298175388369185e-01
2.303624428513237898e-01
2.152221879449642827e-01
1.989821542808967170e-01
1.820368602310315498e-01
1.645791992744121968e-01
1.468729952496947155e-01
1.291658039025121163e-01
1.116836230401365426e-01
9.466501542774624633e-02
7.820213514022772427e-02
6.246871634297063158e-02
4.761478057812773557e-02
3.373671118098181543e-02
2.082375845548223303e-02
8.743955332566777372e-03
-2.515647006683829900e-03
-1.296598488376055069e-02
-2.266471269748004946e-02
-3.180844280930239520e-02
-4.073231359476137126e-02
-4.958772596190130777e-02
-5.848167762610123610e-02
-6.752302810452370796e-02
-7.691987971285974002e-02
-8.700555527858833127e-02
-9.788017919479885531e-02
-1.095806143906341568e-01
-1.220981971852707071e-01
-1.354597629713459872e-01
-1.497905060953459433e-01
-1.649365320566846815e-01
-1.807361591914777854e-01
-1.969742000632508372e-01
-2.134284926469488530e-01
-2.300036115095906997e-01
-2.462424113061633113e-01
-2.618193236605225738e-01
-2.763966108213306572e-01
-2.896322342471673306e-01
-3.013789988562205480e-01
-3.110664461615128551e-01
-3.183752911089369197e-01
-3.230475516782319034e-01
-3.248640401649964260e-01
-3.237943520717279644e-01
-3.194865836642099000e-01
-3.117906372516795477e-01
-3.006987101730916878e-01
-2.862667528808189310e-01
-2.687030717246047806e-01
-2.480262461157015097e-01
-2.243357043052855437e-01
-1.979029453003877115e-01
-1.690541249842127947e-01
-1.381927367325609946e-01
-1.056436583018331987e-01
-7.171538572598135097e-02
-3.685131907405458929e-02
-1.516487180230896570e-03
3.382752416438183918e-02
6.878357930841583201e-02
1.029436225270254912e-01
1.358614863814676665e-01
1.671072396151324080e-01
1.963019988890014611e-01
2.232474020768803191e-01
2.475685421844516787e-01
2.689787610312149857e-01
2.872356378778867514e-01
3.021658615871333220e-01
3.138944856062098054e-01
3.222554481779498214e-01
3.272088662870541453e-01
3.287856318865395311e-01
3.270873476206367925e-01
3.225034133558266070e-01
3.151932050770534510e-01
3.053329369725022446e-01
2.931973875750682468e-01
2.791015090596632442e-01
2.635587870933653876e-01
2.469381070942027745e-01
2.294862699072724721e-01
2.115615294626882470e-01
1.935128642178852165e-01
1.757656729921389660e-01
1.586478877796646814e-01
1.422561802719377877e-01
1.268191834646716087e-01
1.125222479172523354e-01
9.952877642774894673e-02
8.792550543728205881e-02
7.751174230163335177e-02
6.826953599973567544e-02
6.014875300953975712e-02
5.304271648487046686e-02
4.679636924987637392e-02
4.097543073869369668e-02
3.538937298105165885e-02
2.986587763585818456e-02
2.421538739979531285e-02
1.818833339748937572e-02
1.140335219136992539e-02
3.693136919666356599e-03
-5.034616884145248772e-03
-1.484008481532086976e-02
-2.583750408337548432e-02
-3.814068175212959044e-02
-5.170569765943808238e-02
-6.642379190599490002e-02
-8.214017440573537221e-02
-9.875264900805191814e-02
-1.160915250259864362e-01
-1.338627239437237271e-01
-1.518020762347107588e-01
-1.696272770598850621e-01
-1.871195493560552925e-01
-2.040154920715895881e-01
-2.198682864307555662e-01
-2.344071889797433306e-01
-2.473866257576771421e-01
-2.586242788784075541e-01
-2.680150299249955959e-01
-2.750941250635741686e-01
-2.797134833285926381e-01
-2.817799534486411517e-01
-2.812361100161018812e-01
-2.782759720625375688e-01
-2.725283631814012231e-01
-2.640191711513908412e-01
-2.528364308535461791e-01
-2.391084164824321956e-01
-2.231606635553272100e-01
-2.049327020940851229e-01
-1.845766967193518959e-01
-1.623403899563273245e-01
-1.385049802711669775e-01
-1.134531745088594168e-01
-8.739462998186832421e-02
-6.059909856191822430e-02
-3.342283437083795605e-02
-6.234610174937163518e-03
2.059773315222833412e-02
4.677001222573845540e-02
7.194810740660209647e-02
9.577346081789203658e-02
1.179084422399587911e-01
1.380925383825677422e-01
1.561757959306604715e-01
1.718916279581978457e-01
1.850379367350479254e-01
1.954626263228794181e-01
2.031156956217417819e-01
2.081899899156368361e-01
2.106215511816324493e-01
2.104819492807253611e-01
2.078925318996309723e-01
2.030461569960156087e-01
1.964522280210291572e-01
1.882616739853948118e-01
1.787657942674513445e-01
1.682768883602190069e-01
1.571277878162951891e-01
1.458481997775285255e-01
1.346810014374961728e-01
1.238916375574255491e-01
1.137577505963708879e-01
1.045177291198450820e-01
9.646658434891264289e-02
8.966111976724477906e-02
8.411537753022271802e-02
7.987534611223343073e-02
7.692777294374647523e-02
7.523218165716365202e-02
7.454736643571856225e-02
7.459082351388121590e-02
7.517338875275453303e-02
7.608273994136767471e-02
7.707541866299660871e-02
7.776271233469791988e-02
7.774382361080570125e-02
7.678230253306324304e-02
7.467915086889936882e-02
7.124419173976426212e-02
6.621142672790847339e-02
5.932780544354190888e-02
5.052640328263571790e-02
3.981392813863118829e-02
2.723941738669441448e-02
1.281029237566533308e-02
-3.406939321222601791e-03
-2.122688953471479900e-02
-4.040376395681505306e-02
-6.065294451051606028e-02
-8.174013524272077946e-02
-1.033234161900269399e-01
-1.250345797451271057e-01
-1.465092630824180731e-01
-1.673771948193790715e-01
-1.873485700352049976e-01
-2.060150738621771005e-01
-2.229697490997998854e-01
-2.379035150670548715e-01
-2.505403365129077464e-01
-2.607034228430454292e-01
-2.681577500025218441e-01
-2.726015542972686223e-01
-2.739192053157186724e-01
-2.720551086549101716e-01
-2.670440302312399039e-01
-2.589706646148409730e-01
-2.477472897323109435e-01
-2.335141474553593111e-01
-2.164756212824205661e-01
-1.968950501863376834e-01
-1.751646002389528889e-01
-1.514430920722499019e-01
-1.260893485000334768e-01
-9.950191278059633548e-02
-7.210357738739042732e-02
-4.439731728776130648e-02
-1.671973169929985570e-02
1.051209916006312639e-02
3.687610150929149233e-02
6.197151276528467534e-02
8.540976113403309089e-02
1.069125694403770810e-01
1.262099812066069804e-01
1.430616766240457860e-01
1.572859635097773046e-01
1.687783167342387092e-01
1.775375025571275245e-01
1.835739796073176944e-01
1.869361930235238223e-01
1.877296982274553327e-01
1.861476057735205192e-01
1.824855211651975617e-01
1.769830770549862820e-01
1.698994390501131768e-01
1.615098133569783379e-01
1.521339511654338228e-01
1.421879671408248225e-01
1.319202693793638526e-01
1.215978546926089754e-01
1.114589857494068803e-01
1.017237161947535107e-01
9.272300208116174280e-02
8.448737219353946726e-02
7.712867322960148542e-02
7.072104453813848890e-02
6.529998554763771779e-02
6.098157760410138906e-02
5.757751036050023918e-02
5.500867033460227207e-02
5.321324834320728669e-02
5.210874997735609471e-02
5.167166060752845236e-02
5.162264362073755442e-02
5.177921757791728585e-02
5.204930400794614831e-02
5.234778864633710116e-02
5.263810842420535430e-02
5.270242792233864604e-02
5.234436903760147919e-02
5.150330754321530424e-02
5.013943803873888161e-02
4.824626305830226336e-02
4.574027567309935094e-02
4.245704981109610365e-02
3.836420258849615461e-02
3.345070653305071140e-02
2.772516494035803802e-02
2.121869867344905458e-02
1.386106388148711233e-02
5.657815035766899925e-03
-3.365118088968221954e-03
-1.315655198366449952e-02
-2.362660438779351502e-02
-3.464487286757478302e-02
-4.610934047166170835e-02
-5.790252664888173584e-02
-6.987772183787455127e-02
-8.190067198100492440e-02
-9.364484118013916003e-02
-1.048737100244354625e-01
-1.153762746808359996e-01
-1.249390480425673911e-01
-1.334262039491795893e-01
-1.405118294450266037e-01
-1.459193224574066861e-01
-1.494754665619945078e-01
-1.510506406105939226e-01
-1.506426837128989060e-01
-1.481894014992362063e-01
-1.435681879836581132e-01
-1.368216384979685785e-01
-1.280597274631826987e-01
-1.175168908379799065e-01
-1.055111337527733784e-01
-9.216887261290078459e-02
-7.778161754643989068e-02
-6.267988934575474680e-02
-4.725199129464341397e-02
-3.203200566375352665e-02
-1.726159746218808300e-02
-3.292012678959621574e-03
9.548064007411705134e-03
2.095633125016216347e-02
3.054813647159637657e-02
3.820564556714056703e-02
4.378748602016691027e-02
4.721021877691766733e-02
4.845730010702764545e-02
4.755783512003919355e-02
4.465825250896560128e-02
3.992896259325173780e-02
3.357894807371986090e-02
2.586808637314708115e-02
1.715105567065000614e-02
7.801458166875274713e-03
-1.866885104088389369e-03
-1.153486389167390769e-02
-2.088577534802804614e-02
-2.953585395630642374e-02
-3.709726581288808056e-02
-4.337587018516408932e-02
-4.817965570180526846e-02
-5.136113383754459250e-02
-5.275925627088740022e-02
-5.216753235806037559e-02
-4.965351175044929732e-02
-4.525149555197005569e-02
-3.904181228132985737e-02
-3.112439550075429828e-02
-2.151719721708356126e-02
-1.050718417556895101e-02
1.711966543086917980e-03
1.492915054776228212e-02
2.891609796193306270e-02
4.349331655476082470e-02
5.830337053007332571e-02
7.310140074102952634e-02
8.766394081795123028e-02
1.017649392999048219e-01
1.151727128471766171e-01
1.275606247551615002e-01
1.387050503280901070e-01
1.484291833090086721e-01
1.565671173502890534e-01
1.629294778660286269e-01
1.672746600571368703e-01
1.694589731809652555e-01
1.693900018063785318e-01
1.670046681315651149e-01
1.622342298780670156e-01
1.549965464216283006e-01
1.453165392212725227e-01
1.332554620777541832e-01
1.189201791283893694e-01
1.024435669089978074e-01
8.396937025925721443e-02
6.376638635285925005e-02
4.210486321942341625e-02
1.929443269892683333e-02
-4.320855499903908381e-03
-2.839486889767517397e-02
-5.247494709027367144e-02
-7.614730286658200065e-02
-9.899636659561195096e-02
-1.206096831014511483e-01
-1.405930553805032623e-01
-1.585467767928974148e-01
-1.741205917734003350e-01
-1.870118902780451009e-01
-1.969718110556401003e-01
-2.038072863144285707e-01
-2.074069192716104792e-01
-2.077109700505828105e-01
-2.047218746297027048e-01
-1.985140738236284008e-01
-1.892342116691225762e-01
-1.771262462363586976e-01
-1.624700468461293124e-01
-1.455769350181091992e-01
-1.267986199555989901e-01
-1.065266639699353202e-01
-8.519864008854467763e-02
-6.325093562884259724e-02
-4.110957404790958891e-02
-1.918654568723929255e-02
2.125934723086198019e-03
2.246997184465887587e-02
4.152226646954815248e-02
5.897916913251632920e-02
7.458343723151350524e-02
8.813784284262182744e-02
9.954693386557422752e-02
1.087626990774654967e-01
1.157192421550491401e-01
1.203876309980622672e-01
1.227973855250794610e-01
1.230993446883708042e-01
1.215065458963113798e-01
1.181542319764443683e-01
1.131808389201793830e-01
1.067542297300219101e-01
9.912723243381993399e-02
9.063860249735378183e-02
8.152055728111551325e-02
7.197717979615059214e-02
6.220862779510438756e-02
5.243800062807491003e-02
4.295446401070490694e-02
3.398402747190343298e-02
2.570884007496188062e-02
1.828268077117889412e-02
1.182799602522122129e-02
6.440075753298968309e-03
2.232609411064068183e-03
-7.142366235544095332e-04
-2.357773207487978695e-03
-2.714039568117776469e-03
-1.934711983810233349e-03
-1.172285422823549084e-04
2.656460182788755731e-03
6.280843389928181253e-03
1.059698105155226777e-02
1.529066266310263877e-02
2.004630528222317576e-02
2.464618626841363902e-02
2.888664618565878195e-02
3.254929575954085275e-02
3.534331303800503088e-02
3.691224722496241895e-02
3.704716956546580398e-02
3.560059491276887367e-02
3.246448086687209189e-02
2.755766790358400720e-02
2.076305457880500693e-02
1.206655827529255764e-02
1.539722524537026106e-03
-1.067972424010780325e-02
-2.437950301425503841e-02
-3.930235044605148720e-02
-5.518355027719873407e-02
-7.170751956576154607e-02
-8.851886206320030981e-02
-1.052141383958777321e-01
-1.213098172337448988e-01
-1.363764414324858398e-01
-1.500217823785857663e-01
-1.618765799589967358e-01
-1.715890834928890385e-01
-1.787923557767059357e-01
-1.831427921399633174e-01
-1.844276655648409147e-01
-1.825104998213298302e-01
-1.773218253138639788e-01
-1.688920269661324802e-01
-1.571886033767060376e-01
-1.423381164574730740e-01
-1.245535214425199655e-01
-1.041224232093540536e-01
-8.146965505438963362e-02
-5.694272182816284555e-02
-3.095009426902706196e-02
-3.959934629212291668e-03
2.352614339835845669e-02
5.091624698368857338e-02
7.766960816915347010e-02
1.033172217955131700e-01
1.273817126023377710e-01
1.494145928108370214e-01
1.689661272222826582e-01
1.856233416149484228e-01
1.991104725493220151e-01
2.091916221643743690e-01
2.157043276493362249e-01
2.185557868198462206e-01
2.177225982843878083e-01
2.132649044022039142e-01
2.053038329472560708e-01
1.940343191527158506e-01
1.797328760084764276e-01
1.628256891780512916e-01
1.436576621674783283e-01
1.226296887158904170e-01
1.001728335188802888e-01
7.675897943439125015e-02
5.306903455514611068e-02
2.954374353847288859e-02
6.626916111079239613e-03
-1.525490142368646218e-02
-3.569018849845218000e-02
-5.408847831061702749e-02
-7.012563721269238215e-02
-8.358862648314957511e-02
-9.428107441966648850e-02
-1.020639682114765634e-01
-1.066943174895325086e-01
-1.081291527735901425e-01
-1.065288357284677190e-01
-1.020150544227478306e-01
-9.476933875978765798e-02
-8.494573355302392770e-02
-7.279625356856023188e-02
-5.878348238794783853e-02
-4.325624840898711909e-02
-2.658526859919529972e-02
-9.151589029304685319e-03
8.617239874735276028e-03
2.620802465977434270e-02
4.324615538901244172e-02
5.938553698450288465e-02
7.428515780951561176e-02
8.748868467895509760e-02
9.871909400673573032e-02
1.077570765406374864e-01
1.144395967686597793e-01
1.186343044958579895e-01
1.200132797291133535e-01
1.186165395294385139e-01
1.144769435579977568e-01
1.076482786647710022e-01
9.821664195801815822e-02
8.608079696185289009e-02
7.148281419570756690e-02
5.470823704532401521e-02
3.597743099891781426e-02
1.553154371046683302e-02
-6.513845442216448234e-03
-2.983861727351411197e-02
-5.397906106488159494e-02
-7.860871002739600044e-02
-1.033954257404350319e-01
-1.280629827641224239e-01
-1.522832279115917675e-01
-1.755365449187287208e-01
-1.974552425079221241e-01
-2.176860959040824994e-01
-2.359007678108602235e-01
-2.518095095653305471e-01
-2.650187259602703183e-01
-2.752390491486105262e-01
-2.822223027269057383e-01
-2.857663432860257924e-01
-2.857060952528200914e-01
-2.819762087960537844e-01
-2.745306869213544054e-01
-2.633833201213110486e-01
-2.486166329561992905e-01
-2.303377435510186588e-01
-2.088539535535167690e-01
-1.844652861431986812e-01
-1.575058370151816156e-01
-1.283609335803210794e-01
-9.742527857635530086e-02
-6.522749802612048953e-02
-3.230450620364211378e-02
8.292784150859544567e-04
3.366282462197001113e-02
6.571777254905530885e-02
9.651999570422475916e-02
1.255860934465216072e-01
1.524916182560897004e-01
1.768680347568093447e-01
1.984269347351335089e-01
2.169974155566479768e-01
2.324035529215131568e-01
2.445160270369163280e-01
2.532717081300289719e-01
2.586987000316206542e-01
2.610005584725639816e-01
2.603341843366598907e-01
2.568659090135114731e-01
2.507931532554376064e-01
2.423653777986556346e-01
2.320279728270991382e-01
2.200816630417893882e-01
2.068184033324511339e-01
1.925185240629406769e-01
1.774656358514547505e-01
1.620917222510986910e-01
1.466494556708783925e-01
1.313535746655900560e-01
1.164122505656993711e-01
1.020068329882043434e-01
8.840302952348166876e-02
7.569188660697889759e-02
6.391351059547401015e-02
5.315435336339224826e-02
4.347275979285791792e-02
3.495548457765673689e-02
2.753678568976525298e-02
2.108618935103523384e-02
1.559072357705026945e-02
1.102503686857803089e-02
7.353910028398136234e-03
4.418494926678118162e-03
1.969974976822719270e-03
-7.424691132529304127e-05
-1.790208823700734087e-03
-3.278531228207093307e-03
-4.735324990964295822e-03
-6.436320790086380583e-03
-8.500502371639795385e-03
-1.102272937547299492e-02
-1.410391360049501053e-02
-1.794356853218159742e-02
-2.269439623460700606e-02
-2.843372067816207771e-02
-3.520351858101322673e-02
-4.302180248356884951e-02
-5.199739002433718255e-02
-6.205749362726972751e-02
-7.310411924460871735e-02
-8.503478892736143768e-02
-9.770977873121078350e-02
-1.110637113995184277e-01
-1.248111471818167395e-01
-1.386106691661856960e-01
-1.522030492760954035e-01
-1.653151540238634309e-01
-1.777445603189009571e-01
-1.891618518869880861e-01
-1.990939715038424485e-01
-2.072609370323579281e-01
-2.134190834785605340e-01
-2.174040643597846545e-01
-2.190938451175422630e-01
-2.181309109625824139e-01
-2.144233961776845776e-01
-2.079530013996615523e-01
-1.987759355310266818e-01
-1.871260353236896545e-01
-1.729503200678966790e-01
-1.564474150721286705e-01
-1.378793055996266892e-01
-1.175587361191351432e-01
-9.593259294009948146e-02
-7.326672540583911708e-02
-4.992906121445006562e-02
-2.631378446385990166e-02
-2.814634104357449651e-03
2.016938915985655445e-02
4.230214790139597003e-02
6.325988248218661347e-02
8.274334577489911302e-02
1.004998050184267022e-01
1.163788513026288718e-01
1.302574021144599081e-01
1.419873388371771794e-01
1.514896173080126363e-01
1.587394819701107018e-01
1.638479735957649175e-01
1.670134332386337128e-01
1.682395615821163926e-01
1.676314395883655717e-01
1.653226570665824735e-01
1.615423065459855312e-01
1.567217529896453576e-01
1.509080546002732615e-01
1.442770170837681942e-01
1.370017758564706922e-01
1.292799423236514755e-01
1.215955537977265050e-01
1.139482534225567251e-01
1.064928628892066603e-01
9.936540938312994620e-02
9.269447046410832225e-02
8.677691755916663863e-02
8.159494144916326630e-02
7.720017337433088267e-02
7.365401688654865664e-02
7.099103269830814300e-02
6.928207481970599657e-02
6.840406563338977119e-02
6.827364949991004961e-02
6.884378692365428209e-02
7.003515576743934989e-02
7.172584331152476178e-02
7.363321952673251847e-02
7.553507933370490202e-02
7.726907314903885826e-02
7.865953006912229650e-02
7.947858831670018276e-02
7.935596705737574252e-02
