BVP Signal
-1.673822206368521387e-02
-4.853096156909307568e-02
-7.943609455171317391e-02
-1.079682245480760028e-01
-1.316709133789558117e-01
-1.472201313374812970e-01
-1.509916386816872458e-01
-1.399595697601578315e-01
-1.126855579117569811e-01
-7.011276738009281084e-02
-1.591275997928078695e-02
4.375455470257175183e-02
1.010508297835661928e-01
1.476798175007190683e-01
1.762774966548828759e-01
1.817157022110685860e-01
1.620929107534095359e-01
1.192395364939156099e-01
5.863705532864643688e-02
-1.126080353737288209e-02
-8.022139723652227383e-02
-1.377733855269075991e-01
-1.748646068568899814e-01
-1.853735798899115994e-01
-1.672080724798898355e-01
-1.227679067272243740e-01
-5.865153365790309881e-02
1.536475011565683474e-02
8.789310350490719959e-02
1.477586617118460399e-01
1.857628283472410047e-01
1.960992502447971575e-01
1.772128046917524347e-01
1.319923910767405173e-01
6.729657835549383849e-02
-7.092500932456613505e-03
-7.992412996798099745e-02
-1.401430197032105529e-01
-1.785435615285880795e-01
-1.891855137430645539e-01
-1.703503269980136958e-01
-1.248638226391574069e-01
-5.970523711579241166e-02
1.505136400155105553e-02
8.779392193637229613e-02
1.471708938822967605e-01
1.838417509231631553e-01
1.919104104263790744e-01
1.698347481506580214e-01
1.206908829882100270e-01
5.176032529191870041e-02
-2.651034264830440246e-02
-1.020521789288742903e-01
-1.630191095946146862e-01
-1.996680777096145609e-01
-2.059679185041816407e-01
-1.806455798533251333e-01
-1.274571185628817493e-01
-5.460542884798165464e-02
2.660741268551224115e-02
1.036463580983071203e-01
1.647753911332753007e-01
2.008843778752774367e-01
2.068123347492254460e-01
1.819988902628386362e-01
1.304319921400423632e-01
5.996127467513308329e-02
-1.889538593821409040e-02
-9.448966674760735096e-02
-1.557303141204148533e-01
-1.936980391486457231e-01
-2.029594307687618004e-01
-1.823787067316445243e-01
-1.352864261648279720e-01
-6.895584073176441731e-02
6.543842680070133255e-03
7.992417497461645759e-02
1.404038661475335570e-01
1.792908038308468066e-01
1.911863171355678015e-01
1.746761345283369127e-01
1.324616361144032028e-01
7.094564373756921671e-02
-6.695517657187705085e-04
-7.167015271142000710e-02
-1.313560161706673335e-01
-1.706145578116225470e-01
-1.833305390560584225e-01
-1.674119732145045725e-01
-1.252319657821530652e-01
-6.335371129470947216e-02
8.467179633377210080e-03
7.884980830620048897e-02
1.366408848742191595e-01
1.727177136206839991e-01
1.814369567427697172e-01
1.615089602432012161e-01
1.161813371291207375e-01
5.272164441958576697e-02
-1.871218478135379046e-02
-8.664470704553647873e-02
-1.400765227191851647e-01
-1.702458061374131915e-01
-1.720923238714212045e-01
-1.451711114417891524e-01
-9.382377176160434928e-02
-2.653616080913824560e-02
4.543115312914274007e-02
1.099083864746554229e-01
1.558557494612646532e-01
1.752292667886243549e-01
1.643608180162935140e-01
1.246240019392784726e-01
6.227624284767115104e-02
-1.250125969202351556e-02
-8.722336258966770228e-02
-1.491399202607929519e-01
-1.873803774742393291e-01
-1.948505412254604996e-01
-1.695395489662990807e-01
-1.149773560390107280e-01
-3.973404210170251166e-02
4.396294188533093894e-02
1.222509688168274267e-01
1.819429252036751932e-01
2.127375718834245144e-01
2.089666596287996780e-01
1.705947454918202155e-01
1.033080211931992343e-01
1.767260820682625688e-02
-7.251383272984629480e-02
-1.524318451065461988e-01
-2.086758654138466396e-01
-2.315264003765972745e-01
-2.166644795159152759e-01
-1.659998352690636447e-01
-8.742961066751103738e-02
6.452634943622539976e-03
1.004685698870614874e-01
1.793991986813932848e-01
2.305011977164163062e-01
2.455604135009696321e-01
2.221567658224156694e-01
1.639744916631088179e-01
8.015632400757702336e-02
-1.616544798219714252e-02
-1.099322256275665349e-01
-1.865188393551473200e-01
-2.340426713078286314e-01
-2.452585625475238451e-01
-2.187165986375089743e-01
-1.589699379127393342e-01
-7.578508794347831035e-02
1.750845637317751877e-02
1.062315923543783180e-01
1.767347747869214836e-01
2.185303664688153791e-01
2.258363147526677439e-01
1.983218152211010665e-01
1.409962372821091381e-01
6.331104333021483899e-02
-2.236374942855229309e-02
-1.026622771231920361e-01
-1.652708585485439252e-01
-2.008033411758879117e-01
-2.042198187418677036e-01
-1.755643207804019057e-01
-1.198970314287090416e-01
-4.642463069535011921e-02
3.302916975619626938e-02
1.059489160126962370e-01
1.611134371173516544e-01
1.903113411437423186e-01
1.895280396071579165e-01
1.594556848331369903e-01
1.052864770573344183e-01
3.584300900668344059e-02
-3.782038663514802890e-02
-1.041419471931103180e-01
-1.528503465529690852e-01
-1.765687044316990861e-01
-1.719782701851321760e-01
-1.403469483147137542e-01
-8.730989636281524802e-02
-2.190813205018263266e-02
4.496257477299531180e-02
1.024075667727694650e-01
1.413439010031848353e-01
1.559429062871172389e-01
1.444795829339226567e-01
1.094874248688917640e-01
5.723388272498054763e-02
-3.370694135478835216e-03
-6.224329911184739439e-02
-1.097460373727524585e-01
-1.382103306658108710e-01
-1.431463396706397495e-01
-1.239558496408765809e-01
-8.402538774334751548e-02
-3.016273962830013158e-02
2.854555900375773531e-02
8.226109884130064498e-02
1.220330390114551244e-01
1.412691206287511325e-01
1.368063931595424054e-01
1.094245641848225203e-01
6.372477600752717020e-02
7.383975454916645240e-03
-5.010780591723831834e-02
-9.902927944756392820e-02
-1.310708572010422512e-01
-1.407634836490093133e-01
-1.264420864344723283e-01
-9.055688217921009642e-02
-3.925477084382419934e-02
1.870203277508342837e-02
7.346993511059775328e-02
1.158106603924417555e-01
1.386223944766981908e-01
1.380673359885241924e-01
1.141431813962594521e-01
7.064668638458665439e-02
1.456507346901628197e-02
-4.500188531987600604e-02
-9.824022736541851430e-02
-1.361607859828150024e-01
-1.520735823885379367e-01
-1.427711446496134073e-01
-1.091963303233579041e-01
-5.642591745725247798e-02
7.078892674835376639e-03
7.084913122231784044e-02
1.241696352191970221e-01
1.579074204962910843e-01
1.660839887874943910e-01
1.469224773134355233e-01
1.031947211099407541e-01
4.181183138790222492e-02
-2.727322692336481280e-02
-9.267393998311622416e-02
-1.434376518234631304e-01
-1.708817171788575007e-01
-1.700997684628051121e-01
-1.408673177638459506e-01
-8.775842766492804314e-02
-1.942717602472995159e-02
5.282332406839261585e-02
1.169224137999740620e-01
1.620339093173738254e-01
1.803531162977103641e-01
1.684250231470489634e-01
1.277853546340101953e-01
6.481637884678427552e-02
-1.018704698198060095e-02
-8.463287170051536634e-02
-1.457075678741979463e-01
-1.825913282403774374e-01
-1.884261992432919586e-01
-1.616501728459185661e-01
-1.064018786858504512e-01
-3.188018858432892233e-02
4.923512615059505437e-02
1.229988559667316572e-01
1.766307253393598897e-01
2.007181144860580857e-01
1.908136044139666920e-01
1.481764122961420072e-01
7.956397429524947329e-02
-3.866048048164198725e-03
-8.835857447337933102e-02
-1.597961290320535632e-01
-2.060342831892660320e-01
-2.189718328415867776e-01
-1.959969152976578366e-01
-1.405239346262987521e-01
-6.148717141076699699e-02
2.814090696353355875e-02
1.135424742985271518e-01
1.805602539071287649e-01
2.180737598368457375e-01
2.198438686937551623e-01
1.855308231832685228e-01
1.207390828311950826e-01
3.610198458435399937e-02
-5.443850399052083122e-02
-1.358919756343920371e-01
-1.946784166344872058e-01
-2.209012644284566174e-01
-2.100524546505258550e-01
-1.638335492238939817e-01
-8.991451921821580484e-02
-6.430968318413832208e-04
8.907684797808929078e-02
1.643506256124059872e-01
2.128279652344918782e-01
2.267523354343436992e-01
2.041807172267148807e-01
1.492003457724420112e-01
7.115003611796909266e-02
-1.699230790491608467e-02
-1.007828815513280851e-01
-1.667011107066475040e-01
-2.043757004404312960e-01
-2.082800621925761098e-01
-1.786005486288314015e-01
-1.211151285579758763e-01
-4.609989318640639322e-02
3.353120174338302534e-02
1.044969202242859163e-01
1.553991993759701595e-01
1.785475154481212523e-01
1.710652511978560941e-01
1.351497072368459673e-01
7.751728137311555966e-02
8.182698635547408506e-03
-6.121155043543784202e-02
-1.192656283073107448e-01
-1.566258935326072799e-01
-1.674564084476126147e-01
-1.503478545635818231e-01
-1.085103030146052916e-01
-4.920843269074327841e-02
1.747485627140322323e-02
8.034171041246872258e-02
1.289583199937518465e-01
1.553858604995754233e-01
1.554720563247193321e-01
1.295004676232884289e-01
8.211038417421889779e-02
2.151303943029664323e-02
-4.187393879524199669e-02
-9.717007250375095384e-02
-1.348818784072236820e-01
-1.485485062978450232e-01
-1.358863541889588078e-01
-9.921261429425233536e-02
-4.505512647564011847e-02
1.699274843327457790e-02
7.596842066566833473e-02
1.214762239175230796e-01
1.455105518495504457e-01
1.438473189830382359e-01
1.167759445773700056e-01
6.905824105591520934e-02
9.117810334414111484e-03
-5.241852296812279238e-02
-1.045919449401204737e-01
-1.380722389821136820e-01
-1.468509049945573852e-01
-1.293472217725789575e-01
-8.871006912487178209e-02
-3.224596898682659252e-02
2.992743721707388435e-02
8.674371414885360954e-02
1.281973522469306292e-01
1.471100635567654524e-01
1.403356893654755799e-01
1.092217774681219500e-01
5.929309835330100198e-02
-7.558553207515639194e-04
-6.058109204244735424e-02
-1.099734616117394592e-01
-1.406113031313556694e-01
-1.474800964455159902e-01
-1.297096124867207489e-01
-9.068259068457609762e-02
-3.740057239611675743e-02
2.077445805818096958e-02
7.377242569656775051e-02
1.125626195929199658e-01
1.306883419285077008e-01
1.253331540198682204e-01
9.775811766512340628e-02
5.305815345771430769e-02
-7.131923285637331578e-04
-5.391296976767226412e-02
-9.695848043433395735e-02
-1.219895028365574341e-01
-1.242607063503801124e-01
-1.030172530284282628e-01
-6.168614769690325406e-02
-7.327917761734761837e-03
5.057396969553940719e-02
1.017756057434177630e-01
1.370789996454223059e-01
1.499465981299919481e-01
1.376397743893782721e-01
1.017023993104893553e-01
4.772933419820310497e-02
-1.553406300684342933e-02
-7.762378178053969124e-02
-1.281016407895138043e-01
-1.583316818427825956e-01
-1.629852141097738460e-01
-1.410036511881947174e-01
-9.583435628259615036e-02
-3.487976834791960135e-02
3.175597705715303004e-02
9.300174656959558916e-02
1.387176838321749206e-01
1.614124249026878122e-01
1.574832232718802461e-01
1.277847188282213164e-01
7.745283844111600091e-02
1.502540106996111402e-02
-4.899781176097653401e-02
-1.039278903689242056e-01
-1.407054710400532094e-01
-1.534591054911271790e-01
-1.405280137203364643e-01
-1.047527905416487798e-01
-5.295696087486655157e-02
5.307463037173186515e-03
5.951929264365116157e-02
1.001025745519103227e-01
1.201167962614451135e-01
1.164155728579419624e-01
9.010283138903876776e-02
4.625938456273068211e-02
-6.973779514560213277e-03
-5.979228078485304687e-02
-1.023900429960475367e-01
-1.266358608304444244e-01
-1.275015449254839339e-01
-1.039973030734717557e-01
-5.942981517506762401e-02
-9.027935614875359782e-04
6.187868448258206089e-02
1.182894460742000553e-01
1.586321789635140866e-01
1.758068869801669709e-01
1.665153018906561644e-01
1.318217755107857214e-01
7.700557335954391625e-02
1.073601243980568110e-02
-5.631385591344876401e-02
-1.132169274057490682e-01
-1.506336658884554480e-01
-1.624353188435724293e-01
-1.468156686219147522e-01
-1.066730116155852337e-01
-4.916334607334699180e-02
1.552510865698147891e-02
7.596888896340048269e-02
1.215445176227511470e-01
1.443151446283760797e-01
1.404169674207252361e-01
1.107006807200236753e-01
6.052719341833681654e-02
-1.233690502672872037e-03
-6.381829131069163830e-02
-1.165092152135415449e-01
-1.505530836075725798e-01
-1.607099150479397442e-01
-1.461509906606142106e-01
-1.105333204867833818e-01
-6.122524062612544338e-02
-7.823512600095339220e-03
3.974502848592864623e-02
7.315145223305401234e-02
8.723638124713860298e-02
8.092714603506594162e-02
5.734203445838664814e-02
2.307585133618250683e-02
-1.319481996515728395e-02
-4.252206722649676252e-02
-5.755711644088354340e-02
-5.409706229145563872e-02
-3.197893607889565337e-02
4.875896892672842986e-03
4.928363141015815185e-02
9.231236988634444751e-02
1.251566783616037681e-01
1.409567989340346217e-01
1.361691778058851388e-01
1.112185592837228454e-01
7.034064149887364614e-02
2.069459806621529174e-02
-2.905406999573054150e-02
-7.040981724643027850e-02
-9.667778550004686722e-02
-1.042433741254224777e-01
-9.324231414045490440e-02
-6.747049229368222434e-02
-3.353827486735135033e-02
5.594965131698239474e-04
2.715353249352742138e-02
4.052102182500762206e-02
3.806858521260053640e-02
2.082842734933448847e-02
-6.826961897229699705e-03
-3.817737166312226704e-02
-6.563780454492196270e-02
-8.242379539100280761e-02
-8.405673445286546142e-02
-6.938783590650751676e-02
-4.090161133474037869e-02
-4.207178407966291611e-03
3.318281068796354039e-02
6.350547790617883104e-02
8.044768819990885667e-02
8.050962519872377487e-02
6.374521134540826750e-02
3.374023867142358912e-02
-3.151915663428664360e-03
-3.915142926150071145e-02
-6.669029384664920679e-02
-8.000539408107587569e-02
-7.634892094598490220e-02
-5.655285716067175866e-02
-2.481693650526872047e-02
1.223985520482335880e-02
4.704964368634829974e-02
7.274439608373198252e-02
8.460238398361483170e-02
8.097868925588236344e-02
6.354504288161766379e-02
3.682231999109515652e-02
7.126807356944264704e-03
-1.884388725980690876e-02
-3.549004936401258664e-02
-3.953638234946420943e-02
-3.073041918497980418e-02
-1.184974132621649523e-02
1.198493535718894720e-02
3.452866514526312103e-02
4.987591820226675021e-02
5.382848632057046778e-02
4.485732558093991074e-02
2.445000015617011108e-02
-3.221704815357643963e-03
-3.223334995527529778e-02
-5.623770299590136190e-02
-6.991127023162542475e-02
-7.020128387941254600e-02
-5.708042824219704964e-02
-3.361143229676295807e-02
-5.282924434518390493e-03
2.123939678062393768e-02
3.965540572392357160e-02
4.550859034261078850e-02
3.726147475857242986e-02
1.672143783128066108e-02
-1.129229887912304442e-02
-3.998671881285778551e-02
-6.212217051590721711e-02
-7.168973287042884612e-02
-6.535387364013808820e-02
-4.332096696608549180e-02
-9.418001869321901420e-03
2.965898497236779674e-02
6.577436530505642587e-02
9.114153501000554769e-02
1.000601794289462387e-01
9.020508406351313013e-02
6.318194241703911640e-02
2.423641821796641838e-02
-1.881816786739885436e-02
-5.723390249275410457e-02
-8.318470548139936249e-02
-9.144778125441713201e-02
-8.053192258411073778e-02
-5.298869494673004443e-02
-1.483116742974731339e-02
2.580241439409340296e-02
6.042654223020033077e-02
8.202177025676191113e-02
8.648543700474287110e-02
7.341949612434811590e-02
4.611220397996762532e-02
1.074685812629266879e-02
-2.497381417670102577e-02
-5.349325283501576989e-02
-6.901488847349741829e-02
-6.873043953829983954e-02
-5.339456172450196547e-02
-2.710822827226999632e-02
3.643989000813918633e-03
3.147325784970261831e-02
4.973400184734244611e-02
5.397302854315966236e-02
4.288135187571309737e-02
1.856573528635674375e-02
-1.390520191495228652e-02
-4.758083459591472275e-02
-7.510538889525264494e-02
-9.027974871372870802e-02
-8.938122867322018106e-02
-7.196598727993247513e-02
-4.098055662390426290e-02
-2.146506892567956459e-03
3.725897269009598167e-02
6.995669455564640371e-02
9.019845624571806719e-02
9.493684680167743806e-02
8.438968071773536583e-02
6.190156404715141392e-02
3.315057422423746403e-02
4.871990981838519863e-03
-1.663518119042297835e-02
-2.690218171210664866e-02
-2.427844659112901593e-02
-1.028723028863265387e-02
1.073969816161673974e-02
3.267282883450306485e-02
4.901518678879623891e-02
5.442687930200973412e-02
4.599616518957105882e-02
2.396965638089820771e-02
-8.218741021846998063e-03
-4.462257996327334553e-02
-7.801599987796964397e-02
-1.014300636850613002e-01
-1.096747992398210414e-01
-1.005196733353622141e-01
-7.525890942459767530e-02
-3.851170724299624037e-02
2.717318133518775713e-03
4.051359098250434387e-02
6.773399691943549072e-02
7.952298336358482045e-02
7.433454055428095897e-02
5.423922092226768354e-02
2.444650476902660019e-02
-7.859775206633945466e-03
-3.512520008145780803e-02
-5.112053950523656742e-02
-5.235511978239856812e-02
-3.888338519906296004e-02
-1.430176892509590902e-02
1.508725175130790075e-02
4.176154942504040068e-02
5.876151346475766424e-02
6.133566365504716789e-02
4.806039956666341428e-02
2.118579420591892859e-02
-1.385243833930438484e-02
-4.962973730357589375e-02
-7.836440969216185159e-02
-9.361884300023670669e-02
-9.169106190933784539e-02
-7.239290046224122754e-02
-3.905803521449136007e-02
2.200650334375664485e-03
4.380211593121186020e-02
7.827682106813282914e-02
9.976703348382875980e-02
1.051336946821186391e-01
9.446156289375184922e-02
7.089784921054287370e-02
3.989694339342753082e-02
8.044796752028071651e-03
-1.830379424568029378e-02
-3.431506336074596764e-02
-3.763984395623981571e-02
-2.884945557101901981e-02
-1.124608469177645897e-02
9.913557325068100834e-03
2.861114039738332782e-02
3.941662032251802561e-02
3.870572785408021854e-02
2.548467694528366856e-02
1.642998353492908237e-03
-2.842196348367487246e-02
-5.872674601724292565e-02
-8.297077028126897957e-02
-9.588719766050490811e-02
-9.439773991420929988e-02
-7.832644492448115336e-02
-5.050381226517974831e-02
-1.621480813763165330e-02
1.790330860825983805e-02
4.526929734588858167e-02
6.075430570164996880e-02
6.175964512412068785e-02
4.875063890788267074e-02
2.514111169451505035e-02
-3.443998573477990988e-03
-3.037332881087229097e-02
-4.942716515084222273e-02
-5.612795851492302646e-02
-4.870084668644159009e-02
-2.845873314877289673e-02
4.767408057585464931e-04
3.206817398022931975e-02
5.967910765691855635e-02
7.751800777496076211e-02
8.188090889981924914e-02
7.192154140352857716e-02
4.979976354727799759e-02
2.019893870650824041e-02
-1.067463180755234831e-02
-3.640330665917934638e-02
-5.171238657881493950e-02
-5.358295184704964242e-02
-4.188484692700100709e-02
-1.939610408187419921e-02
8.788958040311101172e-03
3.633152077851775630e-02
5.697490934129056939e-02
6.585599247523532540e-02
6.053697549410941292e-02
4.154789337054687337e-02
1.232635194159126257e-02
-2.143950355399049101e-02
-5.294276690507526695e-02
-7.565086611295424035e-02
-8.468863531760195684e-02
-7.792225939647856592e-02
-5.649207084478424790e-02
-2.464632108296083146e-02
1.111365109005468810e-02
4.339850402011657948e-02
6.550485230496549960e-02
7.285232169799796265e-02
6.397361570167192646e-02
4.084512019093922142e-02
8.483002305883502459e-03
-2.611653328835839005e-02
-5.547396373058166574e-02
-7.324681256570730881e-02
-7.563143474119371490e-02
-6.224065199401795923e-02
-3.624611672182354027e-02
-3.721554466665111249e-03
2.769336570252534102e-02
5.051528745458533365e-02
5.913017860194713649e-02
5.110673249856922951e-02
2.782063531281764313e-02
-5.745647182685331700e-03
-4.199656260411543940e-02
-7.232310358281957008e-02
-8.898838951695786648e-02
-8.689752696613339822e-02
-6.485223918305749180e-02
-2.598898491271661726e-02
2.272631782783207655e-02
7.186274894202426822e-02
1.114632308690044482e-01
1.331333694661531730e-01
1.318195781777251607e-01
1.068966447538445275e-01
6.235489711126418477e-02
6.076739498211747303e-03
-5.163496444807069707e-02
-9.999288232510572527e-02
-1.297693776360926421e-01
-1.350674138467127250e-01
-1.144719704014338646e-01
-7.134479788067693562e-02
-1.319722259700384370e-02
4.973106525677906120e-02
1.063971497711442282e-01
1.470006483223862404e-01
1.647559611441060667e-01
1.570637442298874475e-01
1.258827425036379566e-01
7.726405655725088195e-02
2.016428670381031907e-02
-3.522990952941285059e-02
-7.936462002866306875e-02
-1.050409426379630418e-01
-1.086849423327649333e-01
-9.092443453177700974e-02
-5.636256100996206442e-02
-1.260663750199242372e-02
3.123134101640356874e-02
6.624689360866309329e-02
8.533261331954289375e-02
8.436090857356326467e-02
6.277555573429793867e-02
