BVP Green Neck Signal
-5.746641841024877767e-02
-4.742967105778360393e-02
-3.766960906738961445e-02
-2.842100672457226543e-02
-1.991863831483701996e-02
-1.239727560621303043e-02
-6.074622584875018216e-03
-1.110599067629600145e-03
2.350223129838478753e-03
4.213297877325175578e-03
4.424302581385194943e-03
2.953578108070779862e-03
-1.609446573733672170e-04
-4.865311502799278542e-03
-1.105466157130223503e-02
-1.858877031625339599e-02
-2.730942479030698186e-02
-3.701613536921570524e-02
-4.750031849916951099e-02
-5.853504309480676848e-02
-6.988242555244061904e-02
-8.130644229189820660e-02
-9.257526895183487703e-02
-1.034605087255691253e-01
-1.137589263018377317e-01
-1.232804448384287044e-01
-1.318570553235702270e-01
-1.393601690256176251e-01
-1.456720422240694590e-01
-1.507236554963250208e-01
-1.544678812559090175e-01
-1.568852103754576066e-01
-1.579986512789235964e-01
-1.578411925191101350e-01
-1.564843012287507884e-01
-1.540142463090814484e-01
-1.505322582623371819e-01
-1.461594665447984998e-01
-1.410198574712186459e-01
-1.352449676421399460e-01
-1.289685812275538079e-01
-1.223196580070017025e-01
-1.154216042312635471e-01
-1.083934297478969383e-01
-1.013364628283768554e-01
-9.434652904897425363e-02
-8.750293368701000940e-02
-8.086854527497198963e-02
-7.449912293124383300e-02
-6.842701046136795417e-02
-6.267831464018500109e-02
-5.726340714453694719e-02
-5.217912362278995936e-02
-4.741710042158578386e-02
-4.295422553702962776e-02
-3.876407466813090730e-02
-3.481364741261812334e-02
-3.106505717355063229e-02
-2.747997174340374715e-02
-2.401918999082548398e-02
-2.064377562775038949e-02
-1.731947134248039422e-02
-1.401503727753292822e-02
-1.070359511138416903e-02
-7.367965600321449426e-03
-3.993561976165321825e-03
-5.778041011092333035e-04
2.875210807805471391e-03
6.354432882182278752e-03
9.835550169538652410e-03
1.329114602099331494e-02
1.668125521072174461e-02
1.995990604598704005e-02
2.307585619415154082e-02
2.596919441980054949e-02
2.857859273282759710e-02
3.083875969404244882e-02
3.268283778751974317e-02
3.404570650739908305e-02
3.486473015652580970e-02
3.507930923016127495e-02
3.463906335273365250e-02
3.349745102536869773e-02
3.161907236729814136e-02
2.898224764391985758e-02
2.557105672346634412e-02
2.139255267849814873e-02
1.646120741398834214e-02
1.080985512404177007e-02
4.490877764633818825e-03
-2.435843815210100849e-03
-9.884532572832879782e-03
-1.776223408202780990e-02
-2.596050237445484549e-02
-3.435663209943932983e-02
-4.282408442639595164e-02
-5.122526954510658176e-02
-5.942035865921530685e-02
-6.727062599347605198e-02
-7.463822876463127587e-02
-8.139040899696151077e-02
-8.740878336176138852e-02
-9.257927036490815054e-02
-9.681017036292594025e-02
-1.000251937507060929e-01
-1.021622604101549425e-01
-1.031929472390005209e-01
-1.030971136631282509e-01
-1.018887090961718700e-01
-9.960194908773352396e-02
-9.628756374414826347e-02
-9.202991699530520264e-02
-8.692058823833348491e-02
-8.107723985035757142e-02
-7.463088167650765159e-02
-6.772119728755077173e-02
-6.050309006005039070e-02
-5.313358246325004114e-02
-4.577365405328470693e-02
-3.858592361181391317e-02
-3.172826792133402046e-02
-2.535130394859828884e-02
-1.960180983581812086e-02
-1.460721859829697961e-02
-1.048734085744707639e-02
-7.344111953037267548e-03
-5.255910705049778031e-03
-4.292671972115587320e-03
-4.489778994939547241e-03
-5.870884059730269167e-03
-8.435001880956520537e-03
-1.215308379999652938e-02
-1.698650166343593920e-02
-2.286221068407931489e-02
-2.969705109202293997e-02
-3.738720973845052059e-02
-4.580853208552437827e-02
-5.483060560293724628e-02
-6.430350209631975622e-02
-7.407252018142773675e-02
-8.397658873480580433e-02
-9.384921432293075183e-02
-1.035251280965382992e-01
-1.128433443028298983e-01
-1.216446545703175064e-01
-1.297832673503609147e-01
-1.371232767270405828e-01
-1.435385953955042593e-01
-1.489281272436520365e-01
-1.531971869565189881e-01
-1.562782451913722892e-01
-1.581210585482990538e-01
-1.586896942983801462e-01
-1.579794469940036250e-01
-1.559928634527519564e-01
-1.527609058082735338e-01
-1.483301509131877138e-01
-1.427604088964503082e-01
-1.361364171644764698e-01
-1.285482818888985523e-01
-1.201060596277211123e-01
-1.109292460281230408e-01
-1.011448553887694668e-01
-9.089213518887399867e-02
-8.031234213932021693e-02
-6.955242510659727373e-02
-5.876157632194685398e-02
-4.808748188290450781e-02
-3.767569248266564030e-02
-2.766957131390771971e-02
-1.820139582163304154e-02
-9.399293639002333223e-03
-1.378601369238049990e-03
5.760936466504044950e-03
1.192638384944669921e-02
1.705189372130410524e-02
2.108031955730330781e-02
2.397686312646388901e-02
2.573027717358612049e-02
2.633884499369220505e-02
2.583370295462559391e-02
2.425514735811815786e-02
2.166570042097636789e-02
1.814813627658429934e-02
1.379275199143043668e-02
8.712284091064351199e-03
3.024767825363455787e-03
-3.141470116453118355e-03
-9.649999657511641737e-03
-1.636361585336854052e-02
-2.314355288423132137e-02
-2.985143687742738625e-02
-3.635718383119715402e-02
-4.253636893659799162e-02
-4.827254282733915020e-02
-5.346808682426988646e-02
-5.803043638643636676e-02
-6.189048330524317409e-02
-6.499293640331350874e-02
-6.729596137579893500e-02
-6.878492002737147948e-02
-6.945157867908131888e-02
-6.931370506669068399e-02
-6.840227567193135627e-02
-6.676041497820292547e-02
-6.445242285437499663e-02
-6.154697460667986342e-02
-5.812845676790529686e-02
-5.428809047576386992e-02
-5.012132252869049009e-02
-4.572995299194460017e-02
-4.121594950745584296e-02
-3.667914001996613882e-02
-3.221839725753420508e-02
-2.792590744472942324e-02
-2.388513075539754754e-02
-2.017559479657558830e-02
-1.686011217759315894e-02
-1.399582766771893111e-02
-1.162667709610751277e-02
-9.781702364150997309e-03
-8.484676560063020290e-03
-7.740482045948744727e-03
-7.548503303117855279e-03
-7.896893874756907850e-03
-8.762857679903535146e-03
-1.012028087810412647e-02
-1.193281728103874617e-02
-1.416161928144052395e-02
-1.676411187005744097e-02
-1.969457867713725330e-02
-2.290708442638262482e-02
-2.635532818491995860e-02
-2.999307881700448777e-02
-3.377601637132746082e-02
-3.766121475525551626e-02
-4.160707513334987312e-02
-4.557533798861578000e-02
-4.952855836043503629e-02
-5.343247097092135300e-02
-5.725481316986372887e-02
-6.096482240075457026e-02
-6.453496931721444674e-02
-6.793843877445450430e-02
-7.115103085433162333e-02
-7.414996681969072967e-02
-7.691354566923884473e-02
-7.942207310373305962e-02
-8.165631105646811716e-02
-8.359881413032628494e-02
-8.523298729414180430e-02
-8.654365589515300439e-02
-8.751794122846677515e-02
-8.814386010183442033e-02
-8.841383279230793923e-02
-8.832211307805046263e-02
-8.786723346173300198e-02
-8.705370091339725835e-02
-8.588821805232231543e-02
-8.438695408572784162e-02
-8.256947534943274991e-02
-8.046238902952065897e-02
-7.810079712362176518e-02
-7.552251143877100614e-02
-7.277540328110441992e-02
-6.991040702063708312e-02
-6.698326008585291091e-02
-6.405471025231529447e-02
-6.118602360167219034e-02
-5.843956124176220845e-02
-5.587770865951986049e-02
-5.355823669657510527e-02
-5.153475322286454191e-02
-4.985678970076394545e-02
-4.856103413760833043e-02
-4.768063432417572051e-02
-4.723473096335812499e-02
-4.723154016896514290e-02
-4.767246038763471583e-02
-4.854075837803756288e-02
-4.981544593471724791e-02
-5.146159181526170634e-02
-5.343487102543861833e-02
-5.568593156049420761e-02
-5.815393446756125795e-02
-6.077582462384055473e-02
-6.348296101556190341e-02
-6.620346813140495779e-02
-6.886546744156997468e-02
-7.139715434433895058e-02
-7.372744579671081100e-02
-7.579120632395813795e-02
-7.752633183367148295e-02
-7.887691325263396225e-02
-7.979777726430005436e-02
-8.024704816064920365e-02
-8.019834059957378636e-02
-7.963205338328259442e-02
-7.853912460712855759e-02
-7.692623664425055074e-02
-7.480446226658599151e-02
-7.220301538221939042e-02
-6.915795296895269062e-02
-6.571537676739019895e-02
-6.193435404275857148e-02
-5.787700706497316688e-02
-5.361630047254983128e-02
-4.922862518331252990e-02
-4.479278638585486305e-02
-4.039028327557983578e-02
-3.610164398865203794e-02
-3.200275105493211730e-02
-2.816787170356657710e-02
-2.466256839222744079e-02
-2.154400235148429613e-02
-1.886425022795223255e-02
-1.665863650452183847e-02
-1.495792417540679070e-02
-1.377823699187086248e-02
-1.312348242324844899e-02
-1.299135738189240857e-02
-1.336207678755591682e-02
-1.421173354569793545e-02
-1.550471313689064795e-02
-1.719695957645789308e-02
-1.924095522582995599e-02
-2.158083464066313031e-02
-2.415923459978039367e-02
-2.691672299654373351e-02
-2.979259043670784077e-02
-3.272752758230146330e-02
-3.566531461847097240e-02
-3.855087632163087252e-02
-4.133585625322902524e-02
-4.397553080298237382e-02
-4.642994834705722884e-02
-4.866799920114734529e-02
-5.066085216730616819e-02
-5.238960397352976361e-02
-5.383997761896098383e-02
-5.500312354710790858e-02
-5.587886405347870789e-02
-5.646902746311262267e-02
-5.678321027343434524e-02
-5.683411397541300591e-02
-5.663750880509451496e-02
-5.621340064781818469e-02
-5.558251327654913088e-02
-5.476774631399990156e-02
-5.379272984852102868e-02
-5.268131392848001554e-02
-5.145761080034133572e-02
-5.014571568250725947e-02
-4.876957745597210181e-02
-4.735310813215238418e-02
-4.592032692804492305e-02
-4.449536377097670914e-02
-4.310240740258864528e-02
-4.176585163554377006e-02
-4.051010991288619967e-02
-3.935904168826952904e-02
-3.833601156449271963e-02
-3.746349528651592847e-02
-3.676115120088163657e-02
-3.624775621550475890e-02
-3.593738719109686869e-02
-3.584049088250806925e-02
-3.596424222703920731e-02
-3.630708917809577496e-02
-3.686522873729572436e-02
-3.762556274336182477e-02
-3.856879082049607943e-02
-3.967130959707042270e-02
-4.089970351190590214e-02
-4.221859893999842239e-02
-4.358709513173069511e-02
-4.496112685234220779e-02
-4.629696047123351560e-02
-4.755160186872177397e-02
-4.868312801266050371e-02
-4.965771428776347141e-02
-5.044561685412858598e-02
-5.102494954794249693e-02
-5.138729984210973351e-02
-5.152811701778711034e-02
-5.146027233573249871e-02
-5.120415308846443248e-02
-5.078993055636739362e-02
-5.026223700599901506e-02
-4.966886540211926798e-02
-4.906912744941870075e-02
-4.852652114692974916e-02
-4.810657929741007921e-02
-4.787743001739250964e-02
-4.790595778775363911e-02
-4.825215091734467304e-02
-4.897348751443826587e-02
-5.011608932900642188e-02
-5.171352975485615788e-02
-5.379295393278083620e-02
-5.635765826090963215e-02
-5.940384568880960336e-02
-6.290771927274223241e-02
-6.682637464510737813e-02
-7.110869449814885557e-02
-7.567755165310036114e-02
-8.044918732404043871e-02
-8.532387470374855343e-02
-9.018869878153594477e-02
-9.492695878569004653e-02
-9.941191330077503441e-02
-1.035151826584536083e-01
-1.071112145353916578e-01
-1.100764902825834279e-01
-1.122945871578148735e-01
-1.136668565513796192e-01
-1.140999718900732873e-01
-1.135285486546176725e-01
-1.119044729074584188e-01
-1.091978431661038834e-01
-1.054174352219062333e-01
-1.005815159874225706e-01
-9.474848517856593322e-02
-8.799813745372153662e-02
-8.042985716066367030e-02
-7.217884357991802280e-02
-6.338769231568788798e-02
-5.422538994529978867e-02
-4.487296357314986966e-02
-3.551733875425146930e-02
-2.635471464333937960e-02
-1.758060950455268140e-02
-9.381106920741698330e-03
-1.938233665210960244e-03
4.583953700966293676e-03
1.004599383426326570e-02
1.431880476451873746e-02
1.731872396114422091e-02
1.897816646443705596e-02
1.926583695270101676e-02
1.819334425210105549e-02
1.578722831181731540e-02
1.212957705264301050e-02
7.319347921393416778e-03
1.488688016746210485e-03
-5.196328500881412793e-03
-1.256040584794852061e-02
-2.039924098665331711e-02
-2.850148325505665048e-02
-3.665193237012254190e-02
-4.463198818454847117e-02
-5.222948606664025439e-02
-5.925320288380034328e-02
-6.551852237967459303e-02
-7.087677732276141673e-02
-7.520678191659131706e-02
-7.840953508946243988e-02
-8.044439040667153429e-02
-8.128509206877720938e-02
-8.096017137221170334e-02
-7.953433883714902675e-02
-7.709595172428222731e-02
-7.378665341308854320e-02
-6.975894696961390529e-02
-6.519808860976147868e-02
-6.030793967188749494e-02
-5.529693675200354763e-02
-5.038216519585805159e-02
-4.577937818458958225e-02
-4.168520517930218022e-02
-3.828665417303271645e-02
-3.574603203102886401e-02
-3.418369044893024289e-02
-3.370665381864766663e-02
-3.435912721982890827e-02
-3.615837231730408691e-02
-3.908042246556352184e-02
-4.304096976164299010e-02
-4.794003043471713188e-02
-5.361551173419206590e-02
-5.988256324717554369e-02
-6.652962802915789176e-02
-7.331137691364043862e-02
-7.997799537759241184e-02
-8.626850106861096157e-02
-9.191915865307898059e-02
-9.668281025398300921e-02
-1.003304318112835380e-01
-1.026478650765832168e-01
-1.034778238900030678e-01
-1.026803467815493726e-01
-1.001744048372494034e-01
-9.593470396743514206e-02
-8.996343436935949622e-02
-8.235010170015996667e-02
-7.320680628911035992e-02
-6.270749339387650390e-02
-5.107667399687987331e-02
-3.855848725284611450e-02
-2.545019895488197237e-02
-1.205996705150547132e-02
1.287974852430207040e-03
1.425806812434299992e-02
2.652174481058960226e-02
3.776845387844272178e-02
4.769468190686889514e-02
5.604286184576528357e-02
6.258356133894801832e-02
6.712107437259845488e-02
6.953069165580438860e-02
6.970563077927910411e-02
6.761732240194048837e-02
6.327849399077106751e-02
5.674255473281191592e-02
4.813658260757907453e-02
3.760395215434882837e-02
2.535041510774398849e-02
1.161003384914198466e-02
-3.359738208372285706e-03
-1.926489170675812351e-02
-3.580595570010103312e-02
-5.266947991831649051e-02
-6.953686339938790206e-02
-8.609779721537966224e-02
-1.020532249463146357e-01
-1.171121371320797966e-01
-1.310213326824219982e-01
-1.435410944565314040e-01
-1.544688109266594556e-01
-1.636452979619912873e-01
-1.709286788226373199e-01
-1.762425014987579475e-01
-1.795303458946995445e-01
-1.807829473352981497e-01
-1.800387579390585191e-01
-1.773539591091096435e-01
-1.728429517941506011e-01
-1.666355460068870975e-01
-1.588951793302091353e-01
-1.498147101487237454e-01
-1.395958975196951724e-01
-1.284654861684715876e-01
-1.166554151396220762e-01
-1.044015814008316806e-01
-9.194286420843272856e-02
-7.951297584736956303e-02
-6.733155764447165681e-02
-5.561369083931933660e-02
-4.454824594171886282e-02
-3.430693392710441186e-02
-2.504372949567558460e-02
-1.687265430810838684e-02
-9.897710476117260736e-03
-4.179823370969407148e-03
2.444292602791428570e-04
3.361151641219674302e-03
5.200409255510789197e-03
5.802175254288444162e-03
5.244947378108724689e-03
3.625975069726582178e-03
1.058071916535036072e-03
-2.319922708200819472e-03
-6.364661088036169256e-03
-1.091931783632895531e-02
-1.582154666264043441e-02
-2.091040626096954749e-02
-2.602701974256052542e-02
-3.101573012236795088e-02
-3.573815004927866079e-02
-4.006246962261231920e-02
-4.387557299774889896e-02
-4.708775853551605550e-02
-4.961839560903788526e-02
-5.142303558075951575e-02
-5.246897214028450884e-02
-5.274942748022352218e-02
-5.228569676514032566e-02
-5.110869531680278105e-02
-4.928246539624054484e-02
-4.688026936822253105e-02
-4.399326457340207996e-02
-4.072936100497744766e-02
-3.720068923361245089e-02
-3.353157961827252231e-02
-2.984892289286470921e-02
-2.627897763085921407e-02
-2.294748652086328264e-02
-1.997553055221766571e-02
-1.747073902973006465e-02
-1.553670508726575500e-02
-1.425604291710812210e-02
-1.369667685084629410e-02
-1.391328414388359053e-02
-1.492862770209297391e-02
-1.675762645102606141e-02
-1.938326627348981035e-02
-2.276922584710315556e-02
-2.686412356422275202e-02
-3.158539952655681216e-02
-3.684398154231553063e-02
-4.252835829968652781e-02
-4.851535482007503230e-02
-5.467617800239531894e-02
-6.087205544314013006e-02
-6.696375726659808958e-02
-7.281636967775026448e-02
-7.829706994769897177e-02
-8.328388383167983910e-02
-8.767169730161737673e-02
-9.136177858482300018e-02
-9.428552892663231988e-02
-9.638627310895044042e-02
-9.762958535499691171e-02
-9.801085741507382931e-02
-9.753428687613990844e-02
-9.623869888191441402e-02
-9.417464582966814102e-02
-9.141091104998000372e-02
-8.803739640150851087e-02
-8.414881814214483780e-02
-7.985572694895519408e-02
-7.527307108227380972e-02
-7.051777196870886999e-02
-6.570872740031660775e-02
-6.096226400759552355e-02
-5.638491233703159244e-02
-5.208008577820289614e-02
-4.813572393684067280e-02
-4.462636304333175014e-02
-4.161762372982796138e-02
-3.914866308411894813e-02
-3.725185670871090926e-02
-3.593622538317782500e-02
-3.519330283280250327e-02
-3.500486217631169905e-02
-3.532788010659847211e-02
-3.611391087266606348e-02
-3.729877695877494709e-02
-3.880813568007694669e-02
-4.056391668654143329e-02
-4.247998781414629582e-02
-4.446930360493413920e-02
-4.644669796293341563e-02
-4.832809424403632786e-02
-5.003498650031195510e-02
-5.149965662466762101e-02
-5.265784346300266677e-02
-5.346288236354505841e-02
-5.387664790552176841e-02
-5.387270997924098470e-02
-5.344405413263686455e-02
-5.258856438446774667e-02
-5.132441006905457542e-02
-4.967822038286414527e-02
-4.768650327101021935e-02
-4.539992448875466990e-02
-4.287216626538890157e-02
-4.016762830879642282e-02
-3.735450652348659695e-02
-3.450379896784983719e-02
-3.168997440624921058e-02
-2.898725214646849860e-02
-2.646765802967451092e-02
-2.420234404897389155e-02
-2.225648851034574272e-02
-2.068886698112409536e-02
-1.955433208154700939e-02
-1.889335834719464008e-02
-1.874214685465717262e-02
-1.912295052260906680e-02
-2.004509583712913920e-02
-2.151128253532627599e-02
-2.350350710388622935e-02
-2.599839832277429930e-02
-2.895656994775636095e-02
-3.232580421389921743e-02
-3.604789110583881545e-02
-4.004850070321038652e-02
-4.424980390391305279e-02
-4.856586629353343981e-02
-5.290514986412071796e-02
-5.717583167507914177e-02
-6.128566651078795613e-02
-6.514316206920414687e-02
-6.866535460165221205e-02
-7.177441212767476930e-02
-7.440091290660635903e-02
-7.649282519391731316e-02
-7.800292774737888069e-02
-7.890677105096466359e-02
-7.919170693860254351e-02
-7.885882242974934231e-02
-7.793360307115360097e-02
-7.644743152547402165e-02
-7.445593221290841557e-02
-7.202554013094798757e-02
-6.923380478865366616e-02
-6.617531482462576942e-02
-6.294776663258845606e-02
-5.965886569406707307e-02
-5.642002583516229214e-02
-5.334129742681718162e-02
-5.053091190847516789e-02
-4.809391681814970815e-02
-4.611977484856654569e-02
-4.469237792629725259e-02
-4.387713975166597502e-02
-4.371828201501606892e-02
-4.425062679986895009e-02
-4.547353104407132057e-02
-4.737561070134224672e-02
-4.991841355207288916e-02
-5.303664708860836990e-02
-5.665493439782243179e-02
-6.066534122888970343e-02
-6.495161260509964285e-02
-6.938143953513351003e-02
-7.380875123903901658e-02
-7.808590510676449714e-02
-8.206178060767202465e-02
-8.558551644611456233e-02
-8.851936118473294202e-02
-9.073529411648190157e-02
-9.211792542954172491e-02
-9.258442701581615086e-02
-9.206066231533935329e-02
-9.051160660449208972e-02
-8.792730325225478483e-02
-8.431889241407164448e-02
-7.974388310463476071e-02
-7.427031549809276489e-02
-6.800606458747071592e-02
-6.108101683373681062e-02
-5.364030714875075989e-02
-4.585791064502120484e-02
-3.791262516821648082e-02
-2.999542939037442082e-02
-2.230297762039207612e-02
-1.502740714679556833e-02
-8.353346313779375087e-03
-2.460380064862627281e-03
2.500357975779354813e-03
6.389755905326845176e-03
9.095854368885748775e-03
1.054525820314344137e-02
1.067738948485786460e-02
9.486129649245264583e-03
6.985070574976270930e-03
3.223502848868894932e-03
-1.705479389057795725e-03
-7.696212592571985422e-03
-1.459700377080073302e-02
-2.224199255597824817e-02
-3.044531464295601592e-02
-3.899988295268205091e-02
-4.769614342756400838e-02
-5.631885982603014595e-02
-6.465210082711138340e-02
-7.249385532390328901e-02
-7.965488362203837491e-02
-8.595814569133394811e-02
-9.126569656534563868e-02
-9.545041284263008907e-02
-9.842716871612307294e-02
-1.001441526806108318e-01
-1.005700174528353918e-01
-9.972874022663773264e-02
-9.765741370031924551e-02
-9.443596293323883173e-02
-9.017366556823512569e-02
-8.499510572924748320e-02
-7.906039917599898270e-02
-7.253644259419825269e-02
-6.560594336043962249e-02
-5.846091603596820924e-02
-5.129190345195038664e-02
-4.428616605072516893e-02
-3.762801926935229607e-02
-3.148012148191645793e-02
-2.599394436681662715e-02
-2.130117214270460177e-02
-1.749861948959283153e-02
-1.467315180363255173e-02
-1.286625202452904709e-02
-1.209925455724420590e-02
-1.236598266271698304e-02
-1.361846972587809484e-02
-1.579834942855446595e-02
-1.880611124985362426e-02
-2.252659352637167989e-02
-2.682700467764681865e-02
-3.155141593386313892e-02
-3.654041064889518298e-02
-4.162493085007976101e-02
-4.663314055581890827e-02
-5.140052480281807890e-02
-5.577088201363096520e-02
-5.959536121912842321e-02
-6.275448905121676357e-02
-6.513798994938208020e-02
-6.666633180760032917e-02
-6.729015958911822859e-02
-6.697463953291080130e-02
-6.573266914148091777e-02
-6.358990224949548353e-02
-6.060705022379692108e-02
-5.687457721770780572e-02
-5.249524478302250441e-02
-4.760647553264620024e-02
-4.235341334072375424e-02
-3.689692832299538983e-02
-3.140941496410083050e-02
-2.606343475505127141e-02
-2.103129548812175675e-02
-1.648374350633800833e-02
-1.257433585192836017e-02
-9.445692745688551162e-03
-7.224758527437022404e-03
-6.004109726512288359e-03
-5.867107730176887581e-03
-6.854323867217376742e-03
-8.982854123533418056e-03
-1.224521530307407652e-02
-1.658767780275708509e-02
-2.194579583270310497e-02
-2.821224763311066391e-02
-3.525947515107860641e-02
-4.294234199270101360e-02
-5.108719066426997690e-02
-5.951576056954367699e-02
-6.803702191487574769e-02
-7.645497127737704846e-02
-8.457883293814386083e-02
-9.222520682502000078e-02
-9.921653601244743992e-02
-1.054040848638626016e-01
-1.106497341590225447e-01
-1.148438304415970168e-01
-1.179113007735712593e-01
-1.197900783031957961e-01
-1.204683548019657435e-01
-1.199500998930744244e-01
-1.182727218461442908e-01
-1.155087478577568605e-01
-1.117417716505929998e-01
-1.070919817564472132e-01
-1.016892215795403009e-01
-9.567796148011512014e-02
-8.921595364255799354e-02
-8.246136209048912646e-02
-7.557211898037571873e-02
-6.870515802455533227e-02
-6.200276951089346567e-02
-5.559574017966337905e-02
-4.960366846319009398e-02
-4.411571031932552678e-02
-3.921324511995088330e-02
-3.494667719042747478e-02
-3.134538929493938669e-02
-2.842460814063845972e-02
-2.616675070205445527e-02
-2.454724353669707204e-02
-2.351909472178048688e-02
-2.302220183286475888e-02
-2.299095218186814754e-02
-2.334882505723557405e-02
-2.401828565436043075e-02
-2.492445426984324711e-02
-2.599386931908494180e-02
-2.716063001909112609e-02
-2.837205908377409339e-02
-2.957965339871150220e-02
-3.075485362135493492e-02
-3.187785352518676674e-02
-3.294021903173462856e-02
-3.395061251450469386e-02
-3.492131683293699107e-02
-3.587762421674833835e-02
-3.684963656705833590e-02
-3.786957658422315798e-02
-3.897241655641415364e-02
-4.019196697118981171e-02
-4.155533938573288677e-02
-4.308722061803797049e-02
-4.480241835273002932e-02
-4.670463790725273845e-02
-4.879263959794506028e-02
-5.104686170459866307e-02
-5.344235829189074999e-02
-5.594181252433515911e-02
-5.849588725848236387e-02
-6.105170239084829753e-02
-6.354553054755612829e-02
-6.591115391495988574e-02
-6.808102513899728925e-02
-6.998648192291237469e-02
-7.156150100888877819e-02
-7.274812843162095644e-02
-7.349092931169617926e-02
-7.374821033795479763e-02
-7.348826423228385640e-02
-7.268795818999737590e-02
-7.134560013106275300e-02
-6.946474118930004438e-02
-6.706955392151059403e-02
-6.419715151725068070e-02
-6.089377853995534690e-02
-5.722526832409363662e-02
-5.326139675311025723e-02
-4.908428459933258936e-02
-4.478270787953381182e-02
-4.044726312622758807e-02
-3.617184817113290596e-02
-3.204989594918279672e-02
-2.816850774903451732e-02
-2.461174466161930585e-02
-2.145551509686828562e-02
-1.876257842095817308e-02
-1.659149306457601003e-02
-1.498159892987595970e-02
-1.396439542656545407e-02
-1.355896660605272058e-02
-1.376712817101205522e-02
-1.458603273174521181e-02
-1.599460906105522329e-02
-1.796540018169662939e-02
-2.046179252175881966e-02
-2.343616410637722539e-02
-2.683826767883363412e-02
-3.060888643305732792e-02
-3.468612505992622885e-02
-3.900488932929277452e-02
-4.349675933929242344e-02
-4.809283210576163065e-02
-5.272294211478209536e-02
-5.731666635172992519e-02
-6.180446307849402771e-02
-6.611758298610408147e-02
-7.018838751564270007e-02
-7.395276483241405852e-02
-7.734766234232084980e-02
-8.031521777419653452e-02
-8.280160468975794608e-02
-8.475655409786533867e-02
-8.613934659830660423e-02
-8.691180466817559347e-02
-8.704682463482955879e-02
-8.652474741280610782e-02
-8.533246858630635923e-02
-8.347202016823718207e-02
-8.094921168990039384e-02
-7.778587197767435069e-02
-7.401313673996032239e-02
-6.967100316153317097e-02
-6.481712695802258062e-02
-5.951333347835321280e-02
-5.383844070466319714e-02
-4.787977960567572216e-02
-4.173245168333664101e-02
-3.550491948651803009e-02
-2.930815887855862945e-02
-2.326134704937844744e-02
-1.748713109372918018e-02
-1.210776378884619031e-02
-7.244890769715205125e-03
-3.018076172486512665e-03
4.649638531966579502e-04
3.101193191921286507e-03
4.802735071003899625e-03
5.501223800582273615e-03
5.136642378943123699e-03
3.683711348924187390e-03
1.128823428094193060e-03
-2.513271233300522212e-03
-7.196277288508357017e-03
-1.286215311787591159e-02
-1.941086784498275222e-02
-2.673029440677218357e-02
-3.468292347142304388e-02
-4.310683179533406073e-02
-5.183339536291758226e-02
-6.067388970337858622e-02
-6.943514424528944573e-02
-7.792353135133500697e-02
-8.594504841997160915e-02
-9.331262576602020187e-02
-9.985991460057069835e-02
-1.054269344122933244e-01
-1.098877339938004738e-01
-1.131408431359125222e-01
-1.151064906417380573e-01
-1.157586423807758502e-01
-1.150845278233318669e-01
-1.131248212829441824e-01
-1.099534001787599580e-01
-1.056688783381319885e-01
-1.004224542411432664e-01
-9.437617459613580062e-02
-8.772798024128364291e-02
-8.069497695268872117e-02
-7.350126401924607367e-02
-6.638361535643899636e-02
-5.957813008268757204e-02
-5.330540969510738636e-02
-4.777860229661000380e-02
-4.318564034729958923e-02
-3.967418983489972434e-02
-3.737766815524620756e-02
-3.636228487230119821e-02
-3.666699883103496233e-02
-3.828281605533626064e-02
-4.113471238304262922e-02
-4.512911817777369439e-02
-5.009941256952242516e-02
-5.585372214345480507e-02
-6.216641586372738393e-02
-6.877168882566060681e-02
-7.539776379182573651e-02
-8.175656135102445099e-02
-8.755613733446161728e-02
-9.252186433734618798e-02
-9.639693731864076853e-02
-9.894164616865568085e-02
-9.997818719706216828e-02
-9.934700787257383370e-02
-9.695508114682882539e-02
-9.276858107648253138e-02
-8.678509844382703564e-02
-7.909675061368617865e-02
-6.981916662436439547e-02
-5.913546260250193698e-02
-4.728066497913070709e-02
-3.451102267943581547e-02
-2.113720259707434559e-02
-7.480434031932360617e-03
6.121862425175157718e-03
1.932155672684627429e-02
3.177809397142310893e-02
4.316903900060326676e-02
5.317925003968700798e-02
6.154025794287693724e-02
6.801051111620451395e-02
7.238448715568107650e-02
7.452797788865908601e-02
7.432563837955719066e-02
7.174738113013875984e-02
6.680552152791491283e-02
5.956152815920328497e-02
5.016066348797525859e-02
3.876799161112490927e-02
2.562784075447879090e-02
1.101839148103541527e-02
-4.749721823532657150e-03
-2.131810496472579669e-02
-3.832155377821335612e-02
-5.537777338660363619e-02
-7.209882644084261716e-02
-8.811411573378073736e-02
-1.030751531210700178e-01
-1.166490665655694203e-01
-1.285719213124798532e-01
-1.386031398298498141e-01
-1.465693273128147733e-01
-1.523710703939237243e-01
-1.559388391143697872e-01
-1.573103035052896559e-01
-1.565539471455185405e-01
-1.538072926558515519e-01
-1.492735975150027428e-01
-1.431761642373354237e-01
-1.357989327521000322e-01
-1.274397658540648293e-01
-1.184089167359723138e-01
-1.090268267521484619e-01
-9.960373004388123341e-02
-9.041885442788108462e-02
-8.174132166428471624e-02
-7.378150598231009161e-02
-6.670794635825558205e-02
-6.065262518286173438e-02
-5.565797014588384772e-02
-5.174507221586883976e-02
-4.885366405171238935e-02
-4.687348146395276666e-02
-4.566269628967494637e-02
-4.501330229138630901e-02
-4.470566521954552619e-02
-4.449270088060212902e-02
-4.411296876144206458e-02
-4.331444323042819844e-02
-4.186265824789478507e-02
-3.953347871552299886e-02
-3.616564127765475867e-02
-3.162711242174011395e-02
-2.584096628627063560e-02
-1.881727179498206282e-02
-1.059125788167442767e-02
-1.307172940856013432e-03
8.847380043178434961e-03
1.962536057920693383e-02
3.069874144267101951e-02
4.172256647011245850e-02
5.229346851153380410e-02
6.198892337615342224e-02
7.038567927172886818e-02
7.705963992219622138e-02
8.160107477823741462e-02
8.366430205115243934e-02
8.292507857092254464e-02
7.914611656260658878e-02
7.217871665934591507e-02
6.192037807830638035e-02
4.842727908908079498e-02
3.179965138921567874e-02
1.226306478407757777e-02
-9.846502880590170259e-03
-3.414732225491952378e-02
-6.012402282405139575e-02
-8.723058745811965164e-02
-1.148605590088580819e-01
-1.423614935531156700e-01
-1.690817364872986006e-01
-1.943748857565385790e-01
-2.176017138481761981e-01
-2.381979232939580304e-01
-2.556486563529031253e-01
-2.695029007196902415e-01
-2.794549690274321652e-01
-2.852365778486604109e-01
-2.867452569297389009e-01
-2.839728673674299375e-01
-2.769949944648252282e-01
-2.660505124964625545e-01
-2.514126398062139223e-01
-2.334776780317135148e-01
-2.127020409739033280e-01
-1.895754002535701699e-01
-1.646431937199242801e-01
-1.384545743952721175e-01
-1.115472246392103517e-01
-8.445324908526294361e-02
-5.766252082275267338e-02
-3.160320959484513165e-02
-6.680368800838346055e-03
1.680468574991268033e-02
3.858911785257409383e-02
5.847647939505467435e-02
7.635401758516996429e-02
9.213009612487127464e-02
1.057888306799897593e-01
1.173379380347479850e-01
1.268088717886607375e-01
1.342589573153401827e-01
1.397461603729243662e-01
1.433257361569498789e-01
1.450514571687767373e-01
1.449606335953512459e-01
1.430750592863126169e-01
1.394103443806463116e-01
1.339629177990278586e-01
1.267251972140416016e-01
1.176913619680799439e-01
1.068570360812401698e-01
9.422869145593751328e-02
7.984431792872437317e-02
6.375132934765756487e-02
4.604575355445440082e-02
2.685788273403994647e-02
6.346227130849646514e-03
-1.526239784786245779e-02
-3.772537905930210822e-02
-6.074262391062787425e-02
-8.397909544705678409e-02
-1.070805060361686156e-01
-1.296527458030564406e-01
-1.512959253295632633e-01
-1.716040282019966057e-01
-1.901680280411943980e-01
-2.065964404212074224e-01
-2.205297648988543135e-01
-2.316217530655350076e-01
-2.395986585974700656e-01
-2.442200686700759793e-01
-2.453061626862478861e-01
-2.427717853911723622e-01
-2.365601830587350518e-01
-2.267388372174654887e-01
-2.134243635725143473e-01
-1.968105604428636024e-01
-1.771953467452167530e-01
-1.549041370664883122e-01
-1.303669251671049634e-01
-1.040490160951845211e-01
-7.646029854949355775e-02
-4.816265287970619702e-02
-1.972497658138134408e-02
8.265921957012749288e-03
3.521938096924871059e-02
6.056954386461656931e-02
8.377557038817762258e-02
1.043200900521915331e-01
1.217688232433772610e-01
1.357119058294293246e-01
1.458326447755603772e-01
1.518955967888066250e-01
1.537136576652793352e-01
1.512432970872610583e-01
1.444776041575522585e-01
1.335319692803369207e-01
1.186139806017082188e-01
9.998277562592400303e-02
7.802934901802946466e-02
5.317394789791365234e-02
2.592412471793436451e-02
-3.155757969061923074e-03
-3.347857334336744317e-02
-6.440744227043911085e-02
-9.529916388722159404e-02
-1.255161822126712456e-01
-1.544243485120170567e-01
-1.814206434375733867e-01
-2.059628162994363298e-01
-2.275293631843812447e-01
-2.457084465873380086e-01
-2.601418993544221681e-01
-2.705515265395219138e-01
-2.767928601738493533e-01
-2.787574267237563075e-01
-2.764919261945716911e-01
-2.701084004816777240e-01
-2.598037952405396478e-01
-2.458975966870814156e-01
-2.287375846236984755e-01
-2.087768121303730240e-01
-1.865060668118084242e-01
-1.624500986362804600e-01
-1.371760174104381669e-01
-1.112522592262673859e-01
-8.524090124037753124e-02
-5.970053703219439789e-02
-3.514743111431088696e-02
-1.205217008198168627e-02
9.142331570054972045e-03
2.809516740151724729e-02
4.449551037450639318e-02
5.812372342968716993e-02
6.884525244812980671e-02
7.656451521662671622e-02
8.130732311733623874e-02
8.313033326461999328e-02
8.217179236167237999e-02
7.863575831922209325e-02
7.275244191067645194e-02
6.482206918374208704e-02
5.515956849525869427e-02
4.410772676709764223e-02
3.202871575903371709e-02
1.928294861171656743e-02
6.225553663301477969e-03
-6.792453331716082066e-03
-1.945503004193588348e-02
-3.146728590655963054e-02
-4.256358292829962725e-02
-5.253910177131942277e-02
-6.120497422946506727e-02
-6.844449570126562299e-02
-7.417857290328712383e-02
-7.836784979440952759e-02
-8.104399218850030784e-02
-8.225470747085224243e-02
-8.211021243387281454e-02
-8.074869873662197939e-02
-7.833146208767720331e-02
-7.505542146393084924e-02
-7.112202459826091894e-02
-6.674164280620484280e-02
-6.212764810580270747e-02
-5.747846284178782100e-02
-5.297251568100629082e-02
-4.877683074236717486e-02
-4.500701946482467408e-02
-4.176077252301939324e-02
-3.909159237718479174e-02
-3.700196157941740283e-02
-3.547687383282086687e-02
-3.443772233358263074e-02
-3.378727113370706692e-02
-3.339672240699399081e-02
-3.310577005712042609e-02
-3.274979013148800189e-02
-3.215331818815055087e-02
-3.113961187602279357e-02
-2.955356712438627492e-02
-2.725876360606409310e-02
-2.413955673848083155e-02
-2.014303767912623694e-02
-1.523334889073131582e-02
-9.444308708452399392e-03
-2.861736061871560100e-03
4.395664586015639308e-03
1.212548867220000076e-02
2.010689972537801212e-02
2.806408328024017490e-02
3.568583619182966876e-02
4.265104722303091761e-02
4.861755734387219335e-02
5.324312617841899659e-02
5.621218764197918188e-02
5.722425003426750284e-02
5.601682835288699508e-02
5.240062277974393695e-02
4.620852619700046432e-02
3.738264422091640976e-02
2.591786876738094020e-02
1.187908854990897545e-02
-4.553018711181772149e-03
-2.316938416152644273e-02
-4.364555528335160861e-02
-6.560927418087296459e-02
-8.863949047560894245e-02
-1.122454876645258143e-01
-1.359261704211244814e-01
-1.591525852300844091e-01
-1.813867756078323124e-01
-2.021124184457009920e-01
-2.208399405630490087e-01
-2.371008006992707529e-01
-2.505173864719248411e-01
-2.607423068974322189e-01
-2.675209245952812620e-01
-2.706976794914902618e-01
-2.701602411608406418e-01
-2.659486587099839094e-01
-2.581461559412333573e-01
-2.469435377845506097e-01
-2.326309707854692654e-01
-2.155347600712813338e-01
-1.960901003450267743e-01
-1.747577919706388982e-01
-1.520423273063622460e-01
-1.284830670825073684e-01
-1.046171946113435558e-01
-8.097291472582185401e-02
-5.807220558665850130e-02
-3.637801872210315313e-02
-1.631249929873652277e-02
1.748938450489470608e-03
1.754242995113932529e-02
3.083248870251468349e-02
4.150606909623286850e-02
4.952317251354954736e-02
5.490451789016780743e-02
5.779494684710492075e-02
5.836560194724666611e-02
5.688092220874629151e-02
5.365319669319538326e-02
4.902048247569874145e-02
4.336608741905636361e-02
3.707687218983354155e-02
3.053165386652883367e-02
2.410514138920453325e-02
1.813723234225531750e-02
1.291444677144464731e-02
8.702678528696397575e-03
5.670893174040000928e-03
3.950239331499703910e-03
3.602260264930746969e-03
4.596477334972877415e-03
6.876323604253567479e-03
1.028490056711723472e-02
1.463202654532797659e-02
1.968224979904826394e-02
2.514838437152903255e-02
3.073573516058510785e-02
3.612952877641340682e-02
4.101057827961653718e-02
4.508153716300079134e-02
4.806664290877144669e-02
4.971079323904286501e-02
4.983054115736571671e-02
4.826287089801650082e-02
4.491829269636516547e-02
3.977014467479775967e-02
3.282427234183801085e-02
2.418030366130673875e-02
1.396005002470390027e-02
2.344469915857509690e-03
-1.044181107874837117e-02
-2.416078389461414136e-02
-3.854209763874799632e-02
-5.331096454210927649e-02
-6.820156119926487626e-02
-8.295386200074891803e-02
-9.732792315761935875e-02
-1.111284342645570411e-01
-1.241726788784033031e-01
-1.363394110294423589e-01
-1.475413201964387022e-01
-1.577244013787852395e-01
-1.668977057479537063e-01
-1.750836233476959214e-01
-1.823530961615431878e-01
-1.888000313110889394e-01
-1.945305706416781966e-01
-1.996707575581413707e-01
-2.043469531277192497e-01
-2.086754986288545666e-01
-2.127682267170041552e-01
-2.167136764359498258e-01
-2.205673939492343028e-01
-2.243720185812715928e-01
-2.281130512657973952e-01
-2.317553140300150638e-01
-2.352239587809111798e-01
-2.383956240481330535e-01
-2.411335379151080816e-01
-2.432524432562397088e-01
-2.445524301190249716e-01
-2.448181579535173291e-01
-2.438179710708027192e-01
-2.413225263468512516e-01
-2.371146233300923667e-01
-2.309818106246692426e-01
-2.227464958857630350e-01
-2.122629597469334328e-01
-1.994087523490046254e-01
-1.841348086341263457e-01
-1.664118526894627081e-01
-1.462818077358661040e-01
-1.238428819421194538e-01
-9.922587750452876998e-02
-7.264916512550081973e-02
-4.435144996482517921e-02
-1.463434160894228064e-02
1.615759893234557792e-02
4.766029061437974251e-02
7.946474613525714159e-02
1.111543803470380065e-01
1.423024153247217372e-01
1.724761642906268710e-01
2.012543923478350982e-01
2.282395514911831347e-01
2.530433274396622911e-01
2.753310826508194586e-01
2.947957331032656780e-01
3.111720803132398405e-01
3.242684293872820089e-01
3.339132425292022921e-01
3.400247115137361997e-01
3.425606994364622238e-01
3.415315957697694360e-01
3.370272998786174035e-01
3.291572604067401486e-01
3.181076707768997758e-01
3.040938273437921446e-01
2.873642703614940896e-01
2.682110224644456697e-01
2.469335358785296752e-01
2.238537745484926456e-01
1.993005597068045198e-01
1.735972923714754201e-01
1.470612376441219060e-01
1.200016572599731657e-01
9.269527432395716082e-02
6.540866073908149780e-02
3.837460071022815583e-02
1.179282521602096484e-02
-1.415177221907901184e-02
-3.932257606239972225e-02
-6.359558007149423986e-02
-8.687770251015175527e-02
-1.091020169332902190e-01
-1.302105226999958898e-01
-1.501698594554810029e-01
-1.689518856739280761e-01
-1.865361001390026252e-01
-2.029075796226710859e-01
-2.180506592157096801e-01
-2.319474267189010064e-01
-2.445790834179263629e-01
-2.559208906846428544e-01
-2.659443616063382754e-01
-2.746193285430286735e-01
-2.819120407187054589e-01
-2.877887895116615358e-01
-2.922206949902575457e-01
-2.951815697157176843e-01
-2.966537811746192688e-01
-2.966358401519719190e-01
-2.951316733073274801e-01
-2.921730703006085728e-01
-2.878050520431426063e-01
-2.820927057771253077e-01
-2.751336552084335252e-01
-2.670340343810566064e-01
-2.579355901415860686e-01
-2.479945444541188093e-01
-2.373831646443119725e-01
-2.262961721278098914e-01
-2.149315279709868021e-01
-2.034956606767218401e-01
-1.921975705554017921e-01
-1.812366605294710997e-01
-1.708007081718435904e-01
-1.610684957565071407e-01
-1.521807654075747751e-01
-1.442657912372919682e-01
-1.374124897770243880e-01
-1.316685812780366838e-01
-1.270634002480836855e-01
-1.235625217100164430e-01
-1.211137923141673012e-01
-1.196210190650114635e-01
-1.189481516250169846e-01
-1.189456210902183064e-01
-1.194241973278879487e-01
-1.201859118833624729e-01
-1.210234223186680003e-01
-1.217220650959832673e-01
-1.220740601809301995e-01
-1.218913598706767021e-01
-1.209926404207319617e-01
-1.192375440036517742e-01
-1.165134499694577552e-01
-1.127349248242783264e-01
-1.078798953370997959e-01
-1.019415996410590886e-01
-9.497510219644703100e-02
-8.707157757216128779e-02
-7.834862724328586769e-02
-6.897666856975770422e-02
-5.913591891035276799e-02
-4.903501028867601752e-02
-3.889673621393208158e-02
-2.894238185522526180e-02
-1.939041795112567829e-02
-1.045404533154057486e-02
-2.311569248140118993e-03
4.874240868941288884e-03
1.097553862207055475e-02
1.591686521805672078e-02
1.963909031709001191e-02
2.215367598154068668e-02
2.349886688047631705e-02
2.375453605884014080e-02
2.305447460959663547e-02
2.154541254330955696e-02
1.942041688828898688e-02
1.688728078146132378e-02
1.416499097318694306e-02
1.148506733249703843e-02
9.075649199570601233e-03
7.147929296829690082e-03
5.907107747782289198e-03
5.524639728446675835e-03
6.139301907639102551e-03
7.870297101058056077e-03
1.077216639431896605e-02
1.488195354335686976e-02
2.018270741640449534e-02
2.661226739571757177e-02
3.408759848300770695e-02
4.246709441725832895e-02
5.159583724174383185e-02
6.128687791094950682e-02
7.133010283649085514e-02
8.151016007939723695e-02
9.159961535285524037e-02
1.013702017148185863e-01
1.106055422206577987e-01
1.190967473335632631e-01
1.266501154292477560e-01
1.331048799093970392e-01
1.383094388457325463e-01
1.421562025836148879e-01
1.445614096223931389e-01
1.454673413305166418e-01
1.448646292807204139e-01
1.427554113699531502e-01
1.391889186673158085e-01
1.342363485344343632e-01
1.279911182765093858e-01
1.205822432742198469e-01
1.121461254777356698e-01
1.028456863630610452e-01
9.285440239561018605e-02
8.235252183681818217e-02
7.152965922814122357e-02
6.057504856356577677e-02
4.967217955578776684e-02
3.900218606207919020e-02
2.873189112503331949e-02
1.901096446431097681e-02
9.980372691332214941e-03
1.746237241691199482e-03
-5.596424535025887326e-03
-1.198302619626660098e-02
-1.738051220472373870e-02
-2.176913123931848923e-02
-2.517452348100176346e-02
-2.763484412542491914e-02
-2.921948391932224429e-02
-3.002581751768974155e-02
-3.016154175465210127e-02
-2.976464130036171260e-02
-2.897999004443566062e-02
-2.796386549966771093e-02
-2.688136903173575162e-02
-2.589588233654874228e-02
-2.516541370376235154e-02
-2.484531224783472630e-02
-2.506970100277499530e-02
-2.595846622561520309e-02
-2.761476149115506956e-02
-3.010302971626208426e-02
-3.347774814938934973e-02
-3.774933537944550471e-02
-4.290270799176262861e-02
-4.889958194039357997e-02
-5.565562673490730833e-02
-6.307642080310221777e-02
-7.102969398525769973e-02
-7.936434362969033152e-02
-8.791720965048727132e-02
-9.650453879813061797e-02
-1.049406812492330587e-01
-1.130410001486127913e-01
-1.206215797525952149e-01
-1.275142756505224795e-01
-1.335743933730066113e-01
-1.386677788834970448e-01
-1.427104274134831929e-01
-1.456375012881719055e-01
-1.474261244665135973e-01
-1.481072344548613473e-01
-1.477296935432279579e-01
-1.464128915649251239e-01
-1.442992889771824716e-01
-1.415733461443800523e-01
-1.384660852939034181e-01
-1.352204222420694268e-01
-1.321185130175266675e-01
-1.294528999764617272e-01
-1.275209631888756523e-01
-1.266247194039958612e-01
-1.270575512908801719e-01
-1.290819223149241857e-01
-1.329504125830536232e-01
-1.388634431464569330e-01
-1.469781950891724254e-01
-1.574198177248673503e-01
-1.702221227396297498e-01
-1.853956346917852438e-01
-2.028649880782820158e-01
-2.224932773898645189e-01
-2.441057826334617487e-01
-2.674355002599995146e-01
-2.921954932500853697e-01
-3.180379484621188579e-01
-3.445774383929716134e-01
-3.714145311964648366e-01
-3.981207244035119275e-01
-4.242650047020264936e-01
-4.494279109188732413e-01
-4.731963543931741456e-01
-4.951827012724865917e-01
-5.150463787518069214e-01
-5.324618202184413507e-01
-5.471778154243273073e-01
-5.589776941622767170e-01
-5.676935190360681283e-01
-5.732347441359650908e-01
-5.755304594231855919e-01
-5.745898365219735959e-01
-5.704539836300037692e-01
-5.632021714516395328e-01
-5.529660104229103812e-01
-5.398879482457666912e-01
-5.241477326605952225e-01
-5.059376838279542321e-01
-4.854584534748813685e-01
-4.629205703157304730e-01
-4.385337144192955061e-01
-4.125011962151549083e-01
-3.850240449440653911e-01
-3.562912740263059486e-01
-3.264795722904855202e-01
-2.957598742815113479e-01
-2.642834410187708261e-01
-2.321961634689692078e-01
-1.996306108312244920e-01
-1.667075378023093191e-01
-1.335430582944926448e-01
-1.002397111890830084e-01
-6.689673992233707844e-02
-3.360479138616018213e-02
-4.479212249893435582e-04
3.249337039027232893e-02
6.514781667845870317e-02
9.744644045617165129e-02
1.293290511053722114e-01
1.607412854769670885e-01
1.916339599344398237e-01
2.219696889223371494e-01
2.517140623745999783e-01
2.808455146460515084e-01
3.093498401485997862e-01
3.372197090636113170e-01
3.644613026666533306e-01
3.910837726401553138e-01
4.171074813538801496e-01
4.425583096877378497e-01
4.674655641413814067e-01
4.918643414053841534e-01
5.157901429200065779e-01
5.392773641900084902e-01
5.623598312635639251e-01
5.850657442889031223e-01
6.074150259982796785e-01
6.294238188348635354e-01
6.510903761937303358e-01
6.724061480670542323e-01
6.933465274136760836e-01
7.138665226345780601e-01
7.339136910865603491e-01
7.534058851798802747e-01
7.722512329311255197e-01
7.903374654113847209e-01
8.075299291148163583e-01
8.236869743744326122e-01
8.386429912001096554e-01
8.522257961598163067e-01
8.642539413385073033e-01
8.745371878262458987e-01
8.828857866171104796e-01
8.891128888908733652e-01
8.930332325130374560e-01
8.944773706107917999e-01
8.932888373364394896e-01
8.893236645921159811e-01
8.824734875549932189e-01
8.726394762546957340e-01
8.597628753587004402e-01
8.438133608063436153e-01
8.247815866359535786e-01
8.027091847418644788e-01
7.776495743222331392e-01
7.496987515393582768e-01
7.189787842837799259e-01
6.856276138554732169e-01
6.498163216218993954e-01
6.117218225752836247e-01
5.715349732037098285e-01
5.294539045424422330e-01
4.856729304117280988e-01
4.403792479447515285e-01
3.937555384039404527e-01
3.459566443353936926e-01
2.971245041901571793e-01
2.473764428783201685e-01
1.967910614501039712e-01
1.454358131097793772e-01
9.333004036388908853e-02
4.047403945897618677e-02
-1.315715984237043890e-02
-6.762283648270731029e-02
-1.229888595087849090e-01
-1.793427634533205639e-01
-2.367790282791181478e-01
-2.953882296177893219e-01
-3.552563526175395170e-01
-4.164610312800837710e-01
-4.790440973556546189e-01
-5.430356235802582532e-01
-6.084217815247833228e-01
-6.751441681826790830e-01
-7.431217299430253886e-01
-8.121960634406327761e-01
-8.821873684038531449e-01
-9.528552108077015248e-01
-1.023905925839262876e+00
-1.095023621085136956e+00
-1.165827641627754652e+00
-1.235922487613564158e+00
-1.304882874627577127e+00
-1.372260933200473598e+00
-1.437609002812974435e+00
-1.500481499526671980e+00
-1.560436342654495601e+00
-1.617068850829354476e+00
-1.669998942500002359e+00
-1.718879815171541203e+00
-1.763440195871050165e+00
-1.803428774459520101e+00
-1.838685546107669877e+00
-1.869102303880685101e+00
-1.894620835139236847e+00
-1.915280198391056565e+00
-1.931141135410856080e+00
-1.942347670320832886e+00
-1.949084450615216069e+00
-1.951565635526154585e+00
-1.950054844398588116e+00
-1.944822165199756814e+00
-1.936149102018303259e+00
-1.924321497883203946e+00
-1.909605888970099530e+00
-1.892240667770192175e+00
-1.872449817804422434e+00
-1.850388215678043569e+00
-1.826184798462713976e+00
-1.799910232587335068e+00
-1.771561960254997237e+00
-1.741113342730182589e+00
-1.708444778147674592e+00
-1.673406962205113313e+00
-1.635798943877128320e+00
-1.595363665667825392e+00
-1.551831363498519245e+00
-1.504892260268360760e+00
-1.454226610457947766e+00
-1.399517805985799557e+00
-1.340452187477224388e+00
-1.276730097944938969e+00
-1.208099447263254911e+00
-1.134322225836951858e+00
-1.055223811136608347e+00
-9.706810691851089912e-01
-8.806041040514145379e-01
-7.849952769719843459e-01
-6.838791478218380071e-01
-5.773524843325315015e-01
-4.655627283875093392e-01
-3.486821435924689627e-01
-2.269418208324584241e-01
-1.005839869042791240e-01
3.012575331835384146e-02
1.649076926065505544e-01
3.034846448553064069e-01
4.455851689375594504e-01
5.909412674930313303e-01
7.393087893967602575e-01
8.904560895092348272e-01
1.044163968279652410e+00
1.200235611702194394e+00
1.358476531797111475e+00
1.518691960949219100e+00
1.680686598976402601e+00
1.844240187387248930e+00
2.009093514130964042e+00
2.174968321832750018e+00
2.341490136988779280e+00
2.508245858103482995e+00
2.674733081516559974e+00
2.840329294529620796e+00
3.004370727595456980e+00
3.166023844789768837e+00
3.324396883734720198e+00
3.478492031251311900e+00
3.627188204287595585e+00
3.769333758079753682e+00
3.903673665771739909e+00
4.028924489680524523e+00
4.143799352096605659e+00
4.247007919006993149e+00
4.337292842806639293e+00
4.413519411399876802e+00
4.474592103351595185e+00
4.519611217151732419e+00
4.547847247404989801e+00
4.558690458682026048e+00
4.551888882055573404e+00
4.527283739981927013e+00
4.485051408653951022e+00
4.425620073144131972e+00
4.349562570152311736e+00
4.257820936997650740e+00
4.151416863967304138e+00
4.031591879270231438e+00
3.899729919303622783e+00
3.757237021504738816e+00
3.605564032173687039e+00
3.446147636015905569e+00
3.280229186907153593e+00
3.108939328757756027e+00
2.933177101664890429e+00
2.753392825263688337e+00
2.569902595039583737e+00
2.382365453407271350e+00
2.190120705999600403e+00
1.992084825420816774e+00
1.786470034113998295e+00
1.571318609729745130e+00
1.343987581898506312e+00
1.101548800954302854e+00
8.408185981410390974e-01
5.582461472985257300e-01
2.502691281894485753e-01
-8.657913520795326723e-02
-4.557221061095440562e-01
-8.602323277706148685e-01
-1.302745690017502511e+00
-1.785471829724708304e+00
-2.308733514479390347e+00
-2.872296184944708841e+00
-3.475925199578194125e+00
-4.119385916837972061e+00
