BVP Green Neck Signal
-5.535239572601454577e-02
-4.858431298035856966e-02
-3.687610310940243885e-02
-2.509043580716128694e-02
-1.634104148416076763e-02
-1.031587647539707747e-02
-4.789767785758611285e-03
7.066428677846153805e-04
4.999072639179112654e-03
6.942164972946571200e-03
6.509092704871127788e-03
4.754445785093659727e-03
1.854889982504437373e-03
-2.541665813703533616e-03
-8.730305430245562104e-03
-1.656813122646377118e-02
-2.538635718304409206e-02
-3.502514921927435410e-02
-4.542348111441569386e-02
-5.647726517570732241e-02
-6.794424660615072664e-02
-7.939261568760376531e-02
-9.064839210264930003e-02
-1.015230130997833990e-01
-1.118260739863139452e-01
-1.213629448679634515e-01
-1.299329997445710372e-01
-1.374255329570657769e-01
-1.437420865806589843e-01
-1.487687936007482947e-01
-1.524991482807935284e-01
-1.549065645094158949e-01
-1.559659999913076966e-01
-1.558197684164690511e-01
-1.544191026452513549e-01
-1.519226495371610031e-01
-1.484311749598475894e-01
-1.439897255461873860e-01
-1.388669475059346736e-01
-1.330550955994180551e-01
-1.267505707496681677e-01
-1.201043576449513928e-01
-1.131499458322761664e-01
-1.061385099681916022e-01
-9.907168531265053701e-02
-9.205099069878971974e-02
-8.523079184533238761e-02
-7.856268607003415172e-02
-7.220208826240384625e-02
-6.614938477429181674e-02
-6.036147561068431339e-02
-5.498852656918706838e-02
-4.987975692577288622e-02
-4.512173909822809331e-02
-4.069336810563363438e-02
-3.645433145515906276e-02
-3.255228482340476182e-02
-2.877573055494830889e-02
-2.519166933381289733e-02
-2.176226410594083935e-02
-1.833458778211521922e-02
-1.505040129608731930e-02
-1.171423190501194589e-02
-8.399730412856042105e-03
-5.084145617149676832e-03
-1.664486033920435648e-03
1.726980961608490239e-03
5.203350689655203420e-03
8.690078966625498780e-03
1.215493652283845816e-02
1.563923726733264935e-02
1.901590786670811356e-02
2.229354297729135154e-02
2.541613128361498025e-02
2.827990872468650468e-02
3.089484647638720410e-02
3.313855761248687276e-02
3.494775349553497917e-02
3.630609018030859364e-02
3.707131582743792425e-02
3.726517961861439826e-02
3.679510076300691185e-02
3.558900411069885333e-02
3.368816919903900448e-02
3.098288718382239543e-02
2.752641333593409262e-02
2.331024065429689734e-02
1.830286405149111201e-02
1.261819721507143055e-02
6.246005148207320334e-03
-7.396848235625488877e-04
-8.208972231642353012e-03
-1.614840901127848061e-02
-2.436732414592727644e-02
-3.277042873882905771e-02
-4.128489511292571246e-02
-4.965792141878475063e-02
-5.787854693800465605e-02
-6.570948921150704392e-02
-7.302365133666711972e-02
-7.978649080143183914e-02
-8.571466371104102810e-02
-9.086978499530501407e-02
-9.503188474896702431e-02
-9.815034793154714388e-02
-1.002553470241362571e-01
-1.011571889262344870e-01
-1.010210518621711961e-01
-9.971573609648862191e-02
-9.733331466038239177e-02
-9.396246711497496795e-02
-8.959309268125892345e-02
-8.444507038996432180e-02
-7.852156896541628850e-02
-7.202793889211278611e-02
-6.507077075988880466e-02
-5.781793824728547609e-02
-5.043138377160596292e-02
-4.305176332847875098e-02
-3.588922864689434583e-02
-2.902255074655831282e-02
-2.271860335455623547e-02
-1.697737140075441381e-02
-1.204180013940038541e-02
-8.009764247879559707e-03
-4.905869839611540217e-03
-2.980366400734991983e-03
-2.041765187100849643e-03
-2.356980001417194326e-03
-3.851879301091216956e-03
-6.486687053683590221e-03
-1.038376828881323877e-02
-1.525344038223838683e-02
-2.125371739268399826e-02
-2.818214824557023837e-02
-3.593597568717362550e-02
-4.448041745691506260e-02
-5.352682695424927639e-02
-6.306785257458215332e-02
-7.287467479625189815e-02
-8.279361144302203879e-02
-9.268628382399940469e-02
-1.023509639973246427e-01
-1.116379563130648345e-01
-1.204102425073991234e-01
-1.284926943979105007e-01
-1.357467614226325892e-01
-1.421066156987117468e-01
-1.473668001260724225e-01
-1.515568559578990004e-01
-1.545229955736275307e-01
-1.562137701268138390e-01
-1.566963944089095062e-01
-1.558050176982138102e-01
-1.537223245042426967e-01
-1.503584898046884666e-01
-1.457687864635515418e-01
-1.401127318525755006e-01
-1.333255137395600032e-01
-1.256557721237965830e-01
-1.171181935173394029e-01
-1.078278757501794777e-01
-9.799284001398980704e-02
-8.765974310104215905e-02
-7.703414806173287943e-02
-6.626041929922101004e-02
-5.543121505289920481e-02
-4.477157670872004835e-02
-3.439664464024522889e-02
-2.439047118806074790e-02
-1.500827344967567423e-02
-6.244471886102422042e-03
1.687719912538555855e-03
8.693640136317265510e-03
1.480787360956815207e-02
1.976931520868308728e-02
2.370906565654645054e-02
2.646671630326456054e-02
2.804932150316432476e-02
2.857435985840087872e-02
2.788787501092829940e-02
2.621601247677320806e-02
2.349054094146909438e-02
1.983792354337454017e-02
1.540722398995644088e-02
1.020281229813948393e-02
4.461276291384666526e-03
-1.779905230680153827e-03
-8.335647553079729433e-03
-1.507650958543482050e-02
-2.187176697968323119e-02
-2.857452398259459694e-02
-3.506206884155766562e-02
-4.119307181232484405e-02
-4.689325066685618576e-02
-5.199450729450152964e-02
-5.650607545415682609e-02
-6.026761614664184752e-02
-6.326445698166718867e-02
-6.548802461887888449e-02
-6.682292471967023195e-02
-6.743045420046828164e-02
-6.716491719987127684e-02
-6.615041101793502076e-02
-6.442882089353392516e-02
-6.198014695041098587e-02
-5.904521178219262340e-02
-5.553153858421574357e-02
-5.164018396364141589e-02
-4.743544346991364347e-02
-4.297775395120265185e-02
-3.848052830359998538e-02
-3.392159941133109091e-02
-2.947834764028295362e-02
-2.520696321720419797e-02
-2.119257942966810276e-02
-1.753501625371315167e-02
-1.427020997009562087e-02
-1.147127387171216484e-02
-9.166422003755531067e-03
-7.406980358941335496e-03
-6.173859870649868464e-03
-5.518628114533422058e-03
-5.401385240208743388e-03
-5.822387626671456096e-03
-6.783965235741221123e-03
-8.191533003443461636e-03
-1.008872439660701836e-02
-1.237237098713871858e-02
-1.502577379321090589e-02
-1.802749721780933650e-02
-2.126417403846705273e-02
-2.476520735989859445e-02
-2.843093164261739983e-02
-3.223092085461216200e-02
-3.615277111320400888e-02
-4.009852613941702892e-02
-4.407877067431203999e-02
-4.804002449485057780e-02
-5.192802028799502895e-02
-5.575557124842848294e-02
-5.944627864434143261e-02
-6.298935184995888004e-02
-6.638742041239786840e-02
-6.955673503198529783e-02
-7.253537768296410004e-02
-7.526271416177264528e-02
-7.771303864666544159e-02
-7.992844341668708941e-02
-8.180689653190373334e-02
-8.339991750133896042e-02
-8.465724410299788061e-02
-8.555541254010445851e-02
-8.614392679892846072e-02
-8.633830207288703540e-02
-8.619089623127075550e-02
-8.567108829477748655e-02
-8.478511425693886772e-02
-8.356620279567356091e-02
-8.199808512566722496e-02
-8.012748475702569095e-02
-7.796501068626845998e-02
-7.556129526869691249e-02
-7.293844199353974322e-02
-7.016488492271610866e-02
-6.727609651064020424e-02
-6.433465098957438788e-02
-6.141958719930309951e-02
-5.854619697779209209e-02
-5.583830089375178829e-02
-5.330032505726978870e-02
-5.102584918548903198e-02
-4.907290152403697564e-02
-4.743997625641682703e-02
-4.623828514905380799e-02
-4.541760937436320478e-02
-4.505755251271235939e-02
-4.514583404899459584e-02
-4.565553772893390927e-02
-4.662481018728339283e-02
-4.795575936759838981e-02
-4.968037589594759273e-02
-5.171247265487855654e-02
-5.401173973856160382e-02
-5.652998154176818585e-02
-5.916642194752530504e-02
-6.189813506519697278e-02
-6.460856733763535587e-02
-6.726472336662309148e-02
-6.976344402838977055e-02
-7.205236645508564242e-02
-7.406822360320483578e-02
-7.572406878652644668e-02
-7.701051918217900749e-02
-7.782599799795361650e-02
-7.819315716772817781e-02
-7.804449383389647221e-02
-7.736472368062075056e-02
-7.617879628300980310e-02
-7.444069739546663178e-02
-7.223200664838244633e-02
-6.953079326067615473e-02
-6.639182240161584092e-02
-6.287864905369143498e-02
-5.901659779838720060e-02
-5.491381775245214591e-02
-5.061242230214626353e-02
-4.619666892598171121e-02
-4.175873907960413883e-02
-3.736143513813337813e-02
-3.309807425243943557e-02
-2.904699202620338039e-02
-2.526060672214281225e-02
-2.183074469061064768e-02
-1.879638248709290457e-02
-1.620201073566095162e-02
-1.411049285081308891e-02
-1.250219870830324848e-02
-1.143911607855707668e-02
-1.089730998381399640e-02
-1.086642277607041684e-02
-1.135914110510134745e-02
-1.229326848033496927e-02
-1.368674541083082091e-02
-1.546250968644376916e-02
-1.757491468890767447e-02
-1.998725889793810662e-02
-2.260475698593253369e-02
-2.540349169694219519e-02
-2.830202507623072114e-02
-3.124796435053308827e-02
-3.418398000652343727e-02
-3.705968223557858099e-02
-3.981918327406251679e-02
-4.242787498663114221e-02
-4.484365486872268075e-02
-4.702022419338932474e-02
-4.897605641453970510e-02
-5.063564886117958436e-02
-5.203151589382766506e-02
-5.313328525401541519e-02
-5.392740900576488416e-02
-5.447728491027487019e-02
-5.471395008968960721e-02
-5.471788775896427315e-02
-5.446550059777504477e-02
-5.397581561484762064e-02
-5.331797065163232374e-02
-5.244540037362535601e-02
-5.144641925796804294e-02
-5.030080105991708433e-02
-4.904361688680082543e-02
-4.772268696121085424e-02
-4.632044032377748838e-02
-4.490360210458311380e-02
-4.346419828078787462e-02
-4.203936231274255780e-02
-4.065869440153799252e-02
-3.933204993456051318e-02
-3.809988271623147849e-02
-3.697436891406142428e-02
-3.598316667795976864e-02
-3.514914278978065187e-02
-3.449009246355565911e-02
-3.402266679957764023e-02
-3.376478932613370676e-02
-3.371977779589235835e-02
-3.389816534316023033e-02
-3.429698318638753352e-02
-3.490415631340007541e-02
-3.571551317245529045e-02
-3.670030699627918613e-02
-3.783839747568273210e-02
-3.909749370604321400e-02
-4.043027152994414786e-02
-4.180730959304555794e-02
-4.317828164525251700e-02
-4.449413071392121360e-02
-4.573103320269287370e-02
-4.681839782098062841e-02
-4.774836875047634710e-02
-4.849092294330104719e-02
-4.900269093584829622e-02
-4.932624680784353927e-02
-4.939556341142428697e-02
-4.927611042428267640e-02
-4.898486441247561218e-02
-4.851561106826289549e-02
-4.799272384659869495e-02
-4.736845316327870786e-02
-4.677938373102417946e-02
-4.627256788414357835e-02
-4.587407672908155876e-02
-4.573655161018334164e-02
-4.582216356951484409e-02
-4.626891149771026474e-02
-4.710815147505027084e-02
-4.835597311952941069e-02
-5.010384306197582238e-02
-5.230645524305069238e-02
-5.500809734081209962e-02
-5.819266855679923467e-02
-6.181492732286328340e-02
-6.584693186329368397e-02
-7.022947067880321026e-02
-7.485984809844112298e-02
-7.968842052559893530e-02
-8.458452889955006548e-02
-8.941956490907984612e-02
-9.413220202248102908e-02
-9.850517117884619034e-02
-1.025068820893473565e-01
-1.059527471719467207e-01
-1.087037580484718630e-01
-1.107289567938641445e-01
-1.118125521501446562e-01
-1.119968635348017050e-01
-1.111365981598851360e-01
-1.091881654246529137e-01
-1.061952114660126567e-01
-1.020785151735981444e-01
-9.696262438715991250e-02
-9.085223642738476935e-02
-8.383554894257898293e-02
-7.605420247161612246e-02
-6.761483070839650888e-02
-5.868063858072317812e-02
-4.943732596805230223e-02
-4.004013621078735680e-02
-3.070341976490546451e-02
-2.163343823145349662e-02
-1.296932957532685032e-02
-4.977778258852406934e-03
2.241370162487911488e-03
8.478449990903191846e-03
1.359384471027905161e-02
1.753658952647215580e-02
2.012361371137377092e-02
2.140963633517527914e-02
2.128452836115537344e-02
1.980218234977266373e-02
1.703037907632291154e-02
1.298436501526744474e-02
7.875499208596592471e-03
1.745904542221385358e-03
-5.168443997021633651e-03
-1.270397173311805378e-02
-2.067263986349944169e-02
-2.880855095731874038e-02
-3.695516887686357832e-02
-4.484870986602629284e-02
-5.230556577982898442e-02
-5.912942177920924025e-02
-6.514516909078177376e-02
-7.020605767526486019e-02
-7.421510328172965798e-02
-7.706246365655840258e-02
-7.873059796043635483e-02
-7.922439327966153411e-02
-7.853102845054299452e-02
-7.680532685008947813e-02
-7.405863602347492747e-02
-7.050596052606847297e-02
-6.630112418349612402e-02
-6.158165591103441361e-02
-5.665787891462752135e-02
-5.162302456671848810e-02
-4.678263230316544175e-02
-4.232410148728301541e-02
-3.840219445764105066e-02
-3.527844606789573567e-02
-3.302123867574899285e-02
-3.178645465877673326e-02
-3.168145915530352213e-02
-3.268649318302382228e-02
-3.485845819757708852e-02
-3.814086472982802789e-02
-4.239178940236387055e-02
-4.759864063994096589e-02
-5.348101483310050558e-02
-5.989937688079793182e-02
-6.665931856593540483e-02
-7.339099260805277691e-02
-8.002016972237341319e-02
-8.611792290480096979e-02
-9.151184155488639727e-02
-9.597532926299606748e-02
-9.916240164488548947e-02
-1.010557497702594676e-01
-1.013359297797801067e-01
-9.998754592016032006e-02
-9.692373809242203764e-02
-9.207032177157470354e-02
-8.555551236239647417e-02
-7.738978758662337643e-02
-6.776323216724326748e-02
-5.684339657521735034e-02
-4.486754270527291977e-02
-3.208528209647030366e-02
-1.884535680556279416e-02
-5.388647472507182568e-03
7.895154107740137706e-03
2.066621887857412326e-02
3.267999838767556703e-02
4.346728161383812267e-02
5.296216244823611502e-02
6.072447938794494487e-02
6.659752459487827680e-02
7.047451736507506781e-02
7.205263071536682773e-02
7.153004451972425071e-02
6.863508433794385244e-02
6.352416240788774648e-02
5.628007752150821635e-02
4.691006369171075302e-02
3.580046372523123382e-02
2.295292059503368370e-02
8.738544937479941765e-03
-6.602635254188783664e-03
-2.282326773275944465e-02
-3.951926484404591489e-02
-5.645671027548045812e-02
-7.328927872005709665e-02
-8.969340966735528387e-02
-1.053945610354880408e-01
-1.201204047388752250e-01
-1.335562054998237491e-01
-1.455980526015682730e-01
-1.559261267268419737e-01
-1.644499392695921713e-01
-1.710912966637626875e-01
-1.756288836960366861e-01
-1.782665852087152447e-01
-1.787723355769868794e-01
-1.773170086531475620e-01
-1.739923927260804692e-01
-1.687709671930720801e-01
-1.620545544626988688e-01
-1.537613632630224214e-01
-1.442298866837489757e-01
-1.336549348362284784e-01
-1.221802623670506516e-01
-1.102037506362163743e-01
-9.780993457865884422e-02
-8.530908115843668926e-02
-7.293021270148554447e-02
-6.086543557271378163e-02
-4.933808785502394323e-02
-3.855130008285827942e-02
-2.861286518636779047e-02
-1.973321739145482423e-02
-1.199832259871650569e-02
-5.430965203799632823e-03
-2.228172701643701958e-04
3.767584375346307024e-03
6.388290957309666895e-03
7.744227943917957047e-03
7.945308277537713182e-03
6.923263987332686775e-03
4.984659197448580714e-03
2.059344667296528208e-03
-1.596523200299453105e-03
-5.836937219707231950e-03
-1.059263318897864237e-02
-1.555087567435075452e-02
-2.070778463085561072e-02
-2.579365153687009082e-02
-3.070432617806958739e-02
-3.531530674334283637e-02
-3.944842823211697908e-02
-4.306326030322367437e-02
-4.602043886855861077e-02
-4.828839996912438065e-02
-4.980150025460590435e-02
-5.056385983452747063e-02
-5.054901311625431548e-02
-4.980909378232750706e-02
-4.837108225737004469e-02
-4.629550371489260518e-02
-4.371028608953501926e-02
-4.063887672912575716e-02
-3.727119763774389138e-02
-3.365474609059179723e-02
-2.995454885143579091e-02
-2.630877207054435618e-02
-2.279066164894468297e-02
-1.960396133612513081e-02
-1.677910540084049523e-02
-1.449391668303218195e-02
-1.280395095167348452e-02
-1.178724162074641646e-02
-1.154567906360415286e-02
-1.206104459502584103e-02
-1.341631978955083043e-02
-1.555943280790614280e-02
-1.849598416366012368e-02
-2.218470562872976171e-02
-2.653979539669835963e-02
-3.150447267529030843e-02
-3.695171040577546751e-02
-4.278264640235618366e-02
-4.886728151979394946e-02
-5.506833839397926034e-02
-6.124729370155299751e-02
-6.727289798937453880e-02
-7.299340413164669139e-02
-7.830266300068468299e-02
-8.306519770211903686e-02
-8.718009496951910353e-02
-9.058175943746610281e-02
-9.316373073580769271e-02
-9.493458735739801480e-02
-9.581972067470435894e-02
-9.584367621146616667e-02
-9.503340065616405763e-02
-9.339222796800923654e-02
-9.104621554847465437e-02
-8.800361101283973864e-02
-8.440108079395171325e-02
-8.032859185154510306e-02
-7.587970391740000986e-02
-7.121779127555558087e-02
-6.640964279894311095e-02
-6.160770744429910906e-02
-5.691198667637559216e-02
-5.242585026841897755e-02
-4.825654019483732737e-02
-4.448134664284371376e-02
-4.116559495651931494e-02
-3.837841784512979748e-02
-3.614800662265037212e-02
-3.448399704178010949e-02
-3.342278623939159282e-02
-3.290255111592059467e-02
-3.294722636371121005e-02
-3.347593579324156798e-02
-3.443178521318310953e-02
-3.578375722260938863e-02
-3.739067699594196548e-02
-3.924492224302830040e-02
-4.120013944725164912e-02
-4.319563769969374939e-02
-4.515819434620901851e-02
-4.695984952137213786e-02
-4.858869895112351983e-02
-4.991988985835391773e-02
-5.093697319776490512e-02
-5.158170462363540626e-02
-5.181009886388381058e-02
-5.163003813028588934e-02
-5.100667781034418091e-02
-4.997345761535720160e-02
-4.853388306246228523e-02
-4.673039504512040837e-02
-4.459826678009635309e-02
-4.219619714959896989e-02
-3.957667945930527786e-02
-3.681002021922386014e-02
-3.397020241083542613e-02
-3.111502181274431247e-02
-2.834549442968814850e-02
-2.570183161367676009e-02
-2.328869120298680817e-02
-2.115184762587425313e-02
-1.935829829551534431e-02
-1.798548905070581488e-02
-1.704492555197601594e-02
-1.661982780048247565e-02
-1.669649496427728919e-02
-1.731866366564208462e-02
-1.849403834585781545e-02
-2.019488956290569834e-02
-2.243076294507636431e-02
-2.513813333138137027e-02
-2.829469938876567545e-02
-3.183965791962015818e-02
-3.570202097345976516e-02
-3.981156056814042637e-02
-4.408429678436675409e-02
-4.842721009005596794e-02
-5.275625061116652470e-02
-5.697161480514151971e-02
-6.097890047273351460e-02
-6.470547730326253744e-02
-6.804510321337770007e-02
-7.095205174461099995e-02
-7.333785656719510326e-02
-7.516799692183481763e-02
-7.640635478610949272e-02
-7.701631835145421323e-02
-7.702506094041239315e-02
-7.640099818184112324e-02
-7.521697508887986716e-02
-7.347985167702032749e-02
-7.126732671676595798e-02
-6.866309744192532205e-02
-6.571469003777756501e-02
-6.257609491925174294e-02
-5.928737353117082692e-02
-5.600845355616137361e-02
-5.282765409537047013e-02
-4.984636383121963943e-02
-4.721020790762316122e-02
-4.496495791029879452e-02
-4.324791836589677446e-02
-4.209554887028387621e-02
-4.158507169712011287e-02
-4.175488537593249200e-02
-4.261702568636791671e-02
-4.417261458264373081e-02
-4.638577680348691945e-02
-4.922451599814581941e-02
-5.258703793422029454e-02
-5.642791778254346857e-02
-6.057932274205635181e-02
-6.496663306378799851e-02
-6.942955553640055288e-02
-7.379244082212332856e-02
-7.797335392568388590e-02
-8.172928077918659162e-02
-8.500751554218016759e-02
-8.761607107501970249e-02
-8.943003360921959743e-02
-9.039898675273826123e-02
-9.036774788011688042e-02
-8.936218229765499621e-02
-8.730268135412508346e-02
-8.420477859468522563e-02
-8.011631221145204540e-02
-7.507526870249894846e-02
-6.919193079816585157e-02
-6.257624886563471767e-02
-5.536474464117868005e-02
-4.771664529257691606e-02
-3.982858831620352674e-02
-3.184499028082816985e-02
-2.401495400824885454e-02
-1.648357944820198762e-02
-9.465422954596479366e-03
-3.165009782802000182e-03
2.315277555393499553e-03
6.739717114692539424e-03
1.007916569287096303e-02
1.216827303137748423e-02
1.295580825729910485e-02
1.244217367936333724e-02
1.055962689264378085e-02
7.439808047505012956e-03
3.061040337398769628e-03
-2.423118106801576410e-03
-8.900296723717136815e-03
-1.622406507892999727e-02
-2.417393333027917368e-02
-3.260633048029047687e-02
-4.126412355473516730e-02
-4.997476248478260191e-02
-5.848105398472849825e-02
-6.661324302842136502e-02
-7.414378264795110085e-02
-8.089751832027611278e-02
-8.673005353305027199e-02
-9.146342961388967407e-02
-9.507251742731218092e-02
-9.739671970285726510e-02
-9.846865278506113095e-02
-9.824013992637151138e-02
-9.673980930308356818e-02
-9.408707238562880049e-02
-9.028288438773048041e-02
-8.554722038880627211e-02
-7.993689914544979680e-02
-7.366119409490287651e-02
-6.690545523321886345e-02
-5.980758883302420004e-02
-5.263498805684058146e-02
-4.550272135539527862e-02
-3.864844890698453106e-02
-3.222674312769890220e-02
-2.639079649220314044e-02
-2.129981277248513966e-02
-1.705190733788371910e-02
-1.374603944581155590e-02
-1.144607390033947070e-02
-1.018801815020269064e-02
-9.954481004254285559e-03
-1.076082431929523131e-02
-1.250045064826592334e-02
-1.514239206650692254e-02
-1.855348451429258971e-02
-2.258931998665818577e-02
-2.716169295677254084e-02
-3.203257781123010350e-02
-3.711772032137104077e-02
-4.218623196919596419e-02
-4.708921506502360133e-02
-5.168598092824892160e-02
-5.577126397343821346e-02
-5.927418814026592930e-02
-6.202336236905434119e-02
-6.396614480771890821e-02
-6.501741927897632112e-02
-6.513683865539182660e-02
-6.431974405039539433e-02
-6.258180139772885620e-02
-5.997648311810941518e-02
-5.656323785847479357e-02
-5.247254868436784098e-02
-4.777605577195026543e-02
-4.267752637267229615e-02
-3.727500964411335077e-02
-3.176551609079170113e-02
-2.634001179819884034e-02
-2.111060130188369133e-02
-1.634286692052892148e-02
-1.209537756633356081e-02
-8.596217099819829233e-03
-5.951224567397758736e-03
-4.244982280415303399e-03
-3.637502764407316014e-03
-4.089636374334550128e-03
-5.722781229495245425e-03
-8.475916971257373145e-03
-1.233993991225711823e-02
-1.727691643093738280e-02
-2.314538795647798353e-02
-2.988677253984914697e-02
-3.730770298236466692e-02
-4.528310484044476697e-02
-5.362475022653027945e-02
-6.214138085494067681e-02
-7.064388979381852618e-02
-7.893721286697649719e-02
-8.682994914896347005e-02
-9.414189700316483167e-02
-1.007202187484774192e-01
-1.063866869867551579e-01
-1.110851355524113682e-01
-1.146517425381265443e-01
-1.170649037767667044e-01
-1.182794413323080551e-01
-1.182538490800131015e-01
-1.171072662879174830e-01
-1.147848081095008133e-01
-1.114473452424279420e-01
-1.071630279541877784e-01
-1.020374534966117241e-01
-9.629006717859896203e-02
-8.997528623879195997e-02
-8.332535303287900985e-02
-7.646649836147809132e-02
-6.954423569408775541e-02
-6.275667398632242544e-02
-5.619070715858592857e-02
-4.999266902437455445e-02
-4.427651143424497782e-02
-3.909759548782361371e-02
-3.454531513132844123e-02
-3.066366098832198905e-02
-2.742433480859283318e-02
-2.489833487176452281e-02
-2.300279789252368881e-02
-2.171674413903676437e-02
-2.103020621088004527e-02
-2.077329562777584238e-02
-2.099678395789593421e-02
-2.154145934236121121e-02
-2.234358972828534573e-02
-2.339079237159050889e-02
-2.448731700579743001e-02
-2.570626638288533647e-02
-2.692305879547339520e-02
-2.810337656807031584e-02
-2.928446054171027907e-02
-3.034661669089168401e-02
-3.138919277679154407e-02
-3.238271240579937427e-02
-3.333378040336905379e-02
-3.431678625765359480e-02
-3.530623980769956316e-02
-3.637249630222040564e-02
-3.755367885638009884e-02
-3.885252965194100488e-02
-4.031662581290784697e-02
-4.196929553650222133e-02
-4.378901252025555607e-02
-4.581762264405698365e-02
-4.801103550770798034e-02
-5.034333097577526478e-02
-5.283147540011404880e-02
-5.535873780691676072e-02
-5.793467188235262161e-02
-6.046978184778934590e-02
-6.287771319099935696e-02
-6.516244357724620961e-02
-6.716746738983725429e-02
-6.889290942674439200e-02
-7.024904113512868420e-02
-7.115501367976402591e-02
-7.163172860463473679e-02
-7.156330795725793226e-02
-7.098532738960373900e-02
-6.985881091203755000e-02
-6.817201998110367089e-02
-6.598535680707931506e-02
-6.327943319459404525e-02
-6.013881881273293317e-02
-5.659970803230932046e-02
-5.273105979606450971e-02
-4.862213919985202554e-02
-4.435009783937020333e-02
-4.000709883402004535e-02
-3.568921162475718195e-02
-3.149201080265510988e-02
-2.749196282440534086e-02
-2.380753220882963345e-02
-2.046741824588216296e-02
-1.758610047058088710e-02
-1.520851198168298585e-02
-1.336180388986211998e-02
-1.213911359414839713e-02
-1.147007490585956468e-02
-1.145099826878231281e-02
-1.204147130801837273e-02
-1.321819039813589003e-02
-1.500843489349450166e-02
-1.729001405710097611e-02
-2.010303292032343883e-02
-2.335568032930966306e-02
-2.699532767466700928e-02
-3.098481374736032981e-02
-3.521981382759149792e-02
-3.966585761441518421e-02
-4.424177437923459966e-02
-4.887759125740083477e-02
-5.349644745461699935e-02
-5.805304764929254679e-02
-6.243655408399659268e-02
-6.662324136040219391e-02
-7.052108143216515024e-02
-7.404653101047045660e-02
-7.721334818451254522e-02
-7.986179398677592522e-02
-8.204181168998077311e-02
-8.364591207739158207e-02
-8.462344367350863039e-02
-8.502713225086550031e-02
-8.471243192763125429e-02
-8.378739906409971017e-02
-8.216571808635572682e-02
-7.985989309599961228e-02
-7.694064429350681855e-02
-7.335247650453323442e-02
-6.921812319979178674e-02
-6.452961442482170462e-02
-5.936476232718404522e-02
-5.380417944748470960e-02
-4.792628251387405502e-02
-4.181711248331946434e-02
-3.559380849886962378e-02
-2.936585448199716813e-02
-2.322466313142289990e-02
-1.736127548651323835e-02
-1.178422234061868995e-02
-6.723922561148482080e-03
-2.256915134832122860e-03
1.528655273188593566e-03
4.432796211121234342e-03
6.519389170347431040e-03
7.561791837245757097e-03
7.574565456187967727e-03
6.516956579349642009e-03
4.305674963467710781e-03
1.066331684056301410e-03
-3.286335581637489511e-03
-8.624107837228230100e-03
-1.488650692127600761e-02
-2.198088291722890414e-02
-2.973342023432528139e-02
-3.803535454990246423e-02
-4.669048434742419096e-02
-5.552972243466978985e-02
-6.435265643181661832e-02
-7.297532779414764303e-02
-8.118288512177695981e-02
-8.881439762547826966e-02
-9.566476352495142943e-02
-1.015875311813327353e-01
-1.064494235816058759e-01
-1.101091685657573371e-01
-1.125380346078145855e-01
-1.136182406673674206e-01
-1.133986697601310489e-01
-1.118554340502440625e-01
-1.090629514704722219e-01
-1.051495806075011252e-01
-1.001739882828357464e-01
-9.438771395909881234e-02
-8.789034167070207404e-02
-8.095085726070641585e-02
-7.378323755614045465e-02
-6.658615912856613583e-02
-5.966111344521538712e-02
-5.316891749239791021e-02
-4.737358862198047527e-02
-4.244985864257456998e-02
-3.856411573748140531e-02
-3.585477378739580778e-02
-3.442638498581955531e-02
-3.429205532868470629e-02
-3.549672287945297711e-02
-3.797627540672932067e-02
-4.159632078625632307e-02
-4.631657706706144434e-02
-5.181409635819103632e-02
-5.800736414673486607e-02
-6.457193726490741137e-02
-7.119635316912945044e-02
-7.773062763909388551e-02
-8.369383906976621268e-02
-8.899542084395829777e-02
-9.325016791940683725e-02
-9.621531609680442076e-02
-9.778566077942221768e-02
-9.764586343989473116e-02
-9.583741146254406984e-02
-9.220114356957517798e-02
-8.675481970850104640e-02
-7.958812560844086281e-02
-7.075935313039410923e-02
-6.047421570112373329e-02
-4.893942525990008924e-02
-3.639621083274399704e-02
-2.314546913943507644e-02
-9.537197857395873779e-03
4.169086778328105758e-03
1.752025835190419017e-02
3.028067083359938655e-02
4.206021805425399357e-02
5.250599924080314590e-02
6.145205463086305525e-02
6.847200198425043571e-02
7.355137115792781399e-02
7.638207458045478959e-02
7.687273385984713658e-02
7.504078909309244705e-02
7.073064247169530416e-02
6.421060425531158189e-02
5.540534522604250584e-02
4.456344596716315526e-02
3.191064476638629660e-02
1.764375238168820054e-02
2.191738191455072648e-03
-1.421840564802538676e-02
-3.116033964431844452e-02
-4.826335445039101751e-02
-6.515852196996335666e-02
-8.144448047435043359e-02
-9.676295583900115793e-02
-1.108142777649603200e-01
-1.232518101312579939e-01
-1.338640554856316001e-01
-1.424819018147062410e-01
-1.488870890500389177e-01
-1.531558045763131981e-01
-1.551320165672148699e-01
-1.549675669714812021e-01
-1.528085279859254797e-01
-1.486957143557605387e-01
-1.430764286261944629e-01
-1.359949673849260854e-01
-1.278589539826246735e-01
-1.190185530825733362e-01
-1.096208862761564456e-01
-1.002291153693560255e-01
-9.092337968390737379e-02
-8.203563258723123308e-02
-7.389758819889111208e-02
-6.648468977664262480e-02
-6.016909334433862000e-02
-5.488279422839245636e-02
-5.060931484493441657e-02
-4.749627555907667137e-02
-4.522136742685386318e-02
-4.382145391752102076e-02
-4.307302146512648894e-02
-4.262381973879075803e-02
-4.245214454553154770e-02
-4.212441463025699134e-02
-4.142640223831776936e-02
-4.021463303113950033e-02
-3.807971931525665210e-02
-3.500786112510063247e-02
-3.082531071984115356e-02
-2.528912066722142568e-02
-1.862694409595403236e-02
-1.067369315971027077e-02
-1.604492548886213288e-03
8.260578386576233889e-03
1.902560027348964428e-02
3.002330951782306717e-02
4.111194665570148260e-02
5.192079989391262113e-02
6.177486265908544577e-02
7.067551898177998337e-02
7.779509358383965290e-02
8.292392001189530237e-02
8.572331707199090656e-02
8.562160343175753696e-02
8.272156644479317089e-02
7.652690791361527189e-02
6.709183860652970233e-02
5.442962748329552986e-02
3.849808123907754592e-02
1.967507390526829908e-02
-1.866297411359615910e-03
-2.570890930276841999e-02
-5.134542043941379974e-02
-7.827139790241695316e-02
-1.058977237530827759e-01
-1.334923517479987276e-01
-1.605647566834325357e-01
-1.863062352790758602e-01
-2.101170706564143009e-01
-2.315116787926886910e-01
-2.496993985789096038e-01
-2.646112711499925552e-01
-2.755356891587546486e-01
-2.823459587091362577e-01
-2.849820267062633805e-01
-2.830798302180031478e-01
-2.772621406955732004e-01
-2.671857071193462496e-01
-2.533804995735474686e-01
-2.362372050095814524e-01
-2.159187056007165484e-01
-1.934075699274599991e-01
-1.687656758803980084e-01
-1.427759162797261061e-01
-1.159919485801364225e-01
-8.875749829546614178e-02
-6.186857254272083023e-02
-3.554552041880801316e-02
-1.024092274946218628e-02
1.361537878355754960e-02
3.587937383936181529e-02
5.629186270373068984e-02
7.461557138359761754e-02
9.100364952943454377e-02
1.051486533365258436e-01
1.171685752512508227e-01
1.272356511668673862e-01
1.350237430604648847e-01
1.410990280541426223e-01
1.450852005156432201e-01
1.471636197539146484e-01
1.476087451730655475e-01
1.459542329486555046e-01
1.428192048508341305e-01
1.377361836557901842e-01
1.308113378321836551e-01
1.222626237543138483e-01
1.116681683162144001e-01
9.949650029776585525e-02
8.546231777753116043e-02
6.964714086906653723e-02
5.230019146585681428e-02
3.334287777420074511e-02
1.305461390718033743e-02
-8.348965450798162546e-03
-3.073431307012454775e-02
-5.370820932302174805e-02
-7.688834924923025615e-02
-1.002131385230354971e-01
-1.229068844807291172e-01
-1.448534560658034098e-01
-1.655565746305147079e-01
-1.843998388621699014e-01
-2.015158805007866982e-01
-2.159300920831752901e-01
-2.277003565193081447e-01
-2.364053517611166555e-01
-2.415914627644546175e-01
-2.435880112824514721e-01
-2.416976190068594599e-01
-2.362788188784776533e-01
-2.271903712310485712e-01
-2.144551628449104241e-01
-1.985587187767647588e-01
-1.794205505528639610e-01
-1.576363943752901453e-01
-1.334594209583284952e-01
-1.073999869311002553e-01
-7.996992042718872873e-02
-5.172159883471705993e-02
-2.320045764324678988e-02
4.998347603662738059e-03
3.220037598834430553e-02
5.804079630570966458e-02
8.165357937497283447e-02
1.028838441480665611e-01
1.210015616575151332e-01
1.356153894369456492e-01
1.466299692645309238e-01
1.533402507580767793e-01
1.561380021468068702e-01
1.544522121419874550e-01
1.484569602396257071e-01
1.383599855724619299e-01
1.239917425117151029e-01
1.061525505949087178e-01
8.470192034106752144e-02
6.031448571388652730e-02
3.345066004747641181e-02
4.538503420594683369e-03
-2.558820739868026412e-02
-5.653778231700986451e-02
-8.753079909676862724e-02
-1.179907816398478304e-01
-1.472053985595314363e-01
-1.746931493127564794e-01
-1.997363125820670049e-01
-2.219395934067582010e-01
-2.408163720845238609e-01
-2.558846275860444108e-01
-2.671694316852206152e-01
-2.740889990517607067e-01
-2.768902871545783073e-01
-2.753682593127088629e-01
-2.696067910744062157e-01
-2.600729938636063276e-01
-2.466437950026803827e-01
-2.300790819696654499e-01
-2.105172088929183061e-01
-1.885269168877664325e-01
-1.647641176256692819e-01
-1.395442587976129245e-01
-1.136955212540851634e-01
-8.759797346876239954e-02
-6.188032484478325768e-02
-3.709050343364352076e-02
-1.367831040247124985e-02
7.927429612698669303e-03
2.729328102774932624e-02
4.418169555994243963e-02
5.832797048698421666e-02
6.948616479481525832e-02
7.781801390827697285e-02
8.299350315978715198e-02
8.532774712050519850e-02
8.482615837662438318e-02
8.158440127272775788e-02
7.618496605033334146e-02
6.846600234138922048e-02
5.909394932802752159e-02
4.822004426991659959e-02
3.617356341123800084e-02
2.359046686586484948e-02
1.046863924780768590e-02
-2.563110926151884739e-03
-1.533311933917012176e-02
-2.752072206093891110e-02
-3.876334641517996393e-02
-4.896380175634441889e-02
-5.785941784130564647e-02
-6.533820348510765985e-02
-7.131357458249457104e-02
-7.577390516495875750e-02
-7.865166004017387635e-02
-8.012634331963151835e-02
-8.016590170482773559e-02
-7.895258866305678025e-02
-7.673755007713085885e-02
-7.350621481071817342e-02
-6.971826015268371701e-02
-6.536845271454019835e-02
-6.073307179825902791e-02
-5.613880027217451468e-02
-5.151723744435145191e-02
-4.732357814003227553e-02
-4.347452658039192841e-02
-4.009659467901806329e-02
-3.740122144023059342e-02
-3.515730060885888936e-02
-3.359031509720852848e-02
-3.249299798976926223e-02
-3.174382027758541891e-02
-3.136474467447493419e-02
-3.102696707215395547e-02
-3.069185400769108146e-02
-3.014861631892996885e-02
-2.916503781862167868e-02
-2.766501710209577289e-02
-2.547716856292725138e-02
-2.243007462654008494e-02
-1.855582581994469696e-02
-1.375654628033894100e-02
-8.030995119347038302e-03
-1.610085552140802512e-03
5.660123877353415156e-03
1.334324898256269987e-02
2.129068534239008520e-02
2.935028005335652695e-02
3.692848148902407729e-02
4.410273795256388490e-02
5.020728969732065478e-02
5.498617108721354924e-02
5.825749801105068598e-02
5.941153353372932017e-02
5.857160737113849963e-02
5.523348843223001986e-02
4.931934255888995727e-02
4.085195698619819432e-02
2.960786304339805414e-02
1.589223265944995217e-02
-3.014507594259682732e-04
-1.872499292343007826e-02
-3.901262926753441135e-02
-6.087721004962617921e-02
-8.385160694410803695e-02
-1.074321571275963366e-01
-1.311990932288489009e-01
-1.545386115263510662e-01
-1.769252477530180723e-01
-1.979271558098847639e-01
-2.168692187749046429e-01
-2.335118533574643274e-01
-2.472743308793917683e-01
-2.578530480029995187e-01
-2.650884091196084591e-01
-2.685772633023632561e-01
-2.685295094010934358e-01
-2.646776808185563601e-01
-2.572273578677061190e-01
-2.464010844219781116e-01
-2.322897410517110184e-01
-2.155260514548558992e-01
-1.962448486693265381e-01
-1.750479625307507781e-01
-1.524425499515579263e-01
-1.288478419043437573e-01
-1.049980155138091065e-01
-8.126404203872893139e-02
-5.820630585668123969e-02
-3.636729517756775304e-02
-1.606396382410649193e-02
2.241397235491791873e-03
1.825684062745745045e-02
3.188443145385592287e-02
4.277988738822362941e-02
5.108353138153860079e-02
5.675123219455070062e-02
5.980440027734269109e-02
6.068441864677941860e-02
5.930607607198137149e-02
5.624577682299822939e-02
5.175071373710175143e-02
4.608614409053243127e-02
3.992875684479777615e-02
3.331352220206682674e-02
2.687354370772041673e-02
2.086452267560501977e-02
1.549608143049415604e-02
1.124502154121229114e-02
8.064444342482976480e-03
6.222592533564469397e-03
5.776818096975368244e-03
6.625609786873438989e-03
8.822013851466359302e-03
1.215585193183996854e-02
1.640393231712349714e-02
2.144700585508418217e-02
2.687818566908359991e-02
3.246442175898012900e-02
3.793277244016773214e-02
4.281242512564509967e-02
4.701514874159006679e-02
5.007203416441254745e-02
5.182553462621932588e-02
5.211465285177652867e-02
5.061236900147226409e-02
4.746466830005514198e-02
4.239212011188283474e-02
3.559479198682077156e-02
2.709144941980307780e-02
1.691028472630132923e-02
5.443822074222406937e-03
-7.360768752916711788e-03
-2.098678388989077409e-02
-3.533808346126359606e-02
-5.015662515271129829e-02
-6.499531600223193428e-02
-7.987542186374391173e-02
-9.423891303860577884e-02
-1.081013486554650710e-01
-1.212658228643685998e-01
-1.334399417837672797e-01
-1.448101179865068922e-01
-1.550245537151934694e-01
-1.642699235287611859e-01
-1.725826688114616980e-01
-1.798573582451979957e-01
-1.864268363695291975e-01
-1.921907415587081613e-01
-1.973476768242317103e-01
-2.021174374809759089e-01
-2.064336404136805914e-01
-2.105637452989760627e-01
-2.145549934477608278e-01
-2.183620205586458418e-01
-2.222439315968205709e-01
-2.259923963516421719e-01
-2.296063098460473517e-01
-2.331799986420376447e-01
-2.362716906655888405e-01
-2.391207681899909787e-01
-2.413087032342814131e-01
-2.425592764362834164e-01
-2.430177577914400810e-01
-2.419287780170785440e-01
-2.396071407548153731e-01
-2.355264784220494068e-01
-2.293481980788145136e-01
-2.213615829292099046e-01
-2.107840666594879842e-01
-1.981285799809519022e-01
-1.829878150796007963e-01
-1.652098323989482642e-01
-1.453048449218939386e-01
-1.227646750118877861e-01
-9.827922263746272091e-02
-7.178275644088652485e-02
-4.338466986545046200e-02
-1.379548095566371368e-02
1.712094007829927794e-02
4.861879590277199542e-02
8.041538014591859129e-02
1.122752602197653882e-01
1.434123206879630297e-01
1.737267157652721272e-01
2.026285404521898093e-01
2.296464339878176997e-01
2.546780885022660312e-01
2.770327950641290338e-01
2.966229337165632862e-01
3.131955543603000547e-01
3.263092429432393193e-01
3.361904850775104814e-01
3.423849409999528137e-01
3.449897703046716502e-01
3.441548472358424426e-01
3.396122313050607411e-01
3.319240706896156023e-01
3.209326655458139554e-01
3.068991092110957553e-01
2.903119942252462837e-01
2.710645128978307339e-01
2.498684223357185430e-01
2.268229001314332471e-01
2.021550549187584589e-01
1.765386385960153182e-01
1.498879367774727245e-01
1.228002661952760644e-01
9.553399369526827112e-02
6.805916106815756983e-02
4.108452074756509947e-02
1.441131116051743571e-02
-1.164613655641839191e-02
-3.674399850940550383e-02
-6.124200526204306300e-02
-8.446373798327488913e-02
-1.067453457709853504e-01
-1.279981762515147448e-01
-1.478504667324160027e-01
-1.668564330898080761e-01
-1.843706491592758123e-01
-2.007757828156497004e-01
-2.160468867722369068e-01
-2.298251816021084359e-01
-2.426469136707662122e-01
-2.539166421688983655e-01
-2.639629628646928405e-01
-2.727201692922827103e-01
-2.799125456758894126e-01
-2.859182274143907687e-01
-2.902864378010424073e-01
-2.932638884583169681e-01
-2.947608031084472113e-01
-2.946826890099160656e-01
-2.932279715910759976e-01
-2.902222691313831593e-01
-2.858598853268037310e-01
-2.801221885811597812e-01
-2.731534776619723992e-01
-2.650215457111426698e-01
-2.559027680803117044e-01
-2.459491661319376521e-01
-2.352895272186794340e-01
-2.242436385838916246e-01
-2.127837880367590695e-01
-2.013682416437335976e-01
-1.900362394505644703e-01
-1.790419278803677405e-01
-1.686869587664743542e-01
-1.588313297800053314e-01
-1.500122078294034433e-01
-1.420431661264234813e-01
-1.351986480582260119e-01
-1.295442283511573367e-01
-1.248274243043160647e-01
-1.214304267453163722e-01
-1.189092086389262060e-01
-1.174650256889094024e-01
-1.168495910377006786e-01
-1.167694456837314043e-01
-1.173527845129299918e-01
-1.180247878924451932e-01
-1.189209896210071671e-01
-1.196290197737306937e-01
-1.199236817475298200e-01
-1.198118072600762862e-01
-1.188125531016883396e-01
-1.170960600055936940e-01
-1.143390191035568992e-01
-1.105119007221861821e-01
-1.056847486684666659e-01
-9.965322756174611885e-02
-9.270309014908839629e-02
-8.475052912039948705e-02
-7.599756984261378523e-02
-6.663194691459281560e-02
-5.673108520557568202e-02
-4.665150011371507061e-02
-3.647652743691184168e-02
-2.653495340070664149e-02
-1.699409359623908072e-02
-8.048194009973391738e-03
4.178588906404018255e-05
7.245214527729776366e-03
1.328017943538492562e-02
1.820774678647606865e-02
2.189460032459800837e-02
2.433323252015808652e-02
2.569799626579925139e-02
2.585651949514538445e-02
2.517586949688328107e-02
2.361183983092320776e-02
2.142967050506770083e-02
1.894514217650163784e-02
1.614028655346887858e-02
1.354613178265241802e-02
1.109051264943500953e-02
9.166283761612589731e-03
8.005832198193001126e-03
7.589234409599167341e-03
8.343179161998767746e-03
1.005106351759274541e-02
1.301925157715787262e-02
1.720903470133903351e-02
2.251956696929200558e-02
2.908986004780095974e-02
3.654774261354703374e-02
4.501264522372323135e-02
5.417563704507315919e-02
6.388282943066980746e-02
7.400699700670906878e-02
8.414830423892616373e-02
9.428624998284870773e-02
1.040210367760117383e-01
1.132401969683990706e-01
1.217259654021052850e-01
1.292053453206474800e-01
1.356459898648972873e-01
1.407562540316219524e-01
1.445449724050921758e-01
1.468801110002269372e-01
1.476868646339251079e-01
1.470294480843608864e-01
1.448013354100934069e-01
1.411621049033904285e-01
1.361227420503494934e-01
1.297834774612812714e-01
1.223322908167708001e-01
1.137859179949921029e-01
1.044458391594252078e-01
9.439203186967681791e-02
8.383905304388145074e-02
7.303469446636134954e-02
6.199862068072637539e-02
5.112865066671338360e-02
4.043422252377142784e-02
3.018207665370426646e-02
2.054470731751582152e-02
1.147243733902623269e-02
3.346471650965653077e-03
-3.998531431361369848e-03
-1.030226505170078050e-02
-1.559855342885504287e-02
-1.999073417656978963e-02
-2.325522004356449582e-02
-2.572901367457918614e-02
-2.720636797425016185e-02
-2.795320926127154229e-02
-2.808342368146619222e-02
-2.757930792521941232e-02
-2.684888296000408764e-02
-2.575735272492948522e-02
-2.469648616630756854e-02
-2.373035115446801846e-02
-2.297438593214183242e-02
-2.275388213811875213e-02
-2.296856779939009802e-02
-2.395148958198746111e-02
-2.566060474431546001e-02
-2.819920501876579944e-02
-3.168686339870899205e-02
-3.599638642068136996e-02
-4.126214900098863075e-02
-4.731024562101543429e-02
-5.413694262144326530e-02
-6.162519447215477481e-02
-6.960242437131305970e-02
-7.800267502476046499e-02
-8.654198287961650804e-02
-9.516255607948521933e-02
-1.035641047136261206e-01
-1.116170545694599725e-01
-1.191870056695456259e-01
-1.259574863880796314e-01
-1.320152455019138471e-01
-1.369530536828111045e-01
-1.408830169472731764e-01
-1.437585207213407101e-01
-1.453403125825858677e-01
-1.460610388054807696e-01
-1.454548031000532649e-01
-1.440490973107236838e-01
-1.419271130586931273e-01
-1.390056028039490799e-01
-1.360794484056308817e-01
-1.326364060317295757e-01
-1.295923471920341630e-01
-1.270355326068546564e-01
-1.250291979846420154e-01
-1.245115686476604699e-01
-1.248570758864537000e-01
-1.271491755248692068e-01
-1.312416109275835741e-01
-1.372388242258642255e-01
-1.458680295471810051e-01
-1.563258416194972522e-01
-1.695375337558877316e-01
-1.849485766900598460e-01
-2.025789699901538454e-01
-2.226843866068264621e-01
-2.443162172808905352e-01
-2.680153156840948681e-01
-2.928774221924015930e-01
-3.188023414201980876e-01
-3.455904313592726984e-01
-3.723281270361302742e-01
-3.991787037145183015e-01
-4.251961005473706701e-01
-4.502474114355302648e-01
-4.739470153421135867e-01
-4.956724069941313982e-01
-5.153868573768713990e-01
-5.324804490694384773e-01
-5.469014902731900163e-01
-5.583764809333043866e-01
-5.667437922551236129e-01
-5.719167811051815153e-01
-5.738311733101824075e-01
-5.725308994897532200e-01
-5.679602830506105260e-01
-5.604051375822264314e-01
-5.497219633141268158e-01
-5.363378543290843181e-01
-5.203032456816834017e-01
-5.016689168206072136e-01
-4.810315228594650439e-01
-4.580753094885634535e-01
-4.335123001795563313e-01
-4.073117543503113058e-01
-3.794633496424821284e-01
-3.507438334988116635e-01
-3.205626601822630928e-01
-2.897981669991332443e-01
-2.582664355331170114e-01
-2.258602669058364099e-01
-1.934558560464148813e-01
-1.601881077305046253e-01
-1.271038627055899317e-01
-9.380756500792300501e-02
-6.021001485628443839e-02
-2.718814359261578079e-02
6.307182536483157964e-03
3.904093047640810193e-02
7.168743110721106926e-02
1.041390004999476759e-01
1.356899003866248454e-01
1.674351410450325428e-01
1.980016480357647546e-01
2.283945976752776996e-01
2.581520781263512698e-01
2.869520556487784591e-01
3.157764168289769469e-01
3.432416847387998460e-01
3.706681091316016419e-01
3.971489911278769380e-01
4.229120117246508714e-01
4.486577700724416196e-01
4.731472523794452156e-01
4.978927997093042235e-01
5.215301158311598240e-01
5.448791866984402654e-01
5.682022143185602170e-01
5.905355197307857740e-01
6.133269056966038635e-01
6.349544897088543749e-01
6.566075636768994306e-01
6.780527066130123126e-01
6.986856508068677307e-01
7.196047893195597345e-01
7.392246143217128251e-01
7.587689119974111440e-01
7.775550427596430447e-01
7.953701983375676132e-01
8.127844415994539551e-01
8.284537626496677465e-01
8.434265727009024882e-01
8.566924243155780161e-01
8.684323016593317179e-01
8.786488268714423011e-01
8.864366861815872189e-01
8.925561836648536751e-01
8.958893935125277208e-01
8.970033029980929440e-01
8.954270429943945730e-01
8.908669118519809693e-01
8.837612330398676441e-01
8.731508372468936852e-01
8.599471758148373723e-01
8.433559508336766486e-01
8.238071246513970491e-01
8.013804709970097084e-01
7.755209869085786245e-01
7.473479542581370483e-01
7.158627784187306942e-01
6.822193515545539322e-01
6.460186352935046727e-01
6.072877858689853525e-01
5.670654015506262358e-01
5.242089444692659139e-01
4.804528497659873443e-01
4.347239876942081693e-01
3.877500715138575416e-01
3.400771128549077704e-01
2.904899133172996750e-01
2.410481807937134291e-01
1.898800359312601826e-01
1.384560231668520713e-01
8.648797736285307458e-02
3.285506957659400235e-02
-2.033934056267209731e-02
-7.563543984572916601e-02
-1.309061207961697004e-01
-1.872952415483475908e-01
-2.455524885661887202e-01
-3.037503133569643410e-01
-3.647080433055799320e-01
-4.257252316745025467e-01
-4.885927115342390548e-01
-5.533461628579192659e-01
-6.183799731118613252e-01
-6.862842635427093274e-01
-7.539234393866709460e-01
-8.234249050295905370e-01
-8.938767007993245750e-01
-9.641326517262509554e-01
-1.036152972043295595e+00
-1.106622202145873146e+00
-1.177774012649123403e+00
-1.247755344828306301e+00
-1.316077841002034843e+00
-1.383927634860690592e+00
-1.448198434012613500e+00
-1.511172521175734751e+00
-1.570308651819915413e+00
-1.626034952451171689e+00
-1.678844506870409869e+00
-1.726294618044808216e+00
-1.770742793557863903e+00
-1.809329295953869376e+00
-1.843589260106277106e+00
-1.873439142890698461e+00
-1.897470323250277646e+00
-1.918012739870837091e+00
-1.932212300642841996e+00
-1.942641054496555553e+00
-1.948620366214959043e+00
-1.949924240553716270e+00
-1.948384978023938618e+00
-1.941662231737982358e+00
-1.932643754056888818e+00
-1.920019363625566688e+00
-1.904641749409488938e+00
-1.887244801307407016e+00
-1.866336340068905031e+00
-1.844288731536620762e+00
-1.819179471202177156e+00
-1.792677421047197406e+00
-1.764010842943660284e+00
-1.732722473539616947e+00
-1.700080132025091784e+00
-1.663827657087833645e+00
-1.626147685240715957e+00
-1.584748353474595417e+00
-1.540481057519897057e+00
-1.493166744693771530e+00
-1.440877752415924196e+00
-1.386003846221200542e+00
-1.325153401238769346e+00
-1.260765020573317186e+00
-1.191120205909252938e+00
-1.115497969353343999e+00
-1.036105797927278527e+00
-9.491123136266705895e-01
-8.586207249966805177e-01
-7.613790136072121628e-01
-6.586414619466667286e-01
-5.518382403770880629e-01
-4.373166203795378904e-01
-3.205232522339694912e-01
-1.966668430470251416e-01
-6.936341172668872290e-02
6.149525357632387029e-02
1.989268252424282180e-01
3.368469988258300241e-01
4.814800402093837306e-01
6.268993396547679620e-01
7.753694411655897012e-01
9.288859967840024101e-01
1.081560852607164280e+00
1.240377113363673400e+00
1.398039231762013612e+00
1.558473653817850302e+00
1.722408126086459657e+00
1.884788762731543388e+00
2.052236823846060432e+00
2.217097033896691105e+00
2.383884440485409151e+00
2.551791917747499028e+00
2.716905373459804984e+00
2.884338498248953719e+00
3.046698342641232404e+00
3.208168477662847184e+00
3.366252278783139484e+00
3.518320269286797419e+00
3.667258600006988001e+00
3.806555877252765452e+00
3.939571867062304111e+00
4.062467707756971080e+00
4.174196272960313259e+00
4.275469221189121427e+00
4.361522559470178528e+00
4.434982852289400590e+00
4.491661047440421051e+00
4.532585872964304485e+00
4.556939569898452724e+00
4.562870701476782642e+00
4.552385662769379948e+00
4.522465879481386786e+00
4.476302823506673079e+00
4.412162583493858037e+00
4.332181514348937945e+00
4.236857974772695989e+00
4.126146269647060549e+00
4.004001150316382152e+00
3.867875954893831292e+00
3.724134831816692248e+00
3.569327308121218678e+00
3.408223581435717797e+00
3.241991724578106027e+00
3.061765762216442255e+00
2.880110007132528960e+00
2.709738723584444120e+00
2.538570737669596955e+00
2.346336031679712608e+00
2.120913970131646398e+00
1.907806764102299324e+00
1.738286016725479888e+00
1.564988269097169482e+00
1.312349212190825343e+00
9.774617696903302733e-01
6.853366193742658208e-01
5.017793207217463580e-01
2.954080567761118714e-01
-1.201976749016294144e-01
-7.107659904189056466e-01
-1.171748912515089058e+00
-1.353374749995828852e+00
-1.576075252289619533e+00
-2.319149066163169959e+00
-3.518255839794721673e+00
-4.318887079519490690e+00
-3.840691317020398010e+00
-2.145891115494686030e+00
-3.124738042328303322e-01
