BVP Signal
-8.877180869627514237e-03
5.655195849343308545e-02
1.119701343319881581e-01
1.483692565761288717e-01
1.599584698635410085e-01
1.450842461277419559e-01
1.064619984033370326e-01
5.070667673313136725e-02
-1.277346733499721415e-02
-7.337578163014851773e-02
-1.211492763906627523e-01
-1.485516404951774949e-01
-1.517590405199173986e-01
-1.312492165468373551e-01
-9.154018115681578083e-02
-4.016239475992428032e-02
1.388195445745953049e-02
6.180873133100250882e-02
9.651683771738572837e-02
1.135545780740152000e-01
1.114881222144510353e-01
9.174380545314247959e-02
5.808912186967241098e-02
1.591708787728413066e-02
-2.854803707554098846e-02
-6.904529123867550466e-02
-1.000126930753090504e-01
-1.172189249226023855e-01
-1.182578203432867459e-01
-1.028672716065613946e-01
-7.301141554980405957e-02
-3.265837218937167608e-02
1.276787483341706997e-02
5.719225640087396978e-02
9.480052423398523109e-02
1.208860336073405428e-01
1.324911426486734545e-01
1.287528765056401014e-01
1.109075399814962171e-01
8.195814889334807063e-02
4.607549114628828324e-02
7.874129114664868423e-03
-2.826194584331456761e-02
-5.866453025416157319e-02
-8.062929672186236463e-02
-9.247443911481700862e-02
-9.350595229972741285e-02
-8.397040081454804072e-02
-6.501976198199058143e-02
-3.865856449178545901e-02
-7.627338756776957940e-03
2.479645786960976706e-02
5.505757628232815781e-02
7.960279359475691541e-02
9.516452903686917209e-02
9.907091711039167636e-02
8.961684630089758463e-02
6.648477240648502373e-02
3.111993427211273006e-02
-1.309637046447596764e-02
-6.101655305771817861e-02
-1.062914757238601904e-01
-1.422677856692636800e-01
-1.630623125408205143e-01
-1.646022937429331701e-01
-1.454063515695341313e-01
-1.069234206700240136e-01
-5.335304348657884943e-02
8.989844109843575515e-03
7.259327256743924872e-02
1.297480897031303981e-01
1.734726514188834889e-01
1.982760516197363543e-01
2.007262852274014631e-01
1.798168117285377787e-01
1.371358175717408701e-01
7.683626518123018445e-02
5.377677344676312643e-03
-6.901618908316953238e-02
-1.372217827862630690e-01
-1.903562893987169324e-01
-2.210349036366318076e-01
-2.245115957714299282e-01
-1.994751663043499157e-01
-1.483426540912041180e-01
-7.699171883613005474e-02
6.020555576407932152e-03
9.060678065133211112e-02
1.664561316072538100e-01
2.242879333108649953e-01
2.569027316155487184e-01
2.599615097290348120e-01
2.324690171023388596e-01
1.769369684584865543e-01
9.919380120621809627e-02
7.826793392098671531e-03
-8.671361052249346169e-02
-1.732764134986553017e-01
-2.413393054015746664e-01
-2.823671313302357766e-01
-2.910100755075392676e-01
-2.659182770572833254e-01
-2.099825692549198708e-01
-1.299244998290785269e-01
-3.531405470917037270e-02
6.277452704688560314e-02
1.531993217864207890e-01
2.260342093201521685e-01
2.735398778376534334e-01
2.907758176052811505e-01
2.759035738329572163e-01
2.302705768202373826e-01
1.583314297978020702e-01
6.739188993373332326e-02
-3.289309271813282975e-02
-1.313335242338260211e-01
-2.163403528313770363e-01
-2.773091446604310506e-01
-3.060887937645528356e-01
-2.982919340986502355e-01
-2.541581709438681669e-01
-1.787214590868365371e-01
-8.118631086486807757e-02
2.636735162465784349e-02
1.306633965411099496e-01
2.189633649070491794e-01
2.805972799198337420e-01
3.081464131813660412e-01
2.982212190901079030e-01
2.518205406156058812e-01
1.742700859898550780e-01
7.473679932147804517e-02
-3.468807196749003341e-02
-1.403297405104451390e-01
-2.286231361762344205e-01
-2.879716925171191266e-01
-3.104679398734313533e-01
-2.931268118454384286e-01
-2.383486073608996891e-01
-1.534921506209023789e-01
-4.964886959339213923e-02
6.009997879330278292e-02
1.625530065377516764e-01
2.460159927353565701e-01
3.014595984023556996e-01
3.231741152967601005e-01
3.090333481713016806e-01
2.605112309609548538e-01
1.825270045619592219e-01
8.310315423124170486e-02
-2.722854314003156362e-02
-1.363298274429948220e-01
-2.316788153948986517e-01
-3.018500633004311817e-01
-3.380861323034934918e-01
-3.356862761440467247e-01
-2.948848622352556736e-01
-2.209568829943884816e-01
-1.234718300146555037e-01
-1.484245330335423607e-02
9.152090944797042216e-02
1.830874694744867859e-01
2.497942105520354894e-01
2.851241517328147457e-01
2.865844891971154329e-01
2.556299169909934110e-01
1.971718940788042274e-01
1.188334018015414495e-01
3.005963559018188375e-02
-5.886838772937895425e-02
-1.378933898589392304e-01
-1.982618955689861018e-01
-2.335240647549995940e-01
-2.403191716068244776e-01
-2.188023887935657275e-01
-1.725876053935687104e-01
-1.081544660516546019e-01
-3.380411726457525218e-02
4.160697659738446519e-02
1.098631042193370239e-01
1.642853425861289240e-01
2.002359628289824833e-01
2.152653774294600586e-01
2.090009599664880702e-01
1.828926251482660414e-01
1.399197573778833970e-01
8.432844399935218727e-02
2.140200468458710800e-02
-4.280424822693240650e-02
-1.018624950217043301e-01
-1.495622329834218056e-01
-1.806537098686850917e-01
-1.916184486754828886e-01
-1.812941626576332621e-01
-1.511870882577246167e-01
-1.053582163112079251e-01
-4.986805186391892603e-02
8.114732008354635928e-03
6.134484539302709205e-02
1.034643044523359534e-01
1.297555245682764924e-01
1.376281220475431000e-01
1.268381926431751960e-01
9.944855872014909948e-02
5.953688477413607294e-02
1.267591893344303250e-02
-3.475985556300340007e-02
-7.638782983500969070e-02
-1.066321839912618419e-01
-1.214693914193388236e-01
-1.189905312308300322e-01
-9.966066095113013112e-02
-6.620035507793842200e-02
-2.310683333358777569e-02
2.407308877104691325e-02
6.955610674992959708e-02
1.080662172828941447e-01
1.353962681729062312e-01
1.487312238536983022e-01
1.467417953997857960e-01
1.295185418439224467e-01
9.844463372965250869e-02
5.607626536605928025e-02
6.031375514617604017e-03
-4.716862022736675875e-02
-9.836708569956906234e-02
-1.421819740132431176e-01
-1.735490065034891449e-01
-1.883537203102697566e-01
-1.840650295256598956e-01
-1.602379218918007497e-01
-1.187422763977680762e-01
-6.363147467013866021e-02
-6.692610997169889941e-04
6.337784421490039177e-02
1.215481457888969996e-01
1.674794849969704069e-01
1.961068362940489029e-01
2.041967851847526494e-01
1.906734629552573335e-01
1.567229166238844340e-01
1.056920175067671691e-01
4.280211978406202322e-02
-2.531828140290315332e-02
-9.128049985289218848e-02
-1.477285096207734960e-01
-1.881942275626001249e-01
-2.078995614681263815e-01
-2.043871154562638126e-01
-1.778764183282942335e-01
-1.312700014358983425e-01
-6.978708946881449771e-02
-2.836475065773232107e-04
6.960839825835146710e-02
1.323667115302279707e-01
1.813673456026304309e-01
2.115120716666369916e-01
2.196696560862185232e-01
2.049218029204514790e-01
1.686134522466206931e-01
1.142234528971340368e-01
4.708299685289811520e-02
-2.604377175592147847e-02
-9.752900228886078604e-02
-1.596125999429713338e-01
-2.052614656503205515e-01
-2.290542148828709212e-01
-2.279443920720294336e-01
-2.017540077792366882e-01
-1.532854370558882351e-01
-8.800432733514940153e-02
-1.333335999260502891e-02
6.231216249127685680e-02
1.305578245969013229e-01
1.839912973931419615e-01
2.168615052360157169e-01
2.255383745030476450e-01
2.087739349395353883e-01
1.678080196086548792e-01
1.063317247266263588e-01
3.029179904046688798e-02
-5.250014843577589796e-02
-1.329977165851832788e-01
-2.018139667200292420e-01
-2.503373644015533528e-01
-2.719215050348953167e-01
-2.629112875551595230e-01
-2.232587708229682444e-01
-1.565759420357739906e-01
-6.962930722517529647e-02
2.857415683289856595e-02
1.278886426581895552e-01
2.181105243561331786e-01
2.899037001409359715e-01
3.355348851382237707e-01
3.494722276563199115e-01
3.289256873406573023e-01
2.743441803233344078e-01
1.897700023668295044e-01
8.286770619059533050e-02
-3.554729559963101804e-02
-1.525572772602035720e-01
-2.547010355715838559e-01
-3.298325511081930395e-01
-3.689581333712903533e-01
-3.676814974334914332e-01
-3.269286205330658723e-01
-2.527686192147974298e-01
-1.553577579139064913e-01
-4.723710636489078518e-02
5.865598179485587149e-02
1.508672271751695937e-01
2.208459937340239154e-01
2.636725403556652858e-01
2.780359806288271729e-01
2.656124153488215178e-01
2.301439531981434028e-01
1.765428698524643680e-01
1.102422766854994629e-01
3.685891973296135521e-02
-3.789904921934472704e-02
-1.082277849337461850e-01
-1.683061847860923277e-01
-2.126097274507738333e-01
-2.365159429751386155e-01
-2.371067994629831865e-01
-2.139292915361978298e-01
-1.694202669417981810e-01
-1.087797900015792241e-01
-3.925598728103830981e-02
3.100556162692946760e-02
9.427086067691470284e-02
1.443765789209338624e-01
1.774839485487099688e-01
1.922929132595682100e-01
1.897392737553786901e-01
1.723376110944341566e-01
1.434032496106166510e-01
1.063751349062477258e-01
6.439566452549216891e-02
2.021174119538182712e-02
-2.364696786640907433e-02
-6.456580069140183120e-02
-9.963505079009804533e-02
-1.257125533701695108e-01
-1.398062617248881090e-01
-1.396666738415028863e-01
-1.243882912386970463e-01
-9.483140212633545119e-02
-5.375359199046447767e-02
-5.624044192068411441e-03
4.384752073156306107e-02
8.839723947663902237e-02
1.220123980105070616e-01
1.397474807080988923e-01
1.384481355313410544e-01
1.172924614389534992e-01
7.806794461378702144e-02
2.511535136890200026e-02
-3.509400318866126578e-02
-9.472201731722501572e-02
-1.455824638756604006e-01
-1.802877441522160451e-01
-1.933710593104424891e-01
-1.822047497176655373e-01
-1.475207461438515777e-01
-9.338042185711545318e-02
-2.656404046834409671e-02
4.448884791864091137e-02
1.109459206952016358e-01
1.648049654265276165e-01
1.998886708618475838e-01
2.125049773907987383e-01
2.017281825168564524e-01
1.693128210747009144e-01
1.193104049106623321e-01
5.749433996087167931e-02
-9.312275011354315124e-03
-7.395131482780287202e-02
-1.296570789936795642e-01
-1.707527913590403124e-01
-1.932410865393756061e-01
-1.952044800691947746e-01
-1.769582186671325719e-01
-1.409394710062279732e-01
-9.135369505491751363e-02
-3.363296603579332689e-02
2.620338888927317700e-02
8.217516369435728940e-02
1.288652078810263446e-01
1.618136183080371437e-01
1.778166948272210113e-01
1.751786399098391178e-01
1.539237802312075076e-01
1.159272779466068160e-01
6.490572354789787834e-02
6.221493050110687983e-03
-5.353290038734540013e-02
-1.071919129154596528e-01
-1.478931852072062347e-01
-1.700655010488892338e-01
-1.703374518601618037e-01
-1.481538354391077061e-01
-1.059485245646331897e-01
-4.883598344566940364e-02
1.610352121640048345e-02
8.079243683722697744e-02
1.371947177856216449e-01
1.782598816680050491e-01
1.986693016547062540e-01
1.953580608458339585e-01
1.678312529272040221e-01
1.182856030868763009e-01
5.150934174890520190e-02
-2.548684561372718815e-02
-1.041297523225618860e-01
-1.752003218229900294e-01
-2.299193352774948629e-01
-2.610754953284080138e-01
-2.640347858625083921e-01
-2.374469126980815747e-01
-1.834903175653848362e-01
-1.075953949718219671e-01
-1.772250968528285564e-02
7.662670301192259226e-02
1.654704727868877567e-01
2.393427177904365877e-01
2.901590979580392915e-01
3.119374126646246026e-01
3.013747882606242490e-01
2.582785173810526747e-01
1.858176798893130255e-01
9.051729373045976079e-02
-1.811212838106880663e-02
-1.283916293749738369e-01
-2.277314841300112636e-01
-3.042035563848049518e-01
-3.481975522743188667e-01
-3.538717105336759983e-01
-3.201064142272919688e-01
-2.507338988339564145e-01
-1.539598180186057264e-01
-4.109073051732205217e-02
7.513995738714378259e-02
1.822820207381396218e-01
2.696066034641393938e-01
3.291009370010128943e-01
3.559835659726354185e-01
3.487943673344135465e-01
3.091619843988284155e-01
2.413740158434007910e-01
1.518680237785525744e-01
4.871238154421272948e-02
-5.892617873359040637e-02
-1.613792479057862272e-01
-2.491816756873226901e-01
-3.138813641135291821e-01
-3.488956476716565946e-01
-3.503085135424821583e-01
-3.174645820660255691e-01
-2.532081622496542561e-01
-1.636753561626393960e-01
-5.767025175295444062e-02
5.422962974723441465e-02
1.606712981226258719e-01
2.505378805335192749e-01
3.139808279836988070e-01
3.434998646398570443e-01
3.350122525212246849e-01
2.887221301006433483e-01
2.095254518018100642e-01
1.067286991986604594e-01
-6.996065184487060273e-03
-1.173145725103526132e-01
-2.103231796110973661e-01
-2.746533376948437910e-01
-3.031835565281976730e-01
-2.940234762255165002e-01
-2.505783054184251846e-01
-1.806824368821612348e-01
-9.498394726296881252e-02
-4.946181520319614666e-03
7.904726075065696134e-02
1.490241573763203542e-01
1.999375212809748614e-01
2.294160404790648311e-01
2.370650845048154487e-01
2.237202217467213483e-01
1.909625279062912850e-01
1.410198283354163751e-01
7.699669312261958609e-02
3.244799612820259416e-03
-7.438165936863838645e-02
-1.486256033254527709e-01
-2.114109006311187255e-01
-2.548620534400967697e-01
-2.725456537126961787e-01
-2.606426938270747229e-01
-2.187900757757114678e-01
-1.504227776489405755e-01
-6.255434391553664486e-02
3.497143349614820207e-02
1.306473322254733394e-01
2.127276786323891722e-01
2.707371816343465687e-01
2.968987062248002462e-01
2.873156527090487411e-01
2.427242577756631159e-01
1.686279675667056166e-01
7.469516190030360547e-02
-2.655158235691049487e-02
-1.215616595940209876e-01
-1.977912917571433282e-01
-2.455993078134762753e-01
-2.596702060537161572e-01
-2.396926865178848898e-01
-1.901500980276926989e-01
-1.192780743070943061e-01
-3.745996338001865433e-02
4.453372267327475320e-02
1.170669630411620560e-01
1.726673641639954182e-01
2.064978686895133086e-01
2.163631078006422459e-01
2.024313800650139328e-01
1.668655503224145131e-01
1.134943161771481412e-01
4.754772304826826446e-02
-2.461254473278057589e-02
-9.586458720183402282e-02
-1.588557871539943434e-01
-2.066819846375890224e-01
-2.336565137764338163e-01
-2.360743650946725558e-01
-2.128440523264387430e-01
-1.658365345328061125e-01
-9.982283783921093445e-02
-2.196221478303489807e-02
5.907345435668898831e-02
1.341674016892882570e-01
1.948393261814433397e-01
2.342086642818886066e-01
2.477551791319340668e-01
2.338174053934471974e-01
1.937900443432261088e-01
1.320125189526882570e-01
5.536792008105602403e-02
-2.738450382663941418e-02
-1.065246627095380871e-01
-1.724911419454591976e-01
-2.170960428219871341e-01
-2.346583460428573464e-01
-2.228566082626499134e-01
-1.831367933144930904e-01
-1.205818557097396160e-01
-4.323766529882250992e-02
3.900992250146376183e-02
1.158148578477088686e-01
1.777594064953821329e-01
2.175221366945351009e-01
2.306824715978400830e-01
2.161201439211463404e-01
1.760289335064443850e-01
1.155753820904777129e-01
4.223281363362794971e-02
-3.515261620375391416e-02
-1.074577022150821903e-01
-1.663965492249656064e-01
-2.055068225765394885e-01
-2.208813081354727981e-01
-2.115484440494871388e-01
-1.794526733709557176e-01
-1.290575134121720313e-01
-6.666977600273535365e-02
3.786661774557997795e-04
6.457114353840448517e-02
1.189897839992250517e-01
1.579928470021851883e-01
1.777455732888869600e-01
1.765723967808990047e-01
1.551133831446374067e-01
1.162768235848065657e-01
6.497435813402513416e-02
7.621043555929796209e-03
-4.859339469344592377e-02
-9.659957347969244656e-02
-1.303851093163992392e-01
-1.458163325756586248e-01
-1.412013858576660619e-01
-1.174967605688081451e-01
-7.812060001751562621e-02
-2.840771529185894678e-02
2.518264132521071119e-02
7.594158846096812909e-02
1.177067585224829682e-01
1.454810488291863324e-01
1.558552465142267196e-01
1.472656632657313724e-01
1.201240138855586281e-01
7.683634917726873959e-02
2.169980058580443794e-02
-3.936225820117530971e-02
-9.928362578990169995e-02
-1.505951255208614337e-01
-1.863826355530873446e-01
-2.013156328623891822e-01
-1.925232863694338603e-01
-1.601109203014409177e-01
-1.072103190660386035e-01
-3.958130730529843544e-02
3.512936804175306738e-02
1.083276791219802138e-01
1.714651648445331689e-01
2.169661375331923270e-01
2.390191428561839193e-01
2.342116137839575507e-01
2.020004848050925284e-01
1.449762644608066919e-01
6.882809320813754184e-02
-1.808876347425170117e-02
-1.056184932227771378e-01
-1.830379212802543676e-01
-2.405004601777736006e-01
-2.704701597951877923e-01
-2.688873262192428837e-01
-2.358138890996661075e-01
-1.753940228072981833e-01
-9.513455798988640355e-02
-4.695175982533286718e-03
8.551216676109298087e-02
1.656274760920433131e-01
2.273654672225336182e-01
2.646927347301936684e-01
2.741865136739754516e-01
2.551517040419807314e-01
2.095795314868537651e-01
1.419928612566403181e-01
5.915679688838410694e-02
-3.041490113484301289e-02
-1.172127704852048424e-01
-1.917229004882777532e-01
-2.455442291553634471e-01
-2.724630864757693893e-01
-2.693051028176473016e-01
-2.364030295971746298e-01
-1.775670858759702264e-01
-9.954044723415866880e-02
-1.105488165316451110e-02
7.829329789524239192e-02
1.591151261315823240e-01
2.231015054754103000e-01
2.636650321195573854e-01
2.763948859272468694e-01
2.593811438288538551e-01
2.134409387727394525e-01
1.422446329187736502e-01
5.229605885752386385e-02
-4.733182355636120220e-02
-1.456315621066366361e-01
-2.307461316762173253e-01
-2.914582870562807959e-01
-3.188821372475252325e-01
-3.080369762607581552e-01
-2.589482146664729978e-01
-1.769778970728116962e-01
-7.223093770627514454e-02
4.190732048227591156e-02
1.508217359429685489e-01
2.408680315206394029e-01
3.012689422370530834e-01
3.253855164862153870e-01
3.112565854914888797e-01
2.614857422795603403e-01
1.826462031108055939e-01
8.437386583590117395e-02
-2.172584174880387575e-02
-1.232821295725528010e-01
-2.084347023003909061e-01
-2.671439523775155367e-01
-2.924494990444296283e-01
-2.815057866190509017e-01
-2.361575817878615591e-01
-1.628360352512242537e-01
-7.167887780023135536e-02
2.503090470617200247e-02
1.148229168263000116e-01
1.869827033116782944e-01
2.340525488532531617e-01
2.525705294375693022e-01
2.429426230366648620e-01
2.085968169020286922e-01
1.547703649630626233e-01
8.735464389799574292e-02
1.214107045369963722e-02
-6.539041423961733379e-02
-1.398456130923884377e-01
-2.055551705864350209e-01
-2.564440039201204558e-01
-2.863918365178883541e-01
-2.901126694669530770e-01
-2.643266488199412234e-01
-2.088449203978945401e-01
-1.272043598882553472e-01
-2.664466356301797845e-02
8.258300325131484598e-02
1.884371147757854525e-01
2.786224110537279253e-01
3.422062015497034371e-01
3.710882888836797844e-01
3.611320128484937220e-01
3.128139487350911074e-01
2.312996831700684375e-01
1.258961714718617730e-01
8.891868824062426624e-03
-1.060945403783560559e-01
-2.059965827931878601e-01
-2.800644905960146813e-01
-3.211934582336644639e-01
-3.266316664723249441e-01
-2.980370571458513251e-01
-2.409542260854210804e-01
-1.638328480179824798e-01
-7.674541363207743050e-02
9.997686213459491822e-03
8.711916785791584683e-02
1.473503021953798675e-01
1.860112295585115150e-01
2.011867721576286461e-01
1.935566311783778193e-01
1.659820193795533971e-01
1.229695569863403504e-01
7.011646405547417027e-02
1.358739484332206759e-02
-4.038710413446828379e-02
-8.602461283755272192e-02
-1.185235075810265326e-01
-1.345667468806225897e-01
-1.327116025907673913e-01
-1.135786822854910061e-01
-7.978082596966248885e-02
-3.557818581560136251e-02
1.369242144694915800e-02
6.230205066659808000e-02
1.047865688980655074e-01
1.364679018630797214e-01
1.538114971963271682e-01
1.546616233837081189e-01
1.384079905687178313e-01
1.060959785404893552e-01
6.044611658425552703e-02
5.735188930654729067e-03
-5.249403400130514541e-02
-1.079111921608634228e-01
-1.540638404227923919e-01
-1.851850006234010970e-01
-1.970264872180085280e-01
-1.875468842717122886e-01
-1.572911174064785533e-01
-1.093709644237913226e-01
-4.905297956888966804e-02
1.695758679920968126e-02
8.139711272338692738e-02
1.373299367374250513e-01
1.789004209273374058e-01
2.018663477609037860e-01
2.039040631681607874e-01
1.847297193913468860e-01
1.460854426984579679e-01
9.160723446494453692e-02
2.656337293508261033e-02
-4.254921691689385332e-02
-1.085510058355554364e-01
-1.642612658587141450e-01
-2.032937996335608677e-01
-2.208989126022942173e-01
-2.147094315240075380e-01
-1.852021334140837305e-01
-1.357238935521827838e-01
-7.205082759041921137e-02
-1.581425265069505426e-03
6.765949156186934488e-02
1.280274280480787064e-01
1.731373396673073772e-01
1.985250194521198108e-01
2.020458591018043371e-01
1.840076557611667885e-01
1.470604807995130048e-01
9.586826419761501628e-02
3.657894331493441453e-02
-2.387753717987109447e-02
-7.859384035871619378e-02
-1.214824503325044602e-01
-1.479481290807503069e-01
-1.553479449671468782e-01
-1.431944881556856397e-01
-1.130992498512669725e-01
-6.849957930955880014e-02
-1.426105828672671882e-02
4.374028019357703578e-02
9.900828435355840673e-02
1.448394965272455648e-01
1.748645156102674736e-01
1.837804940444544011e-01
1.682188640930996348e-01
1.275800419372228045e-01
6.462029686898758396e-02
-1.440481687502211117e-02
-1.001770163756342535e-01
-1.813763407845221942e-01
-2.462779916569521887e-01
-2.846378986928629340e-01
-2.894940333253737674e-01
-2.584835099011367765e-01
-1.943720355066336225e-01
-1.046778362330834933e-01
-4.809124367678575644e-04
1.053181537881897889e-01
1.999241172117585119e-01
2.723847484367017957e-01
3.148599032422003674e-01
3.233017012419785452e-01
2.975822540772306013e-01
2.411936801316209578e-01
1.606543233491843914e-01
6.472458743546789794e-02
-3.649409559938535108e-02
-1.325236338683349890e-01
-2.134988543893575619e-01
-2.711452877964686814e-01
-2.996751445973807604e-01
-2.964718143894686797e-01
-2.623999684337193772e-01
-2.016292568947248287e-01
-1.209916166181292940e-01
-2.903151311817703251e-02
6.502473894083737882e-02
1.521815338612693136e-01
2.243572681032619531e-01
2.748332541086936365e-01
2.985552407122686880e-01
2.924194480282000796e-01
2.556409876271136250e-01
1.901920183948164200e-01
1.011655005736429996e-01
-3.155658281328715953e-03
-1.117231906931727692e-01
-2.117385862754522230e-01
-2.902183735181702584e-01
-3.359302475802495858e-01
-3.413879494655635560e-01
-3.044834439645026092e-01
-2.293068709976598396e-01
-1.258260461801276875e-01
-8.373602937830765258e-03
1.067691464668516499e-01
2.041379668749828125e-01
2.715674386272905472e-01
3.018799896993983323e-01
2.935376344952728145e-01
2.503025341007920623e-01
1.801623250966161716e-01
9.385100209741997768e-02
3.253875838347880523e-03
-8.010917336360413865e-02
-1.464088767008320247e-01
-1.885645427266446073e-01
-2.029638046982152333e-01
-1.897721784829522473e-01
-1.527729495810366545e-01
-9.871222310111166243e-02
-3.618965132807477891e-02
2.576161874674735841e-02
7.914515104654779032e-02
1.181909848106653671e-01
1.399743124025664143e-01
1.443336713225833456e-01
1.331834740827920194e-01
1.095080841146733319e-01
7.640869460090354837e-02
3.652503146350240260e-02
-8.005725020213891319e-03
-5.510839154047000865e-02
-1.021080023044551033e-01
-1.452174989968322283e-01
-1.795033889722997267e-01
-1.994720777231380193e-01
-2.001722167810873754e-01
-1.785051913157702785e-01
-1.343461265358913970e-01
-7.111558970805839652e-02
4.414256759714643708e-03
8.308457852361383900e-02
1.548688352125386358e-01
2.105673666665786592e-01
2.432670193653430346e-01
2.492695509027648693e-01
2.283908332904605876e-01
1.837084585893321020e-01
1.209201873661692878e-01
4.748194242468074810e-02
-2.833058488889158774e-02
-9.832682382712094882e-02
-1.552092860460795865e-01
-1.932654538092248853e-01
-2.089326210054599231e-01
-2.011878113140251612e-01
-1.716735072194582046e-01
-1.244796646363937609e-01
-6.557804069236128353e-02
-2.004194405359538411e-03
5.905378956116366651e-02
1.110982032380804507e-01
1.489754404585456604e-01
1.692778677590315028e-01
1.704958646391158683e-01
1.529823034198260212e-01
1.188189575753005878e-01
7.164425081008335416e-02
1.643211809675232393e-02
-4.084112672236495101e-02
-9.369849534216348474e-02
-1.358335178995195847e-01
-1.618883770079102558e-01
-1.682298563035718730e-01
-1.535828698133052950e-01
-1.193698383024882625e-01
-6.963861294266321389e-02
-1.055776631275029409e-02
5.042010700035834403e-02
1.055497632389564427e-01
1.477684459408449003e-01
1.715421418876308113e-01
1.735207870338588143e-01
1.529578153937244389e-01
1.118539209324355688e-01
5.480107474619783092e-02
-1.147052148843440145e-02
-7.881772903150713327e-02
-1.386382596501300191e-01
-1.829738839758860425e-01
-2.056256750356965646e-01
-2.030915402904305833e-01
-1.751347991544854876e-01
-1.248599210518114844e-01
-5.828078805008191088e-02
1.652833920793277123e-02
9.053756634200214870e-02
1.549277008063456307e-01
2.021330341406824549e-01
2.266316737103279411e-01
2.254439656572707062e-01
1.983757028431638592e-01
1.480582966256258071e-01
7.979209513780310958e-02
1.143700728793849153e-03
-7.875834125686079212e-02
-1.502291262711657471e-01
-2.042478963669625558e-01
-2.337293374578656713e-01
-2.346289459662305177e-01
-2.066494200137241055e-01
-1.533607970423161992e-01
-8.167252074851721888e-02
-7.664163915534413785e-04
7.926483413264125144e-02
1.487919910087650566e-01
1.998125223698741793e-01
2.267779853406691193e-01
2.270500525809540093e-01
2.010124494738028678e-01
1.519030128763196597e-01
8.543579112768470707e-02
9.253816870474072809e-03
-6.778840509701794526e-02
-1.365241770559694201e-01
-1.885228635822903120e-01
-2.171774627077840414e-01
-2.186601458214106064e-01
-1.925609868701189664e-01
-1.420635266204312852e-01
-7.358972424785906186e-02
4.047845775118699696e-03
8.084047940016317324e-02
1.469075238836352881e-01
1.937366780354411178e-01
2.151987388273974844e-01
2.082775482940979750e-01
1.734884472555528467e-01
1.149385701789917558e-01
3.996358609902597725e-02
-4.169312111922075792e-02
-1.191141546138926588e-01
-1.817207951606357730e-01
-2.208551155759075346e-01
-2.311624018396215563e-01
-2.114771324512128015e-01
-1.649672163901749755e-01
-9.845831642357288915e-02
-2.110371137356664706e-02
5.723286887620224195e-02
1.274639580712716436e-01
1.823302864624719022e-01
2.169072472486579528e-01
2.286343715111121000e-01
2.170507241499499695e-01
1.834565964264586180e-01
1.306817163372981649e-01
6.303023536856977582e-02
-1.367311146440272629e-02
-9.212841335288296518e-02
-1.639154630466476137e-01
-2.202897865019413093e-01
-2.533865018859641771e-01
-2.576160119121795877e-01
-2.309031582575520603e-01
-1.754000599773709312e-01
-9.742087565973929497e-02
-6.570345627502277575e-03
8.572728366922499621e-02
1.679494927789305647e-01
2.300922664888578328e-01
2.649271157411263733e-01
2.687722561635358387e-01
2.417542283838781947e-01
1.876015437538313124e-01
1.130553426531805961e-01
2.700743868215167709e-02
-6.052628824756181580e-02
-1.395136053877938098e-01
-2.010262773014516724e-01
-2.382841013272280484e-01
-2.474906446584339004e-01
-2.283088802726869482e-01
-1.838642066483274495e-01
-1.202538447571220581e-01
-4.564577278478151867e-02
3.086947605383841275e-02
1.004706525009499696e-01
1.556434496971601245e-01
1.909221581954187730e-01
2.032886892738871021e-01
1.922749093878484139e-01
1.598535593910172525e-01
1.101782165836869831e-01
4.918485007939850384e-02
-1.595620040745863999e-02
-7.753907670090909310e-02
-1.281485794016951618e-01
-1.615594046135110373e-01
-1.736076742448630639e-01
-1.628766163650408605e-01
-1.310127001249854484e-01
-8.254272624541091063e-02
-2.419280770522299479e-02
3.614743948398577156e-02
9.059008471821086705e-02
1.323202878262047244e-01
1.564106075223227754e-01
1.602948155633123761e-01
1.438966694972898530e-01
1.094729939947776121e-01
6.125915690447528150e-02
4.986272459075673236e-03
-5.270631754149261716e-02
-1.049652721204767936e-01
-1.455006277096826395e-01
-1.693651290933889386e-01
-1.736123692203525304e-01
-1.577107070757031992e-01
-1.236225836508637876e-01
-7.550924918512448569e-02
-1.909124409727707555e-02
3.921532806053013021e-02
9.319049706663413979e-02
1.375250156550003322e-01
1.682350670882255261e-01
1.827862796749511187e-01
1.800378312309004192e-01
1.601375740918903334e-01
1.244531185882888358e-01
7.556139247578663731e-02
1.726735522559955105e-02
-4.542380566710337020e-02
-1.064940590391318664e-01
-1.593671161008073656e-01
-1.976602002769689004e-01
-2.161341283874316788e-01
-2.116294641496723750e-01
-1.837395008566092280e-01
-1.350242095683366617e-01
-7.068664664861472324e-02
2.223068763434102313e-03
7.587997856794187479e-02
1.427627728432493970e-01
1.964917871764649271e-01
2.323001718503068247e-01
2.471699916097866156e-01
2.397730642786198296e-01
2.103672313603609512e-01
1.607387116435091412e-01
9.420777997637833079e-02
1.565661999363955614e-02
-6.851037714005764334e-02
-1.505982882079485718e-01
-2.221582068350909100e-01
-2.748601253828099056e-01
-3.016098353440956892e-01
-2.977146352470487756e-01
-2.618614837734217771e-01
-1.966862250542217305e-01
-1.087647386347749823e-01
-7.948113422015470886e-03
9.389762874772882018e-02
1.845299566947857517e-01
2.530279810507782834e-01
2.912457607448434849e-01
2.948232313949653571e-01
2.636742567942568227e-01
2.019419749409886999e-01
1.174501529386367538e-01
2.072413269213688181e-02
-7.629243693859372177e-02
-1.616701583640347828e-01
-2.249277449299509346e-01
-2.583309975558204519e-01
-2.579055377641043534e-01
-2.239884264496015409e-01
-1.611723076445321368e-01
-7.761128453395547966e-02
1.618032454328042352e-02
1.087847862431460533e-01
1.893190700969143714e-01
2.486400480197164531e-01
2.801955126899153825e-01
2.804936668663755572e-01
2.492454804702897708e-01
1.892803557486584798e-01
1.063166275044320902e-01
8.591410379283306864e-03
-9.372206660943321888e-02
-1.893914345710526470e-01
-2.673066460038566738e-01
-3.178629357336325012e-01
-3.343394755484145331e-01
-3.140076399905239457e-01
-2.587037944629174691e-01
-1.746829636248431461e-01
-7.173547409326308522e-02
3.824837389883189998e-02
1.429348920789628996e-01
2.310804931988199584e-01
2.937067447207948878e-01
3.248337911680962975e-01
3.218063859496029799e-01
2.853027318636860987e-01
2.191242115677618507e-01
1.298397652301746252e-01
2.630769857099511666e-02
-8.096344635396199307e-02
-1.806827688885517535e-01
-2.618993866116746672e-01
-3.152986340102190699e-01
-3.344780515966369050e-01
-3.169492207420198104e-01
-2.646277097172127224e-01
-1.836578348185426424e-01
-8.355728287358210604e-02
2.416629228803029300e-02
1.276338263074451307e-01
2.161096811099242343e-01
2.811496865048104254e-01
3.172700968230213747e-01
3.221662896488303174e-01
2.965869060401419843e-01
2.439838380238000259e-01
1.700396081999777376e-01
8.213845741169288617e-02
-1.120125532798317905e-02
-1.009646454479142252e-01
-1.783945073695258898e-01
-2.358645655172977307e-01
-2.677875471857174561e-01
-2.713971109103152646e-01
-2.472189640365031749e-01
-1.990831849540911080e-01
-1.336140302545540115e-01
-5.925180096515070965e-02
1.501094629732321883e-02
8.090863456599739489e-02
1.319298623136401227e-01
1.639251652247907809e-01
1.752718092950252826e-01
1.666840858763473654e-01
1.407980919385662388e-01
1.016464435825059076e-01
5.411211860511844218e-02
3.429221704122853431e-03
-4.523101807385410122e-02
-8.709440796665746110e-02
-1.180770071420886858e-01
-1.350709612914566815e-01
-1.362177131484568759e-01
-1.211270130293927161e-01
-9.099409385854581589e-02
-4.858585458071401630e-02
1.915882902820464917e-03
5.522168862857912419e-02
1.053922178706557800e-01
1.464185767951777795e-01
1.728670898140255430e-01
1.805258712451099368e-01
1.670071638638979672e-01
1.322588970363610672e-01
7.890292375844290551e-02
1.227578140495827475e-02
-5.995012715218639432e-02
-1.286188132658275807e-01
-1.843539711181521046e-01
-2.190434240591255799e-01
-2.272525659603220061e-01
-2.072349942571314607e-01
-1.612717875545157109e-01
-9.524609341512726979e-02
-1.758737419341399599e-02
6.210789182111431384e-02
1.344353196589810062e-01
1.912728421269420109e-01
2.265069604681319293e-01
2.364292037269341284e-01
2.198997301356914735e-01
1.783743722086745254e-01
1.158461691386842574e-01
3.867926851614189587e-02
-4.475923303576029300e-02
-1.247867164334999224e-01
-1.914645266385264777e-01
-2.359452249007026325e-01
-2.518796149906901150e-01
-2.365767932073686575e-01
-1.916306697586326324e-01
-1.228363415461936475e-01
-3.938303788710001418e-02
4.752268140084031645e-02
1.263303684321132603e-01
1.868055021111342806e-01
2.214116113349295922e-01
2.262454124066538008e-01
2.014505203657260823e-01
1.511020674710724376e-01
8.259880176125895812e-02
5.639819912613888014e-03
-6.909428740936156277e-02
-1.314001840165668900e-01
-1.729711281504775211e-01
-1.885825943485138489e-01
-1.768469701438144526e-01
-1.403745292636041364e-01
-8.527730843673261840e-02
-2.010430407659948709e-02
4.556447298505713478e-02
1.025798038735787066e-01
1.434912557617467055e-01
1.634547792719767134e-01
1.606949733019969739e-01
1.365062829662103683e-01
9.484572634417877401e-02
4.163157613561752762e-02
-1.610993056629259068e-02
-7.112662536238198441e-02
-1.167661666839337475e-01
-1.476805438620147903e-01
-1.603445743531979328e-01
-1.533377214449808679e-01
-1.273858773865653160e-01
-8.521292218845960553e-02
-3.126610570208120110e-02
2.865278655865663437e-02
8.785687072958719979e-02
1.393556372125109855e-01
1.765360463279684877e-01
1.939087501436373984e-01
1.878717129828190724e-01
1.574151865414964990e-01
1.046383515418420340e-01
3.490328291810650130e-02
-4.353166472395847419e-02
-1.204606779650015391e-01
-1.851777755431175398e-01
-2.281941704558877460e-01
-2.428911206901115949e-01
-2.267360634917098272e-01
-1.817541440483027848e-01
-1.141255970294165478e-01
-3.302369773176962869e-02
5.098474465404402578e-02
1.275778564672596649e-01
1.880282507392955216e-01
2.260883181612922121e-01
2.383860429724803387e-01
2.244103327013791949e-01
1.862212796042202467e-01
1.280322937118038018e-01
5.577164004912264772e-02
-2.334878532424120023e-02
-1.013051376598658737e-01
-1.698438918518211938e-01
-2.212054990618250727e-01
-2.489531760522439574e-01
-2.488122175790565827e-01
-2.193876857702990180e-01
-1.626142247852178646e-01
-8.381383501527212010e-02
8.694799104010567103e-03
1.043991632348282572e-01
1.917012906951902074e-01
2.592103984640427572e-01
2.971234026587032950e-01
2.986059337417729109e-01
2.610412184433653637e-01
1.869373561596099076e-01
8.423736899923367494e-02
-3.419514773499110483e-02
-1.520333174553632483e-01
-2.518253338895529714e-01
-3.179133779641977187e-01
-3.393834503956527637e-01
-3.123395958553728535e-01
-2.408510670557857392e-01
-1.362339469178139306e-01
-1.480715065723947621e-02
1.052892396346641890e-01
2.073902354637305323e-01
2.789405905850523282e-01
3.129667766362552173e-01
3.082695467917819232e-01
2.685809855909541133e-01
2.011493476246220546e-01
1.152294841520069002e-01
2.079710980794824415e-02
-7.241290694938001815e-02
-1.555981735416291367e-01
-2.214082851245182393e-01
-2.643614910259455275e-01
-2.811816854310410507e-01
-2.710359099106692815e-01
-2.356120964190229206e-01
-1.789564942483951593e-01
-1.070236072639314528e-01
-2.698136375751325478e-02
5.359222153119184984e-02
1.274551972803505406e-01
1.882769518291962652e-01
2.310167266156060717e-01
2.521460208969598660e-01
2.497819138615870460e-01
2.237969310962610314e-01
1.759468952849073398e-01
1.100009390760032374e-01
3.177696896006036720e-02
-5.106918557188826896e-02
-1.296288885970186544e-01
-1.947217342086951519e-01
-2.381553383067555318e-01
-2.540343266360575170e-01
-2.398348643477281605e-01
-1.969762078330896116e-01
-1.307143741160873840e-01
-4.935098361413639556e-02
3.705704900420170311e-02
1.181736506224436989e-01
1.847344760288310017e-01
2.295735866951410242e-01
2.482626471141070046e-01
2.393855764219557369e-01
2.044998219644356963e-01
1.478394138253007750e-01
7.581729832824421478e-02
-3.621571222050661357e-03
-8.176555036558498524e-02
-1.500033119987960184e-01
-2.007543741091246114e-01
-2.283716327309491256e-01
-2.298788285524800967e-01
-2.054028524912709375e-01
-1.582007884840475054e-01
-9.424727992159184775e-02
-2.142979459611826093e-02
5.151178008513614126e-02
1.161002370457786537e-01
1.650920756465900363e-01
1.931851383904102382e-01
1.974526330055962342e-01
1.775586975824118841e-01
1.357992560181836006e-01
7.695791617396532946e-02
7.929888147908126239e-03
-6.292425194042834680e-02
-1.266899577412167743e-01
-1.750110324051659394e-01
-2.012697007251706971e-01
-2.016332294223652788e-01
-1.757325270317401933e-01
-1.267820371649411859e-01
-6.108068227018073615e-02
1.299774754540419797e-02
8.628752933988348417e-02
1.501111649691186656e-01
1.973265336804454761e-01
2.230053287650486105e-01
2.247182800120956503e-01
2.025044715393103378e-01
1.586596199773347426e-01
9.746167177608794363e-02
2.487159287119557194e-02
-5.184208585658976742e-02
-1.246434552078386354e-01
-1.854851273458748562e-01
-2.272445914847955883e-01
-2.447147348547169532e-01
-2.354558842003633412e-01
-2.002927934167232082e-01
-1.432840177876054666e-01
-7.112049672428939762e-02
7.911025884790173768e-03
8.512849534410671382e-02
1.525349737112913218e-01
2.035996744748794773e-01
2.337024073967920446e-01
2.403064966889729148e-01
2.229637524929997949e-01
1.832445415557954760e-01
1.246433584209735157e-01
5.244652702091365248e-02
-2.651358666814584986e-02
-1.043153043647349065e-01
-1.726673997690196805e-01
-2.238471654537141364e-01
-2.517146191391698151e-01
-2.526102827628733394e-01
-2.259560944446120379e-01
-1.744405842711442001e-01
-1.037579381772399945e-01
-2.195989462667707892e-02
6.146275599212999707e-02
1.366484920549734527e-01
1.944973465377788924e-01
2.278021670474348892e-01
2.322787859028969115e-01
2.073240154757361453e-01
1.562992880511283877e-01
8.620572527108665006e-02
6.761409051345326771e-03
-7.096801027393151440e-02
-1.361577371902290834e-01
-1.797853192937357847e-01
-1.959254478273821931e-01
-1.825635832757161459e-01
-1.417854507106997286e-01
-7.933019715477163114e-02
-3.644558133797173860e-03
7.532907017860757115e-02
1.473979143443008011e-01
2.032377983926665355e-01
2.353160706561673587e-01
2.386150929370880469e-01
2.111816336831020546e-01
1.545122021399925882e-01
7.372491538274908440e-02
-2.260526190215070286e-02
-1.230973767589253892e-01
-2.147818921561604477e-01
-2.848140239999856771e-01
-3.224444869804755642e-01
-3.208894195697148399e-01
-2.787032830246520820e-01
-2.003151886673794069e-01
-9.554535314878037644e-02
2.184790598755043112e-02
1.363004508485783084e-01
2.328130697419436013e-01
2.991122603439529404e-01
3.272625474347486962e-01
3.145452277739174685e-01
2.635576114826954086e-01
1.816004760793296924e-01
7.951492576392488187e-02
-2.981307495606030922e-02
-1.330656572378678959e-01
-2.180594390380326819e-01
-2.751464693274443540e-01
-2.983310288649470010e-01
-2.859566299973617665e-01
-2.408218878684258712e-01
-1.696611845965543819e-01
-8.205971431075638478e-02
1.099845836238332042e-02
9.867917397090900100e-02
1.716710470281636591e-01
2.231630821577745283e-01
2.493083305091566837e-01
2.491894457644727723e-01
2.244275345837875024e-01
1.786342660062520959e-01
1.168759120055105072e-01
4.523170103779786122e-02
-2.955480210190825074e-02
-1.003839553843343668e-01
-1.601462869137829648e-01
-2.021925847739305671e-01
-2.209869275252427934e-01
-2.129245477837770906e-01
-1.771901900905676064e-01
-1.164492606028427191e-01
-3.713979364009695194e-02
5.083335738744546028e-02
1.351224150772682986e-01
2.026704832343221296e-01
2.419583588949114072e-01
2.453472604862164674e-01
2.109371252120583184e-01
1.433648466844714697e-01
5.319725679238107574e-02
-4.502457478038901506e-02
-1.356181649942113099e-01
-2.047474383940952047e-01
-2.428479069687853320e-01
-2.459929394975761130e-01
-2.160285613097573387e-01
-1.596193624514818943e-01
-8.657870234051801006e-02
-7.953263065383464614e-03
6.571895145879752542e-02
1.257133272695629134e-01
1.658987436607810562e-01
1.830383179462102550e-01
1.767266356170322517e-01
1.490951022871163101e-01
1.043878642908399879e-01
4.845659100697913280e-02
-1.182202739236842826e-02
-6.921105424036494425e-02
-1.168428384795919817e-01
-1.489651647982409566e-01
-1.616323058319241168e-01
-1.532504261635179166e-01
-1.248707958103169591e-01
-8.013062294196263147e-02
-2.479738731345187963e-02
3.402784543696441011e-02
8.890007958485816875e-02
1.330304514237860281e-01
1.611421459420244173e-01
1.700804196849662331e-01
1.591188006487060380e-01
1.299401027316075541e-01
8.631728777500541350e-02
3.356821902532117208e-02
-2.211907378178508410e-02
-7.440750964320541616e-02
-1.175186150535905139e-01
-1.468693386320278904e-01
-1.595639043842657090e-01
-1.546626618425812616e-01
-1.331844852303032400e-01
-9.786025044239751725e-02
-5.270416056765113433e-02
-2.487053944252221038e-03
4.780390587155158855e-02
9.343592724704580244e-02
1.302658185367721044e-01
1.549287353103320219e-01
1.649425342646609893e-01
1.588254543054994361e-01
1.362891864918891471e-01
9.848773516019264374e-02
4.823040116242896524e-02
-9.961729177190958850e-03
-7.006439620085064268e-02
-1.250897957013409334e-01
-1.679483063016554145e-01
-1.925205335615746138e-01
-1.947310766659718917e-01
-1.733760202253232796e-01
-1.305009477770570914e-01
-7.123440921879466148e-02
-3.104282515985035823e-03
6.503687686759894448e-02
1.242870910359367975e-01
1.669512552270075167e-01
1.875746785159312924e-01
1.836145179732284194e-01
1.556968961439465504e-01
1.074753663249788382e-01
4.513682715179433147e-02
-2.338675690573912766e-02
-8.942031526896543348e-02
-1.446463406939464957e-01
-1.821648727257171307e-01
-1.973734295406902040e-01
-1.885420606483106387e-01
-1.569789181800856637e-01
-1.067271695896930550e-01
-4.383069152428118592e-02
2.466496452316921384e-02
9.172039766958772766e-02
1.510792124538537506e-01
1.976914801628108509e-01
2.278089210877441428e-01
2.388816897176933574e-01
2.294232848845871586e-01
1.989902084769682999e-01
1.483583297754230146e-01
7.987436546050208364e-02
-2.155886524253136649e-03
-9.125783169645595994e-02
-1.789638316064485757e-01
-2.554890933494746719e-01
-3.108878366316321085e-01
-3.365350540784782796e-01
-3.266659426808096178e-01
-2.796351224603895735e-01
-1.985723022135732485e-01
-9.124349006874626911e-02
3.085454134987991592e-02
1.539412127931996666e-01
2.636437950145615328e-01
3.466986567582293066e-01
3.925261144748656283e-01
3.945803781175640790e-01
3.513403732829683546e-01
2.667665639701765623e-01
1.500715350798391412e-01
1.474779069011564192e-02
-1.230723881084801047e-01
-2.467232566603927146e-01
-3.412769283095328232e-01
-3.956232660056069328e-01
-4.040079380142193033e-01
-3.667528764910668038e-01
-2.900172158535161415e-01
-1.846320629287222792e-01
-6.423548903239501007e-02
5.689873218583769987e-02
1.658689239825975603e-01
2.525867226199872695e-01
3.104507617357282756e-01
3.363102579734724151e-01
3.299775364191281923e-01
2.936148018479215471e-01
2.312506840322008927e-01
1.485342870104315871e-01
5.267255465188697139e-02
-4.763479416678589873e-02
-1.425107523576443491e-01
-2.216672526750359806e-01
-2.756534584155900802e-01
-2.973825704460297814e-01
-2.835455306627998606e-01
-2.354840485418082663e-01
-1.592386298202020378e-01
-6.473851188501519860e-02
3.566194339100844934e-02
1.289661121557066359e-01
2.033016032636668913e-01
2.494189539489483631e-01
2.617772801061999388e-01
2.391520538468016044e-01
1.847399840510432489e-01
1.057543960850544362e-01
1.253556488884765424e-02
-8.274121719245268458e-02
-1.676119057615859109e-01
-2.309358466265362675e-01
-2.643761863689836344e-01
-2.635534514142330309e-01
-2.286820646857405659e-01
-1.645359433064686738e-01
-7.969763887611663877e-02
1.478387549547217211e-02
1.070461511236849433e-01
1.860405541199351698e-01
2.428589745824377144e-01
2.716094936135314830e-01
2.698118467155411482e-01
2.383710370208395046e-01
1.812382705279580730e-01
1.048778150965548883e-01
1.761966591479841027e-02
-7.108976369157228581e-02
-1.515703319509783265e-01
-2.149288854358369361e-01
-2.541343107628558640e-01
-2.649733258289898030e-01
-2.466799499821004105e-01
-2.020701659359731284e-01
-1.371067798259143766e-01
-5.994691415371231069e-02
2.033820729248896064e-02
9.508085873394858667e-02
1.570754831317352218e-01
2.011914483287036148e-01
2.245268331510392457e-01
2.262360816501288452e-01
2.072169610502453407e-01
1.698043901562416580e-01
1.175398795206465119e-01
5.501071282899654136e-02
-1.230251969885071128e-02
-7.826538460846618750e-02
-1.365072965587494080e-01
-1.810471487008227243e-01
-2.070535592057912433e-01
-2.115777985723451271e-01
-1.940738390105271605e-01
-1.565667677741512664e-01
-1.034183546860266978e-01
-4.073485181170172220e-02
2.445615605081527533e-02
8.508834406929102756e-02
1.348391414509440556e-01
1.687192168037627282e-01
1.834610605827046714e-01
1.777502046009460934e-01
1.523356959607642391e-01
1.100156248773892786e-01
5.546406683834548962e-02
-5.132675325745824149e-03
-6.464432183701421253e-02
-1.157613719594610124e-01
-1.519120695075611982e-01
-1.682233013771197716e-01
-1.623459934255602755e-01
-1.349384862678225661e-01
-8.965651987000917977e-02
-3.262216416472604047e-02
2.852116114744356057e-02
8.576964101808746965e-02
1.319101312258063874e-01
1.614607722581258287e-01
1.712647397393115556e-01
1.606889920478658529e-01
1.314674304283176554e-01
8.728481618544361997e-02
3.321187583753405781e-02
-2.491143500464833294e-02
-8.106770848430631948e-02
-1.295777281285457327e-01
-1.655275991813583425e-01
-1.851327243953734270e-01
-1.860662007054235956e-01
-1.677341646396558472e-01
-1.314274062064679227e-01
-8.027435309979659428e-02
-1.897851188232557718e-02
4.660428451235863745e-02
1.099666834725076536e-01
1.644780655629612398e-01
2.039397832176058634e-01
2.231873817184144571e-01
2.187346511814751149e-01
1.894019084871922665e-01
1.368178891939794695e-01
6.564881971549964279e-02
-1.659484045441297906e-02
-1.002723242169344942e-01
-1.748295014281305848e-01
-2.303483387686188211e-01
-2.591317995124877704e-01
-2.569847243814746274e-01
-2.239094005116371577e-01
-1.640690873302159125e-01
-8.504341349909269598e-02
3.435988163783987304e-03
9.096833354705363694e-02
1.678637063857343348e-01
2.261830353251796377e-01
2.603495905242360076e-01
2.673830342185539721e-01
2.468783882408986941e-01
2.008488861733264685e-01
1.335070377772273331e-01
5.100408638998468747e-02
-3.890443210633937055e-02
-1.273400568916194797e-01
-2.050057636648893178e-01
-2.631323597337820730e-01
-2.945818686198569125e-01
-2.949203447384904919e-01
-2.632237823345568994e-01
-2.024104864055979447e-01
-1.189909829170489597e-01
-2.225876258624557430e-02
7.692815787077600387e-02
1.675410345394963973e-01
2.397033985340233653e-01
2.857607152284353247e-01
3.010171288187948324e-01
2.841400877853608176e-01
2.372542800660960571e-01
1.657262800926593005e-01
7.762952528212536951e-02
-1.709786985352240371e-02
-1.077457583387581297e-01
-1.840752505813147977e-01
-2.375727749109614040e-01
-2.625341627266074562e-01
-2.567788450908078390e-01
-2.218389592538118626e-01
-1.625899297057015191e-01
-8.643904868933818819e-02
-2.285655722646617177e-03
8.053353408396962676e-02
1.531718395402119348e-01
2.080158125450184414e-01
2.392513739177173915e-01
2.432963127660618674e-01
2.191440000066626759e-01
1.686200257801512559e-01
9.648133629264105116e-02
1.023506041406799585e-02
-8.043294013966666156e-02
-1.646509625007124833e-01
-2.317014935021316779e-01
-2.725376604655513901e-01
-2.812265865857392910e-01
-2.560179596462560658e-01
-1.997524791103322817e-01
-1.194561408900084443e-01
-2.519343615124652880e-02
7.152734195283728946e-02
1.594050252848379368e-01
2.287210539446386526e-01
2.722673587997221367e-01
2.858184059524163656e-01
2.682446389018451338e-01
2.213995129853777721e-01
1.498888037783236704e-01
6.076319648131892071e-02
-3.691035412990033293e-02
-1.326975956083008834e-01
-2.157435456845812061e-01
-2.759947840737316249e-01
-3.055483083965752078e-01
-2.998832106097809591e-01
-2.587047975706207037e-01
-1.861798533059451366e-01
-9.046234149627947752e-02
1.741980096984565435e-02
1.250796285695903731e-01
2.203658865233717457e-01
2.927555518508751509e-01
3.343947678900577314e-01
3.407746038433392965e-01
3.110919521237303642e-01
2.483303466514831803e-01
1.590494097811002983e-01
5.284332678240739184e-02
-5.856572154617371156e-02
-1.625929666081684100e-01
-2.473305175275166135e-01
-3.031682022354939554e-01
-3.242075134100456113e-01
-3.091571839613834749e-01
-2.614826840519581252e-01
-1.887511200142854562e-01
-1.013049112144338432e-01
-1.055040255999547399e-02
7.277511879200355971e-02
1.400085201577146443e-01
1.853968124011862173e-01
2.063036089267568929e-01
2.029159411666882629e-01
1.776952660564570241e-01
1.348048575130803284e-01
7.963807097785832734e-02
1.844727853491670566e-02
-4.200805006632961358e-02
-9.490001428771045744e-02
-1.339362058663264021e-01
-1.541282013940681594e-01
-1.526066126150182334e-01
-1.292627687652316004e-01
-8.698307228570162364e-02
-3.134517359729392660e-02
3.018532014197047170e-02
8.937587231045412972e-02
1.384269213615655081e-01
1.710336068639013996e-01
1.831540398522902846e-01
1.734038380300985949e-01
1.430739551484654370e-01
9.583304461509509209e-02
3.720554379663696537e-02
-2.609220296413156115e-02
-8.689962690041153071e-02
-1.383944180549783465e-01
-1.748483668072692565e-01
-1.922791314009051344e-01
-1.889169047176071370e-01
-1.654135660349358994e-01
-1.247414888530901100e-01
-7.177086467613848220e-02
-1.258520628768153640e-02
4.632904879141738763e-02
9.884964935189022306e-02
1.398129123481893776e-01
1.653954370893185588e-01
1.733218607763905017e-01
1.629604186987390624e-01
1.353423857579234835e-01
9.310714448094460638e-02
4.035709764212192657e-02
-1.760090463530422644e-02
-7.465804806248618752e-02
-1.244725959540517179e-01
-1.611851673277609198e-01
-1.801909402525375958e-01
-1.788245297461488192e-01
-1.568082070559966845e-01
-1.163611063625810960e-01
-6.194106161963917889e-02
3.333264775029695648e-04
6.346896680040231553e-02
1.204451869329911939e-01
1.649841329430175307e-01
1.921651178576563035e-01
1.988725744254833394e-01
1.840997282108858268e-01
1.491098608016449556e-01
9.741715851592802622e-02
3.453592666838506409e-02
-3.252710728910946508e-02
-9.601980591015515931e-02
-1.483725268169921452e-01
-1.832055268578573759e-01
-1.962638724058265727e-01
-1.860917051109265974e-01
-1.542777813893489725e-01
-1.051987039314914163e-01
-4.531983210466127010e-02
1.777909035812413885e-02
7.644826728337793253e-02
1.239022066651891685e-01
1.549244438126523571e-01
1.662960472041328241e-01
1.569718306103498051e-01
1.280725919254243617e-01
8.275635160578651006e-02
2.598220541758138047e-02
-3.586945148945681200e-02
-9.556050169042878961e-02
-1.457355705136652857e-01
-1.797716394720877964e-01
-1.926298817406259523e-01
-1.815866980577858225e-01
-1.467154638855958093e-01
-9.100571885830599506e-02
-2.006775441057079279e-02
5.852734765732553468e-02
1.361320003713104576e-01
2.039684460660655396e-01
2.540242070720819534e-01
2.798523973562161427e-01
2.772650732133017382e-01
2.448918915401176177e-01
1.845401935594410681e-01
1.012673325849941519e-01
3.075656529514997350e-03
-9.982577138736221933e-02
-1.961702076486697977e-01
-2.750581507979630302e-01
-3.274249679521717415e-01
-3.472879625190522512e-01
-3.325576196507658011e-01
-2.852827026895132234e-01
-2.112798590787491326e-01
-1.191819494052280271e-01
-1.905673007884481351e-02
7.911416102987128829e-02
1.667265983558554876e-01
2.373091795912012358e-01
2.866423818825640235e-01
3.123948371185373829e-01
3.135974690003641152e-01
2.902814892176933115e-01
2.434673846628136740e-01
1.754905170441781737e-01
9.047111315461603409e-02
-5.357480558119437353e-03
-1.037284648337132853e-01
-1.949699645645811552e-01
-2.691436347160631182e-01
-3.174911141996252240e-01
-3.338835618086404833e-01
-3.159409290913508528e-01
-2.655367127336670241e-01
-1.885400309244203987e-01
-9.385431634207974660e-02
7.982289864425479164e-03
1.062664990839173873e-01
1.913522927510681870e-01
2.554729772954750233e-01
2.931839850150964599e-01
3.015479148042148339e-01
2.801916520918845133e-01
2.313135318194399492e-01
1.596433323987165864e-01
7.228301049634885955e-02
-2.169386563921452127e-02
-1.119964746107688369e-01
-1.882471806600808373e-01
-2.413654336202696316e-01
-2.649517179618294804e-01
-2.563638474610823725e-01
-2.172168348538814908e-01
-1.531529708358961850e-01
-7.289806596241928116e-02
1.319181490157958492e-02
9.474596360035779374e-02
1.627828287638227733e-01
2.106376831143476069e-01
2.343417216703886363e-01
2.325568982385795569e-01
2.062593734354352670e-01
1.583571281639983841e-01
9.336240860656830343e-02
1.715284108868865565e-02
-6.323708678462985899e-02
-1.399262819167024496e-01
-2.047417761739734332e-01
-2.500770994903200872e-01
-2.699629787703711759e-01
-2.611191813305945297e-01
-2.236989654230512325e-01
-1.614867296542761288e-01
-8.144471109532228081e-02
7.316730385568837730e-03
9.490478874046853752e-02
1.720161042508113747e-01
2.310178858716677164e-01
2.665854159277468716e-01
2.759214685471806372e-01
2.586980521667897048e-01
2.168674829391914194e-01
1.544236944210270468e-01
7.712334910530575793e-02
-7.865167520516441746e-03
-9.243412466518245718e-02
-1.681796874771081529e-01
-2.272332490948305583e-01
-2.632192310046376216e-01
-2.721771874713214689e-01
-2.532248453278480582e-01
-2.087655783933858866e-01
-1.441543565807021643e-01
-6.688153742578670236e-02
1.454087662910273984e-02
9.173792198603114567e-02
1.574323745210390590e-01
2.060545193930857222e-01
2.339881611317072840e-01
2.395639403623425756e-01
2.229526199589588198e-01
1.860583420259479537e-01
1.324189569105036768e-01
6.705610861575066195e-02
-3.794336314155766221e-03
-7.312215595239310306e-02
-1.337732279959427673e-01
-1.792423702154178899e-01
-2.045280072800352844e-01
-2.068784759144043639e-01
-1.862420168174430402e-01
-1.452945824135802588e-01
-8.903713334777207944e-02
-2.406749403844810065e-02
4.230559640961745194e-02
1.029347023076228607e-01
1.515603825252879178e-01
1.833277150576923531e-01
1.951021088537639725e-01
1.856426667389710072e-01
1.556885545518991998e-01
1.079667215707526273e-01
4.707795240583739771e-02
-2.079903638604435612e-02
-8.842257026723193691e-02
-1.482152497616670561e-01
-1.931478038386325036e-01
-2.176697685978895569e-01
-2.185231806157619805e-01
-1.952553018802339890e-01
-1.503002576459472051e-01
-8.862186646836608950e-02
-1.703406128035706013e-02
5.663212553307328534e-02
1.243760036754033016e-01
1.788111343473220982e-01
2.138503577500593389e-01
2.252758856141750532e-01
2.111891431063007696e-01
1.723321716690834338e-01
1.122409366962044963e-01
3.714440583630444770e-02
-4.449248066300703908e-02
-1.228328469226219188e-01
-1.878833432096740919e-01
-2.308928811661868363e-01
-2.456935393113304222e-01
-2.297251258414497732e-01
-1.845224847661940393e-01
-1.155406458462568675e-01
-3.134105160510505805e-02
5.768192495733484582e-02
1.407606503570870415e-01
2.081336864594767744e-01
2.521620092779164324e-01
2.680949586030820786e-01
2.544629603233330428e-01
2.131074128637622800e-01
1.488825825008123493e-01
6.908568796915413868e-02
-1.732199487329790649e-02
-1.006490790043960970e-01
-1.715117312966075724e-01
-2.218989851817634862e-01
-2.461462538469780525e-01
-2.416699311552828466e-01
-2.093306281952904135e-01
-1.533472602856037204e-01
-8.076019899453626416e-02
-5.231923355963619127e-04
7.762579373080483180e-02
1.443314666165361748e-01
1.916662813241860053e-01
2.139606951374274368e-01
2.083888385289360268e-01
1.753009050631097465e-01
1.182765183403826637e-01
4.385695113103015019e-02
-3.907040213303128451e-02
-1.202175032638450047e-01
-1.891015035655108922e-01
-2.363908523014719432e-01
-2.552169242414349948e-01
-2.422282976469112836e-01
-1.981647898802411101e-01
-1.278131075241773773e-01
-3.935621066961252079e-02
5.673023833808403527e-02
1.490155849038974911e-01
2.264824201047588303e-01
2.797738584260818229e-01
3.022196092845260140e-01
2.905811239253878187e-01
2.454836907865009521e-01
1.715076035725363046e-01
7.689008254099705120e-02
-2.722579387806223217e-02
-1.280229734765537253e-01
-2.126462069182920023e-01
-2.700283100581978846e-01
-2.925915477593301062e-01
-2.774888568887740048e-01
-2.271191200439247049e-01
-1.487901630876071191e-01
-5.358273178423583749e-02
4.535440026020876036e-02
1.347326701804288374e-01
2.029245493380825160e-01
2.413865023803444254e-01
2.455930791368753918e-01
2.154704465973170113e-01
1.553478765850275223e-01
7.344027856036804136e-02
-1.911733574617856951e-02
-1.096251569430683886e-01
-1.854524679200693638e-01
-2.357813905932567011e-01
-2.532276333551019554e-01
-2.350498585899744308e-01
-1.836639873995919159e-01
-1.062938347185435894e-01
-1.379872185341587953e-02
8.106958554800461347e-02
1.656110110701841664e-01
2.289599404301875252e-01
2.634394872829440848e-01
2.653506555536250255e-01
2.351866003884927614e-01
1.773541449535063763e-01
9.951515496853374776e-02
1.163126513929415955e-02
-7.524324118511005466e-02
-1.503586781400437777e-01
-2.047099362778849740e-01
-2.322804790926142338e-01
-2.308371301620480986e-01
-2.021086343230478755e-01
-1.513220179559062739e-01
-8.620899049196575903e-02
-1.570351829847240616e-02
5.138482223776186242e-02
1.074517301444488648e-01
1.467758243782558147e-01
1.658046573345391961e-01
1.631935151767018310e-01
1.397624577371721077e-01
9.844784229700589973e-02
4.419864179027484241e-02
-1.630884151666849372e-02
-7.525152709534246864e-02
-1.245636053036712210e-01
-1.570760586713762508e-01
-1.676935048007863194e-01
-1.543405712181889211e-01
-1.184210410712004946e-01
-6.464656036679013174e-02
-2.723901388231638604e-04
6.606174366268867393e-02
1.256213616100290975e-01
1.707639967835520856e-01
1.958652501089340192e-01
1.979019904638286420e-01
1.766754607841694302e-01
1.347103259173448309e-01
7.689364272923152055e-02
9.910374470734825691e-03
-5.848996077541729344e-02
-1.203578914113623555e-01
-1.684610163862827747e-01
-1.971290289146933605e-01
-2.028966157140116300e-01
-1.848581321078777984e-01
-1.447181347288997166e-01
-8.658869199631707980e-02
-1.662192325226496958e-02
5.744954760915166325e-02
1.268652106592593198e-01
1.825727920251037362e-01
2.162591415385460569e-01
2.216725525445898681e-01
1.960124763459718533e-01
1.409731146138208380e-01
6.301834747584719731e-02
-2.732855030588432488e-02
-1.170877464460254314e-01
-1.929743594068732970e-01
-2.436451986945983583e-01
-2.615979501998962897e-01
-2.443633538749780953e-01
-1.947765571185793299e-01
-1.203183635720897204e-01
-3.172899897366165956e-02
5.876774499404205376e-02
1.392780901790280912e-01
1.998143177396272951e-01
2.334609228822367710e-01
2.370481123864720541e-01
2.113215583758410732e-01
1.606531992825299682e-01
9.237033317880426198e-02
1.578621513176012292e-02
-5.898562166125786987e-02
-1.223300883820945262e-01
-1.663929543441509951e-01
-1.861192386908262497e-01
-1.798873436335653164e-01
-1.496222376850955826e-01
-1.003711943587598243e-01
-3.943280451578648482e-02
2.478212219239475655e-02
8.393428943947511822e-02
1.307789411211315866e-01
1.599033997773469107e-01
1.681603384817678681e-01
1.548513852621375697e-01
1.217212118203782334e-01
7.277805427112479797e-02
1.391630919508046738e-02
-4.767990431226104553e-02
-1.043314456405532442e-01
-1.487872729792221183e-01
-1.751684835788213102e-01
-1.797969430107611566e-01
-1.617569627993167281e-01
-1.230637443960661825e-01
-6.839560014604367799e-02
-4.458119069614047136e-03
6.087664397341774336e-02
1.195112062382935880e-01
1.640443623232808457e-01
1.886110294674839261e-01
1.895833114840499434e-01
1.660697159019565994e-01
1.201537082666284117e-01
5.682347501731334349e-02
-1.644871497459987619e-02
-9.050263501687119683e-02
-1.556301537903697074e-01
-2.029281036316973319e-01
-2.256352607053297987e-01
-2.201879642440206231e-01
-1.867759126594149555e-01
-1.292879274902737907e-01
-5.467007523462973084e-02
2.815307584897015769e-02
1.095483802132454776e-01
1.803663572944700921e-01
2.328585376679162544e-01
2.612616126610317613e-01
2.621203465236334740e-01
2.344721872741200308e-01
1.799779215411988487e-01
1.030014689983097947e-01
1.056979411210903080e-02
-8.789878881398652255e-02
-1.812212075109052856e-01
-2.575221699446661461e-01
-3.057462814997635725e-01
-3.174469715161251093e-01
-2.885290015598931945e-01
-2.205306397158606768e-01
-1.210541564912719775e-01
-3.089453727519175796e-03
1.167952165031120870e-01
2.211341512012275634e-01
2.945823456551170949e-01
3.265903759682557972e-01
3.131280984238630216e-01
2.571272042235938082e-01
1.676658777063232686e-01
5.819561328151173774e-02
-5.575626464919553049e-02
-1.589607346411276989e-01
-2.385520763612128947e-01
-2.855146023113195319e-01
-2.954726331219745816e-01
-2.688049472536069295e-01
-2.101889097532416706e-01
-1.277072313465646425e-01
-3.166382007686838890e-02
6.671736628956881354e-02
1.565202844852947306e-01
2.281423326941038887e-01
2.740286320247933283e-01
2.891880798822519805e-01
2.715793185517085817e-01
2.224056749201188121e-01
1.462676577356021024e-01
5.105136666978181414e-02
-5.258265931036212870e-02
-1.521991358634333935e-01
-2.350659622558330941e-01
-2.899590512635391581e-01
-3.089922331674079259e-01
-2.890737099463197568e-01
-2.326124108749802744e-01
-1.472543091006179861e-01
-4.466858582008247092e-02
6.136141029827988508e-02
1.571318536769890084e-01
2.310471822595107916e-01
2.751143088662793557e-01
2.857029109847068482e-01
2.635697964835621576e-01
2.132927868169277041e-01
1.423144747760465012e-01
5.977937639991799668e-02
-2.468561351861720682e-02
-1.021140067592364586e-01
-1.651412894368259332e-01
-2.086480682593000457e-01
-2.300550358422845387e-01
-2.292653170789895056e-01
-2.082853125953147977e-01
-1.706049747677524930e-01
-1.204951805339889437e-01
-6.243728907083656576e-02
-8.610896661634392935e-04
5.978929663272353201e-02
1.148379465992592774e-01
1.592949513931388728e-01
1.881492382720119094e-01
1.970999240569705768e-01
1.835769096716872162e-01
1.477421140485198903e-01
9.311224533699880013e-02
2.652077869353081097e-02
-4.268096831917811418e-02
-1.040601095339666604e-01
-1.478714416565221623e-01
-1.667789668206806630e-01
-1.571842525568067916e-01
-1.199241717771954430e-01
-6.023494288651512485e-02
1.298723957572892052e-02
8.848284226933211816e-02
1.542611854945640792e-01
1.993308123964600553e-01
2.153223925660768256e-01
1.978318776586212024e-01
1.473132352709741189e-01
6.934086941664524550e-02
-2.590129943406502266e-02
-1.249325589908130141e-01
-2.129544614368518163e-01
-2.762071660099007508e-01
-3.043097469248906561e-01
-2.921445745192019494e-01
-2.408707892589219690e-01
-1.577834041468207382e-01
-5.498740502371418648e-02
5.282899692333054009e-02
1.509879256355702859e-01
2.271780641311739735e-01
2.730995925306206606e-01
2.851765879746356314e-01
2.643814333529033167e-01
2.154127829821048112e-01
1.455557227134151310e-01
6.352390552770931231e-02
-2.153235061711422649e-02
-1.008093356029068632e-01
-1.664799314423608956e-01
-2.122454348833046900e-01
-2.338418531810807777e-01
-2.294684954119632914e-01
-2.000511297404806155e-01
-1.492270144877870242e-01
-8.296596514844954695e-02
-8.829578366455023697e-03
6.500894335555604253e-02
1.307744606131276410e-01
1.819212919326291811e-01
2.136700447245119538e-01
2.232554002872798593e-01
2.099723013518793313e-01
1.751193359779642245e-01
1.218971778393785482e-01
5.526377428744486120e-02
-1.829943418727508764e-02
-9.118567800238958077e-02
-1.552993782334134987e-01
-2.029512959277203210e-01
-2.279266665127365754e-01
-2.265276950534702016e-01
-1.983386076915772678e-01
-1.465025979452849458e-01
-7.741304282188685160e-02
1.443550064165605162e-04
7.624480272644848511e-02
1.412395032679912010e-01
1.870747161609817855e-01
2.083030311478940022e-01
2.026770467466694481e-01
1.713199403580516478e-01
1.185203289239646213e-01
5.119736295789791003e-02
-2.192801867305158026e-02
-9.139921141037748997e-02
-1.482254421044896797e-01
-1.850747535630257457e-01
-1.972902168603509199e-01
-1.835543616282467871e-01
-1.460508133584271229e-01
-9.005347760780502142e-02
-2.301392538572151134e-02
4.663766554551738996e-02
1.106956593721472037e-01
1.621515516328210782e-01
1.958216546707004513e-01
2.086328432149908707e-01
1.996406535629050016e-01
1.698819467250700654e-01
1.221612584681411595e-01
6.083351527276258802e-02
-8.423294958978297386e-03
-7.892223118979704855e-02
-1.434646318519137154e-01
-1.950592850123154254e-01
-2.277970793393970239e-01
-2.377219953051414869e-01
-2.234991636471443388e-01
-1.866984837619389270e-01
-1.315844549811897579e-01
-6.442620863079545623e-02
7.512079500513052510e-03
7.703624182386720198e-02
1.378796440134061607e-01
1.852005824373379461e-01
2.157219643271983678e-01
2.276328741153397783e-01
2.204089810847837949e-01
1.946775894102422411e-01
1.521885388847771525e-01
9.588035478964197778e-02
2.996407126532116272e-02
-4.009968885871600941e-02
-1.078553120845334445e-01
-1.664031125462139271e-01
-2.092121204370189780e-01
-2.310664504784462614e-01
-2.289568839854262960e-01
-2.027086599215624507e-01
-1.551637962696473805e-01
-9.182890108053944067e-02
-2.004854636027621206e-02
5.209106636771851373e-02
1.168617766589862828e-01
1.677800901020446434e-01
2.001805087205906220e-01
2.114832658185101799e-01
2.012217263059589145e-01
1.709074239603718126e-01
1.238008800313966928e-01
6.463180544231536540e-02
-7.290381539811208178e-04
-6.568728960011205320e-02
-1.234824516771690917e-01
-1.678905445718541500e-01
-1.939975295750122619e-01
-1.989020755355199732e-01
-1.821838015236133257e-01
-1.460012000156650780e-01
-9.475894077475088828e-02
-3.439836904583066374e-02
2.851528143853978778e-02
8.766879929758958356e-02
1.376333133359307070e-01
1.741710886141675796e-01
1.942826921494203440e-01
1.961500222605673804e-01
1.791257158605807920e-01
1.438441660536385336e-01
9.243311051909336440e-02
2.872223616890340336e-02
-4.170573560428374182e-02
-1.117767266181102087e-01
-1.735876023909078414e-01
-2.194293702304785376e-01
-2.429903654230974874e-01
-2.404667980853574250e-01
-2.113061206820254778e-01
-1.583942377375782140e-01
-8.763698129252261992e-02
-7.036979860773950879e-03
7.451206647737934619e-02
1.484389347131481462e-01
2.074798377244920222e-01
2.463115377989670285e-01
2.618373521434477214e-01
2.532087366771638703e-01
2.216751291110455879e-01
1.703309435698250052e-01
1.038078742713072627e-01
2.794306450748663961e-02
-5.057869292531580463e-02
-1.246510563647820480e-01
-1.872952187584024375e-01
-2.323438109321044331e-01
-2.551891867519987533e-01
-2.534512184453152073e-01
-2.273934133445930095e-01
-1.799508149418044822e-01
-1.163209131143259495e-01
-4.318902791254486395e-02
3.222468712552539749e-02
1.030508773864449168e-01
1.633843530893865359e-01
2.085524884587402483e-01
2.351201297402277235e-01
2.408035194143039459e-01
2.244577161514248742e-01
1.862254336709223690e-01
1.278418543369573002e-01
5.300396250957192107e-02
-3.236309889827743147e-02
-1.201547279572883209e-01
-2.006308250235763480e-01
-2.635073217253501854e-01
-2.994671289891572830e-01
-3.018082398404455247e-01
-2.678756117942535653e-01
-1.999464594249180105e-01
-1.053371329761507436e-01
4.353709743185746328e-03
1.147853983355902052e-01
2.109668949591400611e-01
2.795627540237500264e-01
3.110357528381870740e-01
3.012644973135516491e-01
2.523337801211733566e-01
1.723053367997995911e-01
7.395096016532370919e-02
-2.735389230392246129e-02
-1.161911457975466633e-01
-1.796431194275104892e-01
-2.093683725978364440e-01
-2.028583203680645597e-01
-1.636548963234301102e-01
-1.004714793908056958e-01
-2.536250361739600390e-02
4.868725735898959961e-02
1.102106477834974563e-01
1.511740326226001241e-01
1.679449506573708062e-01
1.611729531191676834e-01
1.347475707598833061e-01
9.423771303967642954e-02
4.533515004337207444e-02
-7.220176590852167564e-03
-5.996686501798575986e-02
-1.103437453097421694e-01
-1.559262910515376022e-01
-1.937239052615165325e-01
-2.199229885885461977e-01
-2.302599031847671895e-01
-2.209536472151976128e-01
-1.899025934092766765e-01
-1.377240951560686488e-01
-6.824445808967816163e-02
1.176812628170029185e-02
9.357201547705686073e-02
1.678481860095554778e-01
2.261630915568305644e-01
2.621812048607689016e-01
2.724244344827465580e-01
2.565040916019860062e-01
2.168719770308740746e-01
1.582381341930214624e-01
8.685322923590972632e-02
9.823409435778168719e-03
-6.547196517014536310e-02
-1.318912449762237871e-01
-1.830431764955184337e-01
-2.138416587403469959e-01
-2.210719811800293533e-01
-2.038746266561452525e-01
-1.640252156306230280e-01
-1.059074879261190927e-01
-3.613486607435423270e-02
3.714609425823173217e-02
1.051722755343789117e-01
1.595775709700115452e-01
1.933954620153078563e-01
2.019667020330234708e-01
1.836672269588254247e-01
1.403444458213034818e-01
7.733407855925614194e-02
2.963695969217361448e-03
-7.246393702986353436e-02
-1.381060058483072339e-01
-1.842330722739573268e-01
-2.038262438338412919e-01
-1.938072346266940249e-01
-1.556226247852084688e-01
-9.502936877155329642e-02
-2.112456642364747561e-02
5.515134434033648614e-02
1.227161300068049243e-01
1.719511529677873185e-01
1.959942607025935146e-01
1.915900530554736636e-01
1.594330097265548862e-01
1.039942103616189328e-01
3.287423823930803179e-02
-4.423313136982008620e-02
-1.168506823033081954e-01
-1.751518054015597792e-01
-2.113267829375329865e-01
-2.206576923132410606e-01
-2.020990060268597066e-01
-1.582560064394815114e-01
-9.479673797020982118e-02
-1.946649892361733414e-02
5.905313461957953369e-02
1.322030949757604934e-01
1.923591066742898481e-01
2.333530430013690538e-01
2.507835900577933819e-01
2.422641276640396524e-01
2.077180485804944743e-01
1.497025738078308632e-01
7.360254716409486697e-02
-1.252445810817143235e-02
-9.861642906700884836e-02
-1.738144471144308367e-01
-2.280683262782707832e-01
-2.538546038079357858e-01
-2.476341659204610302e-01
-2.106761806556979866e-01
-1.489849029256781754e-01
-7.227974866933384313e-02
7.768120240205678151e-03
7.964461929742705504e-02
1.339752500662311219e-01
1.649607612247552257e-01
1.709955014702760345e-01
1.544114615705233229e-01
1.205108716672625424e-01
7.620238006000061570e-02
2.859038989249584883e-02
-1.620377560579516762e-02
-5.382213612912756240e-02
-8.197693510177622711e-02
-1.002729512825673575e-01
-1.096032514544122982e-01
-1.112716484648640924e-01
-1.060912863053355415e-01
-9.375828000173702659e-02
-7.277040432678458237e-02
-4.104318916525018929e-02
2.830663871143473953e-03
5.800202183030178649e-02
1.200365525565137703e-01
1.804945297099466439e-01
2.278947923519215046e-01
2.500912632348400444e-01
2.375290969276761255e-01
1.864080869036777721e-01
1.006744717582701287e-01
-7.931672081565976917e-03
-1.219315878257908881e-01
-2.217457499128604459e-01
-2.899152754059026726e-01
-3.147804369495551535e-01
-2.927170525924133737e-01
-2.284957424505759671e-01
-1.338562958323832319e-01
-2.481624548790098764e-02
8.154016646970729809e-02
1.700405931070494425e-01
2.295994474606642133e-01
2.543152188051575058e-01
2.435331084912559507e-01
2.011460440242273662e-01
1.344826771903451512e-01
5.306281842725739384e-02
-3.262729111574627638e-02
-1.122817199595559090e-01
-1.768109532092243530e-01
-2.192212201490468249e-01
-2.352778399254307762e-01
-2.238889818239601093e-01
-1.871446801198124454e-01
-1.299617626910763990e-01
-5.934674731013167559e-02
1.660668734643075406e-02
8.977715986534692827e-02
1.529125680048742386e-01
2.002290074188122493e-01
2.277005055772036990e-01
2.331245254123822941e-01
2.160825940317328830e-01
1.778930589802200368e-01
1.215936103331908824e-01
5.191652532919621699e-02
-2.484372202925475004e-02
-1.011893256392814161e-01
-1.690727848311592008e-01
-2.208067894904454376e-01
-2.500823920978427761e-01
-2.528911517864104175e-01
-2.281597223216111914e-01
-1.779683988352418478e-01
-1.073164969805303764e-01
-2.349908472100523116e-02
6.475882195751880843e-02
1.482419070125665650e-01
2.181386416700160924e-01
2.668522486953081030e-01
2.887388042405989452e-01
2.807628265182180449e-01
2.430010776190827393e-01
1.788813966475708561e-01
9.504572063462839171e-02
7.695070890168104194e-04
-9.306016222011156969e-02
-1.753133089918754162e-01
-2.361372137534300253e-01
-2.683626000323418581e-01
-2.685356772698117567e-01
-2.374013648107199947e-01
-1.797829762687421229e-01
-1.039022256842072889e-01
-2.024349618434327647e-02
5.988908028426850882e-02
1.259245361656105566e-01
1.694559861697166880e-01
1.853339048923635657e-01
1.722805627757278968e-01
1.329766725224814650e-01
7.363746495916799473e-02
3.135932741773178600e-03
-6.822326050885901827e-02
-1.301172767149479381e-01
-1.736052244638149888e-01
-1.923234146969732272e-01
-1.833268074764413669e-01
-1.474682169556366662e-01
-8.924325158603163555e-02
-1.609594741242947880e-02
6.270747384999088292e-02
1.374158406786636921e-01
1.990764353434704148e-01
2.405529637791485043e-01
2.571783244666815404e-01
2.470498277347215887e-01
2.110394301791440885e-01
1.526083729736735783e-01
7.749117033690222645e-02
-6.740425606965340377e-03
-9.127915112315132529e-02
-1.669081298588141193e-01
-2.250476065389060976e-01
-2.589035463778722179e-01
-2.644973259534959542e-01
-2.413309337417853806e-01
-1.925085062406790559e-01
-1.242617405803216057e-01
-4.497036739272217837e-02
3.610791935342848313e-02
1.101159368187460408e-01
1.696214517566236313e-01
2.092374168833938675e-01
2.258464082917494564e-01
2.185606781056787518e-01
1.885759685478259340e-01
1.390139415748820051e-01
7.475561545336306679e-02
2.203939440222832391e-03
-7.110734700391083130e-02
-1.371279421141243238e-01
-1.881479000289709158e-01
-2.178242844374443932e-01
-2.221938256554785718e-01
-2.004220306687012898e-01
-1.550739478716842978e-01
-9.181924697558363491e-02
-1.863465366142770183e-02
5.532834031657160589e-02
1.210001813707305696e-01
1.705674232144309688e-01
1.983977889276886120e-01
2.016245876878027254e-01
1.803826915547302456e-01
1.377357244834735983e-01
7.932639047959832990e-02
1.275302934284008871e-02
-5.331971587869110962e-02
-1.102521616008019512e-01
-1.505865672452645354e-01
-1.690914429365460714e-01
-1.635180036719668384e-01
-1.349322627561428123e-01
-8.755341174160972961e-02
-2.812239754444986750e-02
3.507599566494878918e-02
9.335023720301596772e-02
1.387145172812848104e-01
1.648521329422692749e-01
1.678694510934038153e-01
1.468046981782200888e-01
1.038435766037431041e-01
4.418411700364505146e-02
-2.448454647796335926e-02
-9.287739710743922461e-02
-1.513171204726887487e-01
-1.911203945482232713e-01
-2.059674883176052795e-01
-1.929927353868258200e-01
-1.533379997726846966e-01
-9.201950228784715191e-02
-1.713673671967643614e-02
6.138566666369526387e-02
1.332547716033409546e-01
1.892069772371590686e-01
2.221489367491582545e-01
2.279244132325914385e-01
2.056764745680010331e-01
1.578466960820923970e-01
8.988053901489795328e-02
9.683495659296131874e-03
-7.316827336654802005e-02
-1.484629183908309225e-01
-2.065783975317542209e-01
-2.397589995720630918e-01
-2.432424719403682989e-01
-2.160309414604761613e-01
-1.611450424638170287e-01
-8.528663764158285476e-02
2.050203062497814657e-03
8.986252452400909918e-02
1.670832927187148598e-01
2.239595966860055409e-01
2.532083693141822245e-01
2.508714483781352422e-01
2.168225776939384231e-01
1.548724053747279061e-01
7.242375114475210762e-02
-2.032589367897597032e-02
-1.115751098147353959e-01
-1.893905021281666601e-01
-2.433039314608634318e-01
-2.658278089735008343e-01
-2.536338011814431304e-01
-2.081445108822942425e-01
-1.353839962420285981e-01
-4.510229124160303193e-02
5.064486991232906854e-02
1.391894300235411719e-01
2.089450589150238513e-01
2.508823576353683138e-01
2.596322075374307703e-01
2.341264917085879582e-01
1.777375861106555432e-01
9.791242214158070445e-02
5.313452560994169280e-03
-8.749796412219133790e-02
-1.677361932973852887e-01
-2.242201371992462999e-01
-2.490597919436694507e-01
-2.388841441143544075e-01
-1.953653987146185544e-01
-1.249310310018286602e-01
-3.771778740611263919e-02
5.402453052809952361e-02
1.377643220722244155e-01
2.024161903190868639e-01
2.397023237083206748e-01
2.450213574605775158e-01
2.178254792858272115e-01
1.615652921839889899e-01
8.325630558182860186e-02
-7.301326263008195427e-03
-9.861784403056592097e-02
-1.788631488453943374e-01
-2.373629603602616100e-01
-2.660743964527713668e-01
-2.608097493001853007e-01
-2.219488698115841818e-01
-1.544429238466016319e-01
-6.707615862661403527e-02
2.885294584058285816e-02
1.211457994121312165e-01
1.983191173405119967e-01
2.509986514894447240e-01
2.729566822246642377e-01
2.617295300305741979e-01
2.188023370122375022e-01
1.493853610037146062e-01
6.182508271499230490e-02
-3.330810717556076384e-02
-1.244147823312813650e-01
-2.002684760419637389e-01
-2.514744075826419456e-01
-2.717622763286079435e-01
-2.588742086308576384e-01
-2.148657837072299737e-01
-1.457459998763008246e-01
-6.051009899042038287e-02
3.025622184487890276e-02
1.159277222491227610e-01
1.872420351690352036e-01
2.373090069650401479e-01
2.621142689540366666e-01
2.605488445458938873e-01
2.340895388619295692e-01
1.862782365779719618e-01
1.221321199678343794e-01
4.759036246234349399e-02
-3.093699506387226350e-02
-1.069144846408564553e-01
-1.739801169374893819e-01
-2.262779710063164140e-01
-2.588681418531897926e-01
-2.681947732483468405e-01
-2.525508294039351398e-01
-2.124727764389192919e-01
-1.510023565804484158e-01
-7.373467166643660198e-02
1.145657415195677764e-02
9.511224701079196153e-02
1.673037411316459777e-01
2.190342377904090643e-01
2.436663300506464180e-01
2.380752371585664884e-01
2.032770630552541147e-01
1.443953313915504744e-01
6.996324802314174418e-02
-9.322630060371067673e-03
-8.219966325186378597e-02
-1.385440292426251552e-01
-1.709172662882426086e-01
-1.756859551905314842e-01
-1.534888128962113019e-01
-1.089445685930601482e-01
-4.967783433736502885e-02
1.508371782558054486e-02
7.600584917058927914e-02
1.249441500957100826e-01
1.558629976687260221e-01
1.653220152919883112e-01
1.525695120600656374e-01
1.193470542464818429e-01
6.953564744539436626e-02
8.743021078494922493e-03
-5.615079670760699665e-02
-1.175544465874912015e-01
-1.679125014579779529e-01
-2.006421652679446777e-01
-2.111381299442346704e-01
-1.976277713227774790e-01
-1.616385919790258030e-01
-1.078976452603253311e-01
-4.360005566655984766e-02
2.285867965540634705e-02
8.342842029551164607e-02
1.318609536123105108e-01
1.647131631005967767e-01
1.816554396913863112e-01
1.850346756120443970e-01
1.788260131266765085e-01
1.672405952685192543e-01
1.533317654404806607e-01
1.379620806927502885e-01
1.194417021321035333e-01
9.400626174175574779e-02
5.708763768374192082e-02
5.107155845240685110e-03
-6.264540002875529368e-02
-1.425591450315514819e-01
-2.261651720218005313e-01
-3.008680850752647462e-01
-3.520284252720428109e-01
-3.660984382094178979e-01
-3.341277955754060613e-01
-2.547176337462979667e-01
-1.355299209286250361e-01
7.229912149835648894e-03
1.514354579536265899e-01
2.732881993285564137e-01
3.522446045810405657e-01
3.754227207315774528e-01
3.403612894631607988e-01
2.554178582988764212e-01
1.377357797037780385e-01
9.370289231915851502e-03
-1.073767617758297765e-01
-1.942382097704072885e-01
-2.399256703999124996e-01
-2.412583555846554151e-01
-2.025526377371839049e-01
-1.337828077751104516e-01
-4.819892968478692308e-02
4.000576674770758845e-02
1.176310449084807808e-01
1.739022150237112263e-01
2.014305994228574315e-01
1.967729245741981214e-01
1.606494693429121878e-01
9.785065179172774963e-02
1.682013999452308672e-02
-7.113481120559009274e-02
-1.530528131237952061e-01
-2.159263846229510786e-01
-2.485678584332737528e-01
-2.434700418923161358e-01
-1.983208438969637499e-01
-1.168267947786702510e-01
-8.585442600316878226e-03
1.120779080631274793e-01
2.281622300213649035e-01
3.225733555377643391e-01
3.807667143280521471e-01
3.929926599454396374e-01
3.557854651245463407e-01
2.724680552020833924e-01
1.525948621359998203e-01
1.044170609372468972e-02
-1.371453726717636323e-01
-2.730974034809092732e-01
-3.822446456159017680e-01
-4.529606572005225318e-01
-4.782666304841022842e-01
-4.564217215774055703e-01
-3.909904045118102744e-01
-2.903193978862642632e-01
-1.663880299669948104e-01
-3.314069079200605838e-02
9.541370120209642647e-02
2.069573409064208169e-01
2.921459610970292831e-01
3.452527051620883358e-01
3.642025773256854504e-01
3.501723281632443951e-01
3.069813028125267795e-01
2.404544219312776676e-01
1.578435042419021883e-01
6.730788545723653815e-02
-2.258709177970985582e-02
-1.034033255336853641e-01
-1.674383210372659692e-01
-2.084274645864684361e-01
-2.222992210242367705e-01
-2.078598605426714152e-01
-1.672302918946412253e-01
-1.058756508191293078e-01
-3.214929873362071255e-02
4.363296789528781083e-02
1.105014929371681554e-01
1.583821266492378976e-01
1.796838791839647786e-01
1.706633477775795493e-01
1.322859949585205586e-01
7.035864110649076020e-02
-5.172348622978106825e-03
-8.171126705888287489e-02
-1.460917905196582878e-01
-1.869025560325520141e-01
-1.966136031408780016e-01
-1.730414616757386392e-01
-1.198065694411744736e-01
-4.567117688789829044e-02
3.708195462663773506e-02
1.148595486236058671e-01
1.750948511817252418e-01
2.082743895945770862e-01
2.093232789193333332e-01
1.781738357640581250e-01
1.195156215793115734e-01
4.187185973508887604e-02
-4.377304499043679908e-02
-1.255630994826648916e-01
-1.923762075791070614e-01
-2.352715850876000436e-01
-2.486203351834627984e-01
-2.307835333312455717e-01
-1.842489945228763248e-01
-1.152050696885134201e-01
-3.260859498405980356e-02
5.311087377882061505e-02
1.314924299879644265e-01
1.933803561953639505e-01
2.319486882283953721e-01
2.433165301599212738e-01
2.267753412925768153e-01
1.847116536850435253e-01
1.222969052275638818e-01
4.696965347953860337e-02
-3.229223715269624595e-02
-1.059006534257678211e-01
-1.647436088563941636e-01
-2.013403140082520859e-01
-2.109200352329235195e-01
-1.922225639258028362e-01
-1.478067246797990508e-01
-8.373610357764169065e-02
-8.675673361881991452e-03
6.740289073426955491e-02
1.346320112577632788e-01
1.845288017807656944e-01
2.109850855110242396e-01
2.108904593406328853e-01
1.843722247012418713e-01
1.346791478048847135e-01
6.776393933820240578e-02
-8.376857305669005438e-03
-8.456290926978007882e-02
-1.514544101964114264e-01
-2.006759196523500433e-01
-2.259184461732647309e-01
-2.238538800146702146e-01
-1.946944200280782411e-01
-1.422716914889569084e-01
-7.358070713121342421e-02
2.175744062887556562e-03
7.490367673718857644e-02
1.350690320365742769e-01
1.750273847451976894e-01
1.900239224298660712e-01
1.787489341969874523e-01
1.434193778343149928e-01
8.940856523825951863e-02
2.447993628754454448e-02
-4.227916091398717380e-02
-1.016842619985701412e-01
-1.456765361935739855e-01
-1.683810570317780253e-01
-1.668628588950654412e-01
-1.414732456417303330e-01
-9.572566688871886331e-02
-3.571873433585597002e-02
3.077833938124193564e-02
9.539007623691886373e-02
1.501564619206929574e-01
1.883824902638608356e-01
2.052706260127677429e-01
1.983487681971151106e-01
1.677204836373037689e-01
1.161477537961743411e-01
4.894487949499780333e-02
-2.637249055425716637e-02
-1.007540978106013924e-01
-1.646306161098319287e-01
-2.092102506170804288e-01
-2.278638769066275160e-01
-2.173239164924460898e-01
-1.784236150212049621e-01
-1.161805811430938196e-01
-3.915066384188681248e-02
4.187565911663176932e-02
1.156092881439917258e-01
1.720834998858913889e-01
2.041764455854501725e-01
2.085358277078448452e-01
1.857831408195286249e-01
1.400628965268717607e-01
7.812647635991265549e-02
8.181672572403209109e-03
-6.127734834617409865e-02
-1.224941725881310284e-01
-1.692322506890581724e-01
-1.972863988688387527e-01
-2.047297620863152146e-01
-1.918986502120347826e-01
-1.611119735236107298e-01
-1.161564505558264626e-01
-6.164076800238255105e-02
-2.378638335090860201e-03
5.705199798849844295e-02
1.125104076403960207e-01
1.602937558355668202e-01
1.970393578777343002e-01
2.196473006161236419e-01
2.253349525227483774e-01
2.119083644344785800e-01
1.782689214168888536e-01
1.250661466237555919e-01
5.530316441499351365e-02
-2.534388044776675342e-02
-1.086941179365158439e-01
-1.848186789934675445e-01
-2.433525614410733673e-01
-2.751805842152783566e-01
-2.741765132363258584e-01
-2.385923070292801651e-01
-1.717306336462455785e-01
-8.170188880084285066e-02
1.969712874805738118e-02
1.187438116340296806e-01
2.018493303961232943e-01
2.575732444603877069e-01
2.782990754128222832e-01
2.613449113343896402e-01
2.093597567123033909e-01
1.299433830093435216e-01
3.452521064184721489e-02
-6.335510966719450077e-02
-1.501110853980530957e-01
-2.141689021226130529e-01
-2.476462347297769262e-01
-2.473476450224418866e-01
-2.149361788824452058e-01
-1.563223076686373059e-01
-8.044672015033327295e-02
2.287288962290440208e-03
8.162725934185859067e-02
1.488128780119167272e-01
1.973992867852869537e-01
2.234957327880053857e-01
2.255670057084318003e-01
2.040690503634057240e-01
1.611565469625123037e-01
1.005540831227166310e-01
2.752797062801408401e-02
-5.119350709937807442e-02
-1.277163251738318572e-01
-1.936098426080037349e-01
-2.408822702405752358e-01
-2.631715845025363043e-01
-2.568869270233576363e-01
-2.219871954115468227e-01
-1.621601637810286545e-01
-8.433359121921463197e-02
2.368542632380683799e-03
8.798314977073039278e-02
1.630901063761819314e-01
2.199627287728032066e-01
2.533233879446553094e-01
2.606673238906944690e-01
2.422301614788463509e-01
2.007217588243606632e-01
1.409186171398436604e-01
6.914661456661791439e-02
-7.341178997573673259e-03
-8.106315140159284227e-02
-1.450178247034797363e-01
-1.933229118228379506e-01
-2.217166995364725501e-01
-2.278691118907048008e-01
-2.114704263662373074e-01
-1.741134935391526195e-01
-1.190545209575697705e-01
-5.097232235502777153e-02
2.420822518291557493e-02
9.948706552115564594e-02
1.671117261456514513e-01
2.191948380411777308e-01
2.486439552800419617e-01
2.502714433055075460e-01
2.218600169098382535e-01
1.649400650357519538e-01
8.506244424565684303e-02
-8.583375128070683258e-03
-1.042388625290939369e-01
-1.892105502451861265e-01
-2.518010726218421480e-01
-2.831878211159287173e-01
-2.788954822572559111e-01
-2.395697326466993404e-01
-1.708808415824845106e-01
-8.256654260155217584e-02
1.317389602420611372e-02
1.035789678554220328e-01
1.771447525316867111e-01
2.250906866687636121e-01
2.423313705042437760e-01
2.279131181479958912e-01
1.849282229062014782e-01
1.199618396849998353e-01
4.216722172595475937e-02
-3.791400410441030100e-02
-1.096729266983059031e-01
-1.637799137509131364e-01
-1.934095452220724320e-01
-1.951586898867604947e-01
-1.694785660208749656e-01
-1.205202967118484680e-01
-5.542227585556963598e-02
1.680886897833436255e-02
8.660173748809127381e-02
1.450815429907111043e-01
1.851075609337629879e-01
2.019796535955452610e-01
1.937961416352069199e-01
1.615186996380811868e-01
1.088187908937401915e-01
4.173735813767101566e-02
-3.186897097187790795e-02
-1.031328470125954799e-01
-1.632119040860001702e-01
-2.044441939021596766e-01
-2.214427326064356549e-01
-2.119255122891740561e-01
-1.771006529267324936e-01
-1.214972654506447092e-01
-5.225245068085335176e-02
2.199459910939472601e-02
9.235211702804486944e-02
1.508163111021099123e-01
1.911354300661648464e-01
2.093419859595702925e-01
2.039766944420839390e-01
1.760592803898157754e-01
1.288671271928808482e-01
6.757792999873474260e-02
-1.188650041636041266e-03
-6.993162526013774194e-02
-1.309548474655125305e-01
-1.771761833379693341e-01
-2.029885983216110357e-01
-2.050366541034858714e-01
-1.827539299841651754e-01
-1.385413691505737177e-01
-7.752942358378303589e-02
-6.940206971811552217e-03
6.485388107059980589e-02
1.294067642385566264e-01
1.792166454757464500e-01
2.085378137211755245e-01
2.139317269181890135e-01
1.945778608768775064e-01
1.523765052204630877e-01
9.183797445606997623e-02
1.971876493918582954e-02
-5.562636534205081529e-02
-1.251598719431041840e-01
-1.802674000272297405e-01
-2.139208138295186079e-01
-2.217170233440589611e-01
-2.025873687088506347e-01
-1.590056233700956612e-01
-9.663069108768504445e-02
-2.346634428525504190e-02
5.126971270789589669e-02
1.183509068140759513e-01
1.696500571882537667e-01
1.990434530048630912e-01
2.030520286028368315e-01
1.811942043370014799e-01
1.360466755075624423e-01
7.301385955374373182e-02
-2.023544121727144374e-04
-7.443721605297259902e-02
-1.401627721564950302e-01
-1.887330646503528331e-01
-2.135796750026552893e-01
-2.111366424072971260e-01
-1.813135556971365026e-01
-1.274278717531984739e-01
-5.563106460000026565e-02
2.601156845227332870e-02
1.085494991147579746e-01
1.830632205389602918e-01
2.413634015764565266e-01
2.765207303209867851e-01
2.833670530714081925e-01
2.590786507246685133e-01
2.038213204681737778e-01
1.212927713537501062e-01
1.892429382291091478e-02
-9.247263386207266178e-02
-1.997248960404315876e-01
-2.889314730778982376e-01
-3.474810010867095400e-01
-3.660820147490037590e-01
-3.404043673741082299e-01
-2.720229649262291272e-01
-1.685075753837194934e-01
-4.263112552388287346e-02
8.924817293299208698e-02
2.094824792153085480e-01
3.018047453113082423e-01
3.538978706535864660e-01
3.593186629296782897e-01
3.183601285059691199e-01
2.377229863750725536e-01
1.291761457155726767e-01
7.582607522942513834e-03
-1.112915072546836748e-01
-2.128389579709649149e-01
-2.853155993231702992e-01
-3.210673445874187015e-01
-3.172286401393135113e-01
-2.758608126427554152e-01
-2.035026594560167545e-01
-1.101495268486732682e-01
-7.782706166191134117e-03
9.130700815898543099e-02
1.760975814694442088e-01
2.380555934737986767e-01
2.718574131670835614e-01
2.756014097225353288e-01
2.505941628182459802e-01
2.008441154977627097e-01
1.324111837214161924e-01
5.273597731033868863e-02
-2.999244201520229192e-02
-1.074449775787681138e-01
-1.717871407712700527e-01
-2.163663329867780427e-01
-2.364173856280892272e-01
-2.296917358137515186e-01
-1.968794567664425010e-01
-1.416912922228150684e-01
-7.051147454080258781e-02
8.372313572646686297e-03
8.583374703773222203e-02
1.530529874864914319e-01
2.025311807733780056e-01
2.288508882763254371e-01
2.291618414994254782e-01
2.034201767433758690e-01
1.543971039608076912e-01
8.744650242006248020e-02
1.001782597850578438e-02
-6.908147780409537586e-02
-1.406441729916029226e-01
-1.961724217601420184e-01
-2.290053741410982002e-01
-2.352693047732430376e-01
-2.144430173758267444e-01
-1.694058981938135755e-01
-1.059706737000760679e-01
-3.202584619494219798e-02
4.353159113316396045e-02
1.119008436288960739e-01
1.653800049606415357e-01
1.981625938388438257e-01
2.068672592672350929e-01
1.907915871306132272e-01
1.519176192048801721e-01
9.469855104802510359e-02
2.563509891626414294e-02
-4.735888229014822981e-02
-1.157784379873422753e-01
-1.714728513520385467e-01
-2.076172000767775860e-01
-2.195931330964283612e-01
-2.056439624485916773e-01
-1.671637795491024980e-01
-1.085232004210991974e-01
-3.644066765050599233e-02
4.096438994948155277e-02
1.152254190705924719e-01
1.784954507509138588e-01
2.243124112644974133e-01
2.481287653841744434e-01
2.476155542442423085e-01
2.227697038368728899e-01
1.758645371655053191e-01
1.112788901919816442e-01
3.520670948090659502e-02
-4.479450276464291836e-02
-1.204655708667440872e-01
-1.837126379626793371e-01
-2.275837958947283246e-01
-2.471907464358868989e-01
-2.403991535665881973e-01
-2.081491040620149224e-01
-1.543309807107603737e-01
-8.522675664728633638e-02
-8.629449513631030910e-03
6.716205694844885887e-02
1.342652279989548225e-01
1.859253044903397822e-01
2.170060738641377829e-01
2.243277164871684826e-01
2.069188457245086377e-01
1.661958941277545954e-01
1.060240279583439804e-01
3.257780081306560493e-02
-4.608561378257558516e-02
-1.207944530344530198e-01
-1.823463484084918984e-01
-2.227732859952789579e-01
-2.365576289227198092e-01
-2.215392705457570610e-01
-1.793085264313700744e-01
-1.149976701890095265e-01
-3.652339845813690200e-02
4.654951180897659579e-02
1.242875960159831594e-01
1.875796016494160057e-01
2.290804019398018365e-01
2.438605991824724928e-01
2.298043312362939572e-01
1.878147310795931502e-01
1.218336403884829472e-01
3.861883641658057920e-02
-5.279091255050927245e-02
-1.419456381682525081e-01
-2.181397158742741649e-01
-2.717379606192283359e-01
-2.954980389203419877e-01
-2.856642971052560376e-01
-2.425997384701984172e-01
-1.708003530086145139e-01
-7.829109455955407526e-02
2.444145283488630138e-02
1.257513691380849341e-01
2.141680181720034826e-01
2.796343921596955440e-01
3.145830324515459520e-01
3.148071571394801538e-01
2.800711464093013081e-01
2.143684577490561072e-01
1.257061334837386024e-01
2.531621845360887413e-02
-7.370775134390461503e-02
-1.581994677990876674e-01
-2.168460651924264404e-01
-2.419043518325285635e-01
-2.303949923317575310e-01
-1.845626492491699855e-01
-1.115173837675710322e-01
-2.211257883013062475e-02
7.074098705541104204e-02
1.540106343243107523e-01
2.163777492720331819e-01
2.496881359301822423e-01
2.498529629071370994e-01
2.171536918586478571e-01
1.559780894793443284e-01
7.405572034393026470e-02
-1.869518263108105316e-02
-1.115416867625107500e-01
-1.943236734225384232e-01
-2.586558869348989376e-01
-2.987982558114774534e-01
-3.121160303287067173e-01
-2.991131428622306743e-01
-2.630753783886277120e-01
-2.094028465037065523e-01
-1.447385854827083485e-01
-7.601632487250853387e-02
-9.567191588025103499e-03
4.956300470454566565e-02
9.795851024324653267e-02
1.337986614438859689e-01
1.565263373108263245e-01
1.663989933097966833e-01
1.641106605922881823e-01
1.506007114829731597e-01
1.270691363065883650e-01
9.515009143692731985e-02
5.715958302309243066e-02
1.630617462681094310e-02
-2.326669693857041921e-02
-5.672197941538748012e-02
-7.909496590444575759e-02
-8.611747996162577579e-02
-7.514280526539174332e-02
-4.596557460968675457e-02
-1.317606359094725121e-03
5.315860495683910614e-02
1.095748494893689085e-01
1.590554002843180825e-01
1.933468322034226361e-01
2.064033834542016166e-01
1.955747111731671595e-01
1.621506303313697828e-01
1.111854150867834790e-01
5.065946216828276505e-02
-9.869496146031941919e-03
-6.089517887025674980e-02
-9.458008530528072555e-02
-1.060587692137548999e-01
-9.418551020274845698e-02
-6.160290765954012926e-02
-1.414799275525235878e-02
4.025271605880043069e-02
9.294139849224802852e-02
1.358393917186286881e-01
1.624594768069376194e-01
1.685015139090477732e-01
1.520614152928088103e-01
1.135717936144873264e-01
5.559099105834253152e-02
-1.749838960277649846e-02
-9.987014454007514530e-02
-1.847218332687354803e-01
-2.648384926366667003e-01
-3.332564956879711104e-01
-3.840007035537755797e-01
-4.128051732030648679e-01
-4.176669880248038424e-01
-3.990791644306739272e-01
-3.598641677217120360e-01
-3.046485093849859993e-01
-2.391180414236337981e-01
-1.692343670004028411e-01
-1.005770932227836312e-01
-3.791943484014836940e-02
1.494466265354965628e-02
5.520385584172871063e-02
8.100923855217789793e-02
9.156094885232013425e-02
8.733933250863223918e-02
7.040431230686094999e-02
4.461413600709995819e-02
1.560890108111312458e-02
-9.550501490469542887e-03
-2.312427590368315578e-02
-1.776083203287370793e-02
1.226862058670619149e-02
