BVP Green Neck Signal
-8.979854646774990123e-03
-3.041332045936065778e-02
-5.750730435606402763e-02
-8.386335197556396559e-02
-1.054756434918101282e-01
-1.211908010890316578e-01
-1.331017368891032893e-01
-1.422101252000691207e-01
-1.471480814381573299e-01
-1.467556478254850028e-01
-1.399471615564762961e-01
-1.274294442566127894e-01
-1.104095064394519238e-01
-8.888290820118249780e-02
-6.284063515232977959e-02
-3.240254670287912725e-02
1.676184284618252845e-03
3.825898862493308517e-02
7.643776422535493442e-02
1.156698695249624570e-01
1.552760084212143066e-01
1.941489886162638401e-01
2.316275795479589839e-01
2.665673448528163569e-01
2.982186589185700232e-01
3.262242978455195397e-01
3.495591801329039905e-01
3.679331242171792749e-01
3.808766925313248342e-01
3.878361244538505725e-01
3.890981213415861117e-01
3.841587745075578653e-01
3.732659844618373968e-01
3.566896371976900904e-01
3.344448334881153784e-01
3.073675001350820168e-01
2.756400584859782787e-01
2.399434873956751701e-01
2.011140350979363500e-01
1.596781720185979081e-01
1.165931169711910825e-01
7.259457456596343783e-02
2.853617850493402747e-02
-1.479173532378016617e-02
-5.653775031989514283e-02
-9.598925361584099980e-02
-1.324875059909688957e-01
-1.652335194383992012e-01
-1.940086064099001972e-01
-2.180595741320156822e-01
-2.371024475235381512e-01
-2.512367634134080596e-01
-2.598214259302477069e-01
-2.633402382831196431e-01
-2.616645026170705823e-01
-2.548684109287439603e-01
-2.438702696726549324e-01
-2.283962370392261521e-01
-2.093271615251595941e-01
-1.872746310807778258e-01
-1.624821317266563203e-01
-1.360926595871629896e-01
-1.083565202761612722e-01
-8.004384532632428939e-02
-5.202377024434799713e-02
-2.454964328073538926e-02
1.535020318705590785e-03
2.587363255516535523e-02
4.795829238583550896e-02
6.743904673977008102e-02
8.403598005858642361e-02
9.743658180265815649e-02
1.077617676455420309e-01
1.146546155619452972e-01
1.183723323803897026e-01
1.189583650043919832e-01
1.163553913106012555e-01
1.112781510535899715e-01
1.034740513931822897e-01
9.343032277031207422e-02
8.165823468388277995e-02
6.806597609970894969e-02
5.343781521624148267e-02
3.782867099244112408e-02
2.149616604879454190e-02
5.161573189462154328e-03
-1.136356367414534038e-02
-2.756917612152345529e-02
-4.323901899512731795e-02
-5.828187469260825287e-02
-7.236654725285258938e-02
-8.545310911556182332e-02
-9.735917748697511809e-02
-1.080212663369988224e-01
-1.172938500099847681e-01
-1.251579936769250667e-01
-1.315618583540338060e-01
-1.363400404575638436e-01
-1.397042827236144036e-01
-1.413988914495392657e-01
-1.414602922280982777e-01
-1.400465280107011101e-01
-1.369014333202477340e-01
-1.322794824795575086e-01
-1.261239911255291335e-01
-1.183662277323790230e-01
-1.093980627443288806e-01
-9.902014666530764564e-02
-8.743955539499813356e-02
-7.490042003542013438e-02
-6.139746130118311357e-02
-4.724958044932615203e-02
-3.263348830872662976e-02
-1.767589895985459403e-02
-2.731698120661638952e-03
1.203582466334837155e-02
2.646298071196694426e-02
4.020567609076776405e-02
5.315603493581264744e-02
6.516956760401014515e-02
7.595336182745397735e-02
8.554834320808181458e-02
9.377097433419011308e-02
1.005244615501828115e-01
1.059593269040112334e-01
1.098770007354986644e-01
1.124224297780283960e-01
1.137651663528418122e-01
1.137879992826533876e-01
1.128270480370402590e-01
1.109110611222468984e-01
1.081632417428491089e-01
1.049182411635860013e-01
1.011435532286974331e-01
9.709443999212792609e-02
9.297805019108273950e-02
8.879355551015249981e-02
8.478405580157377663e-02
8.099675841061400317e-02
7.746188788845304041e-02
7.432194330031829943e-02
7.152708274400119970e-02
6.905750740206978433e-02
6.696115917837930365e-02
6.512638550192220710e-02
6.347423295716154990e-02
6.201498624093239320e-02
6.055935736240620343e-02
5.906154539038238616e-02
5.748508674207111063e-02
5.561230148458277261e-02
5.351346446103828064e-02
5.105873466644142433e-02
4.812952096077064562e-02
4.485094223077193409e-02
4.104399258488235225e-02
3.678527047987835419e-02
3.212517328285818818e-02
2.695326881930879687e-02
2.147731084497470772e-02
1.564992658894625091e-02
9.514580981930323422e-03
3.253226513288729783e-03
-3.202492604447258230e-03
-9.671040755330460176e-03
-1.609433688925736641e-02
-2.247785840202030233e-02
-2.863022381889191934e-02
-3.457514749600903992e-02
-4.025420330561527149e-02
-4.554935830338816688e-02
-5.051824828156369074e-02
-5.506658543833201080e-02
-5.916498728085031050e-02
-6.288524545240967156e-02
-6.612432940323699493e-02
-6.891190495663025717e-02
-7.132250625980159076e-02
-7.324305485882029454e-02
-7.476861581478036478e-02
-7.589901128395558361e-02
-7.654118099667521491e-02
-7.686055194270358104e-02
-7.672572100274081819e-02
-7.611074767079217818e-02
-7.514535140342100406e-02
-7.363897585639798959e-02
-7.165885249807156521e-02
-6.920886512350088449e-02
-6.611214469180948239e-02
-6.254541960611099960e-02
-5.835749095331923403e-02
-5.348769740992299210e-02
-4.806922709042997510e-02
-4.196226311087044442e-02
-3.521077070466562681e-02
-2.789631733221430501e-02
-1.993518444653821428e-02
-1.145723077155260186e-02
-2.528764406720915812e-03
6.865189498544908321e-03
1.653294943433054887e-02
2.638512671659730760e-02
3.641043639038200885e-02
4.632941166074355799e-02
5.608289008189568797e-02
6.557994494284023757e-02
7.452509123384630507e-02
8.294033271292831910e-02
9.059355516134441622e-02
9.726111307554072272e-02
1.030799621183473153e-01
1.076620437314992351e-01
1.110046285516220893e-01
1.131067934271973441e-01
1.137095605128887604e-01
1.129795669387079898e-01
1.107727055334659927e-01
1.070370773976170864e-01
1.019899332181604112e-01
9.548357570930880722e-02
8.767611557191579141e-02
7.868681687698024507e-02
6.854529559429591024e-02
5.749142671484885891e-02
4.562424560711046684e-02
3.311636026673489552e-02
2.018064261349587427e-02
7.019977913473383034e-03
-6.190209294329790911e-03
-1.920185242076680177e-02
-3.176617070419256866e-02
-4.379732250433354679e-02
-5.493542496973993772e-02
-6.506417043827630864e-02
-7.403049525421816213e-02
-8.154892842949328091e-02
-8.767152590411410318e-02
-9.213524947434033330e-02
-9.487023381808097622e-02
-9.598595274052401649e-02
-9.525371960671162597e-02
-9.286032002384261852e-02
-8.880276659522950977e-02
-8.310748864571612660e-02
-7.607888728242215293e-02
-6.768233703297278636e-02
-5.819269172175733223e-02
-4.782350917216107028e-02
-3.672349749047889439e-02
-2.521811608625398882e-02
-1.346877567671165080e-02
-1.766970903637039847e-03
9.672239797945333950e-03
2.061742339149770509e-02
3.082999107401105526e-02
4.016886609310000439e-02
4.838043569075155953e-02
5.541828921929957408e-02
6.109756928860204245e-02
6.531212535944172504e-02
6.814161692933200232e-02
6.939799260262605185e-02
6.921939302060743648e-02
6.760807794782378033e-02
6.456269356511433466e-02
6.036480865071618129e-02
5.493918231387381196e-02
4.851830616958179021e-02
4.128037219725651935e-02
3.329062425820689120e-02
2.485109565859367625e-02
1.603053031783196331e-02
7.053824294719346355e-03
-1.877253110794184325e-03
-1.065652029517361044e-02
-1.904518331256552927e-02
-2.696640541909356079e-02
-3.420941426523521622e-02
-4.069476109509482381e-02
-4.630446575476980520e-02
-5.087302670392954140e-02
-5.445985719653313045e-02
-5.686267899908332979e-02
-5.810620318535979906e-02
-5.818684186811520082e-02
-5.698546811609411095e-02
-5.469526431134951600e-02
-5.119641281519735770e-02
-4.656974417701418428e-02
-4.096745133453869037e-02
-3.434943752093232161e-02
-2.692800312384145342e-02
-1.876644542890139669e-02
-9.980790918624828784e-03
-7.944103563720175676e-04
8.719103781652335489e-03
1.835120768508682193e-02
2.795314424209995735e-02
3.733859598619013176e-02
4.635810272195416137e-02
5.483741296108207014e-02
6.259027145753222332e-02
6.955122206823635689e-02
7.549427852643599002e-02
8.036585448158357903e-02
8.407159080716386512e-02
8.646485037324758149e-02
8.764322439585606195e-02
8.745284777007748811e-02
8.593885267043990805e-02
8.319494734661642132e-02
7.916889349869118964e-02
7.405350379230005164e-02
6.788918985357463021e-02
6.078928040996352256e-02
5.298781125168713912e-02
4.453829266544927917e-02
3.566893095712351386e-02
2.653708877356971557e-02
1.731261684071679768e-02
8.186559726753982885e-03
-6.866359399610678579e-04
-9.121848781506857601e-03
-1.701065507410173816e-02
-2.416540028120853223e-02
-3.050812605343259862e-02
-3.592733429288165470e-02
-4.029962795997598518e-02
-4.367663292220957949e-02
-4.590368088825300813e-02
-4.702532536064837204e-02
-4.707709361895840577e-02
-4.600178208249776357e-02
-4.397027702491992235e-02
-4.095325420080934281e-02
-3.706052541849486071e-02
-3.247871859388545834e-02
-2.719626141070126055e-02
-2.144889860597364029e-02
-1.531282579135671146e-02
-8.935253106413399565e-03
-2.511954655884141539e-03
3.888940549622903198e-03
1.005186653985640569e-02
1.589440302704688002e-02
2.126593310773066542e-02
2.603238015706466763e-02
3.013908309700248991e-02
3.342552606763386086e-02
3.591021649038749625e-02
3.747871641064095399e-02
3.809633711623353763e-02
3.782238414551154781e-02
3.657228908100898512e-02
3.446223699889248288e-02
3.149958159565909022e-02
2.772224500644137821e-02
2.332380954887623703e-02
1.828271456981287249e-02
1.277617062424532719e-02
6.912263588108995618e-03
7.849327591873999158e-04
-5.422874690139154429e-03
-1.164365505200475395e-02
-1.771391259141769439e-02
-2.353939711679130936e-02
-2.900569293112450001e-02
-3.399836696540397413e-02
-3.847035561151693206e-02
-4.228084625283534681e-02
-4.544986171088696847e-02
-4.787477602749909411e-02
-4.950024199036430483e-02
-5.039283412656021810e-02
-5.043198854578070239e-02
-4.969671608612565017e-02
-4.818341592196482420e-02
-4.583895375028407271e-02
-4.283979418317213073e-02
-3.909358031839468145e-02
-3.468192056997973505e-02
-2.970273341938151415e-02
-2.413960172083187000e-02
-1.812811740117073120e-02
-1.170909188409687343e-02
-4.950634530175838759e-03
2.032708572798495091e-03
9.166504782046294708e-03
1.636214598135122752e-02
2.351515293414865523e-02
3.049636543286054352e-02
3.727420734085903908e-02
4.367159297026571019e-02
4.959973494690440160e-02
5.502326304559600895e-02
5.973681182276974894e-02
6.375809836457915769e-02
6.696137150485557965e-02
6.921272590769245170e-02
7.063506332994752557e-02
7.100933588882317460e-02
7.038150116733997430e-02
6.878814870393915037e-02
6.613023083539383562e-02
6.256742383505621563e-02
5.806374662543384302e-02
5.267717735314388777e-02
4.657257912299992558e-02
3.975680900106649124e-02
3.238813921018378339e-02
2.457781592931315012e-02
1.644892416344929942e-02
8.139747008512044496e-03
-2.094843766870064725e-04
-8.447088198379176099e-03
-1.647923777607727264e-02
-2.410192879716472822e-02
-3.125371593909725271e-02
-3.779111099558423587e-02
-4.353424016559827303e-02
-4.855303477410316537e-02
-5.259272623449808698e-02
-5.564475166472361567e-02
-5.770711371225106107e-02
-5.860433446742361469e-02
-5.847883279333770251e-02
-5.721078870237891051e-02
-5.479376119187796823e-02
-5.139513438151988717e-02
-4.689614008274815143e-02
-4.145991236739431096e-02
-3.514910132587339281e-02
-2.800019441324342814e-02
-2.023280801007155613e-02
-1.187579276463611444e-02
-3.100199917143916899e-03
5.935443508375079329e-03
1.509997212335341746e-02
2.421833026679721598e-02
3.313939892209990384e-02
4.167519072768236660e-02
4.972777160070308150e-02
5.708296615283080244e-02
6.363167153857514358e-02
6.927257511175642646e-02
7.382424232799160435e-02
7.731016681743874130e-02
7.957748505273128103e-02
8.058637269203232367e-02
8.042506299030549588e-02
7.896695348323311270e-02
7.635431820361091027e-02
7.262178700963187183e-02
6.779702148524584249e-02
6.213218553699957625e-02
5.562193944883731672e-02
4.845689248231981050e-02
4.084075005134516628e-02
3.284765342619618694e-02
2.472119661149314862e-02
1.659257349887632849e-02
8.589749595160275919e-03
9.250556349453889493e-04
-6.320357106618942379e-03
-1.303612954224038500e-02
-1.908780286626120259e-02
-2.443230166679971962e-02
-2.903341564768401398e-02
-3.280595625614102229e-02
-3.579976966394136928e-02
-3.801292710094846677e-02
-3.943200389723978960e-02
-4.019479881716708780e-02
-4.027558274293386448e-02
-3.976868175438195985e-02
-3.883300629895768130e-02
-3.742879701815913368e-02
-3.573930260207056758e-02
-3.383257902948910711e-02
-3.173803931072654433e-02
-2.963507125048361543e-02
-2.750836771759259183e-02
-2.543412272057618551e-02
-2.353342278511299721e-02
-2.175330885859890623e-02
-2.017351813826459561e-02
-1.881768423669458179e-02
-1.764764206595151319e-02
-1.670329008421428743e-02
-1.595636568173415190e-02
-1.534993506734982222e-02
-1.490354016511342625e-02
-1.455097853678195829e-02
-1.422358070825432974e-02
-1.393595075131894012e-02
-1.358624621102377111e-02
-1.313501738795636031e-02
-1.257992073108067307e-02
-1.180796312241065224e-02
-1.084419035914138338e-02
-9.644634616489684842e-03
-8.143457934735896103e-03
-6.401651678165577904e-03
-4.357881291689351573e-03
-2.029363233562979027e-03
5.340197802073329281e-04
3.366216806582022093e-03
6.380447121042927446e-03
9.555854372360440135e-03
1.286726349886338841e-02
1.621570833090467748e-02
1.958754143816838003e-02
2.290557770723331693e-02
2.610265779184639534e-02
2.915499378248362014e-02
3.197435171461603109e-02
3.453191646996320308e-02
3.679847272169770728e-02
3.871205266934160671e-02
4.027884311101918163e-02
4.147194973491621223e-02
4.227736012664141257e-02
4.272950650115043408e-02
4.281432205034545885e-02
4.255868854762730191e-02
4.202197331573849504e-02
4.119755127485705271e-02
4.014897903155308784e-02
3.892370710231368020e-02
3.753111370836643285e-02
3.605520275811108233e-02
3.450963513708832364e-02
3.290905625071107593e-02
3.133664517472947719e-02
2.976182096263864374e-02
2.820960622411675112e-02
2.672035252436290309e-02
2.523377996077223046e-02
2.379430755354180332e-02
2.237563429672745005e-02
2.091347708991533189e-02
1.945486556093986227e-02
1.792578693585367838e-02
1.628986213046494658e-02
1.457694738649257041e-02
1.269701866641013976e-02
1.066917844481142519e-02
8.491467963575955943e-03
6.100194725823679560e-03
3.558255681726981909e-03
8.468735255510451143e-04
-2.048707235203135052e-03
-5.046167775244928856e-03
-8.163537961008490024e-03
-1.136159262447467358e-02
-1.456426820082155210e-02
-1.777972250136285182e-02
-2.092501335673268084e-02
-2.394256317079272722e-02
-2.683844363863626889e-02
-2.950157518206221810e-02
-3.190865408140793058e-02
-3.403859319023958691e-02
-3.580106718357310008e-02
-3.720687629750835113e-02
-3.820451756792783704e-02
-3.874597326332048647e-02
-3.887003071252200653e-02
-3.851064341746048697e-02
-3.767882324323647281e-02
-3.639087924065046581e-02
-3.462974018943397458e-02
-3.243336215711213610e-02
-2.981601819998566313e-02
-2.680763732695704352e-02
-2.344754797450750508e-02
-1.978743228277299315e-02
-1.587110721495696777e-02
-1.175747066384206369e-02
-7.533775426422461945e-03
-3.223916239559205220e-03
1.054937225651900526e-03
5.234510965356967485e-03
9.267775007030616338e-03
1.302354192069811109e-02
1.647938722851332444e-02
1.953100659568557732e-02
2.209805787826522178e-02
2.418489205957395638e-02
2.566658040472526159e-02
2.655551626873343604e-02
2.680464910368833900e-02
2.639684250692916553e-02
2.537445911861010636e-02
2.370085965485661805e-02
2.147431733952881450e-02
1.870036512080288857e-02
1.546549225030651592e-02
1.189123200811895154e-02
7.993250085963833629e-03
3.984976628523590261e-03
-1.030024207444137432e-04
-4.125293989094240034e-03
-7.876544217887308102e-03
-1.137713244618645744e-02
-1.437106817034788236e-02
-1.679636549131701198e-02
-1.859586264342042924e-02
-1.953456084699970591e-02
-1.973246567209335084e-02
-1.899446744082539801e-02
-1.727637591831799116e-02
-1.467135572748716824e-02
-1.104297990076395092e-02
-6.523337373986723246e-03
-1.121537986064177067e-03
5.147989763399098660e-03
1.210185827916127922e-02
1.971877970923640103e-02
2.785505841036403293e-02
3.637773990378354722e-02
4.514764073934143807e-02
5.403038694325069946e-02
6.286401237293419431e-02
7.146419192890592076e-02
7.976111785585099367e-02
8.749537237076746021e-02
9.459560047107148928e-02
1.009366457859673660e-01
1.062465975268361285e-01
1.106572278252191538e-01
1.138591969240425050e-01
1.157809238453344769e-01
1.165043715399345231e-01
1.157319021191556413e-01
1.136391189392346457e-01
1.101222993392675514e-01
1.050493386564529397e-01
9.870906890352067198e-02
9.089703430577432408e-02
8.173433337193518333e-02
7.139279819504501523e-02
5.978473091095776182e-02
4.720626017322836904e-02
3.371280578208428469e-02
1.939505891795340747e-02
4.545670725279255843e-03
-1.072381650207962847e-02
-2.624214673570505682e-02
-4.171798292821888438e-02
-5.698253901134037180e-02
-7.187219137996631035e-02
-8.604019003812822530e-02
-9.938389932523430947e-02
-1.116692280163531642e-01
-1.226035516534269010e-01
-1.322164811735649093e-01
-1.401625867083488020e-01
-1.463381254495520756e-01
-1.508134589135675940e-01
-1.532637860274084496e-01
-1.538450708019270530e-01
-1.525027630478105189e-01
-1.491359522536029880e-01
-1.440951291677913249e-01
-1.372195055640853256e-01
-1.287028692114699502e-01
-1.188232508676259486e-01
-1.075655188314830202e-01
-9.528191782055051018e-02
-8.213967564150773115e-02
-6.827670473162024412e-02
-5.407890535246374919e-02
-3.965646584939226671e-02
-2.521954571626543878e-02
-1.106517108176995404e-02
2.682100930945514449e-03
1.586754686223764907e-02
2.823644953741684047e-02
3.975688521930118013e-02
5.030700897926802806e-02
5.970506371527943557e-02
6.806687251023868512e-02
7.520489807182834108e-02
8.110824728972115816e-02
8.599300454095949731e-02
8.959642751119629989e-02
9.214272403354430152e-02
9.369341965811144035e-02
9.413914976651162336e-02
9.381510968462337952e-02
9.259091636469470032e-02
9.054935467740582444e-02
8.800311624315368397e-02
8.473310757375994429e-02
8.098855512757106856e-02
7.683392905056336819e-02
7.220892682912841143e-02
6.735656139536380649e-02
6.219823812057777290e-02
5.678067062973272267e-02
5.124580126713005473e-02
4.552764771415032663e-02
3.968894803635218682e-02
3.379264916676283370e-02
2.782752248901608841e-02
2.181390622387178665e-02
1.583845371501583013e-02
9.871414715999296541e-03
3.959679237523383577e-03
-1.793620991933995990e-03
-7.466273923446798029e-03
-1.290097789711582010e-02
-1.803992659633345957e-02
-2.297210975246947312e-02
-2.743625675464455085e-02
-3.149045931632230705e-02
-3.505642952604317436e-02
-3.796724454314161223e-02
-4.033102870213646496e-02
-4.193908133441782982e-02
-4.277090287242656108e-02
-4.287707329476634494e-02
-4.209044113027195222e-02
-4.050578481587358698e-02
-3.807820909295252243e-02
-3.480545578518706717e-02
-3.081271410600261787e-02
-2.606915142841101721e-02
-2.070809280831610588e-02
-1.481456207164518271e-02
-8.494139867067242167e-03
-1.904133178397182137e-03
4.844458695862674177e-03
1.156628986216751837e-02
1.813576972712916541e-02
2.437581883860781562e-02
3.013151075757371927e-02
3.527352976898032871e-02
3.964492758966128849e-02
4.316505726492501915e-02
4.570640196325645443e-02
4.722293806385569753e-02
4.767525789810114073e-02
4.703050044542876618e-02
4.535801327762646606e-02
4.265060018190985208e-02
3.903630158112990356e-02
3.462867032953039631e-02
2.951707881330085936e-02
2.393940313621813892e-02
1.799993168587370879e-02
1.191907830549622169e-02
5.923897821592001914e-03
1.415638608703679788e-04
-5.169277682396565370e-03
-9.868072166792651173e-03
-1.379855896363076789e-02
-1.679017826591756510e-02
-1.877098158191314869e-02
-1.964770842345685276e-02
-1.938546524536000418e-02
-1.797624513748849462e-02
-1.546719750675084812e-02
-1.192141367285728601e-02
-7.438797319510077714e-03
-2.194818066963348351e-03
3.694873053725192258e-03
1.000778323001578866e-02
1.652254150757633683e-02
2.308057288257679349e-02
2.940166637986028897e-02
3.531106607280588144e-02
4.061911848429084620e-02
4.509728515435369733e-02
4.864570821378419452e-02
5.112465261417514784e-02
5.242302551818361911e-02
5.253590790971161134e-02
5.143967493755187415e-02
4.916285458835212285e-02
4.580826511221997022e-02
4.148327877618147169e-02
3.632660165830312038e-02
3.054815284018475019e-02
2.433585204677938055e-02
1.789303681163972870e-02
1.148345605323771237e-02
5.295012305625801559e-03
-4.734098271500404576e-04
-5.568572914380951096e-03
-9.895813946357297913e-03
-1.331459292086871124e-02
-1.567539435850882901e-02
-1.701836965907408891e-02
-1.727902132042593436e-02
-1.647850664815245919e-02
-1.479941617228779094e-02
-1.221050441008953574e-02
-8.950090078347544553e-03
-5.238014201344402994e-03
-1.130151781636717402e-03
3.021179566275534415e-03
7.063980586686540580e-03
1.083245781250155929e-02
1.398977450074789103e-02
1.649359458947197155e-02
1.811214877611650939e-02
1.866348292509951295e-02
1.814749987410833529e-02
1.640632735631595771e-02
1.344159053333766896e-02
9.282898971235780533e-03
3.935797119762527579e-03
-2.490368781712332634e-03
-9.861997823850329054e-03
-1.804345765697841844e-02
-2.685169631383180558e-02
-3.602904586050637709e-02
-4.541814537546472186e-02
-5.473187674334426683e-02
-6.369435794773260773e-02
-7.214652769637887320e-02
-7.975131353205446028e-02
-8.634633491863145938e-02
-9.174030585802048221e-02
-9.567706385881995235e-02
-9.813586994430306687e-02
-9.893060714677380518e-02
-9.800743560481954553e-02
-9.539741610234618585e-02
-9.104845697121237424e-02
-8.509863376121604150e-02
-7.761255062216058931e-02
-6.872788171256977163e-02
-5.864201744049631765e-02
-4.754508717125881245e-02
-3.566456878924967322e-02
-2.323639311632164084e-02
-1.055194260256503078e-02
2.205005809692065465e-03
1.470619783096902694e-02
2.671903729009055678e-02
3.806376935728264521e-02
4.840530045094594558e-02
5.769915993242477614e-02
6.567717043645208974e-02
7.216785380841157782e-02
7.723526809508966806e-02
8.059788755997344956e-02
8.235601310556121823e-02
8.247012773579202871e-02
8.085474671277749492e-02
7.779258792263038513e-02
7.313647493142971800e-02
6.708662690397194928e-02
5.979170573525593307e-02
5.130396068495703121e-02
4.189908944116370326e-02
3.163008274329558861e-02
2.077687452980209529e-02
9.453773131669722385e-03
-2.122810825894703469e-03
-1.368021001315825047e-02
-2.519759496777027735e-02
-3.623193100176325121e-02
-4.680219381139837792e-02
-5.664133020300595595e-02
-6.535017730309788941e-02
-7.316165963208989820e-02
-7.948047825293330648e-02
-8.428310913391091896e-02
-8.754487816369938002e-02
-8.869448978186854349e-02
-8.814907651625669693e-02
-8.540205566947212112e-02
-8.031435513810658566e-02
-7.318918202297756970e-02
-6.356256008051613948e-02
-5.170908876959828815e-02
-3.763717860483900557e-02
-2.122516784915035731e-02
-2.962675693335540573e-03
1.723591798400156416e-02
3.907927899767549285e-02
6.219800941802394040e-02
8.634818261670025585e-02
1.111182837655514122e-01
1.360905580166159590e-01
1.608050200399724905e-01
1.848949042105610951e-01
2.077479722256609374e-01
2.289963434261865494e-01
2.482021203730784276e-01
2.647421373301106495e-01
2.785787141567926950e-01
2.890786784852945601e-01
2.959920109823900858e-01
2.993599324779376292e-01
2.986956975328546315e-01
2.942575904698324085e-01
2.859916115414387061e-01
2.738011033246999237e-01
2.583830791798995552e-01
2.395782090648465867e-01
2.178505305491675870e-01
1.938171499799726527e-01
1.675604953834811395e-01
1.399152044006035100e-01
1.112545223398904159e-01
8.187760158159630708e-02
5.268881689523024353e-02
2.383011298995781416e-02
-4.263524206889516242e-03
-3.094150666283381965e-02
-5.624869965160105706e-02
-7.969453829087182195e-02
-1.010428574017153830e-01
-1.205067884903012199e-01
-1.376399006235982936e-01
-1.526300343234944235e-01
-1.657479300780997644e-01
-1.766835919936894372e-01
-1.859664415498201717e-01
-1.937386712115565235e-01
-1.999410959362865614e-01
-2.052362133540366618e-01
-2.094948313077921731e-01
-2.129636286268943024e-01
-2.161676990113658992e-01
-2.188124383562452258e-01
-2.212779955286680866e-01
-2.237460726481197704e-01
-2.259466564205285799e-01
-2.282062700836446356e-01
-2.303526476072511320e-01
-2.321623581477884612e-01
-2.338816053716045729e-01
-2.350746138141616703e-01
-2.355721317776859891e-01
-2.354450346855297693e-01
-2.342154673377772334e-01
-2.317969467217997070e-01
-2.281329362501098856e-01
-2.227538855372324100e-01
-2.157984263240934064e-01
-2.070684105070270675e-01
-1.962705784823088329e-01
-1.837088482970508918e-01
-1.691486457159347701e-01
-1.526053933468315693e-01
-1.344427795245431989e-01
-1.144765529829280259e-01
-9.310600617778774790e-02
-7.060157583383616653e-02
-4.696327588663890690e-02
-2.283976102174629930e-02
1.622414132806252515e-03
2.618820735084351550e-02
5.018888940266005849e-02
7.360218202809172550e-02
9.589667473477656023e-02
1.167061662890316737e-01
1.360214681970528527e-01
1.532274061351546757e-01
1.683173728554288318e-01
1.812101936368695765e-01
1.915022088485812679e-01
1.994843132147819942e-01
2.049084920817083322e-01
2.078526283795616159e-01
2.086716672771055936e-01
2.071620336657473693e-01
2.037740914462579933e-01
1.987080339921720451e-01
1.920600737394371205e-01
1.843723974959956824e-01
1.757079840561260320e-01
1.664206973383822452e-01
1.569195698738441447e-01
1.472735560309949010e-01
1.378624492927182366e-01
1.288716683528794427e-01
1.204399752035326954e-01
1.127576576805440906e-01
1.059210218945328963e-01
9.995922524560008071e-02
9.489345837081497592e-02
9.076467836951848667e-02
8.738717513098882839e-02
8.479983487073265713e-02
8.285848222907962746e-02
8.127343352489853345e-02
8.014677929110029797e-02
7.911640827206183058e-02
7.805307915860426604e-02
7.695530495510492786e-02
7.540353728635641739e-02
7.353505090828883761e-02
7.116910872147190481e-02
6.803971461643301688e-02
6.441819400874729262e-02
6.002374056261015889e-02
5.496610498018413005e-02
4.936276228678355971e-02
4.305679256160675067e-02
3.637284023004293265e-02
2.930565548393738312e-02
2.191197083267188914e-02
1.449471704104448103e-02
7.014759013339888841e-03
-2.749206994215889002e-04
-7.259020693036165491e-03
-1.390963245018063746e-02
-1.997907483435859902e-02
-2.549196445593261001e-02
-3.033356172510127610e-02
-3.442475994000013945e-02
-3.783735761900414163e-02
-4.045145484269125485e-02
-4.236251945781669553e-02
-4.361708547915112838e-02
-4.419266151096271078e-02
-4.427481869303251383e-02
-4.385092746605508129e-02
-4.304621180671952541e-02
-4.201181550596684577e-02
-4.074196871220225891e-02
-3.943219070897020784e-02
-3.812362772392492716e-02
-3.688345889643492720e-02
-3.585467604263102570e-02
-3.500886665563322786e-02
-3.445481163556095988e-02
-3.420339092530023245e-02
-3.424915992307559637e-02
-3.464976127072262602e-02
-3.531936107505604522e-02
-3.629580883679924680e-02
-3.751832821346347269e-02
-3.893037842427221618e-02
-4.054331148906877708e-02
-4.219545449427062472e-02
-4.392845402633741708e-02
-4.565746719519447189e-02
-4.728216937452330709e-02
-4.884084496348338467e-02
-5.019199369639971986e-02
-5.135925428268369591e-02
-5.233209530539991577e-02
-5.299033728427235412e-02
-5.344030433966913407e-02
-5.361369399046562317e-02
-5.352841009883230194e-02
-5.324032865328245240e-02
-5.270100308296955111e-02
-5.201060619889511655e-02
-5.116530556364028842e-02
-5.020128947690306181e-02
-4.917703804039988413e-02
-4.808144584152403839e-02
-4.699958207976052960e-02
-4.589891248975586091e-02
-4.482286593148047255e-02
-4.379318797892037263e-02
-4.273519922051303987e-02
-4.173348918478077263e-02
-4.069030223096977567e-02
-3.957123918715715893e-02
-3.841012206436626025e-02
-3.703746541499091521e-02
-3.550728777615624193e-02
-3.373133367284189554e-02
-3.157757187188717923e-02
-2.912220188307199434e-02
-2.621429401782605570e-02
-2.282622770098103465e-02
-1.900011808427233551e-02
-1.460443308373179233e-02
-9.724262238029066086e-03
-4.361162484507787214e-03
1.529432271010535901e-03
7.799831815129221191e-03
1.444263743507088332e-02
2.141289141177531163e-02
2.853162727387092285e-02
3.577554174816919424e-02
4.300563213427250481e-02
5.006230276311669086e-02
5.691029902472442836e-02
6.334894822424744221e-02
6.926426329565245343e-02
7.462392726697399115e-02
7.921430881055391282e-02
8.301288565553707754e-02
8.593763924751038341e-02
8.787374912154095885e-02
8.887446700261612820e-02
8.883895371579030031e-02
8.778220533873135056e-02
8.576828072168930783e-02
8.276989925724492769e-02
7.889497324286466606e-02
7.419318565477341088e-02
6.875224576739841220e-02
6.269472698627809315e-02
5.611168854656706229e-02
4.914664650171750304e-02
4.190064722259206204e-02
3.454306329242888551e-02
2.717012245604712856e-02
1.992854983873762476e-02
1.298865839473318032e-02
6.365830783364084811e-03
2.899204477363297172e-04
-5.192237501963676942e-03
-1.000860797890531714e-02
-1.398387406422834864e-02
-1.720606682963629272e-02
-1.949748319641518568e-02
-2.084558034727953049e-02
-2.133605083614427411e-02
-2.081807432446346542e-02
-1.944282292274687046e-02
-1.718078613735363538e-02
-1.404552169571087611e-02
-1.025131209379034208e-02
-5.715897235887455567e-03
-6.287244614574189275e-04
4.915127837915982296e-03
1.084472199097313849e-02
1.695344092311374534e-02
2.319721617556213741e-02
2.938482222907384811e-02
3.540679555493678188e-02
4.114467207257455766e-02
4.642825857453474619e-02
5.121290940825073273e-02
5.530921066166829408e-02
5.869394109615447969e-02
6.126468973625515818e-02
6.289655737579753769e-02
6.367474166458091112e-02
6.343980160304384108e-02
6.224285897778707860e-02
6.012362183662696424e-02
5.698492320498130953e-02
5.305623264388885374e-02
4.825876282002524581e-02
4.266689845323302921e-02
3.647778730000720421e-02
2.964974857971979655e-02
2.237584434461445740e-02
1.475179385852812275e-02
6.814813413749018847e-03
-1.217973284017995553e-03
-9.313120721301602900e-03
-1.737682466862708330e-02
-2.526880369662907674e-02
-3.292537039574938013e-02
-4.029789316533791133e-02
-4.725833815403905624e-02
-5.376324007555204065e-02
-5.981560865407626465e-02
-6.525243694296870012e-02
-7.013436654926097358e-02
-7.439511872591782204e-02
-7.788998961901115459e-02
-8.082243223156951317e-02
-8.294592667399609820e-02
-8.426832303704646920e-02
-8.489517278368453879e-02
-8.458333373627614782e-02
-8.347831208264790137e-02
-8.149345298633504930e-02
-7.848998003910825916e-02
-7.466739547116152398e-02
-6.982008940836588462e-02
-6.397370707392888156e-02
-5.720050717516519251e-02
-4.942067464184585202e-02
-4.071082222004214490e-02
-3.112541269748610520e-02
-2.071206408944387817e-02
-9.539398353421889992e-03
2.196989676174659553e-03
1.444152173420536200e-02
2.700617767073505704e-02
3.957861887990046096e-02
5.220660278551581684e-02
6.441829720413870530e-02
7.600937634873292104e-02
8.688658551373462657e-02
9.652781492621935466e-02
1.049159826584697280e-01
1.117043171961628889e-01
1.165430739874693949e-01
1.195450022020618230e-01
1.202421917382855143e-01
1.186349485021062355e-01
1.146945229127406679e-01
1.082522754967317896e-01
9.953395513395853211e-02
8.849305793048009572e-02
7.533059293227034603e-02
6.030428013188779413e-02
4.362821122562102194e-02
2.569643866009806155e-02
6.813526795304577707e-03
-1.252456941586108097e-02
-3.197049964766015412e-02
-5.102360631978259536e-02
-6.918232645603225595e-02
-8.613959619920953659e-02
-1.013075975737650625e-01
-1.144423384572063329e-01
-1.251701745162003276e-01
-1.330997488769519455e-01
-1.383027090508343326e-01
-1.403794964612343488e-01
-1.394064856945444741e-01
-1.354709079716591713e-01
-1.284936038337623210e-01
-1.189519963863778784e-01
-1.068752784398733779e-01
-9.260678719004528103e-02
-7.668469546509354418e-02
-5.925872903829679933e-02
-4.093016131127317353e-02
-2.205209838775147244e-02
-2.960482090103047810e-03
1.576740086876263908e-02
3.393676733305908688e-02
5.117052005480265953e-02
6.715982410718868145e-02
8.171092509109008362e-02
9.465586829591651763e-02
1.058265239747128161e-01
1.151472705549786424e-01
1.226921677903064084e-01
1.283017817141127448e-01
1.321671038838057033e-01
1.343309816413713054e-01
1.347641677393963955e-01
1.338763383064594525e-01
1.315173901564746783e-01
1.278909680222744538e-01
1.233179951718286205e-01
1.176233600443999244e-01
1.111815432639774032e-01
1.040114663017404212e-01
9.607956666616344898e-02
8.778431700419329908e-02
7.891832644221320747e-02
6.961689369728990551e-02
6.004468726240107246e-02
5.010005892029219948e-02
3.992355921219856857e-02
2.957599821626713879e-02
1.904151240453708788e-02
8.437578411613388604e-03
-2.137987870052391291e-03
-1.269577200986752447e-02
-2.304929160065063640e-02
-3.308298726247874827e-02
-4.282774809977264036e-02
-5.196432090117167335e-02
-6.047183669058999594e-02
-6.827234670858442489e-02
-7.507513376818926443e-02
-8.096480884931261945e-02
-8.569910320903274814e-02
-8.917464429469744436e-02
-9.151787178221032493e-02
-9.244475539850734169e-02
-9.208377658801460142e-02
-9.042418143625509386e-02
-8.742686304489116766e-02
-8.329342778288023608e-02
-7.799009857902164389e-02
-7.169375445414835624e-02
-6.457067644544929597e-02
-5.671347983100332585e-02
-4.837498003501149169e-02
-3.968560751566448802e-02
-3.087710573417867463e-02
-2.213968944808255429e-02
-1.366048256131495442e-02
-5.656051449305370300e-03
1.737305097647093722e-03
8.316382780616679571e-03
1.398435187899233281e-02
1.859174456680641810e-02
2.206079877391028607e-02
2.438550204579405939e-02
2.545436106640636131e-02
2.537801247547220168e-02
2.411681785876781253e-02
2.177484162563373890e-02
1.852444192296130374e-02
1.436254022603952740e-02
9.598027806626038827e-03
4.319715057414933931e-03
-1.290082518173962627e-03
-6.893594161311120995e-03
-1.245622335450162488e-02
-1.763008760343640416e-02
-2.222442802726009095e-02
-2.612932307773155674e-02
-2.901613041379140848e-02
-3.085003727263510923e-02
-3.145347357759475937e-02
-3.067167622624360560e-02
-2.851929679903590989e-02
-2.491105044327585408e-02
-1.985432576894624254e-02
-1.342479708650529124e-02
-5.702283723310232720e-03
3.216548541173361829e-03
1.310326249164571466e-02
2.378927424418605593e-02
3.505892757071974591e-02
4.655507543893516731e-02
5.810925913729227121e-02
6.934730761938545651e-02
7.993090018078938264e-02
8.963816205662268610e-02
9.808326370472564282e-02
1.050229144261068670e-01
1.102096646537777114e-01
1.134032177205853004e-01
1.144324194933722255e-01
1.132067401955947628e-01
1.096560129942609763e-01
1.037450941514485997e-01
9.567250173736360774e-02
8.543791950496787413e-02
7.333899117471344431e-02
5.974925673614454869e-02
4.481872384304372986e-02
2.915105103597799910e-02
1.311719190912125250e-02
-2.861784490183508396e-03
-1.810211954659045677e-02
-3.230856090423128713e-02
-4.486732470908091214e-02
-5.530015042407405296e-02
-6.327294704950299498e-02
-6.838097007098326019e-02
-7.038020918827535277e-02
-6.906942359069037640e-02
-6.445670056231991851e-02
-5.645039222627282888e-02
-4.531329074060999607e-02
-3.134483402244332695e-02
-1.473409058918906736e-02
3.744645782509740603e-03
2.378273484322759521e-02
4.467320732662717619e-02
6.550107119266436462e-02
8.590610790276199948e-02
1.048661104623717782e-01
1.217132182792006051e-01
1.359396753678161762e-01
1.466504641189923519e-01
1.535861770398550541e-01
1.562260415912454237e-01
1.542125298078005080e-01
1.475323108863547672e-01
1.360967448662488144e-01
1.200900974921872005e-01
9.979652069107930457e-02
7.570291296159108174e-02
4.832070469279863001e-02
1.837894573825238700e-02
-1.328136880285846547e-02
-4.593656793267760635e-02
-7.853424206204440150e-02
-1.102336818621084402e-01
-1.401579002402084106e-01
-1.673244963369660554e-01
-1.910605848144684149e-01
-2.106189658194060343e-01
-2.254095232066453125e-01
-2.350255299263008246e-01
-2.392054643104264688e-01
-2.378087431817058894e-01
-2.309038127150366548e-01
-2.188261349816921497e-01
-2.018107459935367110e-01
-1.805658633507084554e-01
-1.557869525176087400e-01
-1.281164827748886015e-01
-9.870640904075536626e-02
-6.828973043406705301e-02
-3.788191630602527615e-02
-8.596817308196558205e-03
1.889200344778498020e-02
4.357460652747976310e-02
6.474459792565481764e-02
8.187215358007605970e-02
9.441040889966480221e-02
1.020817102208434468e-01
1.047928441184284160e-01
1.025829445201133505e-01
9.555702230917530182e-02
8.427072789410947062e-02
6.906094196225698312e-02
5.055550660705009081e-02
2.972215813747088389e-02
6.956954692484565786e-03
-1.657355417072561149e-02
-4.007111247962637929e-02
-6.295170215590965845e-02
-8.394436837198047952e-02
-1.027805224785230398e-01
-1.185797070232954692e-01
-1.306377186891740649e-01
-1.389166039101100147e-01
-1.426254738953217083e-01
-1.419559583437687289e-01
-1.367105783760718118e-01
-1.267554150142263525e-01
-1.126327147814075585e-01
-9.428979564653046375e-02
-7.229310953800503758e-02
-4.707728963670381600e-02
-1.900499298802939621e-02
1.107158701397847889e-02
4.280495432051261567e-02
7.545537052413112122e-02
1.084188470359394446e-01
1.411078092353602320e-01
1.728758570815890905e-01
2.032357250661897818e-01
2.315504778779120254e-01
2.575218648080306316e-01
2.805382507130566028e-01
3.003401195315099081e-01
3.166726733530088045e-01
3.289910194018078049e-01
3.376427084672645740e-01
3.420462142937301664e-01
3.422168425084294863e-01
3.384722146225899175e-01
3.303719586659030760e-01
3.185105828331351030e-01
3.028575765208604276e-01
2.834014939298491464e-01
2.610291183918898028e-01
2.354859682836146773e-01
2.073164659803676813e-01
1.770989296355714449e-01
1.448751005683168724e-01
1.114324787106669573e-01
7.708956898134775026e-02
4.214166787075330350e-02
7.315219016627703963e-03
-2.708879660089818023e-02
-6.075778633811856205e-02
-9.303004736563660892e-02
-1.236680399410305664e-01
-1.524920413412171327e-01
-1.788114716915090996e-01
-2.027110141523851550e-01
-2.238376662328468436e-01
-2.418090059195035779e-01
-2.569856471421057553e-01
-2.687773000925792188e-01
-2.772811914910436881e-01
-2.828661563244418975e-01
-2.849688899233502326e-01
-2.841703501539881715e-01
-2.804066939029615235e-01
-2.736331450975020840e-01
-2.645682911751180977e-01
-2.529034838400241458e-01
-2.390649349827201064e-01
-2.234917634482544990e-01
-2.061128193640849315e-01
-1.874997983659828227e-01
-1.678337295192168233e-01
-1.473238839708123082e-01
-1.264655973254166232e-01
-1.054112384728421586e-01
-8.443025101222428885e-02
-6.389877703113167051e-02
-4.403256373390803530e-02
-2.496616507167869620e-02
-7.124216994871211510e-03
9.444351837956374562e-03
2.463615194601157313e-02
3.806858168732903114e-02
4.997142852537852370e-02
6.002702026521744560e-02
6.821379906312220742e-02
7.486081797763156909e-02
7.954879425679795002e-02
8.267636968323456570e-02
8.431012872785206835e-02
8.435208805411015254e-02
8.334936872813854258e-02
8.110878666405678394e-02
7.793639327750892520e-02
7.424292807776856906e-02
6.984349654648754069e-02
6.525702559207162412e-02
6.051652943453245115e-02
5.576578597274448740e-02
5.136478891355975018e-02
4.722898315683039805e-02
4.362557214617363011e-02
4.064458705215983486e-02
3.829022303039401887e-02
3.671495144887979706e-02
3.587080956374839869e-02
3.580119774891692142e-02
3.646779327257153314e-02
3.784372252283502852e-02
3.986273908586698833e-02
4.243076025948491758e-02
4.549865658735459395e-02
4.888896768886217409e-02
5.256665399405120037e-02
5.637715400560696505e-02
6.014948247838377421e-02
6.386682841603816274e-02
6.729742082866504993e-02
7.040878344843176651e-02
7.307801299314288512e-02
7.514741120745530023e-02
7.664224387776875924e-02
7.739352538515978375e-02
7.739831970158532470e-02
7.663346906975609940e-02
7.500333522849533807e-02
7.259813877647436353e-02
6.936257648227228678e-02
6.533547293843820769e-02
6.060252019814237057e-02
5.515120125585665223e-02
4.911562810255412637e-02
4.255853277531200518e-02
3.553980800168355519e-02
2.821807810330826533e-02
2.066179172874173242e-02
1.297015302338156220e-02
5.305196423423494921e-03
-2.276848782242358281e-03
-9.641321787619373807e-03
-1.665759526453584188e-02
-2.330454128554205681e-02
-2.941002253818348830e-02
-3.491522194980856142e-02
-3.981595372756037421e-02
-4.393952628789750403e-02
-4.733626337126236455e-02
-4.993014574469521044e-02
-5.165803179898083991e-02
-5.263582358529673988e-02
-5.273594522550092978e-02
-5.203792167717523343e-02
-5.060620420862301655e-02
-4.839555986362682055e-02
-4.556266198189697081e-02
-4.210323655136550408e-02
-3.809823626431520227e-02
-3.369507839348204886e-02
-2.889886705047811297e-02
-2.386277580812397672e-02
-1.865730845157333173e-02
-1.338617064504203646e-02
-8.156585561574457993e-03
-3.046101100124821472e-03
1.819714973168767846e-03
6.409487607974858128e-03
1.058857969262530854e-02
1.431422347244460172e-02
1.753798131343985156e-02
2.014964292198890769e-02
2.221279950689959357e-02
2.361025211996546636e-02
2.434706259798129907e-02
2.448381617742406355e-02
2.392983506465329313e-02
2.280238815812558884e-02
2.108261632646946798e-02
1.878945524699065714e-02
1.608112079000307074e-02
1.289692698739062886e-02
9.373043773684561902e-03
5.568040707074808221e-03
1.530689528014182298e-03
-2.607145517765975008e-03
-6.824492697979664228e-03
-1.099639391849527303e-02
-1.507016723091358229e-02
-1.896502568260114915e-02
-2.258148304586158131e-02
-2.590095782986582412e-02
-2.879033001545797457e-02
-3.125467047925902658e-02
-3.321162273903229684e-02
-3.457508099341118080e-02
-3.539958303639607895e-02
-3.555821531532557533e-02
-3.507685159422810339e-02
-3.395520008547902452e-02
-3.211238721821898373e-02
-2.967433292887626875e-02
-2.656471935476535998e-02
-2.282191204680004970e-02
-1.853209297041849904e-02
-1.368342956420418033e-02
-8.375964489998131979e-03
-2.666478888924381056e-03
3.377389960220253309e-03
9.655796404366055741e-03
1.607544860574011344e-02
2.254362728957066270e-02
2.896055487019214350e-02
3.518298514744215566e-02
4.116855626189650647e-02
4.675548402014520488e-02
5.183443486452655319e-02
5.638152968729916170e-02
6.020455273949065073e-02
6.329939270204125445e-02
6.558009252252719468e-02
6.691726934748806754e-02
6.742474710359619428e-02
6.693588057827810911e-02
6.548413827277003996e-02
6.313439854489613645e-02
5.981724577475486943e-02
5.567584133294855436e-02
5.072209837245922337e-02
4.501475358060702536e-02
3.872363263685466711e-02
3.188034360529558991e-02
2.463220786026388415e-02
1.710591526116870750e-02
9.418239657587521019e-03
1.701336186805659824e-03
-5.906457300857628247e-03
-1.327590023535299771e-02
-2.031654688475066292e-02
-2.685716759022782965e-02
-3.285154293936074638e-02
-3.818130532857463150e-02
-4.271249757685934012e-02
-4.652217628411656897e-02
-4.940986299607434684e-02
-5.139763705065685667e-02
-5.251043843037526970e-02
-5.262655560311909481e-02
-5.189574057350920810e-02
-5.024733218799872642e-02
-4.769764237087802811e-02
-4.442730523824046929e-02
-4.034285062324360904e-02
-3.559984923833644371e-02
-3.027174343770426199e-02
-2.438210177216235466e-02
-1.811839769216279719e-02
-1.149983052240521539e-02
-4.644375574400775274e-03
2.324851234970503298e-03
9.329854733009493653e-03
1.626042387911533563e-02
2.301598751922459204e-02
2.947515324378600227e-02
3.560839890158518095e-02
4.125211109031227258e-02
4.635336196372830120e-02
5.087020857647805289e-02
5.464644961103311271e-02
5.773978905918886184e-02
6.002429280369798309e-02
6.143768491803980325e-02
6.209567156971079749e-02
6.182383022580505150e-02
6.071681342321845476e-02
5.879491093962835313e-02
5.599070981315591722e-02
5.249792277089322667e-02
4.824849027277205299e-02
4.332183405115347385e-02
3.787218975018810663e-02
3.188123750894969466e-02
2.550712891073309008e-02
1.883377169655982980e-02
1.193079274868188815e-02
4.951799376899140154e-03
-2.030186190659262480e-03
-8.914307233498636879e-03
-1.559373573625998100e-02
-2.195710878523127879e-02
-2.796346558735042162e-02
-3.348562361910990826e-02
-3.844322061841124599e-02
-4.285670781299454751e-02
-4.655808075628221909e-02
-4.958060492569912187e-02
-5.188732422546184914e-02
-5.336932452590772979e-02
-5.417020198769727235e-02
-5.415218119959987197e-02
-5.334073095019944283e-02
-5.185125565704503531e-02
-4.956359169183438551e-02
-4.661966573684747650e-02
-4.302675622169666730e-02
-3.876115460125403867e-02
-3.402413282368616648e-02
-2.874380696378031966e-02
-2.301572298207405984e-02
-1.695469718354718908e-02
-1.056981480377373536e-02
-3.979226644569258849e-03
2.738138017817074842e-03
9.518915549718145325e-03
1.626565069624319806e-02
2.287317618754062740e-02
2.929142257068459085e-02
3.541121640665011172e-02
4.111866640033519371e-02
4.642868251026949916e-02
5.116641927980303262e-02
5.529427250111351722e-02
5.882040047171317732e-02
6.157164343910434545e-02
6.362595026252838848e-02
6.490363452963443525e-02
6.531788799098886544e-02
6.505497444790533934e-02
6.393322161471121090e-02
6.203707684052827548e-02
5.945676993870959576e-02
5.610747435145693740e-02
5.216678391166002654e-02
4.762659081158414354e-02
4.251444210087447495e-02
3.701233067940977450e-02
3.109044336807718217e-02
2.485644973212797551e-02
1.841297062574062324e-02
1.179955844005703067e-02
5.107035871956680691e-03
-1.574698228615315290e-03
-8.186470850052290221e-03
-1.467871338576021145e-02
-2.091542187288615920e-02
-2.690743551257723451e-02
-3.255334049218736037e-02
-3.771083947578511564e-02
-4.252222549903079962e-02
-4.672280203061535131e-02
-5.031464357183126207e-02
-5.334288253598214180e-02
-5.555643374530421646e-02
-5.711087268765356606e-02
-5.785817547563828350e-02
-5.766311469227642511e-02
-5.674504826010370179e-02
-5.482437998638634707e-02
-5.196988221557052867e-02
-4.823265389691901855e-02
-4.344866714716021094e-02
-3.780017655854823327e-02
-3.120710824009089931e-02
-2.368371975364260903e-02
-1.535723713003209895e-02
-6.240740640593580614e-03
3.582874652945183813e-03
1.400200740889606318e-02
2.484575329693754220e-02
3.611595089198944841e-02
4.751564010783326797e-02
5.889185814130112884e-02
7.018947338941289305e-02
8.097699286904147531e-02
9.126823967547839644e-02
1.007550875992734019e-01
1.090546174722938494e-01
1.163115568978489028e-01
1.219633541092517148e-01
1.259187675408098561e-01
1.281111311747088755e-01
1.280943118412032899e-01
1.260552573910773133e-01
1.216916802733626485e-01
1.148992804963220593e-01
1.058714892710747174e-01
9.443043527079073018e-02
8.077337583923287212e-02
6.503957840968187243e-02
4.737086182125238576e-02
2.810841203523308657e-02
7.510045832978153382e-03
-1.404068211932556556e-02
-3.616520030823431459e-02
-5.836062226925090718e-02
-8.024273629158087950e-02
-1.012864857422679510e-01
-1.209560833492349941e-01
-1.389608086507391760e-01
-1.546700521061100397e-01
-1.678044815920078925e-01
-1.780401539212571882e-01
-1.849649571727680353e-01
-1.886589702342086894e-01
-1.887872490676736625e-01
-1.854064771159820990e-01
-1.787492380079601373e-01
-1.687574765132531240e-01
-1.559339194826112052e-01
-1.405106390336916533e-01
-1.228090153031148879e-01
-1.036079706167070125e-01
-8.308562546484826727e-02
-6.188664514346644413e-02
-4.061568845594364097e-02
-1.957126995464612135e-02
5.851358510976789606e-04
1.951342977501334397e-02
3.697067443241360690e-02
5.245931821888061286e-02
6.592836338061092150e-02
7.729854320702513049e-02
8.634952689500569045e-02
9.328820900775809666e-02
9.822130222738367777e-02
1.011642253894821930e-01
1.025776008948710016e-01
1.026089174108750918e-01
1.014907056007640918e-01
9.981081886453974095e-02
9.761287593418153941e-02
9.526068836653774075e-02
9.333026311848006962e-02
9.165054240574001254e-02
9.068142978926177489e-02
9.058656769339963610e-02
9.119174047753933476e-02
9.286517661228692322e-02
9.532988713014267645e-02
9.837382817143366931e-02
1.021687562541189614e-01
1.061260560524483060e-01
1.100566238642141093e-01
1.137895444061747530e-01
1.167176678191479272e-01
1.187034872681069497e-01
1.193705279498202265e-01
1.182464548257289305e-01
1.152624660953822794e-01
1.101076923293283771e-01
1.025410496205163974e-01
9.265624137345186695e-02
8.037116396021863618e-02
6.571081053831671903e-02
4.904237447377560177e-02
3.050138487069740251e-02
1.047307720250225359e-02
-1.050153649491973942e-02
-3.212449154954218761e-02
-5.371221507741014839e-02
-7.470270671273507301e-02
-9.470815219939093810e-02
-1.129725661140152798e-01
-1.291233616251863670e-01
-1.426925335972049069e-01
-1.532096952964698278e-01
-1.605724027965570178e-01
-1.644122908738219757e-01
-1.647264716880311175e-01
-1.615715524041608231e-01
-1.549747510751880997e-01
-1.453184657540149693e-01
-1.327883866866936269e-01
-1.178456890947726932e-01
-1.010365397786094355e-01
-8.271611896439461098e-02
-6.358626752818084815e-02
-4.409537500544437327e-02
-2.479849047818255200e-02
-6.296260367497442771e-03
1.105200653515954479e-02
2.674344472193941960e-02
4.044216315483781243e-02
5.188131029187785515e-02
6.084278188573872398e-02
6.719046725361163541e-02
7.089476588749757391e-02
7.204101523998218681e-02
7.063191246659980549e-02
6.698121272497987999e-02
6.125320216788705807e-02
5.371002109076525310e-02
4.486253686040936328e-02
3.484341729731323112e-02
2.418289326813557669e-02
1.332581798996098146e-02
2.449245146905845629e-03
-7.829240155700859655e-03
-1.734586269377518669e-02
-2.576222427263058154e-02
-3.268381667763777670e-02
-3.808862825034785293e-02
-4.167896822194341183e-02
-4.338233889630278145e-02
-4.320568565530202854e-02
-4.108768716763832457e-02
-3.714516224491926089e-02
-3.149488610507164554e-02
-2.430529703239779973e-02
-1.576961907091301712e-02
-6.184848030874770357e-03
4.226210741322240783e-03
1.515545409572928090e-02
2.624396434499345551e-02
3.729004142853910297e-02
4.789332443021632191e-02
5.781997944362496367e-02
6.683156899237249760e-02
7.460488137653918661e-02
8.105276035331175633e-02
8.593059576627098961e-02
8.914633882051481439e-02
9.064953013067814092e-02
9.033592014928075453e-02
8.831676282270202460e-02
8.456337352474328772e-02
7.920467421565401123e-02
7.237729819235735884e-02
6.420045691153601630e-02
5.494125499339370944e-02
4.472986009719646244e-02
3.384148045153395623e-02
2.250008232624028243e-02
1.093313238873304047e-02
-5.834008331225349134e-04
-1.186910647690017986e-02
-2.263376584891060861e-02
-3.275097806585861721e-02
-4.197790073713571907e-02
-5.014028792435094167e-02
-5.717136558815900244e-02
-6.284159755103731204e-02
-6.718862653039657518e-02
-7.007614437646310368e-02
-7.143160673312588804e-02
-7.141205394506298931e-02
-6.984833954987997029e-02
-6.690672480679232814e-02
-6.263822932419017830e-02
-5.704289401581501273e-02
-5.041328188067360078e-02
-4.270644598063993991e-02
-3.413130590606527209e-02
-2.488586682759399982e-02
-1.504497176581546733e-02
-4.875590086820597545e-03
5.508442719265089008e-03
1.589866999258402261e-02
2.611419580692197345e-02
3.599028388586811983e-02
4.533071114380211181e-02
5.402137288571357693e-02
6.183711537017489573e-02
6.873034117286613842e-02
7.452493903654042184e-02
7.908393569294237813e-02
8.247063523641527671e-02
8.445950568490612209e-02
8.512441675723289580e-02
8.445207812837457473e-02
8.235447592592401445e-02
7.907178168694987963e-02
7.449509566471987365e-02
6.875997412220073712e-02
6.206203016386079713e-02
5.439037905549148899e-02
4.600986758832376761e-02
3.701958095259624826e-02
2.755432647627734793e-02
1.788259675559255787e-02
8.081630081088468642e-03
-1.643410085828650273e-03
-1.112360779189342300e-02
-2.021099493307221967e-02
-2.877725918358627413e-02
-3.666742527668966772e-02
-4.376796377606865379e-02
-5.004104989989732744e-02
-5.531797122166112746e-02
-5.962324001380599897e-02
-6.288996271123264981e-02
-6.503806651822313656e-02
-6.622344222988818530e-02
-6.630245784588305324e-02
-6.536765875115957414e-02
-6.353034559269710169e-02
-6.071592439999418805e-02
-5.713549277403356941e-02
-5.278852666867345916e-02
-4.773389427532278434e-02
-4.220509944667472091e-02
-3.615048024249995634e-02
-2.974374328893512540e-02
-2.309280338440375391e-02
-1.625714829786500948e-02
-9.383583347374699346e-03
-2.543296000151206750e-03
4.159470315339208919e-03
1.065393241576860842e-02
1.682179404201964920e-02
2.262220333159285779e-02
2.797792502787807556e-02
3.276815484960956398e-02
3.706828215875542648e-02
4.070367514955120641e-02
4.366659455987957628e-02
4.601525131449052397e-02
4.757484026077227202e-02
4.847680301185381541e-02
4.865025978158288994e-02
4.802390908304392247e-02
4.682080092881493738e-02
4.484757561691258415e-02
4.221336665965291085e-02
3.899293466725043539e-02
3.511623858121721425e-02
3.074548040530735576e-02
2.585344547999826603e-02
2.049876267436901225e-02
1.477829952214166145e-02
8.715526248279030497e-03
2.400157017143579943e-03
-4.127990908265841662e-03
-1.072310545889317707e-02
-1.740670339973708972e-02
-2.402008767246998494e-02
-3.042601461164293544e-02
-3.669012904970799654e-02
-4.250540998171142837e-02
-4.789163086969133731e-02
-5.274540587622701671e-02
-5.674737518789178814e-02
-6.012301069886159116e-02
-6.247237404218327489e-02
-6.370900419095559819e-02
-6.389961435417376712e-02
-6.269377798172059979e-02
-6.020349379851389765e-02
-5.628785667614361748e-02
-5.080113516150218389e-02
-4.390536861714210842e-02
-3.545564050825277674e-02
-2.552771234662170458e-02
-1.421523678554091619e-02
-1.616199753418935334e-03
1.214605807728108208e-02
2.685615676487974890e-02
4.224972185529771163e-02
5.819705850306178263e-02
7.423134507592812903e-02
9.014500146306010653e-02
1.056140266119247467e-01
1.200703717624886230e-01
1.335131420178845840e-01
1.452874737646120129e-01
1.550804052469939853e-01
1.627669505392026761e-01
1.677727516772516692e-01
1.701095065620729929e-01
1.694806375390316422e-01
1.656540430106679951e-01
1.588353747323207332e-01
1.487985382179571603e-01
1.357464169894752049e-01
1.198730841891595816e-01
1.013447288624311771e-01
8.060772531511772865e-02
5.796341757706102021e-02
3.391284510141721192e-02
8.932053618565926473e-03
-1.641573065548386848e-02
-4.159283156993875963e-02
-6.605726888002180774e-02
-8.916301369691101431e-02
-1.105788447358209831e-01
-1.296470151202512577e-01
-1.460109586521242120e-01
-1.593930829931407278e-01
-1.693455701163381344e-01
-1.759271040286342902e-01
-1.788518540212720442e-01
-1.781272297311492225e-01
-1.740493805038469122e-01
-1.664969049989133976e-01
-1.559604133717802654e-01
-1.426543175532589969e-01
-1.268728364322974922e-01
-1.093096719184305371e-01
-9.011861421326013144e-02
-6.992722190910687086e-02
-4.923360944818259283e-02
-2.837619273304394299e-02
-7.965975109822220901e-03
1.169428221067963201e-02
3.018636818039497141e-02
4.715577592752527580e-02
6.234628681669794614e-02
7.552741777170236814e-02
8.654359398344936560e-02
9.522715472856833896e-02
1.016781082055576574e-01
1.057455157221526831e-01
1.075441992919016349e-01
1.073248576157514039e-01
1.049845149118289328e-01
1.009656753619559699e-01
9.534623637115294259e-02
8.828413559577892589e-02
8.034110379524334045e-02
7.141192505415873415e-02
6.192295289024939836e-02
5.216755170739945796e-02
4.216776629971242391e-02
3.236070196183983561e-02
2.277096176390239202e-02
1.355277123898227312e-02
4.965294045406583312e-03
-3.043273921006021433e-03
-1.033249604294067189e-02
-1.686522865613060418e-02
-2.261686898641603050e-02
-2.762567158693684730e-02
-3.185080004136697784e-02
-3.532177446098984375e-02
-3.817472608006042267e-02
-4.028718062256327753e-02
-4.183801334267164135e-02
-4.281964812866446979e-02
-4.316037247745752037e-02
-4.313196695944637032e-02
-4.251347657916736827e-02
-4.138684783114267990e-02
-3.986228032819884304e-02
-3.774351599475624097e-02
-3.519328421531685291e-02
-3.212289155134778057e-02
-2.846775476068017993e-02
-2.437877727036730571e-02
-1.970898895406765147e-02
-1.452091917331107748e-02
-8.846880749841183611e-03
-2.701037545518617140e-03
3.867875225919641287e-03
1.078761061861118441e-02
1.794691476058781626e-02
2.533798226117456309e-02
3.273522789391054844e-02
4.007142198714328668e-02
4.723748813793605950e-02
5.394510060051446731e-02
6.025173052594326450e-02
6.584215680573571317e-02
7.054824178826055170e-02
7.439038322590649233e-02
7.702612327637606282e-02
7.847192280538646536e-02
7.860775335429283361e-02
7.724131533227289459e-02
7.452981662857341427e-02
7.028131075802077077e-02
6.455201188732266615e-02
5.742762510416003774e-02
4.892896641286448994e-02
3.921038316374195198e-02
2.838486676054607222e-02
1.667003027058192380e-02
4.193906055379934862e-03
-8.742167496684900146e-03
-2.190719301054657245e-02
-3.511313095272022150e-02
-4.791791948599963269e-02
-6.025889370469065393e-02
-7.172175888949101907e-02
-8.197720928569549037e-02
-9.098882271785087295e-02
-9.826621528817965079e-02
-1.037499625055099822e-01
-1.072478958831315915e-01
-1.084450057324489736e-01
-1.075253531890470599e-01
-1.041739038511513560e-01
-9.844600652853939537e-02
-9.043673101101674938e-02
-8.011631646594508105e-02
-6.774106426581262552e-02
-5.340489646850438837e-02
-3.739796234293616545e-02
-1.998184536834568537e-02
-1.482922651095377499e-03
1.769253408316709408e-02
3.724723031884352026e-02
5.662013412788947930e-02
7.554024104033409126e-02
9.349261048611171021e-02
1.099823369882796109e-01
1.248016783517793549e-01
1.373534734364271204e-01
1.474478946306183313e-01
1.547758309509668362e-01
1.589646584340724811e-01
1.601551912439455605e-01
1.579783948890728096e-01
1.525462565106171786e-01
1.439810282825627896e-01
1.322925928321034561e-01
1.179292711604014304e-01
1.010291939087372137e-01
8.202838082878326220e-02
6.144748509081020965e-02
3.963293658718464868e-02
1.723207855268166569e-02
-5.306303729631234832e-03
-2.741425062722061337e-02
-4.855897847081766527e-02
-6.828986849874306431e-02
-8.611400450329734224e-02
-1.017270726682559523e-01
-1.147231146292426868e-01
-1.249704116566835721e-01
-1.322665645761601227e-01
-1.364731043330930371e-01
-1.378668867951445554e-01
-1.362554707205876625e-01
-1.319769357556360989e-01
-1.252971145900839689e-01
-1.162990478396259686e-01
-1.056419574705140113e-01
-9.340930152040612111e-02
-7.998476824436612231e-02
-6.599666409945605106e-02
-5.144543021713588599e-02
-3.689019936349331730e-02
-2.259288386737993634e-02
-8.640934587358203162e-03
4.480759323391379605e-03
1.682316852949105809e-02
2.827112333052112306e-02
3.863741430662769039e-02
4.802219700405806202e-02
5.644795466955644658e-02
6.388941558214154826e-02
7.047830148913440673e-02
7.640260907261541001e-02
8.157584713582233249e-02
8.626460316033383868e-02
9.054321274615013959e-02
9.431199475241018593e-02
9.795742910465875253e-02
1.012340987486823746e-01
1.041250354827962105e-01
1.069402836004412355e-01
1.091872729359535943e-01
1.110273863498059121e-01
1.123771329807540520e-01
1.127982312633733775e-01
1.125942244704521700e-01
1.112924190425459009e-01
1.087020851035134239e-01
1.049742376188322196e-01
9.966013408496482429e-02
9.279207541867887099e-02
8.434718403687650745e-02
7.409100484675509857e-02
6.221956597874744865e-02
4.869585084157004168e-02
3.353988605705059828e-02
1.700200087251957370e-02
-7.475365009307864683e-04
-1.956901374220545303e-02
-3.904448612323786760e-02
-5.887720852708756142e-02
-7.884159802065643374e-02
-9.833694125661203433e-02
-1.171235538475075277e-01
-1.347731603052741423e-01
-1.507126505571316499e-01
-1.648840512699735750e-01
-1.766485737984571369e-01
-1.857398174983354855e-01
-1.920859839245399603e-01
-1.952037420248050326e-01
-1.952076933173171325e-01
-1.919478175853891744e-01
-1.853307784739316455e-01
-1.757823868409667534e-01
-1.631773328486834651e-01
-1.478995496908728779e-01
-1.303264826718330271e-01
-1.106879234256170769e-01
-8.957825592665713543e-02
-6.734096594895928878e-02
-4.444470646392251895e-02
-2.143875500340799989e-02
1.284655135700331179e-03
2.327571931622118145e-02
4.410558961711744802e-02
6.340896690770951583e-02
8.096794164381733439e-02
9.639542300080836124e-02
1.095892864645793829e-01
1.204473310028569000e-01
1.287487668123334372e-01
1.347224247312557854e-01
1.382064222702596712e-01
1.392933793541581144e-01
1.383999551573439069e-01
1.353052352363180999e-01
1.304791388060188295e-01
1.240686723690437310e-01
1.161588800343738570e-01
1.072967282145586565e-01
9.740938373975564779e-02
8.684419491846810668e-02
7.591653839861818576e-02
6.462586088405031237e-02
5.334449375447947173e-02
4.212734881694528422e-02
3.115982868596058747e-02
2.059235758314954118e-02
1.050563648241928383e-02
1.059386921214864642e-03
-7.757297274547938874e-03
-1.572811298895918780e-02
-2.291620213749389137e-02
-2.919709515894638660e-02
-3.439565132060703329e-02
-3.877328856408093077e-02
-4.194402201477856473e-02
-4.401278693245273127e-02
-4.500149707318793629e-02
-4.465148488477778399e-02
-4.324070503271089383e-02
-4.052448627654414715e-02
-3.651571643930535266e-02
-3.141642052066187518e-02
-2.501464222956314640e-02
-1.753320088281684966e-02
-8.975505380954686141e-03
5.800396508443116800e-04
1.092254430673244778e-02
2.200942963257753252e-02
3.357140676066013019e-02
4.550991179461238295e-02
5.752114432254998994e-02
6.940350567980568819e-02
8.096075102020207359e-02
9.176134994361694053e-02
1.018061650870508567e-01
1.106289539734686828e-01
1.179867787337724738e-01
1.238149879024811606e-01
1.276545479237331249e-01
1.295514282863238498e-01
1.292680170929201566e-01
1.265962815234101257e-01
1.217427793327792579e-01
1.144672992000333317e-01
1.049201499877587956e-01
9.325318358779016714e-02
7.949684897424556806e-02
6.403132022243974986e-02
4.700537075537913889e-02
2.873375148985324312e-02
9.603448639779077478e-03
-1.006193305569240415e-02
-2.986947204878784637e-02
-4.942175703325669273e-02
-6.830648266109161371e-02
-8.622562925001502065e-02
-1.027243019244172689e-01
-1.175347058759310531e-01
-1.303891524894921772e-01
-1.409473267344432679e-01
-1.491946655562872426e-01
-1.548469245787699455e-01
-1.578602456670089860e-01
-1.583539392159490911e-01
-1.561678701668187397e-01
-1.515884670971689996e-01
-1.446784186275202888e-01
-1.355884754572109774e-01
-1.247663824251094289e-01
-1.122583908689700621e-01
-9.849442000234986949e-02
-8.380206558297621788e-02
-6.842138392966488902e-02
-5.280763288269034461e-02
-3.719254796029002053e-02
-2.192232952047628095e-02
-7.300433968868632294e-03
6.429075600400310439e-03
1.902873371869467922e-02
3.030902149284672720e-02
4.007016262028047227e-02
4.830610758828210449e-02
5.481540714163100209e-02
5.961953134257336889e-02
6.280810681774369464e-02
6.424667280423952687e-02
6.421948515192724138e-02
6.269665412141608996e-02
5.979274738304794778e-02
5.589284398710082924e-02
5.087680064150342657e-02
4.512073589421940895e-02
3.879066251981249519e-02
3.196140447664444495e-02
2.502276985082677388e-02
1.796223382832785875e-02
1.102816501447703712e-02
4.423175469865793519e-03
-1.843037348324437497e-03
-7.532542195702205019e-03
-1.264945161616044117e-02
-1.705731273561353345e-02
-2.072587498730286276e-02
-2.363626006207985436e-02
-2.568787158189193495e-02
-2.701248292680156690e-02
-2.747870111236306104e-02
-2.716817883217213445e-02
-2.613206559181361840e-02
-2.426726745256827661e-02
-2.181920006896935146e-02
-1.865219022638855625e-02
-1.482818439803059926e-02
-1.050412933744775124e-02
-5.562349486495522972e-03
-1.766028750120312435e-04
5.651091852538421383e-03
1.192186882533977435e-02
1.845382352366716286e-02
2.529518318085256443e-02
3.234060145455672913e-02
3.950575096748167730e-02
4.672055710240782117e-02
5.390262066505451671e-02
6.094720885951234596e-02
6.772869742199646992e-02
7.421690282921707127e-02
8.020764625527532221e-02
8.564352496431125450e-02
9.043534280450499230e-02
9.436295946760528408e-02
9.750371209850315635e-02
9.963005804183761027e-02
1.006555943243891971e-01
1.006475600450262159e-01
9.939181259673030011e-02
9.696893446186996557e-02
9.335849074751276233e-02
8.847176560398518907e-02
8.251311881597263309e-02
7.541045414037321482e-02
6.725448851407650475e-02
5.821372275726133944e-02
4.833249552309758917e-02
3.778060218573944806e-02
2.672506741656215795e-02
1.529731121713492556e-02
3.676730995412768287e-03
-7.917831733325900179e-03
-1.936728312493855853e-02
-3.045100234339806825e-02
-4.094796681960799489e-02
-5.083016172017620210e-02
-5.978254442963434195e-02
-6.771974264142559263e-02
-7.457612236137137196e-02
-8.009253715703640308e-02
-8.434785190460523940e-02
-8.716665637069134775e-02
-8.846652920470537973e-02
-8.842775782741088553e-02
-8.682815806537562409e-02
-8.383049678662370108e-02
-7.948949972478959458e-02
-7.379598475282971026e-02
-6.701377459723981134e-02
-5.913827575972061684e-02
-5.036319521925988058e-02
-4.090362924171942610e-02
-3.085754794712161977e-02
-2.048581720006418389e-02
-9.943440730172316278e-03
5.472403166223143572e-04
1.080464872208268361e-02
2.062556897916975607e-02
2.981672996795277711e-02
3.825802505982767859e-02
4.572028598246314496e-02
5.216399943846324744e-02
5.742702924855011548e-02
6.138982846140739885e-02
6.416165222442442306e-02
6.552967515359002515e-02
6.561059576396331694e-02
6.443928597540161951e-02
6.196908052320489885e-02
5.847081580554176067e-02
5.388708056585794076e-02
4.838096179859286555e-02
4.219652510457760214e-02
3.532089509191265603e-02
2.804255334658057458e-02
2.046413655147741317e-02
1.270424447200617021e-02
5.027803966164821718e-03
-2.535135545996636784e-03
-9.807451793092513553e-03
-1.666189440850303002e-02
-2.302566138012289085e-02
-2.879897427812844538e-02
-3.391565727310620615e-02
-3.831700767919506839e-02
-4.201462169759764137e-02
-4.492646533577683565e-02
-4.709789677795819113e-02
-4.853477517226546106e-02
-4.920136861931417166e-02
-4.923768924056227264e-02
-4.857772164960954403e-02
-4.728477502945768740e-02
-4.548237838690921686e-02
-4.309830923094314786e-02
-4.027879815881543063e-02
-3.703909382272826262e-02
-3.338713385529030325e-02
-2.947877794765193724e-02
-2.526656552112642798e-02
-2.083296524824460386e-02
-1.625524693762146061e-02
-1.154180914592866855e-02
-6.771258060825359991e-03
-1.994281781405913591e-03
2.743168095250637494e-03
7.394887995046020568e-03
1.187864772686150761e-02
1.617367887327836318e-02
2.021223930385254719e-02
2.391671369439003075e-02
2.730968067287117482e-02
3.026886740206697485e-02
3.278181524528202273e-02
3.485470840636886031e-02
3.637756570417174928e-02
3.741126110300935226e-02
3.789455296215297336e-02
3.781419095279163478e-02
3.725141729123526702e-02
3.613066923058964180e-02
3.453865021705096461e-02
3.249296615921004605e-02
3.002262995922101718e-02
2.722316439193169998e-02
2.410201573601739033e-02
2.077646601173409671e-02
1.728165967247457385e-02
1.370487709354094655e-02
1.015435865392471521e-02
6.648786198747706072e-03
3.341763050553282679e-03
2.522347943245701468e-04
-2.528328548540684055e-03
-4.876928896594284919e-03
-6.833639183222728515e-03
-8.242905757468083072e-03
-9.096599746849551305e-03
-9.379626338105354760e-03
-8.986527828976478838e-03
-8.012737952219392557e-03
-6.369585413232133932e-03
-4.080194861982377498e-03
-1.209514380694279995e-03
2.264485877279977070e-03
6.243688536348567832e-03
1.070128125848131100e-02
1.554982722718584870e-02
2.070567253245824552e-02
2.609058531922329657e-02
3.157134808974498136e-02
3.709671055643831011e-02
4.248789418461090123e-02
4.768102178072019387e-02
5.255805386102122001e-02
5.693177883869950107e-02
6.081796927425343890e-02
6.400095822668330769e-02
6.641182230872932912e-02
6.802163668708192945e-02
6.863301795693618756e-02
6.833292499927047514e-02
6.698794729027510164e-02
6.454847125035248490e-02
6.111191830448296086e-02
5.658672978077518984e-02
5.106492460601734507e-02
4.460483924893528240e-02
3.723710995971141191e-02
2.912308109057315519e-02
2.034157515339467606e-02
1.102963043862891304e-02
1.346263119002546853e-03
-8.531234982462474609e-03
-1.846744101649890057e-02
-2.824806059384295590e-02
-3.767652477305918901e-02
-4.664700481870218823e-02
-5.488566794191449688e-02
-6.229512085838028596e-02
-6.871805648543485856e-02
-7.393988137346856060e-02
-7.800581609228465774e-02
-8.068219318392061412e-02
-8.194767604018854401e-02
-8.183315541455178643e-02
-8.021656023223486254e-02
-7.724318581291669816e-02
-7.289456306729345803e-02
-6.724017076836337481e-02
-6.049173611938386125e-02
-5.266636121487127536e-02
-4.399438903658878935e-02
-3.462612791761152803e-02
-2.474152959552718134e-02
-1.457114919711629750e-02
-4.280644902223180830e-03
5.884209488677012538e-03
1.576978463678097367e-02
2.513814494478836328e-02
3.383377180253470395e-02
4.170332589169388482e-02
4.853491892961301485e-02
5.433648509556622541e-02
5.888719404929414897e-02
6.215796283801814509e-02
6.416192672899417859e-02
6.476772359556220993e-02
6.412761900383835700e-02
6.218300946877271945e-02
5.899297043289238041e-02
5.477996697942913440e-02
4.948397089544862709e-02
4.335360197482082678e-02
3.649159404193979411e-02
2.902045623305108540e-02
2.120166437429531897e-02
1.309504941659656377e-02
4.939879651120895367e-03
-3.117405773779073110e-03
-1.093201397634857922e-02
-1.831129040352300064e-02
-2.516828822025213297e-02
-3.131036115893814920e-02
-3.669984041209357201e-02
-4.119088595236080480e-02
-4.469661263786531974e-02
-4.723030218378602985e-02
-4.865453926766703102e-02
-4.904484240468637984e-02
-4.835383596334785761e-02
-4.656240170639614623e-02
-4.384263065652411334e-02
-4.010545700315917145e-02
-3.550369233671842734e-02
-3.012361299188401689e-02
-2.400840470692893261e-02
-1.736933389418351958e-02
-1.024266026313854633e-02
-2.792667064438154011e-03
4.825709792874340910e-03
1.251249573814349272e-02
2.009069356386097502e-02
2.745050523085346139e-02
3.442883360422374639e-02
4.093479694657727042e-02
4.681939141469942250e-02
5.197418335016370378e-02
5.634962176852619659e-02
5.979659314540988757e-02
6.233398691309108286e-02
6.387585295349029746e-02
6.436923372269903743e-02
6.393673547238944155e-02
6.246208484191064642e-02
6.006040567939121416e-02
5.679964118364565218e-02
5.268151357964761389e-02
4.791562085801468612e-02
4.251279729314974554e-02
3.660256909563525118e-02
3.036667136451270954e-02
2.384811259312624374e-02
1.722492216800615428e-02
1.060238397344393131e-02
4.082901447129529474e-03
-2.209008349745387317e-03
-8.186818634493366054e-03
-1.376794065716085633e-02
-1.889639582212511784e-02
-2.347797965045443289e-02
-2.752969928484796588e-02
-3.098015928183722387e-02
-3.378583890282101793e-02
-3.605395863143318058e-02
-3.764988278484347750e-02
-3.865604848896204981e-02
-3.909897210808176843e-02
-3.889846286670396724e-02
-3.821989513007194306e-02
-3.696596833971570878e-02
-3.516149824258495149e-02
-3.292931636036584148e-02
-3.015618933813579358e-02
-2.695128750574073487e-02
-2.331961140271958388e-02
-1.923768745814493156e-02
-1.482707921943680202e-02
-1.004912631527720215e-02
-4.965296116000487113e-03
3.601717059505300800e-04
5.882741256593369307e-03
1.154138107017181267e-02
1.725365365056864483e-02
2.292023447279382953e-02
2.851663832277344379e-02
3.387480520897165337e-02
3.893716271034373261e-02
4.362779173064961630e-02
4.777274443675223747e-02
5.139532538553195917e-02
5.432634112810764970e-02
5.648283405829028492e-02
5.790324351445512441e-02
5.841387592445734106e-02
5.806399844617995964e-02
5.682531190360694956e-02
5.463986841737550337e-02
5.164653050557112962e-02
4.778320655563717684e-02
4.314031424343575671e-02
3.782132510091522348e-02
3.186994905740390266e-02
2.543340146077185601e-02
1.860213835972799115e-02
1.151399595540919703e-02
4.293263585784971165e-03
-2.917691561123370893e-03
-9.979208926690741333e-03
-1.678010373346168482e-02
-2.314345361349648064e-02
-2.901174701667801406e-02
-3.422762610649594806e-02
-3.867937326361706174e-02
-4.235912604369021506e-02
-4.510152748624335350e-02
-4.692713570035847437e-02
-4.778413103339299722e-02
-4.760813278385040564e-02
-4.652559547450330762e-02
-4.444217584323222753e-02
-4.145390873143953159e-02
-3.764336486018558803e-02
-3.302684935589493553e-02
-2.777626047951317276e-02
-2.193625972609399705e-02
-1.564620594243057439e-02
-9.056112475764346165e-03
-2.256664979659908123e-03
4.573603005695298269e-03
1.133620568592268174e-02
1.786072046974778241e-02
2.404745337527565419e-02
2.976618112113564932e-02
3.487268654307460608e-02
3.934661758940800891e-02
4.301831542363376837e-02
4.587527585165628030e-02
4.786850728989457820e-02
4.889303677787069924e-02
4.907912953712795234e-02
4.830225832001312780e-02
4.662421784987026696e-02
4.414341968441516662e-02
4.081131191565110644e-02
3.680601904607193331e-02
3.214652118702932687e-02
2.690798666238907941e-02
2.128225116712406315e-02
1.527260187262558661e-02
9.042674181732870617e-03
2.688894207235281286e-03
-3.693661913217244873e-03
-9.981490328647021903e-03
-1.609654184315686618e-02
-2.191781422177441901e-02
-2.740687160388590934e-02
-3.243096789031513910e-02
-3.695338703671253305e-02
-4.092404795550063507e-02
-4.420752430065895411e-02
-4.690253937631052444e-02
-4.884757884924337962e-02
-5.002825743665254010e-02
-5.051566410401510387e-02
-5.015543897782458183e-02
-4.906343011883379512e-02
-4.719389836496307861e-02
-4.448942232705931088e-02
-4.112831894528367477e-02
-3.698862773644595592e-02
-3.215591590806370775e-02
-2.671010650941911188e-02
-2.063328564795622808e-02
-1.405563631870189109e-02
-7.016603750506169961e-03
4.027654675184096436e-04
8.104425795630924162e-03
1.597567482119784457e-02
2.393050393576051649e-02
3.185087264108477784e-02
3.955778212200263683e-02
4.704769972660029914e-02
5.407951598115421504e-02
6.054394897059431346e-02
6.640276753880522409e-02
7.139500902057417664e-02
7.553943900576347292e-02
7.867666337367258678e-02
8.065063429455794630e-02
8.156460598405157469e-02
8.119025941504286192e-02
7.956530291483204786e-02
7.669667004822343370e-02
7.252293895866053497e-02
6.716878361382222495e-02
6.062194848105724454e-02
5.300573292993865371e-02
4.441113234101697060e-02
3.498462055900571077e-02
2.489613755517314578e-02
1.426848807161540389e-02
3.412331139002784761e-03
-7.609985831347990982e-03
-1.847488444506593941e-02
-2.891338680682258369e-02
-3.884528102101342945e-02
-4.784997574784641966e-02
-5.583303111330152613e-02
-6.255290988822079234e-02
-6.769792419682318929e-02
-7.131141910544613882e-02
-7.305166489391165530e-02
-7.287965459480849617e-02
-7.074166451673186140e-02
-6.653761597803642402e-02
-6.037641815454500988e-02
-5.222282289747399303e-02
-4.227779193104010125e-02
-3.063143935061865206e-02
-1.753583156618176986e-02
-3.299101552832067914e-03
1.190797883901221349e-02
2.754036708115828458e-02
4.341722801313990798e-02
5.905584737650082516e-02
7.392573757035110493e-02
8.785065907874470281e-02
1.001829814675797986e-01
1.106420815094426163e-01
1.188950998468963488e-01
1.244480124231216039e-01
1.272817353890280667e-01
1.270003444396986536e-01
1.235228436537909591e-01
1.168497073587659724e-01
1.069336313280278422e-01
9.401205449591087948e-02
7.820267393293769964e-02
5.989153908758713257e-02
3.943512542508482294e-02
1.729493549738703867e-02
-5.921783101407542861e-03
-2.975227444700163579e-02
-5.344597736141891431e-02
-7.646528288782671046e-02
-9.816609234335832435e-02
-1.178585141431155170e-01
-1.351260526547488905e-01
-1.493440024518940812e-01
-1.601814882619310709e-01
-1.673106392557058009e-01
-1.704534431963700136e-01
-1.696928261647611957e-01
-1.648838274642719370e-01
-1.562986998096839164e-01
-1.441856153056512713e-01
-1.288420687784206375e-01
-1.109290519534246872e-01
-9.078374873615982499e-02
-6.909977732941224859e-02
-4.656386702396591443e-02
-2.365697844616185264e-02
-1.172713537520642287e-03
2.040414973309157692e-02
4.055144153745385976e-02
5.868794101588220569e-02
7.455265250056213044e-02
8.782105646100979435e-02
9.827134632246065093e-02
1.058472524493315747e-01
1.105958459815321593e-01
1.125249535331543788e-01
1.118894740022935430e-01
1.090045853642192253e-01
1.040153894001428769e-01
9.748734892442170730e-02
8.967083098178300904e-02
8.091594002324264956e-02
7.186606775649292955e-02
6.257886136029942870e-02
5.353914918334051753e-02
4.512375806463196637e-02
3.732893599158369075e-02
3.057695913728643647e-02
2.486209032846089031e-02
2.017266216143155655e-02
1.673621121753342267e-02
1.429398420751133714e-02
1.279079954477778044e-02
1.219133964111363683e-02
1.221490915053444898e-02
1.271185663115497952e-02
1.355947433977058858e-02
1.445670450811914823e-02
1.526433868680481323e-02
1.586922793700048379e-02
1.598039712626307327e-02
1.559857278727664817e-02
1.461476808510667538e-02
1.282937739514299416e-02
1.039901661810939057e-02
7.225763568187482805e-03
3.300462806342349328e-03
-1.166573573138858164e-03
-6.227722325268240065e-03
-1.169745164699854609e-02
-1.736918340797212468e-02
-2.326777235113487372e-02
-2.906756625749349829e-02
-3.462660234295304729e-02
-3.987375407900251023e-02
-4.450749105423216362e-02
-4.847153316014548435e-02
-5.161815902652808902e-02
-5.373560772338476649e-02
-5.487410415461543151e-02
-5.484896996040872913e-02
-5.362069380416107506e-02
-5.123752790655662637e-02
-4.762176579021264872e-02
-4.287922900234425461e-02
-3.705155251315124521e-02
-3.020907346295162096e-02
-2.250994725722696085e-02
-1.406487739641849519e-02
-5.038044471555398231e-03
4.402539234968052412e-03
1.405114086627056239e-02
2.376314847307707881e-02
3.330836913540621141e-02
4.248860706807496695e-02
5.118226168861841202e-02
5.912257201596724659e-02
6.623454819737756294e-02
7.234483083040225970e-02
7.726078789940601932e-02
8.105094574429835830e-02
8.347348444126227729e-02
8.454878691614610420e-02
8.429852346159411036e-02
8.259959909863845429e-02
7.965756217218757096e-02
7.540307422797051795e-02
6.991728024329588176e-02
6.341741306147340163e-02
5.588166139045512570e-02
4.754215956961864442e-02
3.852077222723174210e-02
2.893576151326412299e-02
1.903250958978705554e-02
8.905822947358617639e-03
-1.249985708576139068e-03
-1.128174074981087155e-02
-2.101459765196220589e-02
-3.033241633296982279e-02
-3.907591658556917175e-02
-4.707675318632444789e-02
-5.434011370122723145e-02
-6.062537153556562391e-02
-6.591748371510811055e-02
-7.016717407485643931e-02
-7.319404054292363848e-02
-7.514699283130561736e-02
-7.584469273733286665e-02
-7.528832766039864066e-02
-7.361857707895017033e-02
-7.067280059181771379e-02
-6.662750796213892657e-02
-6.149023451968200354e-02
-5.526650449858708236e-02
-4.819799478689052591e-02
-4.023799162346753527e-02
-3.156252542056144084e-02
-2.231240542276275926e-02
-1.259404138254849315e-02
-2.590683397680982637e-03
7.560041644582538370e-03
1.765555827181587711e-02
2.759086220109593229e-02
3.712158848543203188e-02
4.611131485244367861e-02
5.442879911637156509e-02
6.181312176207625492e-02
6.828398025470935884e-02
7.358844237983544478e-02
7.761514882296470519e-02
8.042512059745235420e-02
8.176223169900478926e-02
8.173863143565714140e-02
8.030567398666804690e-02
7.738167239642838868e-02
7.324606629599073049e-02
6.775508942652302968e-02
6.108607718368921219e-02
5.342339335769388797e-02
4.478690348887007927e-02
3.546387808809887965e-02
2.555407694867516122e-02
1.523511353044336436e-02
4.760762588132036975e-03
-5.747740446669207144e-03
-1.607401547691271124e-02
-2.605367407710511632e-02
-3.549718023237608683e-02
-4.430366165609481849e-02
-5.229172676783939988e-02
-5.933608348935470039e-02
-6.543098906999356146e-02
-7.036992849726456112e-02
-7.420699505109165650e-02
-7.687748941946012660e-02
-7.826378861559363243e-02
-7.860413194848914209e-02
-7.769278784007672967e-02
-7.563435321037143000e-02
-7.257333414772376701e-02
-6.838700297635816328e-02
-6.332994811163661364e-02
-5.738628166279260284e-02
-5.057881531485808324e-02
-4.319569973788344591e-02
-3.514074523212381423e-02
-2.658462248223049038e-02
-1.767930651532986439e-02
-8.425510725112824589e-03
9.684420106188286470e-04
1.042774890031322559e-02
1.988319357223175543e-02
2.915014963445172747e-02
3.815037624207157085e-02
4.681150402310573638e-02
5.495414122545878161e-02
6.251580749141696924e-02
6.945281682848183924e-02
7.557368755205408350e-02
8.090457640494976010e-02
8.535367291441689486e-02
8.882338842241371824e-02
9.141727995723933353e-02
9.299849092946858853e-02
9.360679870774234190e-02
9.337108868914247017e-02
9.217524186334508096e-02
9.019660606330262564e-02
8.748077010039446988e-02
8.403725941542407318e-02
8.010343611798234620e-02
7.565576083146878517e-02
7.080284825214619437e-02
6.574234504580786509e-02
6.044406108578080639e-02
5.506056611808927276e-02
4.969326491261794737e-02
4.431223485578499044e-02
3.908878307481155473e-02
3.401033028396304586e-02
2.904922839117514421e-02
2.433505942755691265e-02
1.978736503117517823e-02
1.538314030818800637e-02
1.120052339797082686e-02
7.101355944094157185e-03
3.106676045336618196e-03
-7.754709415158083513e-04
-4.696520632471438104e-03
-8.570586867207446308e-03
-1.246071852613867686e-02
-1.647371894766837264e-02
-2.047902908423160015e-02
-2.458345129395883566e-02
-2.876857383277025074e-02
-3.293432094880911071e-02
-3.716456199139738653e-02
-4.131339132434086459e-02
-4.533370687256646492e-02
-4.923345201114499164e-02
-5.281754268962369353e-02
-5.607651775098056179e-02
-5.888987999342953222e-02
-6.115656057106173132e-02
-6.283106337125278495e-02
-6.378569767505776200e-02
-6.401280240193972515e-02
-6.341857676469749017e-02
-6.200865264224696832e-02
-5.980561145534116912e-02
-5.677693490907888274e-02
-5.306835785688564927e-02
-4.868814778222899792e-02
-4.378009850117003249e-02
-3.853256013214047260e-02
-3.300088637389895357e-02
-2.745365863744874194e-02
-2.203697496054252136e-02
-1.692381954783519701e-02
-1.234730279414633994e-02
-8.409993866642082039e-03
-5.323354776281996777e-03
-3.180498990995056334e-03
-2.110569582359424212e-03
-2.147464095351950264e-03
-3.307874130456990407e-03
-5.635839814786990608e-03
-8.945843185010488030e-03
-1.327160672170164118e-02
-1.839790683471407770e-02
-2.406578463775442545e-02
-3.024308469417062370e-02
-3.648343123771265878e-02
-4.263337055830448280e-02
-4.845364771512042368e-02
-5.347214615266736998e-02
-5.765896109557577115e-02
-6.060327283037483109e-02
-6.204197793354957607e-02
-6.193519365858744102e-02
-5.993084977436371336e-02
-5.606343269427374598e-02
-5.024820887687337506e-02
-4.240016165376495755e-02
-3.270695150134375617e-02
-2.121710691187155690e-02
-8.110452757099945870e-03
6.336735613787171720e-03
2.188206512607022980e-02
3.819214127055787361e-02
5.490207239805667411e-02
7.165361173335606237e-02
8.806385169605893126e-02
1.037253792614225706e-01
1.183063744189336991e-01
1.314279773881436575e-01
1.427808178317454546e-01
1.521166110433833929e-01
1.591794007049892878e-01
1.638548751320372254e-01
1.659976405470417749e-01
1.656017416000843123e-01
1.627326082153392195e-01
1.574212153163836725e-01
1.499265899396456381e-01
1.404011475669624254e-01
1.291434105823175138e-01
1.165377287358705383e-01
1.028389600652259289e-01
8.851046766076696437e-02
7.393492114871313969e-02
5.945813648456609035e-02
4.553093245684895068e-02
3.248855082418866669e-02
2.062624071586746308e-02
1.029376165431639296e-02
1.706353993014736708e-03
-5.039978529773329018e-03
-9.681078711316078167e-03
-1.228957559207806416e-02
-1.292949815247617859e-02
-1.150375930385049913e-02
-8.443992564542066731e-03
-3.788113855756004324e-03
2.186888316844518617e-03
8.887108322227454255e-03
1.629389796212632122e-02
2.376162069807513308e-02
3.083487067593108921e-02
3.735041484346519197e-02
4.255362218316173506e-02
4.630374045240219505e-02
4.822504659588010972e-02
4.782489175447802998e-02
4.513710138572451375e-02
3.984730761255986936e-02
3.186208166935969310e-02
2.132255589818541491e-02
8.212926255774339809e-03
-7.242996712228545915e-03
-2.470656110618692225e-02
-4.389145000666530572e-02
-6.435627866832970001e-02
-8.551262563548880924e-02
-1.069934709278582557e-01
-1.281263687891096292e-01
-1.482914733739580659e-01
-1.671065381967564989e-01
-1.838374934124788751e-01
-1.981056178538168622e-01
-2.095066523024651239e-01
-2.175062460976577572e-01
-2.220958996897026694e-01
-2.228972614858941714e-01
-2.198534984708831463e-01
-2.131036657464218942e-01
-2.025765243970771845e-01
-1.886778845854099051e-01
-1.715951250695666175e-01
-1.516661521925291300e-01
-1.294800467018552559e-01
-1.053713244715636793e-01
-7.995009453457711801e-02
-5.376664586738955781e-02
-2.730406767493591055e-02
-1.192253892400324533e-03
2.409783565692140764e-02
4.811943503499537672e-02
7.039550303291328137e-02
9.056099991111939140e-02
1.084216012625553727e-01
1.236085910323740378e-01
1.360456262482795387e-01
1.457719538844884921e-01
1.525502818782434600e-01
1.567083590032563589e-01
1.582288252909964665e-01
1.572193445147397894e-01
1.542476410223436178e-01
1.491689523535556783e-01
1.424682097380282342e-01
1.345323600126885344e-01
1.253528577428937862e-01
1.155602802768823378e-01
1.051987950827909524e-01
9.447482608287684214e-02
8.391622967593713456e-02
7.336271555400200595e-02
6.313615573803167680e-02
5.339362782999613338e-02
4.409844381271647851e-02
3.543133098617863574e-02
2.739096815118534020e-02
1.995115115030510894e-02
1.314396279678646876e-02
6.975349297441559709e-03
1.314454773056554157e-03
-3.780038111893496526e-03
-8.338656119599972133e-03
-1.257583910825348095e-02
-1.629202492660957596e-02
-1.965329769880864649e-02
-2.273312243581824058e-02
-2.534916067750677890e-02
-2.775254665360788950e-02
-2.977051628878890979e-02
-3.135923005560898452e-02
-3.275841550669186114e-02
-3.363857289962807195e-02
-3.413354110797194724e-02
-3.423329755548939340e-02
-3.377299892440911028e-02
-3.291206167915245590e-02
-3.150482077654317981e-02
-2.954285065397086948e-02
-2.714036984343911121e-02
-2.417583335095741318e-02
-2.074202900757487686e-02
-1.687429640937450001e-02
-1.257907291990365689e-02
-7.967807947376451955e-03
-3.081760153135700529e-03
2.001377764525965035e-03
7.175685536792745026e-03
1.235392715327651714e-02
1.745113154454322468e-02
2.234764335985434461e-02
2.695340419931751066e-02
3.120288003392998263e-02
3.496875961874627153e-02
3.821570679571377471e-02
4.086780627051567194e-02
4.286532050926132598e-02
4.422531135266693364e-02
4.488181098316093576e-02
4.487180789239986894e-02
4.423241192001740180e-02
4.296000689932477634e-02
4.116697276882663042e-02
3.888046071335664322e-02
3.619234735997210739e-02
3.322630083175150129e-02
3.002537174662101016e-02
2.673073729723211139e-02
2.342619245535327091e-02
2.019307291305498867e-02
1.714867346389483543e-02
1.434500347033759032e-02
1.185951410508427444e-02
9.751534937219294430e-03
8.052550768410861315e-03
6.785827790377067098e-03
5.971060116768924647e-03
5.593093241488066893e-03
5.621787424529900434e-03
6.053267755158374397e-03
6.804759360403324006e-03
7.845176242456397553e-03
9.119981979691847707e-03
1.051754723302123287e-02
1.203230778198860831e-02
1.354362831594164290e-02
1.499049877739794950e-02
1.634697894666533105e-02
1.747882068687514265e-02
1.841005874456061800e-02
1.904999380400737227e-02
1.934211552641571311e-02
1.932189013306546271e-02
1.887520038123430624e-02
1.807602309968904877e-02
1.687997259313095064e-02
1.524877456846849763e-02
1.328630921292014988e-02
1.091579848628669927e-02
8.211947167900367911e-03
5.214317429089635782e-03
1.877787976966221149e-03
-1.643608463876906900e-03
-5.396569299398252216e-03
-9.334198106546173074e-03
-1.335192593594004135e-02
-1.749089479995910232e-02
-2.163758928123474604e-02
-2.577026977205910951e-02
-2.988565975680127287e-02
-3.387980809629887596e-02
-3.775792584184098355e-02
-4.148829248600439251e-02
-4.501036240603376731e-02
-4.831659837410103714e-02
-5.139169795729873341e-02
-5.418304889851505157e-02
-5.669123695820046938e-02
-5.891309119460395177e-02
-6.078363280722436784e-02
-6.234815502676453042e-02
-6.356449292869074952e-02
-6.437444063475859790e-02
-6.486871404029202759e-02
-6.493162674169290771e-02
-6.456673659485387406e-02
-6.381256529624480811e-02
-6.254575929838436521e-02
-6.083993127142883067e-02
-5.864217509416373014e-02
-5.587535817295192359e-02
-5.262583160136125732e-02
-4.880855545451462385e-02
-4.441180580595076310e-02
-3.949891695102396988e-02
-3.401543518121289550e-02
-2.800258136032712439e-02
-2.152946399696727131e-02
-1.458105540540196102e-02
-7.261251226181667830e-03
3.372017228649775919e-04
8.198746964902255130e-03
1.613171996620345328e-02
2.404834669494229291e-02
3.187233912732868879e-02
3.936904236805248425e-02
4.648638532975869070e-02
5.302805407345507344e-02
5.884934121143232943e-02
6.388495663889312559e-02
6.791702311689759575e-02
7.093073645521009996e-02
7.277988802963572534e-02
7.342723578235382798e-02
7.289492820948934027e-02
7.107479664697377575e-02
6.815754599051980500e-02
6.408306769497822131e-02
5.900697932854548355e-02
5.318420047796953987e-02
4.659229721227164250e-02
3.963165849399432478e-02
3.246235175978424981e-02
2.527814322643627890e-02
1.853022407105389679e-02
1.227211757364427350e-02
6.906254745063627673e-03
2.708767810090835070e-03
-1.912085504822413906e-04
-1.488371281061818402e-03
-1.077857487702321010e-03
1.176167518310410748e-03
5.318911875821863769e-03
1.139663426889196349e-02
1.928997442041487792e-02
2.886996398488499496e-02
4.004095676968178613e-02
5.234692231484509850e-02
6.568896439986696145e-02
7.959881710515125108e-02
9.353054554759580863e-02
1.073185690995060587e-01
1.202301651029884372e-01
1.318879518072451351e-01
1.419234911984576519e-01
1.496357051280282069e-01
1.549112371192729876e-01
1.572413188146331853e-01
1.562915326426752294e-01
1.520385245655684059e-01
1.442108251788384310e-01
1.328921090850805065e-01
1.181822836010870681e-01
1.002338280304287399e-01
7.941094163134874984e-02
5.611124119191166632e-02
3.082342950653394267e-02
4.117359598673872752e-03
-2.332321753165408906e-02
-5.091368779774814446e-02
-7.789484593159862191e-02
-1.035760148940809561e-01
-1.273707848113102281e-01
-1.485656145966799402e-01
-1.667308108662753918e-01
-1.813481553019741233e-01
-1.920530363611017699e-01
-1.987464339855981033e-01
-2.011509201221196308e-01
-1.994340513262566339e-01
-1.936610445641099021e-01
-1.840513222682052807e-01
-1.711623502434798383e-01
-1.552039827306288533e-01
-1.368630294786175594e-01
-1.167164629250174168e-01
-9.524388820945986489e-02
-7.327580330663095720e-02
-5.124455584942435443e-02
-2.977540679295975420e-02
-9.521692264287142521e-03
9.218741240354504443e-03
2.594267455699787381e-02
4.034577420580533896e-02
5.224185203127809651e-02
6.147754846665079431e-02
6.796509126571588510e-02
7.181301873749540432e-02
7.312716391504851809e-02
7.200544998948746334e-02
6.888203635428130633e-02
6.386525808838913743e-02
5.733645900110755089e-02
4.984083298734362510e-02
4.143013705414846232e-02
3.272210944905339786e-02
2.401946720668131710e-02
1.550338799092850287e-02
7.761576870493357150e-03
8.051240086154624540e-04
-5.088236826095499619e-03
-9.555695658900967976e-03
-1.275149827478432377e-02
-1.443781465248640539e-02
-1.461512049093372997e-02
-1.341972581886323110e-02
-1.081848925130938360e-02
-7.004635502732020451e-03
-2.198513943687167502e-03
3.486954563392318050e-03
9.759602800264719977e-03
1.632312560160698034e-02
2.301780321437285962e-02
2.949907313976711520e-02
3.550418942599331551e-02
4.088389222764644837e-02
4.531710301729574564e-02
4.868735494485056797e-02
5.086840523529752994e-02
5.167983908875803389e-02
5.114829467186127882e-02
4.924260881650342758e-02
4.594589276172730830e-02
4.140971602222204978e-02
3.572635957384031474e-02
2.901695133493372228e-02
2.153446981458538925e-02
1.343935473789186971e-02
4.952740956635259470e-03
-3.607897207620129089e-03
-1.211643723317372759e-02
-2.025537990596479321e-02
-2.778201753865193815e-02
-3.457565018568941467e-02
-4.032656735849346474e-02
-4.497377687010552932e-02
-4.834947636605976123e-02
-5.029674968873969892e-02
-5.087026229877004979e-02
-4.993227923059976453e-02
-4.754805300735118895e-02
-4.376457104666046927e-02
-3.859234373248182637e-02
-3.226246937314446867e-02
-2.479667641242403256e-02
-1.640405566537347579e-02
-7.272454655606574482e-03
2.442296612898787762e-03
1.247451713882657964e-02
2.267068173552189148e-02
3.277837327190356170e-02
4.260445598608742640e-02
5.195154484309732340e-02
6.060778649633073029e-02
6.844557401138315345e-02
7.525001303803256769e-02
8.096988278443269238e-02
8.545042092179067073e-02
8.859856195901742726e-02
9.045748314988942551e-02
9.089006793635594217e-02
8.999991864042608536e-02
8.779312114783464904e-02
8.425642895677254440e-02
7.965651451498137470e-02
7.392224286996215699e-02
6.724260538964504930e-02
5.980346439428832483e-02
5.164650187484990523e-02
4.304205360158797067e-02
3.408398230791333250e-02
2.490941879942676004e-02
1.575465043112260141e-02
6.690430884843855119e-03
-2.130005094806967751e-03
-1.055790211135637993e-02
-1.850854986997360965e-02
-2.590570369675047890e-02
-3.262213158483145276e-02
-3.864043929459835824e-02
-4.392469927900242294e-02
-4.837600188942651341e-02
-5.208747676713063740e-02
-5.497107385446540345e-02
-5.701550922727304654e-02
-5.839842627904836408e-02
-5.894769366113269266e-02
-5.880763565729339032e-02
-5.802212465882627263e-02
-5.652648364410010895e-02
-5.452029555101743641e-02
-5.192404417654902793e-02
-4.879050265084079047e-02
-4.527106556874511273e-02
-4.127534067272141394e-02
-3.692982860048869137e-02
-3.227061167774699507e-02
-2.730466812494251536e-02
-2.214002760854510629e-02
-1.679162560447529720e-02
-1.131660851653375557e-02
-5.779968216269766763e-03
-2.544926641578296872e-04
5.231158681199606780e-03
1.057860403591465159e-02
1.569793420485689206e-02
2.062076634930282149e-02
2.515634168729874789e-02
2.930155808809762480e-02
3.301135459373578246e-02
3.613600754435847273e-02
3.875280603122396167e-02
4.071575039744203262e-02
4.198514983906402598e-02
4.264845072117914859e-02
4.254389276278338489e-02
4.176362959271093245e-02
4.029524236121576064e-02
3.810532702053200799e-02
3.533618744208730927e-02
3.193092334645366431e-02
2.798686182572594425e-02
2.358607225311847716e-02
1.876404752476132018e-02
1.364831406723821319e-02
8.290462937496512891e-03
2.820999974970197707e-03
-2.692501843550634648e-03
-8.132641604216010039e-03
-1.337754016940753340e-02
-1.838153659834063092e-02
-2.297289861689322948e-02
-2.712133464875732605e-02
-3.071536974054808397e-02
-3.362389180122922483e-02
-3.588690124224448025e-02
-3.733252824831061190e-02
-3.795880098097163813e-02
-3.775020827725553835e-02
-3.661201098914505098e-02
-3.464542962485544358e-02
-3.178057375100034471e-02
-2.806446270623412162e-02
-2.358659510428681369e-02
-1.835637997994009341e-02
-1.250764853083707190e-02
-6.109185163064088757e-03
7.092805498879872078e-04
7.816567410960272716e-03
1.508665157112076133e-02
2.234613067197789571e-02
2.948599928129356021e-02
3.630271777936999733e-02
4.269026160087337901e-02
4.849379878599931193e-02
5.353523448998188244e-02
5.779453637417678036e-02
6.107228947186814361e-02
6.333153562931398417e-02
6.453400730150282705e-02
6.456704573046261053e-02
6.354028294795885379e-02
6.137538182780547663e-02
5.812954686800676785e-02
5.392952949019330644e-02
4.877624701978691690e-02
4.285093357051459467e-02
3.624074273692143994e-02
2.907116063891495780e-02
2.154433524502442562e-02
1.375266615125644160e-02
5.887135022199128757e-03
-1.920660734904063201e-03
-9.504702787553546972e-03
-1.674411433710502883e-02
-2.350775908666490402e-02
-2.964490025817958715e-02
-3.514067132798096016e-02
-3.981953348588812558e-02
-4.366459203932814004e-02
-4.664397222750728267e-02
-4.863259684528990073e-02
-4.976754361598239446e-02
-4.992016036502578552e-02
-4.911938649671839657e-02
-4.749075075255437817e-02
-4.492800157089564539e-02
-4.159794956929638299e-02
-3.751082995181621166e-02
-3.267520182491309710e-02
-2.731151412829384631e-02
-2.135486778707833266e-02
-1.494602296037158759e-02
-8.189319888981048956e-03
-1.134287792928262428e-03
6.082713988501988606e-03
1.338832079661371466e-02
2.066189094017207434e-02
2.783542193146118851e-02
3.476233092958631865e-02
4.136681497212180841e-02
4.756697935066524913e-02
5.318085005446201302e-02
5.825499937230578518e-02
6.258780412867528953e-02
6.609772061764657147e-02
6.883476898766437146e-02
7.057214243961042188e-02
7.138756577509822177e-02
7.121275997251001744e-02
6.992716701132091484e-02
6.773708380364190651e-02
6.446179392934602015e-02
6.018509438341759776e-02
5.500729278021666141e-02
4.888866174589515806e-02
4.199402955668665727e-02
3.436506775745364062e-02
2.610534002817626806e-02
1.734745693156186999e-02
8.209089651544411448e-03
-1.173008866998267140e-03
-1.068168198619897855e-02
-2.009239334309055255e-02
-2.937264851864547152e-02
-3.827800805404792117e-02
-4.662778145872402413e-02
-5.441409245807420081e-02
-6.130255118489510296e-02
-6.728031560485457641e-02
-7.219560748985910659e-02
-7.578515233776579596e-02
-7.821117445973917170e-02
-7.914083892215238725e-02
-7.856636584838561088e-02
-7.651918733492202307e-02
-7.282991824042632512e-02
-6.764037092186785116e-02
-6.089401800559176431e-02
-5.266055318273191871e-02
-4.308100564568671798e-02
-3.222764451737360897e-02
-2.031025603129298085e-02
-7.457550564050193127e-03
6.016712670875612456e-03
1.996301306054936928e-02
3.406354250260279493e-02
4.794947608546638873e-02
6.150323462500842386e-02
7.421312058139899193e-02
8.588267967678042680e-02
9.623375405621853451e-02
1.047915423561796705e-01
1.116193256202551165e-01
1.162219456971791964e-01
1.184700140723854989e-01
1.183503915275539997e-01
1.155789964160126165e-01
1.103308983692534023e-01
1.025229873420833160e-01
9.223822691539727836e-02
7.977773694779134728e-02
6.520999399236655780e-02
4.892728564724817958e-02
3.120908372786099921e-02
1.244736501952837561e-02
-6.916308272924117685e-03
-2.650315054946213514e-02
-4.578252364816487452e-02
-6.441309904668474084e-02
-8.186621954253912870e-02
-9.778394677583940320e-02
-1.118292012254593348e-01
-1.235426174701960700e-01
-1.329151315532861588e-01
-1.395284901048189363e-01
-1.433180159975566692e-01
-1.443347318811733504e-01
-1.423905820842404080e-01
-1.378139659744378742e-01
-1.305910370903980433e-01
-1.208998106259612237e-01
-1.092151292705570431e-01
-9.556148502870941142e-02
-8.043086591968022503e-02
-6.412270337414202603e-02
-4.689081803748470362e-02
-2.926231369369022492e-02
-1.140526269189876679e-02
6.299795838592111077e-03
2.353360929607027294e-02
4.006833783969254714e-02
5.564104369263843386e-02
7.004081958120243756e-02
8.305057758860316663e-02
9.463387026426846316e-02
1.045202517205813669e-01
1.127096607275173412e-01
1.191478891960309205e-01
1.236659134797049447e-01
1.264840153725182992e-01
1.274032999597532745e-01
1.265016605221578327e-01
1.240191834461959880e-01
1.197635260749188302e-01
1.140658890417636240e-01
1.069565197486835456e-01
9.850583422694214608e-02
8.910107816579189433e-02
7.868367242337177825e-02
6.755291153131387505e-02
5.592887565738758476e-02
4.392893907621198829e-02
3.185008960901197783e-02
1.983877907214717101e-02
8.132547458005897484e-03
-3.114859020486418321e-03
-1.367524145681150646e-02
-2.340374593276668691e-02
-3.217673447828896943e-02
-3.977276230113287875e-02
-4.623476387154581285e-02
-5.134714578385261852e-02
-5.506408879400070955e-02
-5.749855726839480513e-02
-5.843092667157671199e-02
-5.805545740851802278e-02
-5.634356105365376927e-02
-5.329166092409309829e-02
-4.920066241695312398e-02
-4.394968187355729333e-02
-3.777839040632210987e-02
-3.084974115031267547e-02
-2.320493885743625181e-02
-1.514457784328380324e-02
-6.720400410542532767e-03
1.853687352219415656e-03
1.037786133697750010e-02
1.875294583868257134e-02
2.674661810865372122e-02
3.427656823757286447e-02
4.113716603105947028e-02
4.725113472747279747e-02
5.249530965848537428e-02
5.671286717377014425e-02
5.996713725653721183e-02
6.205802095002550811e-02
6.302534696775145828e-02
6.287722813190944893e-02
6.149933759537533351e-02
5.911592723638805363e-02
5.561249426450325106e-02
5.107735010896237438e-02
4.570201782435792670e-02
3.942718109010640709e-02
3.248540569694034763e-02
2.494904274240169681e-02
1.689265243276862408e-02
8.574380489437613204e-03
1.197548041469934793e-05
-8.621102218898012842e-03
-1.718371419931159425e-02
-2.556666186171745528e-02
-3.365374841377906379e-02
-4.132465766668540208e-02
-4.845831812199332539e-02
-5.503771232893307080e-02
-6.088335957610824939e-02
-6.598822273255207371e-02
-7.030313201060195416e-02
-7.366661720359082843e-02
-7.622928549797215736e-02
-7.780171910104993760e-02
-7.837050681248050599e-02
-7.805993161869187458e-02
-7.667560070987299026e-02
-7.436056847485927879e-02
-7.109134877480405290e-02
-6.678737470549035715e-02
-6.167590082568950166e-02
-5.562576285325694647e-02
-4.872427562542451518e-02
-4.108211583848913467e-02
-3.270042106011950694e-02
-2.369556988977874340e-02
-1.415909468380983915e-02
-4.199351206922615799e-03
6.109974065962985729e-03
1.656030387473820392e-02
2.706853927722109587e-02
3.749305646652762586e-02
4.754809657079764329e-02
5.728269095290017265e-02
6.634164838553331667e-02
7.455421774612286390e-02
8.192496915430617921e-02
8.804197333954179305e-02
9.293789434665566951e-02
9.641558998134595881e-02
9.821392984132713833e-02
9.852569592734357340e-02
9.700298869175748295e-02
9.369284603238632603e-02
8.863453801311135805e-02
8.173536921280907808e-02
7.317554292649240677e-02
6.296145536068897819e-02
5.128172005648792831e-02
3.827983797125782128e-02
2.418624627295005991e-02
9.276952523013450025e-03
-6.269823982664496538e-03
-2.197125416051495111e-02
-3.770787989821402370e-02
-5.302350635551868197e-02
-6.747444732325154348e-02
-8.098282619490798639e-02
-9.291094298378306526e-02
-1.031067261565612320e-01
-1.112869124341404753e-01
-1.169447082702900348e-01
-1.202614757893830377e-01
-1.207228401573084420e-01
-1.182826483465715117e-01
-1.130160343220150826e-01
-1.047072185648211667e-01
-9.364417276450667793e-02
-7.983173746301455709e-02
-6.348344836499400512e-02
-4.497009486316883020e-02
-2.451010355628215412e-02
-2.591423870903248640e-03
2.043225199878240250e-02
4.399770403994893164e-02
6.767093492042093594e-02
9.091998195333318711e-02
1.131240381639148362e-01
1.339696819646826187e-01
1.527556194314260984e-01
1.691645831540318501e-01
1.828102493979344989e-01
1.931323700025069923e-01
2.002776208185766127e-01
2.036900530904764139e-01
2.033677690501227708e-01
1.994678575538580134e-01
1.917435627638257589e-01
1.807205614400318461e-01
1.664272014864506821e-01
1.491066688833648513e-01
1.294875025671378410e-01
1.076316922502544016e-01
8.420648220371472481e-02
5.971996428058805317e-02
3.450379540989889637e-02
9.280085594684706410e-03
-1.564311738625739565e-02
-3.982333786710847562e-02
-6.282722970176429778e-02
-8.433998684987945027e-02
-1.041640145172279264e-01
-1.220287544840132354e-01
-1.377183288659956650e-01
-1.514511698584509736e-01
-1.628355339771339061e-01
-1.720583556791074886e-01
-1.792573144370768756e-01
-1.841488612888317611e-01
-1.872838589845419455e-01
-1.883856697083166887e-01
-1.874523748666200584e-01
-1.850020348354636524e-01
-1.804925126628292298e-01
-1.742555544463552930e-01
-1.662716471053745926e-01
-1.562184855329322719e-01
-1.445296856034292976e-01
-1.308181118654046515e-01
-1.151246012505743599e-01
-9.765520434178467934e-02
-7.826929559459225305e-02
-5.718579433005966522e-02
-3.459794569846402074e-02
-1.072477237291056748e-02
1.416194896629081879e-02
3.956564946875446021e-02
6.515151587972137226e-02
9.043840836114135084e-02
1.147590198662107597e-01
1.378733702900726832e-01
1.590055415502353853e-01
1.776836908973269957e-01
1.937100913580128148e-01
2.063184108094940905e-01
2.154817984260267993e-01
2.208617501340509881e-01
2.221863644490938428e-01
2.197952107913965780e-01
2.133772833940667801e-01
2.032894790129479712e-01
1.898625268789528586e-01
1.732558979531121091e-01
1.541605928134628933e-01
1.328767247319591616e-01
1.099987732877848456e-01
8.621853867323420184e-02
6.193391314117842328e-02
3.786604795211728769e-02
1.449235158515145908e-02
-7.654717928174866078e-03
-2.809820221089345468e-02
-4.645375115307350672e-02
-6.236307687973958319e-02
-7.563558442823507810e-02
-8.599179561881266365e-02
-9.346030154724435657e-02
-9.792202400751509606e-02
-9.942490946678850250e-02
-9.829258569353654940e-02
-9.443113100213783306e-02
-8.831531982393912850e-02
-8.017147038994909547e-02
-7.022249300820179729e-02
-5.910045621761796791e-02
-4.687979585808597222e-02
-3.411260918590713898e-02
-2.124559293409686994e-02
-8.423237941777118182e-03
3.741918242781958059e-03
1.514724114738836766e-02
2.540876447273192340e-02
3.424922740138575811e-02
4.160639324555081425e-02
4.714112643716051460e-02
5.096547823042148900e-02
5.287322207903362437e-02
5.288927277457663306e-02
5.115037794650791059e-02
4.751523168806785075e-02
4.240588464939582664e-02
3.572475605791181064e-02
2.764685198133288654e-02
1.856455471178849320e-02
8.382049518790384707e-03
-2.467196069998101558e-03
-1.387219139979574759e-02
-2.575926132237570804e-02
-3.765039656315815469e-02
-4.964664949597014099e-02
-6.149020408395821508e-02
-7.299942848228968550e-02
-8.413067832329142182e-02
-9.471195132663742799e-02
-1.046826664318333683e-01
-1.139212210626277810e-01
-1.224609765047143251e-01
-1.301117457361075092e-01
-1.368950468178302127e-01
-1.428286331844573487e-01
-1.476141465660964214e-01
-1.515905351824116676e-01
-1.544276794775425177e-01
-1.559985037653278395e-01
-1.566453482396744645e-01
-1.558146467034226546e-01
-1.537317490690907618e-01
-1.503606527862952902e-01
-1.451833969302446792e-01
-1.388112609275684584e-01
-1.306612349197421030e-01
-1.206445245406242428e-01
-1.091318645889869515e-01
-9.557276097345536459e-02
-8.026717479645792408e-02
-6.323014963930159715e-02
-4.416798944655039860e-02
-2.357924337936236070e-02
-1.329364377141720177e-03
2.253001470583905139e-02
4.754944776863289507e-02
7.369877137497907182e-02
1.007447641753158457e-01
1.281881326374479102e-01
1.558751919262519603e-01
1.834337806377529800e-01
2.102626747438265109e-01
2.362613801078801146e-01
2.608016714803948477e-01
2.833153428490075565e-01
3.038971112828108834e-01
3.215837500854468733e-01
3.362112557051167849e-01
3.476102797003927658e-01
3.550321854964449408e-01
3.587448329407089687e-01
3.582603339718520852e-01
3.533162348900891203e-01
3.443858907474243725e-01
3.309761434915896583e-01
3.134309163523981145e-01
2.920532052039948590e-01
2.667837757236298790e-01
2.383815734824150379e-01
2.070329847851531402e-01
1.731462544383249869e-01
1.375123636192756293e-01
1.004995702474834468e-01
6.271341705619110085e-02
2.492050276474378281e-02
-1.243004713028708977e-02
-4.873894372513694340e-02
-8.326678853398318536e-02
-1.157567634032097559e-01
-1.455489954873053216e-01
-1.721944189360597177e-01
-1.957124681021561452e-01
-2.153936160922175491e-01
-2.313163140653537175e-01
-2.435244866779290029e-01
-2.515878297327258650e-01
-2.560844367211925765e-01
-2.568010044865014496e-01
-2.539236217721259070e-01
-2.482069222551480936e-01
-2.393399893218940699e-01
-2.280737966081237966e-01
-2.147782863559008770e-01
-1.995778452415825910e-01
-1.833111935044575147e-01
-1.660415764594924681e-01
-1.482356721706502289e-01
-1.304951168830507935e-01
-1.128558039493399445e-01
-9.581646576654799519e-02
-7.962225552535580342e-02
-6.444518510103856845e-02
-5.051268175526596460e-02
-3.799046724236384426e-02
-2.690654366556366819e-02
-1.732072190740534604e-02
-9.345607286411178327e-03
-2.742432221272587435e-03
2.332783882024967552e-03
6.023521838760285615e-03
8.669711666657224300e-03
1.002387681175752679e-02
1.055185757587040821e-02
1.029439604812402292e-02
9.284308661124725942e-03
8.022307931330126957e-03
6.296471237743792200e-03
4.440704991797508883e-03
2.721663608206792689e-03
9.630902649678859534e-04
-3.970435656499458552e-04
-1.458653602905391269e-03
-2.110500860607596868e-03
-2.112201701451120461e-03
-1.642581194543084495e-03
-4.926533608479062576e-04
1.320179793694457697e-03
3.734778222911884493e-03
6.861376804429582602e-03
1.057328624234331500e-02
1.486112663650909424e-02
1.971040310072751101e-02
2.498980680072183241e-02
3.064768715002277530e-02
3.661352821214408637e-02
4.273273003433552403e-02
4.893455979472625950e-02
5.510735147233468412e-02
6.105537731933653733e-02
6.676795381847680511e-02
7.203256321386330985e-02
7.671102672684060320e-02
8.077112868548262659e-02
8.398082734234978142e-02
8.631386945187298487e-02
8.765911162809800206e-02
8.786714873757188460e-02
8.697327247379242621e-02
8.485839955826231240e-02
8.150287670693466546e-02
7.692846150951582196e-02
7.114798304854440258e-02
6.418459995439329546e-02
5.614519042218570760e-02
4.715099452339138048e-02
3.723750760002012689e-02
2.669747990838648374e-02
1.560978681495438225e-02
4.173301139417948460e-03
-7.214357093598238770e-03
-1.862638526763064906e-02
-2.954701845228599813e-02
-3.975016391998612009e-02
-4.915277121152959033e-02
-5.721460790891242515e-02
-6.395115369618227519e-02
-6.900746766032890556e-02
-7.206876869850804834e-02
-7.322387601764540621e-02
-7.207319161588876533e-02
-6.863512675434034482e-02
-6.286006271325569883e-02
-5.467083819274660278e-02
-4.424979524170206957e-02
-3.159581609839741401e-02
-1.698599327024659725e-02
-5.689165314102032078e-04
1.727901064863531996e-02
3.620386060596162553e-02
5.590703331840252838e-02
7.571680289458226909e-02
9.543661529340888294e-02
1.143849310509225392e-01
1.319942582607167569e-01
1.480018990217102648e-01
1.616261877503784583e-01
1.726380205318137351e-01
1.805734041704367965e-01
1.849345869037000711e-01
1.857492217660297318e-01
1.825812686860081302e-01
1.754499091186618176e-01
1.644123302940188880e-01
1.494686079638773701e-01
1.310449049427819534e-01
1.093214744102343206e-01
8.480969590743285547e-02
5.804664284989256157e-02
2.959219067165411512e-02
1.808960632372581465e-04
-2.956369845182055603e-02
-5.884501714060725447e-02
-8.700749634525689613e-02
-1.133289907463361085e-01
-1.371552562460426894e-01
-1.579658858547388633e-01
-1.751908369409820865e-01
-1.885782349329813701e-01
-1.977411026338757871e-01
-2.025745988748247906e-01
-2.031580796607848072e-01
-1.994118358676929270e-01
-1.917743690020495551e-01
-1.804262886054101289e-01
-1.657813153776671322e-01
-1.485900215750842468e-01
-1.290949292302558393e-01
-1.081199731448942020e-01
-8.627366398056295071e-02
-6.403559372785720682e-02
-4.225311931502644808e-02
-2.129800397236000786e-02
-1.715144139536364278e-03
1.592210159598863792e-02
3.142478243174021135e-02
4.445276195870116742e-02
5.481189425998584525e-02
6.247919424557911439e-02
6.750164177763309792e-02
6.989320765364619159e-02
6.995723180818771980e-02
6.796025692860271916e-02
6.408325716465887445e-02
5.892914276488899622e-02
5.267013630735632723e-02
4.570512918158613214e-02
3.868945622810441437e-02
3.159026495216168268e-02
2.496877889588710112e-02
1.908491488884734785e-02
1.394461383790684614e-02
9.986857768370790631e-03
7.063502967999047387e-03
5.206581161613483069e-03
4.564506928782816574e-03
4.802002322399546823e-03
5.898003017882632627e-03
7.668246690765261921e-03
9.859494729348054071e-03
1.228505273088544535e-02
1.472712783317904964e-02
1.696956360804010092e-02
1.876511840963560399e-02
2.005404306110088186e-02
2.060431625915163864e-02
2.035415680984641040e-02
1.937026419293302881e-02
1.742278099900671992e-02
1.477198365725585980e-02
1.148827422114480357e-02
7.559264198113838269e-03
3.371886649939155600e-03
-1.019075018089661208e-03
-5.369361603090874561e-03
-9.318677240465707279e-03
-1.283063299858023393e-02
-1.553082700765610544e-02
-1.721026051373341151e-02
-1.776066694748954303e-02
-1.696331275775913097e-02
-1.472507595356927629e-02
-1.100440489795326618e-02
-5.794131117110560940e-03
9.077320762719510647e-04
8.921258520889733742e-03
1.811825126404624509e-02
2.833771448113132918e-02
3.918314427496449176e-02
5.052424379711070723e-02
6.194212444759575331e-02
7.301098736898976871e-02
8.355927835573645490e-02
9.304644555498715885e-02
1.011957827947870259e-01
1.077449081264572200e-01
1.122503290986102270e-01
1.146686673183907462e-01
1.147031254109945331e-01
1.122212188558511931e-01
1.072727358167415990e-01
9.979228358438946289e-02
8.994100607185981366e-02
7.787557161601089961e-02
6.383154565573274930e-02
4.813221433728348542e-02
3.112502846273716706e-02
1.323033908140359288e-02
-5.155376290542807403e-03
-2.352715705700629198e-02
-4.149346785867477627e-02
-5.858600299508632397e-02
-7.435982017853311199e-02
-8.851928424039041954e-02
-1.006445183730011322e-01
-1.105416622865040416e-01
-1.179740095271367140e-01
-1.227586173568315231e-01
-1.249724059299415768e-01
-1.244591139727902473e-01
-1.213992008681183954e-01
-1.159075396155736515e-01
-1.081145193452379694e-01
-9.842756519552947614e-02
-8.696483444759041392e-02
-7.413831012729714398e-02
-6.033669048755755521e-02
-4.579988181501209316e-02
-3.103924241307295592e-02
-1.631209708330489880e-02
-1.986543324233981146e-03
1.155095770503454175e-02
2.410002129682122657e-02
3.534929400548582346e-02
4.511715387377281811e-02
5.323387489329639566e-02
5.962273504376374572e-02
6.419145982264090611e-02
6.694207755660423753e-02
6.800840732827161117e-02
6.734167900514019534e-02
6.520767916267888875e-02
6.170506283529728075e-02
5.697884126536050670e-02
5.141716153338806577e-02
4.502973315266050464e-02
3.815114803735385890e-02
3.104976323298412264e-02
2.377890721267169813e-02
1.671171366534745725e-02
9.904086591774486498e-03
3.507930217296587657e-03
-2.228711099379722740e-03
-7.350225693633962061e-03
-1.170260368624536154e-02
-1.523682550125779120e-02
-1.796671873565434605e-02
-1.985893598568501742e-02
-2.093916494534868097e-02
-2.125372102198054211e-02
-2.087777948406586287e-02
-1.983312016449378240e-02
-1.826221133722194176e-02
-1.622539277348326175e-02
-1.379138751492817866e-02
-1.116373361757817817e-02
-8.334248058361450051e-03
-5.442349794593685959e-03
-2.646433998434754263e-03
8.332721572403348209e-05
2.571808538072279521e-03
4.786680577279271015e-03
6.740761787782163783e-03
8.272190620261037422e-03
9.474746838799178589e-03
1.034393766931246753e-02
1.082108932699158213e-02
1.104000190867506295e-02
1.100301305508147309e-02
1.075578664197572760e-02
1.044879170869477542e-02
1.007819087420190607e-02
9.767817240201932816e-03
9.638633557903297094e-03
9.704634392687636057e-03
1.008426690864542598e-02
1.085208613759362090e-02
1.201245055273635412e-02
1.363766486614669676e-02
1.574491499727042124e-02
1.829025178044357131e-02
2.129325260668876035e-02
2.469563258194203137e-02
2.838744571670653166e-02
3.237440388585088868e-02
3.648810437306852089e-02
4.060520108532410244e-02
4.469102827119308258e-02
4.851481207618608266e-02
5.200721325522152105e-02
5.505888541823400484e-02
5.745054912923099055e-02
5.921546972498732686e-02
6.015963513053212280e-02
6.019196434670519985e-02
5.934534552467257001e-02
5.747378616594710221e-02
5.463329166087554228e-02
5.082634800118131929e-02
4.602547570733853816e-02
4.037190723060712222e-02
3.388816879073711097e-02
2.667002378078474692e-02
1.886669908783839694e-02
1.058047376095013967e-02
1.953479016788974877e-03
-6.843411091971640138e-03
-1.566938815831864576e-02
-2.438322861864404209e-02
-3.278115898485233631e-02
-4.077264099594554020e-02
-4.818318854635871701e-02
-5.483850839596416532e-02
-6.074186966981697661e-02
-6.565888354988712317e-02
-6.955813991371903593e-02
-7.240316499667374950e-02
-7.403901399952478313e-02
-7.457673636888048629e-02
-7.390262442048942115e-02
-7.202251473268894699e-02
-6.907499529810734451e-02
-6.497537728791627498e-02
-5.988228694699505167e-02
-5.385912023742530502e-02
-4.696133209910807738e-02
-3.940058456632369865e-02
-3.121858443046529943e-02
-2.258625514345756480e-02
-1.365474863274762293e-02
-4.562177978219916254e-03
4.535085163746688415e-03
1.348546879644065347e-02
2.211136500667777033e-02
3.033956174350375609e-02
3.794854774804670011e-02
4.485682585221162366e-02
5.096890566429652936e-02
5.609609524294974225e-02
6.030070180243297939e-02
6.339781593023756379e-02
6.535136964668193660e-02
6.626016724839790817e-02
6.594876484649096759e-02
6.457139397512300094e-02
6.212220367861514408e-02
5.858174101408870904e-02
5.421771949997824386e-02
4.893754067842788491e-02
4.291704771621176334e-02
3.632547568820222034e-02
2.918247930614512042e-02
2.172812961077816296e-02
1.403846106996201742e-02
6.239439731202080924e-03
-1.475193434340022793e-03
-9.036419636300786762e-03
-1.630365604872813581e-02
-2.316922225233986055e-02
-2.952339394755056426e-02
-3.532354582508098056e-02
-4.045547929979245727e-02
-4.486264678395210370e-02
-4.857759557519927829e-02
-5.146053628693960519e-02
-5.359057350460339625e-02
-5.494241998720976461e-02
-5.543404879128925600e-02
-5.528258465909641206e-02
-5.432890863020794353e-02
-5.264880305058138726e-02
-5.038708248247353305e-02
-4.740858542700417816e-02
-4.391356672170342729e-02
-3.989152202454583629e-02
-3.529576707645230849e-02
-3.038344780150549138e-02
-2.501628352486585938e-02
-1.928034700376080393e-02
-1.330510544521708652e-02
-7.005519675230001235e-03
-5.227651322835874179e-04
6.117372847859701979e-03
1.293677426932253807e-02
1.980258837775177028e-02
2.670650988118682123e-02
3.363919360692335658e-02
4.048027640264462851e-02
4.719958587437894648e-02
5.380313913953671534e-02
6.012430680204279565e-02
6.616541082255247841e-02
7.188182785822043452e-02
7.710273606780766731e-02
8.189267778367918804e-02
8.609728723176876541e-02
8.959831758848517402e-02
9.251269386853493149e-02
9.457967743768228019e-02
9.582044530980678154e-02
9.623371487946554004e-02
9.563648627311840955e-02
9.415343684925207846e-02
9.166942566339165988e-02
8.813768247512131226e-02
8.369085748480303844e-02
7.822689065441262857e-02
7.182402578830371365e-02
6.456753792661681923e-02
5.646580897962711482e-02
4.765849306584397233e-02
3.824512541790865000e-02
2.831827149507238142e-02
1.804559006647833350e-02
7.591007222858409988e-03
-2.939177170039859212e-03
-1.330750007799873236e-02
-2.334895039318804835e-02
-3.295823995597386286e-02
-4.184443713477719456e-02
-4.993435429913458540e-02
-5.703489869096924070e-02
-6.296642962555228096e-02
-6.773398717922513024e-02
-7.110868857175574320e-02
-7.310449433549209841e-02
-7.371308193094906758e-02
-7.285074656692372419e-02
-7.068258838218932638e-02
-6.717780553960985002e-02
-6.249084585006057374e-02
-5.681963852900401984e-02
-5.022524191973651991e-02
-4.301578265216399188e-02
-3.532471751083546274e-02
-2.739623937616389796e-02
-1.950097720856029671e-02
-1.178173550000451153e-02
-4.535928982571323619e-03
2.105346076809065312e-03
7.942305036824155035e-03
1.280773154543471057e-02
1.663468221595100494e-02
1.928531177848403361e-02
2.077726309932702992e-02
2.104959570951549577e-02
2.014204559031476313e-02
1.814496575051488189e-02
1.508194050530363775e-02
1.114921509295480756e-02
6.403977117579002024e-03
1.034982391071201727e-03
-4.750847660283952396e-03
-1.087783132299196057e-02
-1.705536441071028517e-02
-2.320288484574783636e-02
-2.911245085763190452e-02
-3.457899013981326902e-02
-3.955807942576766711e-02
-4.378925180367307379e-02
-4.726032235312417618e-02
-4.983512515991497804e-02
-5.137701138672372964e-02
-5.194426878523313029e-02
-5.137845838431815554e-02
-4.974496400240357996e-02
-4.703627252917512436e-02
-4.320392192754268085e-02
-3.841661369450863339e-02
-3.263295997000546789e-02
-2.596685515340256198e-02
-1.854257574307206433e-02
-1.040340127123696307e-02
-1.750129730498609093e-03
7.333964617457278991e-03
1.670530090523856398e-02
2.619713319337643037e-02
3.566358703231306548e-02
4.496567674909011936e-02
5.393653804481393643e-02
6.240381598911250161e-02
7.030437449469091604e-02
7.741146127401768440e-02
8.364971161577153258e-02
8.893803298291828863e-02
9.308361957250435581e-02
9.616167090378323346e-02
9.800572812201754913e-02
9.857035587837201240e-02
9.798218174624591381e-02
9.607613937576760244e-02
9.299700860142594283e-02
8.878383170742129571e-02
8.340358779486423124e-02
7.713201439705719142e-02
6.991766457009702951e-02
6.190360998067711423e-02
5.329912218561255050e-02
4.413341244142079955e-02
3.461545226244571588e-02
2.488316727778173282e-02
1.503590207655290320e-02
5.260258775186033714e-03
-4.318463322757649415e-03
-1.361150096962784883e-02
-2.246499932606008110e-02
-3.075699897251070111e-02
-3.848941759494604875e-02
-4.546871134905836748e-02
-5.166669664191046035e-02
-5.711062502526366436e-02
-6.160161588253296877e-02
-6.526116001395054766e-02
-6.800307672812318238e-02
-6.973181767780717299e-02
-7.069203549301346368e-02
-7.064666635118713178e-02
-6.970068950630681215e-02
-6.796555841327832359e-02
-6.529001326206416989e-02
-6.189331105941370953e-02
-5.772101235948639414e-02
-5.276432723662751595e-02
-4.725238231019095181e-02
-4.106691857909072763e-02
-3.433137038360026261e-02
-2.714466070684740454e-02
-1.950743906623750995e-02
-1.155021424544243336e-02
-3.341868859281653219e-03
5.044499638546367723e-03
1.351370526561912824e-02
2.192987801596295305e-02
3.024628147302978881e-02
3.831925096936735636e-02
4.598732405504885740e-02
5.328570121122658265e-02
5.994113596696288432e-02
6.590140795009676034e-02
7.112289818288770882e-02
7.536326145400022714e-02
7.869019763771611942e-02
8.092833697960831463e-02
8.197815530719509969e-02
8.195737797545073200e-02
8.065476345921458734e-02
7.816262738956163136e-02
7.448916988272974438e-02
6.961576531572470639e-02
6.370084588409140325e-02
5.674429544230270156e-02
4.890506682404033301e-02
4.029955580235251855e-02
3.107921498275164479e-02
2.143674524481820748e-02
1.150937148524770401e-02
1.577663079108204778e-03
-8.261176426069931356e-03
-1.772481047237712409e-02
-2.658895052229988051e-02
-3.475241639076658701e-02
-4.189604927028606901e-02
-4.795202745597581390e-02
-5.272182164326227188e-02
-5.601861699586506427e-02
