BVP Green Neck Signal
-8.567302747772464339e-03
-3.438531304814404499e-02
-5.918939879742431132e-02
-8.224061852031115671e-02
-1.028000307415024434e-01
-1.201286939856960612e-01
-1.335111056008682628e-01
-1.424358139145199820e-01
-1.464965653615758756e-01
-1.453707244585028258e-01
-1.389643390441946957e-01
-1.272303311630483547e-01
-1.102988688874492473e-01
-8.847742937520093609e-02
-6.211544457768999883e-02
-3.176240557653527141e-02
1.959231455872225032e-03
3.836428418342040236e-02
7.664587317217814999e-02
1.159806608712554282e-01
1.555117959326914046e-01
1.943582589243409431e-01
2.316520597504512780e-01
2.665795075128405967e-01
2.983422918918930411e-01
3.262235525660656665e-01
3.496195386238528657e-01
3.679552688219820955e-01
3.808337662955585956e-01
3.879498997597223831e-01
3.890770774725025860e-01
3.842038252733109283e-01
3.733621808059198188e-01
3.567370068524039484e-01
3.346661544993864701e-01
3.075234471434576955e-01
2.758540896962421440e-01
2.402658414427040756e-01
2.014202791053477659e-01
1.600834697800692652e-01
1.170357716996809211e-01
7.308837654127092742e-02
2.907472719677377943e-02
-1.418216913483223707e-02
-5.590309092584715145e-02
-9.532132621614083923e-02
-1.317404135024227430e-01
-1.645615182856497161e-01
-1.932112553366725494e-01
-2.172753393513073561e-01
-2.364216394079030059e-01
-2.503897959868018885e-01
-2.591162204423958504e-01
-2.625771686426358609e-01
-2.608892209921994665e-01
-2.543095322209912856e-01
-2.431275749917575502e-01
-2.277860792070752483e-01
-2.087837217800138645e-01
-1.866630641223797626e-01
-1.620519221047763136e-01
-1.355889644982599396e-01
-1.079269286366413283e-01
-7.972871187220517686e-02
-5.164363553533629636e-02
-2.426567954431988264e-02
1.826494102594375391e-03
2.612019367116115084e-02
4.819447238415740242e-02
6.764988604364170766e-02
8.421551166392150789e-02
9.768682958160754271e-02
1.079096590863988236e-01
1.148677331014473363e-01
1.185720911317864334e-01
1.191174709256688086e-01
1.166825171338879419e-01
1.114621357058390994e-01
1.037250179421794066e-01
9.376675110618717945e-02
8.189668370140648634e-02
6.845089230624239185e-02
5.376784956787823699e-02
3.817668671097174116e-02
2.199978391767144770e-02
5.549918458259657690e-03
-1.089806781903513572e-02
-2.707947976556896938e-02
-4.275844342131043807e-02
-5.773919541663065369e-02
-7.183367295715285816e-02
-8.489517039452579295e-02
-9.679836068218508616e-02
-1.074301429899648802e-01
-1.167108164359494105e-01
-1.245671256711529118e-01
-1.309421233090952152e-01
-1.357952222159945210e-01
-1.390893760132600465e-01
-1.408041015427855813e-01
-1.409250079817351009e-01
-1.394469333213208539e-01
-1.363826865603330607e-01
-1.317488889148482056e-01
-1.255858842370634054e-01
-1.179511730815250709e-01
-1.089121090652366702e-01
-9.857408549276099052e-02
-8.705256393368969448e-02
-7.448674070775640477e-02
-6.104886773411068168e-02
-4.691667131756738218e-02
-3.229434566638429704e-02
-1.739976964290178632e-02
-2.453048310827024917e-03
1.231985482806434093e-02
2.669264598454276077e-02
4.045472345693311433e-02
5.341123914966600106e-02
6.537564423452812967e-02
7.620603725223334957e-02
8.577697471191640666e-02
9.399076329839453625e-02
1.008037922175634149e-01
1.061822814450658348e-01
1.101414130299790128e-01
1.127318049399965300e-01
1.140166979118471813e-01
1.141068955677853741e-01
1.131254965673581248e-01
1.112114302165306545e-01
1.085256892114218608e-01
1.052309550940514898e-01
1.014903756766934173e-01
9.746732852393945323e-02
9.331657156471438730e-02
8.916892286592043027e-02
8.514979532479154123e-02
8.135483131681668645e-02
7.784976471540390464e-02
7.469137568552493278e-02
7.189156571178015320e-02
6.944576484953515760e-02
6.733186997074525060e-02
6.549359893624825957e-02
6.386955311483243081e-02
6.238239881296425704e-02
6.094326114505010938e-02
5.946334262431667017e-02
5.785519437163878786e-02
5.603194387379381580e-02
5.391759984097248271e-02
5.145134723668423615e-02
4.857637364247335832e-02
4.526106794943589307e-02
4.148687874924519847e-02
3.724527127145096927e-02
3.255524050678205300e-02
2.744120221976663679e-02
2.194329839286628461e-02
1.611748135779279140e-02
1.002236669815775860e-02
3.728143527646836115e-03
-2.690781755876640521e-03
-9.159642220304733615e-03
-1.560297851313948922e-02
-2.194578513001553891e-02
-2.812036554381392925e-02
-3.406432067296336075e-02
-3.971905603607492341e-02
-4.504081817933222598e-02
-4.998979316928597871e-02
-5.453557987804039109e-02
-5.866091487303236318e-02
-6.235073555531681078e-02
-6.560072086166986172e-02
-6.841211672209893124e-02
-7.078772413843793798e-02
-7.273453814983565913e-02
-7.426017124756149890e-02
-7.536977543020877135e-02
-7.606602728029013272e-02
-7.635010443966752658e-02
-7.621500755320932685e-02
-7.565072452342883058e-02
-7.464317476574425236e-02
-7.317033255789771873e-02
-7.120900706219619736e-02
-6.873265059668615118e-02
-6.571228073120014002e-02
-6.211988491743369867e-02
-5.793157873337026476e-02
-5.312469496212376963e-02
-4.768473678198306698e-02
-4.160861923140878049e-02
-3.489641357217071471e-02
-2.756844572889334197e-02
-1.965555530205399457e-02
-1.119802942234244744e-02
-2.262202924901209056e-03
7.080309230250277086e-03
1.673962999344837110e-02
2.660749638685434848e-02
3.657176487702640255e-02
4.650221025855259815e-02
5.626198630001737200e-02
6.571096694608244415e-02
7.470262833936691660e-02
8.309011934226617768e-02
9.073227207027093066e-02
9.749204372303825472e-02
1.032375778819021039e-01
1.078575605128222620e-01
1.112462668037571406e-01
1.133169386359791780e-01
1.140093284138601060e-01
1.132692724548769875e-01
1.110787190147134035e-01
1.074383726092138502e-01
1.023639286208458121e-01
9.591239619142048756e-02
8.814915286657891424e-02
7.916829221673302164e-02
6.909283914011460359e-02
5.805262253700316233e-02
4.621004926631022691e-02
3.373950086452606051e-02
2.082578480481199132e-02
7.674086918321144056e-03
-5.507635878992471132e-03
-1.850584139608960066e-02
-3.110293055109850449e-02
-4.308418857189172391e-02
-5.424691053535952989e-02
-6.439183151216408552e-02
-7.333863787839928206e-02
-8.093352414207785617e-02
-8.702978387760385015e-02
-9.152576569100027981e-02
-9.434323998977489634e-02
-9.542517563079773446e-02
-9.477308106866495774e-02
-9.240045096606111508e-02
-8.836432494748358568e-02
-8.276564530605101666e-02
-7.571583028132562732e-02
-6.737665210553964168e-02
-5.792840216924087515e-02
-4.756703641664736248e-02
-3.651914960966201606e-02
-2.501544914206178458e-02
-1.329426632376884410e-02
-1.599474123506547905e-03
9.828976255049158561e-03
2.076747982015461624e-02
3.099705288066859771e-02
4.032158380745114179e-02
4.857697635023106031e-02
5.560703000494163217e-02
6.130401853920972033e-02
6.558543042347358965e-02
6.838902848557516789e-02
6.970853909510990598e-02
6.954894850376169835e-02
6.795208754247158978e-02
6.499696072303484673e-02
6.077059585487186444e-02
5.539768158301217049e-02
4.901675715387869559e-02
4.177671543908191565e-02
3.384671061563312988e-02
2.539857196848238630e-02
1.660853325265412156e-02
7.656032044119001970e-03
-1.281654949461080197e-03
-1.003627925364660237e-02
-1.844212675380480296e-02
-2.634521520079072601e-02
-3.360799598486170769e-02
-4.009692883166586508e-02
-4.570297424434226208e-02
-5.032984750100558125e-02
-5.389216937705731958e-02
-5.633470549840903507e-02
-5.760844500494441411e-02
-5.768785262002679159e-02
-5.657109519394387664e-02
-5.426287997382880923e-02
-5.080035491946759130e-02
-4.623265441042563595e-02
-4.062366940891527778e-02
-3.406621249717577127e-02
-2.665804990992773002e-02
-1.851883510596893934e-02
-9.784153831805390486e-03
-5.943630066061033473e-04
8.892333380939114115e-03
1.851314634740692730e-02
2.810195241286111631e-02
3.748795386509658212e-02
4.650094859417933102e-02
5.497906699148856491e-02
6.276478662907004902e-02
6.970917400030826605e-02
7.568719186410480249e-02
8.057909151048844865e-02
8.429199634953425668e-02
8.676018054033036997e-02
8.792665271481871214e-02
8.777894985684940588e-02
8.632108480042541276e-02
8.357868550811871355e-02
7.961977840203333934e-02
7.451962882174567593e-02
6.838524271882287509e-02
6.134674752421924449e-02
5.354082611280182313e-02
4.512858643085784771e-02
3.627740838627450948e-02
2.715887102731462388e-02
1.795044392440547920e-02
8.828977807629263819e-03
-3.802821778725769264e-05
-8.487956313783510953e-03
-1.636689729804039622e-02
-2.354517887763438871e-02
-2.989839128425164291e-02
-3.532695347863597235e-02
-3.975638844510241687e-02
-4.311982014896212356e-02
-4.538875965398647683e-02
-4.654892731541447615e-02
-4.660405544824300361e-02
-4.559323201070811238e-02
-4.356162119503367847e-02
-4.058138061777127881e-02
-3.674434545124867502e-02
-3.214857294718120873e-02
-2.691552740919550199e-02
-2.117275129427319963e-02
-1.505474154900569503e-02
-8.705757868130905436e-03
-2.270666355173618992e-03
4.106769920482178024e-03
1.028336901377635039e-02
1.612093470130112477e-02
2.149521070346200810e-02
2.628514435415694669e-02
3.038808895152157741e-02
3.372002108256413888e-02
3.620332068585058183e-02
3.779339062437576946e-02
3.845787983759231532e-02
3.818160062351579065e-02
3.698308412640971543e-02
3.488678293828344212e-02
3.194461934015097732e-02
2.822855478368385337e-02
2.381701060236887657e-02
1.881276245008788039e-02
1.332490750379634187e-02
7.469434197364128135e-03
1.372011930428584242e-03
-4.841178691896359451e-03
-1.104585534784673778e-02
-1.711873179850711968e-02
-2.294133253780511125e-02
-2.840863279813695200e-02
-3.341858321732567305e-02
-3.788414773847428862e-02
-4.173349168706486090e-02
-4.489927757579813272e-02
-4.733681653684919388e-02
-4.900981103721017973e-02
-4.989197280284857206e-02
-4.997668846957060984e-02
-4.926070175993710332e-02
-4.775541642609629212e-02
-4.548293843494974342e-02
-4.246919193007225868e-02
-3.875461137558858238e-02
-3.438347003365950505e-02
-2.940739934722358048e-02
-2.388837513184130859e-02
-1.789029402055601625e-02
-1.148717998685806763e-02
-4.758347232135726884e-03
2.213583639522877233e-03
9.336852131557320245e-03
1.651792414142575979e-02
2.365892839851483839e-02
3.065759900558642087e-02
3.741138870177770914e-02
4.381724165658740233e-02
4.977194262500547750e-02
5.517576483766253870e-02
5.993585314000378361e-02
6.396116419657039975e-02
6.717462280957234300e-02
6.950935824332640789e-02
7.090508572124816500e-02
7.132733165630023020e-02
7.074857320046122611e-02
6.915987195775794016e-02
6.657843503111238181e-02
6.302670742834642903e-02
5.855612922267278142e-02
5.323329778521668221e-02
4.713417364246798302e-02
4.036061512799259121e-02
3.301950288377374088e-02
2.522985848535776870e-02
1.712301403901215005e-02
8.831777922814872117e-03
4.944653574049792319e-04
-7.748604676360583074e-03
-1.575973894125244287e-02
-2.340642601658596972e-02
-3.055767193400018081e-02
-3.709511495116191160e-02
-4.290962848261430096e-02
-4.789786637685784776e-02
-5.197912795470104041e-02
-5.507881313756962660e-02
-5.713854565977075084e-02
-5.812279017504297374e-02
-5.800081961610041581e-02
-5.676930510627808957e-02
-5.443925328556095677e-02
-5.103244929989103618e-02
-4.660058959101844034e-02
-4.120145105009040409e-02
-3.491335593471510401e-02
-2.783547369371923777e-02
-2.007182482590090175e-02
-1.174972591448322431e-02
-3.005118595502695097e-03
6.019056286838879097e-03
1.516607747363921121e-02
2.427747960627486823e-02
3.319298349091033551e-02
4.175098292132163602e-02
4.979303616731037274e-02
5.717370230714306778e-02
6.375120206999200512e-02
6.940044495010053160e-02
7.401985291776289055e-02
7.751378331724308179e-02
7.982355413082280193e-02
8.090983877991043960e-02
8.074969731875732137e-02
7.936575869061621158e-02
7.678992551349125839e-02
7.308552749170529883e-02
6.834780579449277471e-02
6.267876943538625012e-02
5.621219488386972052e-02
4.909360608234353274e-02
4.147511831453434827e-02
3.352182268947202781e-02
2.539992412243266551e-02
1.726997752222859950e-02
9.288401242327078491e-03
1.605380941507123134e-03
-5.653895169167486370e-03
-1.237105672759782407e-02
-1.844915278762222777e-02
-2.382143159345882777e-02
-2.842741220797117760e-02
-3.224209482940840199e-02
-3.525906932246115899e-02
-3.748371662693671114e-02
-3.895411706684230591e-02
-3.971472548845098038e-02
-3.982583266378886266e-02
-3.936382080988962140e-02
-3.840718206728586936e-02
-3.704268149747341754e-02
-3.536011575206468582e-02
-3.344712591531114054e-02
-3.138708515817260902e-02
-2.926200558701564161e-02
-2.714193418495729551e-02
-2.508815156509634076e-02
-2.315686941290039449e-02
-2.138445890017428436e-02
-1.980197961686000832e-02
-1.842835987872944864e-02
-1.726541179108810262e-02
-1.631186484378804868e-02
-1.555052423165897979e-02
-1.495584715512831425e-02
-1.449819207595196002e-02
-1.413658879034264404e-02
-1.382796916994052244e-02
-1.352643107659680377e-02
-1.318319058500803942e-02
-1.275000693706464239e-02
-1.218264398818527661e-02
-1.143838272015714266e-02
-1.047971940595131615e-02
-9.279456599135649242e-03
-7.812539402892067220e-03
-6.066894953285247374e-03
-4.039968656724233706e-03
-1.733558484014410643e-03
8.336750445707133070e-04
3.638594545043406445e-03
6.649670539849497457e-03
9.823524459747622062e-03
1.311502836576936698e-02
1.647145120363272333e-02
1.983607530035964156e-02
2.315201117452649754e-02
2.636198442782337545e-02
2.940888789980646359e-02
3.224118132039295592e-02
3.481298918832036876e-02
3.708101983504751009e-02
3.901587130392042413e-02
4.059332908340608503e-02
4.179713417471571379e-02
4.262675174324102867e-02
4.308440544801139804e-02
4.318501135293711934e-02
4.295279814318711531e-02
4.241462906255100140e-02
4.160724750652630699e-02
4.056994443392059058e-02
3.934326441388270867e-02
3.796952330966882339e-02
3.649058796049446662e-02
3.494313317251103446e-02
3.336110472490010775e-02
3.177444264505375343e-02
3.020186353096613457e-02
2.865971510037743086e-02
2.715470472215766873e-02
2.568372293581505303e-02
2.424139002799792844e-02
2.281141057768645494e-02
2.137343939245668276e-02
1.990477531513007436e-02
1.837806506445598814e-02
1.676557312982403236e-02
1.504186423238151535e-02
1.318319202577997173e-02
1.116818459289828196e-02
8.985012685578623939e-03
6.624446321586440617e-03
4.084950583668133309e-03
1.375871189135320985e-03
-1.491323095398368152e-03
-4.493578293523646169e-03
-7.601753209327282226e-03
-1.078342615421456346e-02
-1.399707323799384909e-02
-1.719944998273111383e-02
-2.034428879129080575e-02
-2.338224141389393454e-02
-2.626400950245632790e-02
-2.894142002602255112e-02
-3.136673713243927353e-02
-3.349498913397774835e-02
-3.528668023575420865e-02
-3.670351651258808856e-02
-3.771498571187528737e-02
-3.829629334612066893e-02
-3.842560664193954423e-02
-3.809266382915371674e-02
-3.729031726234106892e-02
-3.601886466415737953e-02
-3.428913893102882027e-02
-3.211410442443426994e-02
-2.951862236488952615e-02
-2.653381086215409954e-02
-2.319524909423982886e-02
-1.955095408686002845e-02
-1.565144827298639227e-02
-1.155502361642049211e-02
-7.327895109608236618e-03
-3.037768201987131600e-03
1.240875390288531319e-03
5.431045228786375925e-03
9.455487434265249028e-03
1.323643374270523296e-02
1.669650651797436117e-02
1.976463571213574882e-02
2.237438926214691676e-02
2.446347390369485800e-02
2.598609569248942763e-02
2.690098148798117372e-02
2.718115019469077853e-02
2.681985852905566931e-02
2.581484965336281953e-02
2.419022766068491814e-02
2.198397097526828131e-02
1.924403474086453653e-02
1.604621417981561687e-02
1.247183584554952332e-02
8.617714122280163702e-03
4.596468448747030242e-03
5.230162451071015614e-04
-3.478240770062618337e-03
-7.279408174951618529e-03
-1.075501855126854978e-02
-1.378443213986558016e-02
-1.624873924219475893e-02
-1.804527276797466759e-02
-1.908331745651589001e-02
-1.927997359078181469e-02
-1.858321882586277257e-02
-1.694938965877468284e-02
-1.435646905006444582e-02
-1.081311391463245231e-02
-6.334049553806779531e-03
-9.674309863816491287e-04
5.220981023487316665e-03
1.215457846324068635e-02
1.972652469629497182e-02
2.782406277997782548e-02
3.631974828857702231e-02
4.507113781539839881e-02
5.393377234108881479e-02
6.275517865721522148e-02
7.137992866896358812e-02
7.965448908988750909e-02
8.742909929960669679e-02
9.455529351181701792e-02
1.008965061647396910e-01
1.063249345669176615e-01
1.107184225083425039e-01
1.139771263748602242e-01
1.160072637822224528e-01
1.167315000700509947e-01
1.160958245380682569e-01
1.140512539717387641e-01
1.105779284617990355e-01
1.056713402832206300e-01
9.933907213511333767e-02
9.162253344034373970e-02
8.257012584225552343e-02
7.225537449870202134e-02
6.077747917087347740e-02
4.824225357192625518e-02
3.478818999946417523e-02
2.056599571171446872e-02
5.739256072184460537e-03
-9.502888169572159399e-03
-2.496729848946548785e-02
-4.044711332867184650e-02
-5.572535873436441911e-02
-7.058471386124415270e-02
-8.480740013268600608e-02
-9.817575897287329767e-02
-1.104834851759128322e-01
-1.215403850015339682e-01
-1.311614571349627445e-01
-1.391972249487888336e-01
-1.455169570052534112e-01
-1.500087808588111971e-01
-1.526137604996045116e-01
-1.532840639558659401e-01
-1.520149140979295543e-01
-1.488455643680235141e-01
-1.438264973539977176e-01
-1.370635896570757406e-01
-1.286834258773231487e-01
-1.188326388583966636e-01
-1.076976693156301151e-01
-9.547096526029967556e-02
-8.236322476581853236e-02
-6.859860391231112353e-02
-5.440120791358413199e-02
-3.999364499715109267e-02
-2.559785800792001645e-02
-1.142231587178021632e-02
2.343647019634069028e-03
1.551598221815869705e-02
2.794496183940604894e-02
3.949897774468641432e-02
5.006159859421133174e-02
5.955894906472314343e-02
6.792584392432550466e-02
7.512593137094905615e-02
8.115236745532129758e-02
8.600476890399649799e-02
8.971350613875213320e-02
9.232043889189971153e-02
9.387642219399855437e-02
9.445017818665668585e-02
9.411295109741660281e-02
9.294171041802187783e-02
9.101765061850904115e-02
8.842129688872635285e-02
8.523001863007530210e-02
8.152025990374207887e-02
7.736295421370502357e-02
7.282120377634139496e-02
6.795639024125503524e-02
6.281981451961325680e-02
5.745745297260758389e-02
5.191222314136770266e-02
4.621850184622763869e-02
4.040905215535754713e-02
3.451400246198402244e-02
2.856078293955600228e-02
2.257705397193377969e-02
1.659259424413727507e-02
1.063799462000170754e-02
4.747147748102475105e-03
-1.039479320119023574e-03
-6.680093926327578674e-03
-1.212521156115899806e-02
-1.731966740112074465e-02
-2.220635647640467267e-02
-2.672074073915301981e-02
-3.079636283346664019e-02
-3.436635045903559116e-02
-3.736324119624293005e-02
-3.972052780420286255e-02
-4.138068525599314373e-02
-4.229094170316173573e-02
-4.240602421031591795e-02
-4.170182700614992466e-02
-4.015888902980996322e-02
-3.777972914466480592e-02
-3.458939228514550102e-02
-3.061959202834512936e-02
-2.593598447190302927e-02
-2.061695984382992328e-02
-1.475537495431276588e-02
-8.472882935879940541e-03
-1.895695919536909482e-03
4.833854875217599191e-03
1.156152595990357114e-02
1.813240465729212131e-02
2.438997253882929650e-02
3.017753782682701738e-02
3.534995734397601563e-02
3.977852385472063768e-02
4.333978129747781405e-02
4.594618860440551067e-02
4.752921102233474693e-02
4.803858522884166260e-02
4.747547136338896301e-02
4.585171432135565217e-02
4.321801763398648577e-02
3.966493735268350473e-02
3.529211880648798483e-02
3.024299495020719292e-02
2.467738372093112101e-02
1.876640144317265335e-02
1.270364943548034711e-02
6.685220160010892955e-03
9.047068366215861579e-04
-4.446145625121177350e-03
-9.183274961852658236e-03
-1.315408939238391431e-02
-1.621476224052813622e-02
-1.825342878120994258e-02
-1.920374533181868834e-02
-1.900953743562645501e-02
-1.767480398086497193e-02
-1.523540168727346295e-02
-1.174910511228888232e-02
-7.335187904814421261e-03
-2.125091977331346887e-03
3.718134918206845302e-03
9.999007740751780088e-03
1.651807252072756346e-02
2.306086831538736032e-02
2.940740674456453554e-02
3.534619986732945307e-02
4.068274939855655303e-02
4.522743530619763308e-02
4.883100012857856387e-02
5.137405795846494705e-02
5.275479900603582961e-02
5.294098363840725463e-02
5.191919404003170202e-02
4.971926930473004325e-02
4.643270066332301493e-02
4.216166897448210549e-02
3.706211829336503172e-02
3.131846718799575352e-02
2.512500130153266092e-02
1.870334644479392655e-02
1.227961062468383227e-02
6.071484080931020821e-03
2.880116926250921722e-04
-4.870053261354423402e-03
-9.249560230219206966e-03
-1.271535553260298018e-02
-1.516564904484739643e-02
-1.656524922894316368e-02
-1.689124444453946397e-02
-1.618234403306757080e-02
-1.452289465183345327e-02
-1.201249249886154891e-02
-8.809224023389437136e-03
-5.086603996993626850e-03
-1.034810710680556661e-03
3.132210621210887273e-03
7.199338052502064766e-03
1.095725813522066897e-02
1.419974905327402864e-02
1.673358068951864494e-02
1.840244281707668211e-02
1.905830141844595815e-02
1.859536103716054323e-02
1.695123766795718356e-02
1.407671204213524138e-02
9.990028220873416534e-03
4.734829097362448259e-03
-1.614852333675103127e-03
-8.924305437203693819e-03
-1.704873460511894395e-02
-2.580283529997936739e-02
-3.497127994182788746e-02
-4.433250951862927058e-02
-5.364215546060710493e-02
-6.265007742942202418e-02
-7.111173696936647082e-02
-7.879059129810249418e-02
-8.545485449190712290e-02
-9.091012216961989745e-02
-9.498183453139673327e-02
-9.751780629627049279e-02
-9.842910693597507754e-02
-9.764018568929154485e-02
-9.512836575164528019e-02
-9.092535116785419036e-02
-8.507661169503494270e-02
-7.769572353953506372e-02
-6.892187538945492020e-02
-5.891847592957499824e-02
-4.789730961745540527e-02
-3.607744769635194693e-02
-2.369955036396657194e-02
-1.102028990666355235e-02
1.703900017777979989e-03
1.421913553878326707e-02
2.627253913948619096e-02
3.762813182752193508e-02
4.807407160216937980e-02
5.740520020373518495e-02
6.545997754643415045e-02
7.210002922368162481e-02
7.720677634667663658e-02
8.071749991052001860e-02
8.258100457758384139e-02
8.278557259765551013e-02
8.136011780588371656e-02
7.834294333660155041e-02
7.381785373789577498e-02
6.788577383216110039e-02
6.066323282568868158e-02
5.229794832244073766e-02
4.294255052262822836e-02
3.276659856777957430e-02
2.195221648676136048e-02
1.068425841570909071e-02
-8.423585162856093989e-04
-1.243008369476406721e-02
-2.387981169147178340e-02
-3.499021466057367080e-02
-4.556007548506872673e-02
-5.539072175496041750e-02
-6.428483564287811036e-02
-7.204820485617773052e-02
-7.849544711992133272e-02
-8.344330270124833415e-02
-8.672203260618534248e-02
-8.817582371854004730e-02
-8.765512264121819164e-02
-8.504437538604699143e-02
-8.024093212261493302e-02
-7.316764218310256584e-02
-6.379841032041758120e-02
-5.211757469025350697e-02
-3.817106518273750970e-02
-2.205055879551268486e-02
-3.869951127102585348e-03
1.616937007935785944e-02
3.784236098079481192e-02
6.087429867893735802e-02
8.491939863775907482e-02
1.096201286745603354e-01
1.345621441166782728e-01
1.593009020903815021e-01
1.833845683130619630e-01
2.063412736033550521e-01
2.276966040228794452e-01
2.470006937287416993e-01
2.638289785341782490e-01
2.777726766166799810e-01
2.885115119120294502e-01
2.957587896823600793e-01
2.992894459669487861e-01
2.990019002675451398e-01
2.948179650679927377e-01
2.867822373595348417e-01
2.750305776434663341e-01
2.597333429291963092e-01
2.411948388445389890e-01
2.197551175115902422e-01
1.958060505069408597e-01
1.698136862738295061e-01
1.422522593911190458e-01
1.136183968073285200e-01
8.442061876975262558e-02
5.515322976973875690e-02
2.626957184243410709e-02
-1.787020281138069697e-03
-2.863971698510031985e-02
-5.398028408433371006e-02
-7.752293834572855646e-02
-9.909881902921274799e-02
-1.185832552936662565e-01
-1.359048243203760942e-01
-1.510988172780487748e-01
-1.642181110896062668e-01
-1.753842458926327397e-01
-1.847698346757094545e-01
-1.925574938875143638e-01
-1.989662835601019586e-01
-2.042245530811408749e-01
-2.085530443536715850e-01
-2.121616016514558944e-01
-2.152539979322652952e-01
-2.179865957490637607e-01
-2.204904994859334388e-01
-2.228716038922673448e-01
-2.251643350952723943e-01
-2.273883116867142229e-01
-2.295118559899643473e-01
-2.314503441150132235e-01
-2.331081374892988445e-01
-2.343375779736032449e-01
-2.349714339067267288e-01
-2.348327157800403353e-01
-2.337249046197476532e-01
-2.314501048558918472e-01
-2.278240831680749257e-01
-2.226727757579091416e-01
-2.158347913432255849e-01
-2.072003243469800748e-01
-1.966738579717157709e-01
-1.842044403507306083e-01
-1.698050043406765242e-01
-1.535019697278943163e-01
-1.353993753843701076e-01
-1.156426274686516570e-01
-9.440375377766044296e-02
-7.192992005790750654e-02
-4.848313103711182626e-02
-2.436133868962402083e-02
1.003751118340504705e-04
2.456318988721860677e-02
4.867597456683339652e-02
7.208308083766837293e-02
9.444283237970554912e-02
1.154416533354658270e-01
1.347732678198331480e-01
1.521874612717325215e-01
1.674757785078064276e-01
1.804530791824003888e-01
1.910269201424673602e-01
1.991300803256150498e-01
2.047522848761107739e-01
2.079649514882599415e-01
2.088540250290020217e-01
2.075800480960791616e-01
2.043433416409768666e-01
1.993619366938097215e-01
1.929035597796085744e-01
1.852450988448604563e-01
1.766711166672569888e-01
1.674741089971995556e-01
1.579424020491427272e-01
1.483367760734071450e-01
1.389074730042963723e-01
1.298778592042927893e-01
1.214172771244873550e-01
1.136843981347378796e-01
1.067780512973185991e-01
1.007524578211582839e-01
9.564388942526357018e-02
9.141843744138057615e-02
8.802334860435169495e-02
8.537575792753715476e-02
8.334957223338766708e-02
8.181307093706029210e-02
8.061377377104543551e-02
7.958813030066287653e-02
7.857535101557078239e-02
7.742286303987860885e-02
7.598055364233743947e-02
7.412267692857056611e-02
7.174869134151752592e-02
6.876718031462888958e-02
6.513512217593471487e-02
6.082785169758406218e-02
5.584423162679900965e-02
5.023042189015820835e-02
4.404050299714501460e-02
3.736062972528880755e-02
3.030088295990358491e-02
2.297627662049899974e-02
1.551996387137114311e-02
8.069745708433617021e-03
7.600429589650426268e-04
-6.279579628385191514e-03
-1.292253537751327300e-02
-1.906590808137449689e-02
-2.461942985921372271e-02
-2.950587992199129803e-02
-3.368515112533772282e-02
-3.712488531373879519e-02
-3.982041751479958869e-02
-4.179574815616073080e-02
-4.308119899472351300e-02
-4.373748816526223937e-02
-4.383682129548890916e-02
-4.345915592931014204e-02
-4.270002476388808088e-02
-4.165683807493616997e-02
-4.042711190409339905e-02
-3.910844124685911027e-02
-3.779494199183784653e-02
-3.656623645147527579e-02
-3.549789565406664960e-02
-3.465167545877530231e-02
-3.406947004309343607e-02
-3.378904455739850654e-02
-3.382458395994847322e-02
-3.417766927733006943e-02
-3.484225793527276349e-02
-3.579074548222548058e-02
-3.699128298416685945e-02
-3.840230431971269898e-02
-3.997217788238642544e-02
-4.164821194419812689e-02
-4.337409643179911123e-02
-4.509217931106143662e-02
-4.674757602510364041e-02
-4.829098645579346649e-02
-4.967455361192274488e-02
-5.086146572982565284e-02
-5.182316219684876546e-02
-5.253535501638144367e-02
-5.299073434519128989e-02
-5.318659409011301797e-02
-5.312923454594262185e-02
-5.283791359889110362e-02
-5.233381456103586293e-02
-5.164650712577205371e-02
-5.081004430967656083e-02
-4.985857827350165250e-02
-4.882642468988204754e-02
-4.774766791339182803e-02
-4.664999418239428042e-02
-4.555445757115444971e-02
-4.447928335345854856e-02
-4.342733062236986408e-02
-4.239561146769264821e-02
-4.137291837870170352e-02
-4.033148128688823775e-02
-3.924072733836084237e-02
-3.805847543466105154e-02
-3.673386649667603754e-02
-3.521460337928394857e-02
-3.344326242424541795e-02
-3.136116823464585313e-02
-2.891383294212706082e-02
-2.605279769349235289e-02
-2.273198823577146990e-02
-1.892281135321371988e-02
-1.460603533162383588e-02
-9.771875893680304417e-03
-4.437479563893429596e-03
1.374351871070362760e-03
7.620142836575381773e-03
1.423497245409295273e-02
2.114905371695512820e-02
2.826898873992703468e-02
3.549243521399875895e-02
4.271092312703179961e-02
4.980364285580719808e-02
5.664836991668538435e-02
6.312389519601721566e-02
6.910976918669067826e-02
7.448945537746083645e-02
7.916267313053054755e-02
8.303371480184106035e-02
8.602338109386593878e-02
8.807625784378053657e-02
8.914223954154186502e-02
8.920280842433585267e-02
8.825637010277806449e-02
8.631329265954228169e-02
8.341793223157190074e-02
7.962154923862124756e-02
7.499566887505888790e-02
6.963285232425119042e-02
6.362968833225245147e-02
5.710138597974771801e-02
5.017020483656305097e-02
4.296200334031066714e-02
3.560988578417845218e-02
2.824762256671795035e-02
2.100601187600349695e-02
1.401362676615651275e-02
7.395631025017277045e-03
1.263171402694618535e-03
-4.276526284887090593e-03
-9.129241249589647306e-03
-1.321950383141270308e-02
-1.647606778114507273e-02
-1.885294860374878839e-02
-2.031770681627227682e-02
-2.084830149884749420e-02
-2.045229076375638597e-02
-1.914337007663258899e-02
-1.695587029493046682e-02
-1.394555823367481240e-02
-1.017321608566412738e-02
-5.724176246384020048e-03
-6.930990805463152493e-04
4.817095336968042416e-03
1.068681917663353784e-02
1.679402870685317573e-02
2.301027876809936742e-02
2.920232834995585905e-02
3.523780194849501085e-02
4.098842734678043165e-02
4.632719150736280822e-02
5.113640245205813839e-02
5.531181738046424268e-02
5.875280224608665780e-02
6.138214974412284364e-02
6.313522419375124095e-02
6.395828851440527041e-02
6.382869630799503646e-02
6.273029638174511258e-02
6.066972543608320501e-02
5.767730898766321168e-02
5.378884888441523571e-02
4.906688741082533556e-02
4.358412954650844884e-02
3.742154262300823042e-02
3.067677630723469190e-02
2.344984693556625283e-02
1.584584424405740405e-02
7.973661614699700806e-03
-5.883198562238282914e-05
-8.148439371615547738e-03
-1.619332378103045811e-02
-2.409857512266000770e-02
-3.177928489653418509e-02
-3.915273152504698817e-02
-4.614907566919587700e-02
-5.270539436736693117e-02
-5.876291324894318546e-02
-6.427464305196217698e-02
-6.919591180391154728e-02
-7.348707467458867604e-02
-7.711371644471255726e-02
-8.004200052675594645e-02
-8.224013908494084979e-02
-8.367711753560352905e-02
-8.432170985961894016e-02
-8.414225889900499300e-02
-8.310714624323733979e-02
-8.118606156488619718e-02
-7.834967594209410469e-02
-7.457087968514823639e-02
-6.983175652463387284e-02
-6.411704184627373126e-02
-5.742375419619019650e-02
-4.976666091276078785e-02
-4.116528005022208891e-02
-3.166996938416789809e-02
-2.134766128299962762e-02
-1.028008974566928246e-02
1.408707683686359624e-03
1.358585324430272578e-02
2.608763236951844311e-02
3.871822889811489532e-02
5.127508678225471683e-02
6.352354751574572356e-02
7.521677113450776775e-02
8.610334904466489248e-02
9.592265956404752436e-02
1.044142632738364190e-01
1.113364095083141520e-01
1.164613791526646208e-01
1.195759527723576909e-01
1.205262495325293282e-01
1.191749822318978608e-01
1.154375275058027450e-01
1.093054146737057475e-01
1.007867335675886322e-01
8.998689653497336793e-02
7.706364887568617483e-02
6.221002793025454114e-02
4.571965869154971662e-02
2.790633547657328517e-02
9.135815289660981220e-03
-1.017201239505554494e-02
-2.959075670724109833e-02
-4.866968434661012033e-02
-6.694895491602012583e-02
-8.398474579187080458e-02
-9.936575803806056706e-02
-1.126898875113989118e-01
-1.236309006499720919e-01
-1.319195686239481857e-01
-1.373197918734729017e-01
-1.397286078655106123e-01
-1.390796054245400093e-01
-1.353892077502393265e-01
-1.287937044025709299e-01
-1.194502679565919434e-01
-1.076217225243794873e-01
-9.362773021263005868e-02
-7.780978651859217499e-02
-6.057098148514096503e-02
-4.232546092181047048e-02
-2.348686526528350957e-02
-4.468308102028639706e-03
1.432570362053946049e-02
3.254331829648170193e-02
4.985291510522363301e-02
6.596167772000394169e-02
8.065547800982141025e-02
9.373479904766986170e-02
1.050734701365154122e-01
1.146004682819672382e-01
1.222638323350860035e-01
1.280859748546342991e-01
1.321093628849549229e-01
1.344037127512978380e-01
1.350782006323418549e-01
1.342467551709810580e-01
1.320385870620973123e-01
1.285911291374211007e-01
1.240393414315780068e-01
1.185107932904748279e-01
1.121311409454469471e-01
1.050115522539303708e-01
9.724808022019022780e-02
8.893278707697359342e-02
8.013757849532987532e-02
7.092668053981533716e-02
6.135954903634310842e-02
5.148597957644512890e-02
4.135485114614427526e-02
3.101872832103348687e-02
2.053294879703190107e-02
9.956890917077165434e-03
-6.333756549325277388e-04
-1.115716868172361015e-02
-2.152222513314676344e-02
-3.161949959970214441e-02
-4.133745511227775171e-02
-5.055373562524403952e-02
-5.914015966913974132e-02
-6.697015294675583152e-02
-7.392196236803666443e-02
-7.987540190690736730e-02
-8.472767136183917414e-02
-8.839412103191333914e-02
-9.079745119996390779e-02
-9.190030053874874427e-02
-9.168062671350554749e-02
-9.013887936933097367e-02
-8.732117196750008303e-02
-8.328181413873746164e-02
-7.811353082551189542e-02
-7.193797229264292659e-02
-6.488592654364282175e-02
-5.712362777152749094e-02
-4.882681598068847051e-02
-4.018086932319536730e-02
-3.138514320815870284e-02
-2.263949729041793424e-02
-1.413833825756493495e-02
-6.073124718954653681e-03
1.374337920056638296e-03
8.050160609879846926e-03
1.380679803423754716e-02
1.852937558680411989e-02
2.213715059685940692e-02
2.455996350450120186e-02
2.578288952254849040e-02
2.581217173221190750e-02
2.468025003510774737e-02
2.247277651312670418e-02
1.928455232594641910e-02
1.524928301728181897e-02
1.052998876468719258e-02
5.297424825882467679e-03
-2.481259939946453552e-04
-5.898551074616032244e-03
-1.144250308180153400e-02
-1.666394032992480484e-02
-2.134846760928143378e-02
-2.530025869586308845e-02
-2.833351726535797768e-02
-3.027763827688228007e-02
-3.100583129486459213e-02
-3.040097979764265837e-02
-2.839009738106258382e-02
-2.494633433400648623e-02
-2.005637429806472749e-02
-1.377685655531396547e-02
-6.191241029050336894e-03
2.585125122269926572e-03
1.237207975384804759e-02
2.297847900719974731e-02
3.416819807874105913e-02
4.567119445075563944e-02
5.720988705173114808e-02
6.847845159838771012e-02
7.916373304945852063e-02
8.895781257610678450e-02
9.756037599689254547e-02
1.046767947335516119e-01
1.100593661172247495e-01
1.134857462373954212e-01
1.147649145733192211e-01
1.137961313338366753e-01
1.104983115357600770e-01
1.048741250146461579e-01
9.701386704701452091e-02
8.703161871550536832e-02
7.516259099613616101e-02
6.168841069880276473e-02
4.693726521598078072e-02
3.133202421894546591e-02
1.530994086798013153e-02
-6.501917318840842036e-04
-1.603823492037278337e-02
-3.034834397617136234e-02
-4.309602166758302877e-02
-5.380354534860071203e-02
-6.205159870246143572e-02
-6.750575079407886148e-02
-6.985470248159847406e-02
-6.893903485130881137e-02
-6.468143567984495357e-02
-5.707350601675734159e-02
-4.630487640957843543e-02
-3.260625864038714516e-02
-1.634075900298522302e-02
1.989904654571422044e-03
2.185744412052302577e-02
4.261002524998301622e-02
6.354867372860019403e-02
8.396139604517249833e-02
1.031098405912291432e-01
1.202572577062570452e-01
1.347368661192100969e-01
1.459347198334712548e-01
1.532828896461718993e-01
1.564020797224932868e-01
1.549656192201147864e-01
1.487938646504459728e-01
1.379210105525876529e-01
1.224238690192024359e-01
1.026174007617582651e-01
7.894537263052844867e-02
5.192395900082734383e-02
2.227635215834650878e-02
-9.233802669271621785e-03
-4.176750404869895850e-02
-7.440679956863553712e-02
-1.062338670777756289e-01
-1.363546954863833760e-01
-1.638848377188576733e-01
-1.880110414149042397e-01
-2.080652932448701919e-01
-2.234117416467812089e-01
-2.336248956252909015e-01
-2.384382280612671046e-01
-2.376613920916825218e-01
-2.314091163459519040e-01
-2.198798341459150818e-01
-2.034352723315208666e-01
-1.826748252054926913e-01
-1.582352976932425159e-01
-1.309261675238843625e-01
-1.016503431796625667e-01
-7.132896089085577485e-02
-4.093356617617333049e-02
-1.144200965216965460e-02
1.623860375049514249e-02
4.127534238309195358e-02
6.287439950446213621e-02
8.046199372207590850e-02
9.354918490647155804e-02
1.017809266179224847e-01
1.050752544137820571e-01
1.033996529662755404e-01
9.695653277812361914e-02
8.612595912896334194e-02
7.134354746072299469e-02
5.326108927913238145e-02
3.258859342145803417e-02
1.009370268712143220e-02
-1.337199560038256074e-02
-3.695317537078124381e-02
-5.982123999755026289e-02
-8.116210633914433537e-02
-1.002088761708220671e-01
-1.163317504245147960e-01
-1.289315550760235241e-01
-1.375544322614994930e-01
-1.418989892349302173e-01
-1.417061979573780162e-01
-1.369343352057150742e-01
-1.276252320223861259e-01
-1.139089663413516973e-01
-9.609562177569801189e-02
-7.452467347695281019e-02
-4.964360637678462418e-02
-2.198164287703267480e-02
7.915728854860963615e-03
3.944278884664247087e-02
7.197797336207852059e-02
1.049035657674443484e-01
1.376074570082551074e-01
1.694836108169451849e-01
1.999781557241624153e-01
2.285655101343345430e-01
2.547506241324679066e-01
2.781266858437597134e-01
2.983058292548825818e-01
3.149742726544867977e-01
3.278960186085413953e-01
3.368560262914195857e-01
3.417461199073456024e-01
3.424992778712305230e-01
3.390967583301756627e-01
3.316183922906821846e-01
3.201613506214258664e-01
3.049000315718515819e-01
2.860673179735265248e-01
2.639155855511315374e-01
2.387735749146126796e-01
2.109907982456435682e-01
1.809460676634585818e-01
1.490609328818208179e-01
1.157622491627671169e-01
8.149472728566208024e-02
4.671275555227462351e-02
1.186652615299804182e-02
-2.260629677220535316e-02
-5.627149645446141712e-02
-8.872441607022503451e-02
-1.195914571406053728e-01
-1.485106459705975990e-01
-1.751828746677466242e-01
-1.993333113378518984e-01
-2.207225755879591855e-01
-2.391837469197836130e-01
-2.545632879497423673e-01
-2.667736821788339041e-01
-2.757774468961141090e-01
-2.815561109446438892e-01
-2.841664704313541234e-01
-2.836859510985759725e-01
-2.802281107608546318e-01
-2.739592485577039271e-01
-2.650543112424165182e-01
-2.537297578386421004e-01
-2.402245805213311935e-01
-2.247874514628726839e-01
-2.076946688345184533e-01
-1.892278464116963488e-01
-1.696761081182190101e-01
-1.493364743344479939e-01
-1.285053410383959482e-01
-1.074729088094910495e-01
-8.652693445824419238e-02
-6.594435095393415269e-02
-4.597993113714948787e-02
-2.688345699810097342e-02
-8.871394874723841431e-03
7.865055233585284064e-03
2.314830478674480621e-02
3.685580420906497956e-02
4.888028694514298667e-02
5.915050357947763959e-02
6.764781638668249109e-02
7.436361510757603932e-02
7.934371741778901976e-02
8.266351005979442890e-02
8.441486510475475213e-02
8.473699317855092061e-02
8.377850420030837075e-02
8.170805450666610015e-02
7.871539300723522092e-02
7.499214913746075906e-02
7.073539430264351446e-02
6.614423368657303126e-02
6.141034436661220453e-02
5.671016863874371594e-02
5.221643521805816035e-02
4.807483162238447572e-02
4.441052279527371582e-02
4.133814673526396699e-02
3.892984722840031608e-02
3.724601122346667126e-02
3.632184463426040011e-02
3.615574378794722543e-02
3.673951027762367705e-02
3.803077267331818334e-02
3.996858156842315879e-02
4.248272385102798421e-02
4.547642238181143215e-02
4.884769120309249979e-02
5.248504070092670226e-02
5.626697452246408326e-02
6.007157964934230210e-02
6.377731496929130162e-02
6.726282122741558678e-02
7.041258722002688430e-02
7.312309751605285124e-02
7.529354824412252956e-02
7.684131530520540987e-02
7.769758182121778989e-02
7.780044774922964534e-02
7.711592064666096535e-02
7.561774274539476148e-02
7.329660850553816609e-02
7.016801107311190777e-02
6.625203244886791742e-02
6.159313860051164602e-02
5.624906203047957964e-02
5.028473819501766418e-02
4.378580718729978283e-02
3.684202410309995318e-02
2.955187743766928346e-02
2.202305794068389749e-02
1.436411027689965016e-02
6.686158692872312681e-03
-8.987036864885620049e-04
-8.281435689725660451e-03
-1.535926564666121111e-02
-2.203098777010373613e-02
-2.820708074862112238e-02
-3.380690380240826409e-02
-3.875467829464698810e-02
-4.299434507214484891e-02
-4.647533683452710618e-02
-4.916023723627814535e-02
-5.103088184062870569e-02
-5.207292849699673987e-02
-5.229338906480572591e-02
-5.171090302556786977e-02
-5.035157886640613534e-02
-4.826307306499968974e-02
-4.549745340283221917e-02
-4.211906846418131400e-02
-3.820521614646854580e-02
-3.383553012777675006e-02
-2.910032608150701569e-02
-2.409402943745993925e-02
-1.891251555596320036e-02
-1.365462124151639936e-02
-8.419278563298580181e-03
-3.301470770417412950e-03
1.606822258881101390e-03
6.216573283416270898e-03
1.045099340365994965e-02
1.423674825041513180e-02
1.751093302181113559e-02
2.022592201080139832e-02
2.233738423361929931e-02
2.382037634290295330e-02
2.466052016897986310e-02
2.485077840847718308e-02
2.440533352585672749e-02
2.334274968843874296e-02
2.169457342788690124e-02
1.950605008570412136e-02
1.682517508457824496e-02
1.371298600677052677e-02
1.023555309859101523e-02
6.462364114214681071e-03
2.469911860877833844e-03
-1.664346746371041068e-03
-5.861449074725504776e-03
-1.004128645855625196e-02
-1.412446701684448233e-02
-1.803477229470756837e-02
-2.169691122327707319e-02
-2.503990651156870473e-02
-2.799910504670837311e-02
-3.051142907984550831e-02
-3.252380394199397284e-02
-3.398861090866864276e-02
-3.486296539067849920e-02
-3.511771797653978622e-02
-3.472667516137256660e-02
-3.367504782084833337e-02
-3.196008914099339460e-02
-2.958244616051878065e-02
-2.656031863134345264e-02
-2.291871044525806839e-02
-1.869110238046900463e-02
-1.392838793496458880e-02
-8.684558143844585756e-03
-3.027646119999911206e-03
2.963619631506807586e-03
9.207149397598680951e-03
1.560767850688174127e-02
2.206636406664154795e-02
2.848070289244498260e-02
3.474282180680743348e-02
4.074466245891483762e-02
4.638043729146992811e-02
5.154560077429190534e-02
5.613974523155570995e-02
6.007458193180958972e-02
6.326463009240781976e-02
6.563952527964676820e-02
6.714487633956463253e-02
6.773152731020674888e-02
6.737819195270225436e-02
6.607440149495924508e-02
6.382403924064712630e-02
6.066049473693385652e-02
5.662241002938338263e-02
5.177225327315601588e-02
4.619065322840368304e-02
3.996382564455698561e-02
3.319985942876700624e-02
2.601279228999515969e-02
1.852292983276912497e-02
1.085977991928667279e-02
3.153458143234724904e-03
-4.467105833963029571e-03
-1.187363316601519614e-02
-1.894204415079585313e-02
-2.556058537685295881e-02
-3.162033546537100503e-02
-3.702711008951163618e-02
-4.170230848976222426e-02
-4.557211996577203994e-02
-4.858796017454468374e-02
-5.071103806316354379e-02
-5.191471917171251726e-02
-5.219737757960382640e-02
-5.156180358327136504e-02
-5.003043689822177231e-02
-4.764070506847596642e-02
-4.443494424366102591e-02
-4.047482483914734142e-02
-3.582732389220261160e-02
-3.056726962263935435e-02
-2.478102540300567910e-02
-1.855664503701368040e-02
-1.198937842982327612e-02
-5.178407011087076892e-03
1.776242864584903595e-03
8.772176053329118484e-03
1.570665207552608689e-02
2.247918034248741828e-02
2.899165108688372960e-02
3.514745286395522250e-02
4.085861806192471468e-02
4.604055237210573359e-02
5.061511953472463965e-02
5.451748668308213641e-02
5.768549730455084512e-02
6.007227002186828202e-02
6.164258311749591657e-02
6.236665265149203552e-02
6.223666076192854724e-02
6.125090580600106582e-02
5.942093166291873008e-02
5.677775700448679796e-02
5.335600816350113962e-02
4.920951904018081025e-02
4.440262791885234150e-02
3.900525059880911860e-02
3.310341270857771606e-02
2.678633539799603336e-02
2.014950001026862003e-02
1.329501710473737427e-02
6.325396674753780250e-03
-6.563474649633419672e-04
-7.547028923759116839e-03
-1.424676804320063050e-02
-2.066251037031637330e-02
-2.670277662750695016e-02
-3.228691052309751175e-02
-3.734252298923865232e-02
-4.180140115915921550e-02
-4.561228857750211640e-02
-4.872865727293650140e-02
-5.111440371793807280e-02
-5.274876247655219119e-02
-5.361385366921234130e-02
-5.370734203298589693e-02
-5.303540021777895797e-02
-5.160928505578084302e-02
-4.945498134754974795e-02
-4.660151195503178800e-02
-4.308655808730339765e-02
-3.895697621620944351e-02
-3.426165767718251931e-02
-2.905946037583223909e-02
-2.341311367280366970e-02
-1.738916218052951115e-02
-1.106201334409568152e-02
-4.507377816857510364e-03
2.194137026662061098e-03
8.958180726390169851e-03
1.569980441639209218e-02
2.233190486987269782e-02
2.876684017313337061e-02
3.491892218158207384e-02
4.070533955044577934e-02
4.604445988218765218e-02
5.086355322823472858e-02
5.509476770754034858e-02
5.867558998871895415e-02
6.155910542885818793e-02
6.370180322124442684e-02
6.507406448483711581e-02
6.566100211294094435e-02
6.545168730903393184e-02
6.445552939281147531e-02
6.268984778995209672e-02
6.018034432655379462e-02
5.697001159011605420e-02
5.310471011533847430e-02
4.864108336488756623e-02
4.364402326093831663e-02
3.818022935583810507e-02
3.232324436846352456e-02
2.614845504304403462e-02
1.973193674869475750e-02
1.315077951327719985e-02
6.481937175025216658e-03
-1.996808629333287829e-04
-6.820286215425346021e-03
-1.330725664079138865e-02
-1.959137821002521554e-02
-2.560415517378914277e-02
-3.127946205905822452e-02
-3.655368875586899324e-02
-4.136386606985140157e-02
-4.565028045291122383e-02
-4.935448924629999568e-02
-5.241996211210515899e-02
-5.479411866512855223e-02
-5.642522475079560229e-02
-5.726684067052952021e-02
-5.727657965698221276e-02
-5.641461130971829607e-02
-5.465161723545808314e-02
-5.196126999136070623e-02
-4.832651338431100119e-02
-4.374396225569225638e-02
-3.821350864323902474e-02
-3.175553960821500543e-02
-2.440168683955852916e-02
-1.619324674639734812e-02
-7.199725610995449249e-03
2.503315359410609661e-03
1.281793677426284854e-02
2.362243436311265224e-02
3.478910805831418596e-02
4.615985472166847514e-02
5.756473690657723519e-02
6.882255827711264429e-02
7.972886901738028553e-02
9.007568913529305499e-02
9.964543629819218318e-02
1.082131722579248029e-01
1.155557008783810041e-01
1.214580989986155102e-01
1.257080331389001937e-01
1.281128202050386966e-01
1.285087738897022769e-01
1.267405296366091727e-01
1.227091143604648465e-01
1.163465191804040066e-01
1.076140120574117787e-01
9.655847558727172208e-02
8.324525231777948897e-02
6.780950962080445343e-02
5.046061928341122327e-02
3.142625916938378283e-02
1.102648397803532992e-02
-1.038269129617101078e-02
-3.241481581816033075e-02
-5.462054931106559430e-02
-7.654180261804530150e-02
-9.770646651312304976e-02
-1.176316839227041083e-01
-1.358453945090074833e-01
-1.519230493396930559e-01
-1.654540581205737326e-01
-1.760920581291593456e-01
-1.835855316881491450e-01
-1.877055960538247248e-01
-1.883647220276566947e-01
-1.855530400220097298e-01
-1.793163019744822007e-01
-1.698624651002272612e-01
-1.574328591257866394e-01
-1.423593775833758013e-01
-1.250702267287776837e-01
-1.060077091494826124e-01
-8.567337531147679874e-02
-6.459166867401290590e-02
-4.327732978924914153e-02
-2.222487956933225095e-02
-1.921214426451993591e-03
1.722287280778830171e-02
3.485497253449222621e-02
5.065602242312436387e-02
6.444379179319796591e-02
7.607432004888782517e-02
8.548518755823077131e-02
9.273447340560049545e-02
9.790074016463605477e-02
1.011641847916194131e-01
1.027608678274710419e-01
1.029468622460925492e-01
1.020357913554720969e-01
1.003517142496600650e-01
9.821439812694418570e-02
9.593904259393873368e-02
9.383042955331967472e-02
9.212922444600180061e-02
9.105091947010546249e-02
9.076249828884140614e-02
9.133041599955937784e-02
9.280206027261539425e-02
9.512695546431547411e-02
9.817949571169759526e-02
1.018087129698595217e-01
1.057628717905178817e-01
1.097626211433157389e-01
1.134997327865132355e-01
1.166232739548756642e-01
1.187807101344997007e-01
1.196368913375907422e-01
1.188662507298694770e-01
1.161733606568310095e-01
1.113518187325569925e-01
1.042154846771814053e-01
9.467761719706344059e-02
8.275733433620420521e-02
6.850352917357797888e-02
5.212012966327737862e-02
3.387161069816646553e-02
1.408246354346918104e-02
-6.798484544893504053e-03
-2.830332759090472758e-02
-4.991038962913758870e-02
-7.105668553422415934e-02
-9.118390056440457692e-02
-1.097583639920647475e-01
-1.262542666713834805e-01
-1.402114487605921056e-01
-1.512669061185832053e-01
-1.590822893810372729e-01
-1.634781001640123188e-01
-1.643623073630413600e-01
-1.617069297859207444e-01
-1.556712584895659779e-01
-1.464532793291505874e-01
-1.343579971356843317e-01
-1.198044724736098132e-01
-1.032298208133306389e-01
-8.514994880581915060e-02
-6.611135147004537638e-02
-4.665881514154644749e-02
-2.733343477607831293e-02
-8.671585597700552997e-03
8.853974281251763764e-03
2.481939611300109511e-02
3.883165812714235721e-02
5.062507016663443660e-02
5.996975975624088684e-02
6.671858886560071145e-02
7.084694807991483156e-02
7.235268293388545657e-02
7.135237153833190460e-02
6.802800548350579346e-02
6.259386702309516215e-02
5.535806431338058387e-02
4.664723191902912791e-02
3.681904018928079669e-02
2.626425948735762808e-02
1.537381835368073144e-02
4.529482516897464540e-03
-5.890706032253254648e-03
-1.553420722499752535e-02
-2.410149412642174915e-02
-3.130449206726659828e-02
-3.692752505708390975e-02
-4.081061776770288085e-02
-4.281911865277514273e-02
-4.292133677545058312e-02
-4.111434408475514446e-02
-3.745039722942847260e-02
-3.206353983320292533e-02
-2.510132966854531494e-02
-1.677663209485761101e-02
-7.338315131972462241e-03
2.952192919682648797e-03
1.379726809427974515e-02
2.489267490099060856e-02
3.593622234110406544e-02
4.662790144235816336e-02
5.667376711566736447e-02
6.581746455162618137e-02
7.381744455134747751e-02
8.046116138219419622e-02
8.559635771036255836e-02
8.908245032109415873e-02
9.084097756246992117e-02
9.084130594792166891e-02
8.907135435133456403e-02
8.559374652110371406e-02
8.049188473488758100e-02
7.388355213406178068e-02
6.593752321522017290e-02
5.683019952831877553e-02
4.677113210070170390e-02
3.598815792382005496e-02
2.471261801425829116e-02
1.318570192871737663e-02
1.650024638847167810e-03
-9.662096455395280739e-03
-2.052934207568645267e-02
-3.073609393505384244e-02
-4.009934615419077919e-02
-4.844891511900339953e-02
-5.563470360380867730e-02
-6.154838653119996950e-02
-6.608946992606075377e-02
-6.919661998963898275e-02
-7.083867447198136102e-02
-7.099594520955733457e-02
-6.969491358274070014e-02
-6.697493835535432705e-02
-6.289803396608731334e-02
-5.755984059383337237e-02
-5.106158885423678351e-02
-4.353168255247520657e-02
-3.511352855901235526e-02
-2.595695617968693178e-02
-1.623043574105844863e-02
-6.106069850085970793e-03
4.239332582777597183e-03
1.462393259186830878e-02
2.486654036675144466e-02
3.479162265246371621e-02
4.422590237565346416e-02
5.300442219479180317e-02
6.097955405314407773e-02
6.800747805877228880e-02
7.396899901705090985e-02
7.876390782042201610e-02
8.230168141736078635e-02
8.453152201967936707e-02
8.541382664679726677e-02
8.493421111169682791e-02
8.311574838932551945e-02
7.998853428126637133e-02
7.562048322034903292e-02
7.010040743924389472e-02
6.352829255613645643e-02
5.603674168352530682e-02
4.776490991111576045e-02
3.886518013007222994e-02
2.950408305469847531e-02
1.984922581212697490e-02
1.007064596361939741e-02
3.392908818793723830e-04
-9.179891620388938925e-03
-1.833447173536124908e-02
-2.697497456504180727e-02
-3.497277503874594851e-02
-4.221533521748342677e-02
-4.859810436867334493e-02
-5.404926540343847619e-02
-5.850620477768289640e-02
-6.192561286040026980e-02
-6.429287266658677280e-02
-6.559854240456527985e-02
-6.586021266708518007e-02
-6.511042252274439057e-02
-6.338955824694232632e-02
-6.076092242589403725e-02
-5.729247542683650607e-02
-5.306281304471317795e-02
-4.816191431859678795e-02
-4.268145058667985325e-02
-3.672027707216406200e-02
-3.038005284864962394e-02
-2.376256664399394730e-02
-1.696986446664152520e-02
-1.010372585850286692e-02
-3.261440783782765251e-03
3.463167309406729039e-03
9.978628133094490094e-03
1.620326496189058302e-02
2.205818251513953082e-02
2.747165418133147227e-02
3.238261634752830076e-02
3.673221668085748653e-02
4.047438907754238868e-02
4.357014417675585116e-02
4.598549470476322176e-02
4.770114929524597869e-02
4.870093065131715637e-02
4.897875071513764500e-02
4.853932776922059711e-02
4.738988719534038829e-02
4.555018242956511421e-02
4.304488849156795638e-02
3.990339877991651296e-02
3.616493948170663997e-02
3.187042180378560352e-02
2.706756612324237588e-02
2.180935412217078692e-02
1.615068936820645423e-02
1.015420714692865170e-02
3.884726465844367226e-03
-2.588010609089762964e-03
-9.186933929261793808e-03
-1.583341999649857251e-02
-2.243973517186612435e-02
-2.891309999624845986e-02
-3.515724389286488394e-02
-4.106563509752376995e-02
-4.652963634275492089e-02
-5.143539781858759430e-02
-5.566348271105230061e-02
-5.909421630839160888e-02
-6.160815510699921282e-02
-6.308598373500030887e-02
-6.341444374270130413e-02
-6.249293812206546672e-02
-6.022413676259152915e-02
-5.653599263058997626e-02
-5.137600842198607187e-02
-4.470375114656872928e-02
-3.652887376833267863e-02
-2.687527725115505459e-02
-1.580372058068620425e-02
-3.429866592691753480e-03
1.011962132861390223e-02
2.465587789041227135e-02
3.995556353434528973e-02
5.577545283927197450e-02
7.181400871279593201e-02
8.775796866398778706e-02
1.032709188994641591e-01
1.179916134972120167e-01
1.315585071056121214e-01
1.436159032353700182e-01
1.538105404718910774e-01
1.618128938705662712e-01
1.673430856143536816e-01
1.701327382485410267e-01
1.699928881608670228e-01
1.667960212698766653e-01
1.604462828185562184e-01
1.509782073256258073e-01
1.384631364470944870e-01
1.230515652591390729e-01
1.050119814597785112e-01
8.463357023746514995e-02
6.231115442493848078e-02
3.849813994989795263e-02
1.367064972543455444e-02
-1.162914088921337616e-02
-3.684683967274499095e-02
-6.142998671304757130e-02
-8.482819617221519504e-02
-1.065027403065279266e-01
-1.259883043646175815e-01
-1.428486770768092884e-01
-1.567072251061467636e-01
-1.673119104585525652e-01
-1.744349204758253447e-01
-1.779777574684680286e-01
-1.779420580031848276e-01
-1.743668370358155972e-01
-1.674420446755162106e-01
-1.573997435672386813e-01
-1.445351677156017645e-01
-1.292377875413860122e-01
-1.119097479684349333e-01
-9.300076185519044747e-02
-7.298693230258493370e-02
-5.234205592907585636e-02
-3.153218540181212948e-02
-1.102037765248016846e-02
8.771098855295776653e-03
2.746378777312352346e-02
4.469549338647277326e-02
6.019367929325790401e-02
7.372122165337402500e-02
8.508826530416351008e-02
9.420382211683045459e-02
1.009946097787176866e-01
1.054669745671415609e-01
1.076889669137220257e-01
1.077475151339063186e-01
1.058045677577756916e-01
1.020428747907541206e-01
9.666867855904280604e-02
8.992329153770559080e-02
8.205139301896949289e-02
7.330245518411415695e-02
6.392860567105027036e-02
5.417378998747816865e-02
4.425736726091152040e-02
3.439295540131354773e-02
2.476370910924973606e-02
1.552003833808832285e-02
6.803202426272306029e-03
-1.293488044518513631e-03
-8.695636311812303051e-03
-1.534786050325146964e-02
-2.123455706500426005e-02
-2.634656363410104937e-02
-3.069639609055103621e-02
-3.431338082656397448e-02
-3.722918868790174585e-02
-3.948377350243820194e-02
-4.111926642409981236e-02
-4.217379933199151554e-02
-4.267952934897588368e-02
-4.266677839395474625e-02
-4.215299056348144335e-02
-4.114845161659103079e-02
-3.965941764146972692e-02
-3.768029832998112671e-02
-3.520323673163669453e-02
-3.221887942991226439e-02
-2.871626331914469907e-02
-2.468600172070964729e-02
-2.012925480755990357e-02
-1.505138207600357353e-02
-9.467766697044322291e-03
-3.414805145092890751e-03
3.066919845624720836e-03
9.913528507184854455e-03
1.704306229800131578e-02
2.436667778400296996e-02
3.176763012183093926e-02
3.912139030011793639e-02
4.629273174237702460e-02
5.313043494589772542e-02
5.948172298811289782e-02
6.519144319752392946e-02
7.010312579529491550e-02
7.406603232808435522e-02
7.694665665377839470e-02
7.861568494912156424e-02
7.896951010785037417e-02
7.793219641100587736e-02
7.543707281044650936e-02
7.146780043257047743e-02
6.602796296295786183e-02
5.914739561317235161e-02
5.091096347795025234e-02
4.141345774818010195e-02
3.079493100291537042e-02
1.923058439187984303e-02
6.906636421181659713e-03
-5.946725105455538327e-03
-1.908709789334401413e-02
-3.225858816071119906e-02
-4.518511770831129537e-02
-5.758915108929536786e-02
-6.919503816264685470e-02
-7.972818465528992704e-02
-8.892385744889734489e-02
-9.654688927382600039e-02
-1.023691097654736148e-01
-1.062012204484445305e-01
-1.078957953709717144e-01
-1.073191941219193146e-01
-1.044124963540216527e-01
-9.914638567253204748e-02
-9.153149721047204590e-02
-8.166228101917992477e-02
-6.964854978134712993e-02
-5.567269449573637730e-02
-3.997350863229005846e-02
-2.280868451489812335e-02
-4.511834479217069829e-03
1.456226582163284641e-02
3.403242589120523964e-02
5.347790760799421561e-02
7.247436912560692446e-02
9.059401882072799783e-02
1.074071541897411858e-01
1.224991682038373414e-01
1.355008638042370095e-01
1.460540031256714333e-01
1.538655682243404155e-01
1.587128456258976583e-01
1.603963994891654254e-01
1.588431697215255400e-01
1.540301849312809002e-01
1.459989857181923090e-01
1.349265433382596524e-01
1.210138136695291522e-01
1.045661780428853160e-01
8.597022770181422802e-02
6.563396480857162929e-02
4.404947445743741252e-02
2.173192884392917759e-02
-7.945053457115306209e-04
-2.299218586028499434e-02
-4.432789456734628764e-02
-6.432150212828371960e-02
-8.252249218844216749e-02
-9.852000171055937117e-02
-1.120214205485051684e-01
-1.227601728445620599e-01
-1.305729698587114740e-01
-1.354079415290865840e-01
-1.372400535974769020e-01
-1.361804232036861184e-01
-1.323940177402424256e-01
-1.260900075807301624e-01
-1.175703296276480458e-01
-1.071507325913478581e-01
-9.517860428276710139e-02
-8.202595535734912013e-02
-6.806061663414644802e-02
-5.362933563897205602e-02
-3.907241960663140889e-02
-2.469238119628741970e-02
-1.073506502794506837e-02
2.566504564800115799e-03
1.505772992330837827e-02
2.662777083347661958e-02
3.719275833411736509e-02
4.674854785768577103e-02
5.530729561718937537e-02
6.291739660704086246e-02
6.966636544033369405e-02
7.564563835479978793e-02
8.095929788283856565e-02
8.571634219043389180e-02
9.001499196218810950e-02
9.393074115225701071e-02
9.753363507180656811e-02
1.008545540206950419e-01
1.038938766193352320e-01
1.066388134631710283e-01
1.090225534642927235e-01
1.109631178811970320e-01
1.123556278293935257e-01
1.130608441082216059e-01
1.129355669986314842e-01
1.118256957520920164e-01
1.095710504265649671e-01
1.060188941835734366e-01
1.010391026801006065e-01
9.450725424112639550e-02
8.633776984915393637e-02
7.648703084147179254e-02
6.492560748299812390e-02
5.170153498281432336e-02
3.689361982345185087e-02
2.062006718266285593e-02
3.081977469899646604e-03
-1.550492123049409740e-02
-3.486200864860573845e-02
-5.466164899921900633e-02
-7.456392735472397448e-02
-9.418089665939768929e-02
-1.131114693964020423e-01
-1.309538071893824596e-01
-1.473049446803880724e-01
-1.617668720922126047e-01
-1.739901757468630128e-01
-1.836526075679004999e-01
-1.904666218985147375e-01
-1.942483628955303243e-01
-1.948369775997933206e-01
-1.921659080228554917e-01
-1.862705322585743173e-01
-1.772120000875947454e-01
-1.651840414525196643e-01
-1.504329646647005192e-01
-1.332515872792826572e-01
-1.140305725558899003e-01
-9.317552640866125224e-02
-7.113074824640366889e-02
-4.837071518345835430e-02
-2.536715029495719212e-02
-2.576224501385617274e-03
1.955085576270335773e-02
4.060216200155539190e-02
6.022478632807774790e-02
7.808012371814615493e-02
9.392049666030469202e-02
1.075490750966735243e-01
1.188047942685878933e-01
1.276327850201623981e-01
1.340005004345266315e-01
1.379387498213689722e-01
1.395468815132418217e-01
1.389369500416886005e-01
1.362805638107914552e-01
1.317729128039398512e-01
1.256210476318159741e-01
1.180569372200529210e-01
1.093154979975754088e-01
9.962836101504500552e-02
8.922459316380483563e-02
7.832765764518827278e-02
6.713676889481587362e-02
5.584417851254648568e-02
4.462414322730608174e-02
3.362386049112922604e-02
2.298564595844531863e-02
1.282627036024333068e-02
3.248211271474539443e-03
-5.652527351805708769e-03
-1.379900956968762096e-02
-2.111815397873963510e-02
-2.754409938523373971e-02
-3.301880101058984884e-02
-3.748562481033688998e-02
-4.089448526536042239e-02
-4.319791116559891508e-02
-4.435296617767663097e-02
-4.432628168160704374e-02
-4.308672772316067545e-02
-4.061882481907698461e-02
-3.691931706506779154e-02
-3.199232786133461570e-02
-2.587290806100367088e-02
-1.860499491038779957e-02
-1.025546026462472241e-02
-9.256882908295401696e-04
9.275979170568110152e-03
2.020155756424796972e-02
3.168086281968623269e-02
4.353079965118318573e-02
5.553000538912099271e-02
6.744933692180328511e-02
7.904410472563347390e-02
9.005277714054545080e-02
1.002135615894131221e-01
1.092683996082874781e-01
1.169608049209159284e-01
1.230503731676134554e-01
1.273306954473659436e-01
1.296032363514797170e-01
1.297238334487668399e-01
1.275908220075713528e-01
1.231241028917575003e-01
1.163332371315642932e-01
1.072533462884795591e-01
9.597385069246615330e-02
8.266593936006196019e-02
6.751525472503532022e-02
5.078176059738399861e-02
3.276706631152145888e-02
1.379010822186530101e-02
-5.779177794664722839e-03
-2.556103928179775595e-02
-4.516995461476117080e-02
-6.421414771419406420e-02
-8.230722939399627569e-02
-9.909945615325875534e-02
-1.142557872972033151e-01
-1.274752266933439071e-01
-1.385287395804282451e-01
-1.472016931718481692e-01
-1.533598411458460542e-01
-1.569318119719507743e-01
-1.578714590237616511e-01
-1.562360454566790735e-01
-1.521121061894143145e-01
-1.456360198809517337e-01
-1.370192793073441440e-01
-1.264850051557274702e-01
-1.143086445507858068e-01
-1.007949838860056208e-01
-8.625598075778916074e-02
-7.102431152228669275e-02
-5.543613183696520508e-02
-3.981624469023065105e-02
-2.447713668092636047e-02
-9.723547516297666865e-03
4.185657835837933334e-03
1.700995730328238448e-02
2.853858373151891073e-02
3.862368255634512915e-02
4.712925638624849978e-02
5.397829355048831823e-02
5.913995152245825337e-02
6.259982527716061174e-02
6.441033337049119345e-02
6.464275575234815219e-02
6.339679142591639338e-02
6.081499768914572224e-02
5.704602180019661961e-02
5.226308847099672694e-02
4.665321170980293863e-02
4.040455306746067177e-02
3.370828717338708591e-02
2.675569863243236826e-02
1.972579484345901579e-02
1.278425430869040841e-02
6.091413327867400279e-03
-2.224874306892494005e-04
-6.039226305922545945e-03
-1.125610391514319381e-02
-1.580325222092247850e-02
-1.961659310895964500e-02
-2.265669614555493316e-02
-2.490343689622567455e-02
-2.634212449837563738e-02
-2.697969690202798101e-02
-2.682916032805430021e-02
-2.591042001079245025e-02
-2.425379296110033098e-02
-2.189098246554257998e-02
-1.885875681989808081e-02
-1.519672873787682871e-02
-1.094565884781125570e-02
-6.149691087299421696e-03
-8.537394352280125442e-04
4.893752552403578954e-03
1.104050666230442165e-02
1.753271643068140401e-02
2.430796705104196209e-02
3.130039795280124826e-02
3.843879779177132583e-02
4.564062553378195330e-02
5.282127210365913927e-02
5.988655663274355945e-02
6.673479549631472496e-02
7.326258963569341753e-02
7.935987303528610481e-02
8.491478040436935271e-02
8.981738891538634806e-02
9.396070953091857636e-02
9.723949351216772119e-02
9.956300798819928133e-02
1.008486816615854070e-01
1.010232336557218558e-01
1.000412862319635665e-01
9.786367008580021398e-02
9.447642366694962435e-02
8.989299152686923422e-02
8.413407500841003916e-02
7.725829427710340092e-02
6.933941269189479450e-02
6.046686141855465990e-02
5.076324435373992527e-02
4.035673794913399726e-02
2.939608828920315525e-02
1.804617632249269979e-02
6.474961248465480393e-03
-5.137942652260479512e-03
-1.660975287467872721e-02
-2.775995902584686356e-02
-3.841148493176531342e-02
-4.838929655190885026e-02
-5.753541329048626751e-02
-6.570144959307269716e-02
-7.274939518726603049e-02
-7.857240921862632121e-02
-8.307058210521757469e-02
-8.617196464915097276e-02
-8.783502809140478207e-02
-8.802655568651868156e-02
-8.675710386116199102e-02
-8.405473293357351716e-02
-7.996721813638019150e-02
-7.458411576965176537e-02
-6.800228757257485712e-02
-6.034887817590738057e-02
-5.177480320575318651e-02
-4.243729682115660040e-02
-3.251863755270661960e-02
-2.220808481554148103e-02
-1.169941708311326295e-02
-1.193247577195682453e-03
9.110265585472119773e-03
1.902091085535885170e-02
2.835407932559910402e-02
3.693473952047710007e-02
4.461676521572020826e-02
5.126060527060682936e-02
5.675651985548366141e-02
6.102722646068313439e-02
6.400459208021076762e-02
6.566903038584590013e-02
6.602037869288601701e-02
6.507970644598787269e-02
6.291311012506473066e-02
5.959436322332642422e-02
5.522680798408113878e-02
4.993701371009161283e-02
4.385658727296032344e-02
3.713660783697504686e-02
2.993352735327856409e-02
2.240397756894991349e-02
1.470486211134977399e-02
6.991613453687627218e-03
-5.948640900383384000e-04
-7.921852414129307296e-03
-1.486546196584276336e-02
-2.132836637778905142e-02
-2.721904635181137191e-02
-3.246695607008612261e-02
-3.702440103662844872e-02
-4.084896512153991799e-02
-4.392490782187734311e-02
-4.624715414985980377e-02
-4.781962346303922362e-02
-4.866531044950390961e-02
-4.881025906802050063e-02
-4.828988422362516519e-02
-4.714696723222300268e-02
-4.542551563127601721e-02
-4.317407580272145107e-02
-4.044245284459210832e-02
-3.728079514982439446e-02
-3.373977103793597554e-02
-2.987007294851356728e-02
-2.572220623820509547e-02
-2.134657095852806816e-02
-1.679376848055608162e-02
-1.211501633975921657e-02
-7.361681593287585854e-03
-2.586016234500542257e-03
2.158762888277110988e-03
6.819317343262922514e-03
1.134183741585438263e-02
1.567233143709424043e-02
1.975779247720343273e-02
2.354731100539148719e-02
2.699058601259722578e-02
3.004256922841828589e-02
3.266234446983272421e-02
3.481169198114732188e-02
3.646381755764695892e-02
3.759523682923886223e-02
3.819117446539001259e-02
3.825005613872942134e-02
3.777299360289942953e-02
3.677653907185426951e-02
3.528595541265804741e-02
3.333184561369409438e-02
3.096077613592394806e-02
2.822265964833153146e-02
2.517602636258408147e-02
2.188880897789514252e-02
1.843048584052276589e-02
1.487746574888610535e-02
1.130892130018880740e-02
7.804392132246177824e-03
4.444184645034372598e-03
1.308392558968315446e-03
-1.527704934910379536e-03
-3.992618728753363072e-03
-6.017828878793648334e-03
-7.547497003388940404e-03
-8.529472650992084640e-03
-8.921935450780208929e-03
-8.698734571316158945e-03
-7.837040447116281477e-03
-6.333651897844027462e-03
-4.196449585159437931e-03
-1.440840306222637181e-03
1.895212844511784140e-03
5.768930894515979756e-03
1.012306183734951529e-02
1.488455108063780827e-02
1.997704569841089045e-02
2.530799844416022418e-02
3.077837838841221765e-02
3.628472638994791749e-02
4.171417769881073656e-02
4.695260487431679453e-02
5.188502633436212208e-02
5.639578761955268971e-02
6.037132687102221562e-02
6.370742762276297710e-02
6.630265636793569728e-02
6.806678890810226312e-02
6.892661669374024191e-02
6.881301453171254079e-02
6.768283232929327153e-02
6.550759682388498928e-02
6.227041204558358967e-02
5.798918799364512211e-02
5.268939286942615763e-02
4.642215386695573709e-02
3.926663427029074283e-02
3.130850743488506477e-02
2.266646370466636126e-02
1.347243365305309318e-02
3.869331222357005797e-03
-5.976567621819778298e-03
-1.589547363004801747e-02
-2.570966711060561696e-02
-3.523517643366307073e-02
-4.428981739248842586e-02
-5.270007714492461193e-02
-6.029511540446597095e-02
-6.691953723260316012e-02
-7.244141072410677229e-02
-7.673467518633235451e-02
-7.971145305481408538e-02
-8.130545732205934906e-02
-8.146723388788870701e-02
-8.019796523806060895e-02
-7.750976481535984397e-02
-7.345014670206972962e-02
-6.810533275635004269e-02
-6.156995282922492208e-02
-5.398047727190051492e-02
-4.549015830686002626e-02
-3.626451391591177520e-02
-2.649516007898055150e-02
-1.637746776057325687e-02
-6.112994524407612887e-03
4.091821385038088912e-03
1.403339724436845556e-02
2.352140144408492242e-02
3.236948554700815744e-02
4.040903090944283904e-02
4.749837175373522458e-02
5.350213755161813134e-02
5.832444557169429167e-02
6.189175710480715464e-02
6.414674333845871157e-02
6.508082145336413493e-02
6.469586501451254912e-02
6.302585650978363707e-02
6.013991198394885718e-02
5.611447218513390678e-02
5.106197825733438389e-02
4.510931902956658024e-02
3.839345063827402649e-02
3.107276168573065017e-02
2.330872524025079731e-02
1.526787440479430297e-02
7.120737064066545718e-03
-9.641364847726100612e-04
-8.827455372298035827e-03
-1.631271097181994853e-02
-2.327562734943331227e-02
-2.959053825277622660e-02
-3.513608824636087202e-02
-3.981784669099118490e-02
-4.355662954522547536e-02
-4.628445967584490783e-02
-4.796709383285641115e-02
-4.857757656070939289e-02
-4.811246450202805169e-02
-4.659405954544415529e-02
-4.405056707051333009e-02
-4.054007311746092579e-02
-3.613267897310391830e-02
-3.090937658112671502e-02
-2.497438084863171093e-02
-1.843573702507226089e-02
-1.141453619926359811e-02
-4.042176233371882338e-03
3.548259035192805055e-03
1.121744426716594911e-02
1.882437007254285713e-02
2.623079168520654758e-02
3.330267337401580929e-02
3.990783639096848190e-02
4.592883652002058281e-02
5.125658085314237222e-02
5.579077232560689104e-02
5.945773662418163408e-02
6.218973442615648162e-02
6.394249754136535624e-02
6.469747647817490621e-02
6.444279659776455671e-02
6.320151104158029665e-02
6.101073495342551611e-02
5.792148468964909702e-02
5.401444858556074535e-02
4.937521699383314033e-02
4.410613895979659249e-02
3.832281310401595975e-02
3.214265285635602154e-02
2.568953201782029835e-02
1.908903771028572227e-02
1.246209948079036491e-02
5.922550801168685597e-03
-4.181462422367032347e-04
-6.465940603414909935e-03
-1.213665540941329460e-02
-1.735403015307854929e-02
-2.206570117222806521e-02
-2.622441372652107097e-02
-2.979794155316751667e-02
-3.277053770668464372e-02
-3.512949146093852226e-02
-3.687639847424981077e-02
-3.801860310292401457e-02
-3.856640693824701926e-02
-3.853641272601146528e-02
-3.794610376908093274e-02
-3.681401241110049405e-02
-3.515950097126262219e-02
-3.300208470225410307e-02
-3.036185835389827378e-02
-2.725911768185771897e-02
-2.371644917272728442e-02
-1.975993184548305998e-02
-1.541680260370745931e-02
-1.072278196454292190e-02
-5.718405562071470286e-03
-4.486782146224275666e-04
5.027867270306810889e-03
1.064976443621861064e-02
1.634595113774227684e-02
2.203483568269223175e-02
2.763294678828792997e-02
3.304806252459310811e-02
3.818445372842485530e-02
4.294666529405562205e-02
4.723984969553636504e-02
5.096989502681188722e-02
5.405295062860997202e-02
5.641329010799692179e-02
5.798081775923992487e-02
5.870952014098947125e-02
5.856039040288857356e-02
5.751202238520054799e-02
5.556986376352457402e-02
5.274460430437581671e-02
4.907622951647068466e-02
4.462136138016332965e-02
3.944590599198440073e-02
3.364366000041826149e-02
2.731422284434984957e-02
2.057015941689057867e-02
1.353827200685555829e-02
6.347074950867319203e-03
-8.684958339130292859e-04
-7.970943691737420247e-03
-1.482565257117671523e-02
-2.130420044752823899e-02
-2.727992387294185181e-02
-3.264113034235106847e-02
-3.728798897736926299e-02
-4.112725284657343938e-02
-4.409356700843809762e-02
-4.612966522538554381e-02
-4.719682502686654846e-02
-4.728463718184215681e-02
-4.638813988155138235e-02
-4.453248234995296762e-02
-4.175992602009070964e-02
-3.812255532610552000e-02
-3.370200365303233081e-02
-2.858610702869407785e-02
-2.287783179440209744e-02
-1.669677076129852389e-02
-1.016499292823471595e-02
-3.415182033631520425e-03
3.415720218197023945e-03
1.019164624936244774e-02
1.677842972053055631e-02
2.304291117050370069e-02
2.886383780754447903e-02
3.412939737185102101e-02
3.873371115167609235e-02
4.259620869786878705e-02
4.564367907302240013e-02
4.782059833702209661e-02
4.909846730515071700e-02
4.945401683825612071e-02
4.889302376072257594e-02
4.743778386490907217e-02
4.511985243831659331e-02
4.199864585302907904e-02
3.813940407960562939e-02
3.362085184599836185e-02
2.853654263099437288e-02
2.298212887602769233e-02
1.706201616760474535e-02
1.088412526133379112e-02
4.555873523505014726e-03
-1.816423655078486417e-03
-8.127045746705223103e-03
-1.427735556852778240e-02
-2.017433618738018880e-02
-2.572805038068664077e-02
-3.086161816194235921e-02
-3.550194045076644767e-02
-3.958395961249822070e-02
-4.305491380382552025e-02
-4.586435678829166307e-02
-4.797442958076766906e-02
-4.935443731269255341e-02
-4.997815439925164249e-02
-4.983284187360637052e-02
-4.890868767990783073e-02
-4.720532519758668943e-02
-4.473278204560074411e-02
-4.150379119851307919e-02
-3.754529976093748389e-02
-3.289001115627913918e-02
-2.757766931737070173e-02
-2.166312165257452960e-02
-1.520403369725964460e-02
-8.271560065906553502e-03
-9.475658932772785745e-04
6.682255324902943751e-03
1.451642510910252509e-02
2.244894730427951512e-02
3.036737112405483302e-02
3.814936923720432804e-02
4.567145837827597810e-02
5.280698799831425039e-02
5.942750538725227738e-02
6.540690591682786492e-02
7.062637450917746973e-02
7.496897923997422608e-02
7.833116307767533371e-02
8.062409789272756422e-02
8.176428190700864296e-02
8.169814566939019584e-02
8.038426514723319427e-02
7.779867754075238395e-02
7.395491899585474038e-02
6.887364847977447968e-02
6.261096289815226701e-02
5.525111754173248069e-02
4.688876013996069736e-02
3.766153081205864117e-02
2.771941894674148296e-02
1.723206272980053189e-02
6.399187883065753958e-03
-4.575076576909259049e-03
-1.546826187422276414e-02
-2.604744897180407900e-02
-3.607948211544000083e-02
-4.533085050897636692e-02
-5.356856143955236738e-02
-6.057579017945011191e-02
-6.615352944027003135e-02
-7.011088267348425385e-02
-7.230411908050819736e-02
-7.260868111736669406e-02
-7.093131328971293004e-02
-6.724604891660954098e-02
-6.154005725146985406e-02
-5.386962065849214276e-02
-4.434597694986495975e-02
-3.310166591601279573e-02
-2.035775408155069549e-02
-6.360771901409654691e-03
8.601334850837253493e-03
2.417715637412641561e-02
4.000613808977145081e-02
5.569047213575829824e-02
7.081110849240504490e-02
8.495041510938687590e-02
9.769589264490460834e-02
1.086375068196736154e-01
1.174060824523973090e-01
1.236775039783277186e-01
1.271464335998122308e-01
1.276155191026726587e-01
1.249313032101915244e-01
1.190056998391195442e-01
1.098912317609387901e-01
9.766683430387565479e-02
8.253945525797216909e-02
6.481790473361637162e-02
4.484421978446186119e-02
2.309661775892732707e-02
9.215922750819074971e-05
-2.360918677711104641e-02
-4.738165222597240378e-02
-7.059475399169473642e-02
-9.262654813039605806e-02
-1.128599807700483015e-01
-1.307111652910419031e-01
-1.456983435023675999e-01
-1.573638154591331384e-01
-1.653723896749442757e-01
-1.695240738651053736e-01
-1.696572785644107906e-01
-1.658168230783218511e-01
-1.581312726871111629e-01
-1.468141156084392662e-01
-1.322614809015318360e-01
-1.148995227841147215e-01
-9.525305848329009006e-02
-7.392546978283262571e-02
-5.152755236844426545e-02
-2.869357068182854312e-02
-6.063629878427524364e-03
1.576492303230954406e-02
3.626036052900892537e-02
5.490995302753874652e-02
7.133393274472867029e-02
8.522849229425163986e-02
9.634750233610558934e-02
1.046201407937325384e-01
1.100132264804017657e-01
1.126021321245010975e-01
1.125821149124022480e-01
1.101698195586981455e-01
1.056817730095690744e-01
9.947490403798094072e-02
9.191906584854141193e-02
8.341176223061423645e-02
7.435198993167650705e-02
6.510550708836453093e-02
5.601158524116005288e-02
4.738863311500447761e-02
3.946477091586343688e-02
3.244179395819138390e-02
2.646189339896710610e-02
2.157572393349261111e-02
1.781791799987402988e-02
1.514138376292276794e-02
1.345231510332195804e-02
1.263855063284110083e-02
1.253291370746899801e-02
1.295731646094392363e-02
1.372479741810117733e-02
1.463858831045658157e-02
1.550499073775038136e-02
1.615383986708635727e-02
1.642459818443815778e-02
1.617828698081197336e-02
1.532243313190291036e-02
1.377362584212142929e-02
1.149583578820463289e-02
8.490817200555680899e-03
4.773632680404584980e-03
4.143761166524647516e-04
-4.501044482084010784e-03
-9.864607784315620326e-03
-1.553430791855756748e-02
-2.136368835453413689e-02
-2.719080927534213779e-02
-3.284487672234899514e-02
-3.815708364712121214e-02
-4.296508819542327329e-02
-4.710847274329893475e-02
-5.044566466410467520e-02
-5.285593298467322620e-02
-5.422588260144861616e-02
-5.448331693499937345e-02
-5.357281915194091193e-02
-5.146079560629349126e-02
-4.816072137053496738e-02
-4.369466705684696417e-02
-3.812351359600615885e-02
-3.153911271792675386e-02
-2.404288423523322921e-02
-1.577536370530443696e-02
-6.888289401069150678e-03
2.453599385417536312e-03
1.206556855417655408e-02
2.176083154126374000e-02
3.134912096763529943e-02
4.063817973160953334e-02
4.944071336865592248e-02
5.758485641989270765e-02
6.490250728602305064e-02
7.124749657368040223e-02
7.649792813025510507e-02
8.053950462929448939e-02
8.329971466827872095e-02
8.472307083414795659e-02
8.477478973702035070e-02
8.346476968697276455e-02
8.081095129667995036e-02
7.686622006507956573e-02
7.171136763154926930e-02
6.543539472419050707e-02
5.816071704668772380e-02
5.001931940578320523e-02
4.115381060468835395e-02
3.172315038044341839e-02
2.188805353960258937e-02
1.181283206164197505e-02
1.663856889835061553e-03
-8.395241081876933520e-03
-1.820939191651127498e-02
-2.762561147218224947e-02
-3.650299065048577540e-02
-4.471399380477321384e-02
-5.213518522245250142e-02
-5.866559391408658619e-02
-6.421341000706906610e-02
-6.869830780833577344e-02
-7.206476617112195227e-02
-7.426190262311707646e-02
-7.526096754560138158e-02
-7.505089873964258806e-02
-7.362740403813329559e-02
-7.101443646561980683e-02
-6.724415709778436279e-02
-6.236438875706733220e-02
-5.644707660216723155e-02
-4.956860196154536102e-02
-4.182901051046845897e-02
-3.334191555164463250e-02
-2.422821947491815564e-02
-1.463091864987835222e-02
-4.697624024926592978e-03
5.414375246950687247e-03
1.553706348950144485e-02
2.550159686074669405e-02
3.513734397473981114e-02
4.427298011242092324e-02
5.274299902782335348e-02
6.039450409102743722e-02
6.707770111224768683e-02
7.266584002765918981e-02
7.705059962314977917e-02
8.013339608528578795e-02
8.185718292171863253e-02
8.217706043124146931e-02
8.107513866377989709e-02
7.857515872522691236e-02
7.470864785799170849e-02
6.954927243855085761e-02
6.319487615617208620e-02
5.575553632837194906e-02
4.737838777727680639e-02
3.821823661904041880e-02
2.844406338168302059e-02
1.824056953658510782e-02
7.793431424374446144e-03
-2.710637439021060940e-03
-1.308454262109234184e-02
-2.314862831629674669e-02
-3.273936864572611627e-02
-4.169685661550026623e-02
-4.988511443595723682e-02
-5.718731468646116867e-02
-6.349511923675738023e-02
-6.873604015968891312e-02
-7.284801682898672803e-02
-7.578851900568828182e-02
-7.754514107241976262e-02
-7.811067358708359554e-02
-7.750403795191067313e-02
-7.575915887504205970e-02
-7.291693895041533036e-02
-6.903938887461294471e-02
-6.419293864523295534e-02
-5.845339868906349046e-02
-5.190699074929043533e-02
-4.464169897509467910e-02
-3.675357600215388432e-02
-2.834196251885501630e-02
-1.950851058445820033e-02
-1.035986682266679462e-02
-1.003484244473776092e-03
8.450768811576581108e-03
1.789108965356046160e-02
2.720578986722181972e-02
3.628394157130614139e-02
4.501490269104500841e-02
5.329226913927823106e-02
6.101617863939649833e-02
6.808883851958207056e-02
7.442751991519348798e-02
7.995815144679462028e-02
8.461500687924024267e-02
8.835796660035326322e-02
9.115262357468698062e-02
9.298569339850433491e-02
9.386735233468125605e-02
9.381332754517054950e-02
9.286798781616956155e-02
9.108738892981209367e-02
8.853694497429373533e-02
8.530231731805644479e-02
8.147223501205279328e-02
7.714198934251062512e-02
7.241213082920754107e-02
6.738197357744382665e-02
6.214458125323937820e-02
5.679108683619442377e-02
5.140267499946950258e-02
4.604516301591032867e-02
4.078094962673757540e-02
3.565143740228875896e-02
3.068595518169565939e-02
2.590655065845951649e-02
2.131308030435653117e-02
1.690072035797669792e-02
1.265399927829113577e-02
8.545610728516346566e-03
4.546834393800371250e-03
6.236765997832630776e-04
-3.259987439070534052e-03
-7.137804821138555786e-03
-1.103802511018183927e-02
-1.498740040314946315e-02
-1.900011552488325289e-02
-2.308027618187330834e-02
-2.722674619218071537e-02
-3.141598324052939650e-02
-3.561790212963536484e-02
-3.978951634496889767e-02
-4.386789624056441905e-02
-4.778697215699538592e-02
-5.146637498277435718e-02
-5.481750886915555399e-02
-5.775135178978735295e-02
-6.017786201259880952e-02
-6.200725772282306147e-02
-6.316261068167698667e-02
-6.358128932656108290e-02
-6.320692834494401335e-02
-6.201975264871954774e-02
-6.001499002619448131e-02
-5.720925360939903281e-02
-5.366556819970363934e-02
-4.945539783659305688e-02
-4.468755207882546543e-02
-3.950081353132318951e-02
-3.404129789853865828e-02
-2.848446438123215449e-02
-2.301406623614915548e-02
-1.781399141438487141e-02
-1.306833545954229001e-02
-8.958306285490656370e-03
-5.636045133634418752e-03
-3.236949726090669610e-03
-1.877126816083406376e-03
-1.613230049927780879e-03
-2.488562664731259338e-03
-4.495538054814798845e-03
-7.569925913126926420e-03
-1.163395551424631011e-02
-1.653967788451680965e-02
-2.211044156218628515e-02
-2.814637318498200771e-02
-3.439724291676701795e-02
-4.060524865583042819e-02
-4.649740686079041618e-02
-5.178854083287504073e-02
-5.619838638528606989e-02
-5.947047456286666534e-02
-6.135567743015413189e-02
-6.164144078881553246e-02
-6.017183031563259898e-02
-5.680430773415463819e-02
-5.148178703344297169e-02
-4.419643163684890130e-02
-3.497453249964879718e-02
-2.394690484957582091e-02
-1.126687819726246084e-02
2.850048404247802324e-03
1.811912784431105733e-02
3.424382648370460913e-02
5.087343002945204917e-02
6.763512402733093398e-02
8.415268156663928412e-02
1.000425846543977898e-01
1.149225341194015648e-01
1.284450427189603450e-01
1.402906028511385628e-01
1.501597879128145074e-01
1.578405573568755493e-01
1.631466633671909416e-01
1.659553278864685510e-01
1.662421008087570651e-01
1.640014369528160487e-01
1.593325550307440885e-01
1.523950928134146510e-01
1.433800612064814739e-01
1.325740631997755214e-01
1.202836274964580315e-01
1.068530428702628154e-01
9.266868743711027812e-02
7.811964251347883192e-02
6.359828097550013215e-02
4.949820652898670459e-02
3.619167055846082837e-02
2.400437551344728609e-02
1.325127713419570891e-02
4.173492639671627299e-03
-3.047250003662653126e-03
-8.257154064151148859e-03
-1.142143322804129932e-02
-1.254014997140617468e-02
-1.168163020070267163e-02
-9.020030473407344637e-03
-4.747636817746420448e-03
8.527426776798749733e-04
7.446059685727002622e-03
1.467838365286482094e-02
2.213880672319585782e-02
2.940539164467822000e-02
3.605784890404192811e-02
4.167772695255907156e-02
4.585638261216679057e-02
4.824978316022697500e-02
4.854054700632615127e-02
4.646443085155234354e-02
4.187293153806712076e-02
3.464051474653750962e-02
2.476513516875443119e-02
1.234414237018094905e-02
-2.488297315287745989e-03
-1.944375224986869335e-02
-3.818898200429657330e-02
-5.832608649055474881e-02
-7.935685020735000483e-02
-1.007702117782488527e-01
-1.220128806310301350e-01
-1.425071867772349787e-01
-1.616866287179184458e-01
-1.790205218452865232e-01
-1.939878616693749835e-01
-2.061441244863639888e-01
-2.151301576251268555e-01
-2.206147947835239154e-01
-2.224233247199131347e-01
-2.204453446739636224e-01
-2.146462470469653327e-01
-2.051564672892279562e-01
-1.921356340015395181e-01
-1.758622762656786298e-01
-1.567106932935660724e-01
-1.350787914544168411e-01
-1.114593271465046942e-01
-8.637219428858346204e-02
-6.035089793323809848e-02
-3.395007349246850770e-02
-7.722085032490959636e-03
1.782184688267613934e-02
4.219429125914389567e-02
6.494040855748399454e-02
8.570636603490405792e-02
1.041611644141194476e-01
1.200628711163304330e-01
1.332690443757916510e-01
1.436611117227768741e-01
1.512446637927712667e-01
1.560762759275087508e-01
1.582555048041058288e-01
1.579754740871955609e-01
1.554442886410710156e-01
1.509121739482567615e-01
1.446633064454223572e-01
1.369839033163129105e-01
1.281650654306193959e-01
1.184989769429698747e-01
1.082594930871704081e-01
9.769199005372866673e-02
8.703461757541502974e-02
7.647754816250104670e-02
6.618320182149027564e-02
5.629568851014822572e-02
4.690287528408566831e-02
3.808056497898427983e-02
2.987358696531772217e-02
2.229214744087896355e-02
1.534073351911765214e-02
8.997858889115731632e-03
3.231393105799225656e-03
-1.994105320773499265e-03
-6.721247123725408029e-03
-1.099322740793234540e-02
-1.484740340162326450e-02
-1.831642339548908774e-02
-2.142947674311988446e-02
-2.420062919239799812e-02
-2.663950780504007257e-02
-2.874722577030549772e-02
-3.051165851283594091e-02
-3.191872155038588676e-02
-3.294610985682885906e-02
-3.356676116415008293e-02
-3.375376911893850085e-02
-3.348089733342006491e-02
-3.272230637791992414e-02
-3.145971527854110605e-02
-2.968329817775496385e-02
-2.738641416147915772e-02
-2.458070521245464893e-02
-2.128534845361217120e-02
-1.752901911867001464e-02
-1.336112457954874086e-02
-8.834760285910372296e-03
-4.018227764747290751e-03
1.007897178604351580e-03
6.160265794133157509e-03
1.134450053250997403e-02
1.646309403674913602e-02
2.141896510642286866e-02
2.611569599936983122e-02
3.045814552677667333e-02
3.436346211812543738e-02
3.775591502455453996e-02
4.056773941067505496e-02
4.275586628390547206e-02
4.428279181467537073e-02
4.513204106270260474e-02
4.531067940434795049e-02
4.483134197613999894e-02
4.373556768164761632e-02
4.207678863243648204e-02
3.991796447359916011e-02
3.734283815977768040e-02
3.443835233533155959e-02
3.129865894386155145e-02
2.802373340871809962e-02
2.471254194628440259e-02
2.145869385530223966e-02
1.835411086284807064e-02
1.548082987178539711e-02
1.290549561855207361e-02
1.069116487641757866e-02
8.878136001956206044e-03
7.493513658509880562e-03
6.555704673150612380e-03
6.056338108360899766e-03
5.981275676479850742e-03
6.301271788017564178e-03
6.970157269891491363e-03
7.938971244897915711e-03
9.146070714449632336e-03
1.052460570064012169e-02
1.200655170562399052e-02
1.352134511761014096e-02
1.499839680685254029e-02
1.637213194924864307e-02
1.758102904221863633e-02
1.856635835580242727e-02
1.928159152234570212e-02
1.968381095997669139e-02
1.973830460473664783e-02
1.942314668573091180e-02
1.871881316339845530e-02
1.761884687504039482e-02
1.612437106088975003e-02
1.424056567729011999e-02
1.198505449062299555e-02
9.378114251147692815e-03
6.446220491225164613e-03
3.222797726415935551e-03
-2.576096569446633885e-04
-3.955425195360972451e-03
-7.829003802560678682e-03
-1.183604223131031960e-02
-1.593280771963876546e-02
-2.007545702933177106e-02
-2.422142447036231688e-02
-2.832917779985292053e-02
-3.235808893342240200e-02
-3.627152092219536328e-02
-4.003402345053995448e-02
-4.361311612803975279e-02
-4.698094985191691997e-02
-5.011053348358825155e-02
-5.297948837814156486e-02
-5.556811351227763929e-02
-5.785775547970635480e-02
-5.983294897593992301e-02
-6.147885724112538142e-02
-6.278075834941901356e-02
-6.372405919840853916e-02
-6.429384124103031117e-02
-6.447296015486625453e-02
-6.424335202280764823e-02
-6.358589311231832575e-02
-6.247913992204881528e-02
-6.090137531687854489e-02
-5.883143728590865817e-02
-5.624861319628630951e-02
-5.313370287264096437e-02
-4.947435541101248557e-02
-4.526030677824817439e-02
-4.048938681208381907e-02
-3.517205622694573319e-02
-2.932179216152166687e-02
-2.297149758817435689e-02
-1.616536238671571063e-02
-8.955875962405889651e-03
-1.421188120287046261e-03
6.354947545164976209e-03
1.427239122567280222e-02
2.221260757644062667e-02
3.005392438005147562e-02
3.766018560930436965e-02
4.488928436184670689e-02
5.159966705945993881e-02
5.765103560448953113e-02
6.290435324843136888e-02
6.723828932100754663e-02
7.054585663944631935e-02
7.272995299613893572e-02
7.373677713247958621e-02
7.352542671105133376e-02
7.208763720855199120e-02
6.946611357105493545e-02
6.571362271009452416e-02
6.093997819020237350e-02
5.528816076283304959e-02
4.891894597009249779e-02
4.204782050024984119e-02
3.490174521367128690e-02
2.772884397538278450e-02
2.080101565743434910e-02
1.439071258849075260e-02
8.765622180415932885e-03
4.191369736339043903e-03
9.133718626968389404e-04
-8.673600240912534773e-04
-9.599143682438669029e-04
7.586987572106339631e-04
4.356407383710519596e-03
9.875288371656399528e-03
1.724640607662047964e-02
2.636805796331593427e-02
3.707485106276738052e-02
4.910185746683995434e-02
6.216733298298100785e-02
7.590683243738534369e-02
8.990779707416611533e-02
1.037428436841209833e-01
1.169397752261159551e-01
1.290180963322213048e-01
1.395117134356472499e-01
1.479707238187100982e-01
1.539594692018751154e-01
1.571321694369314792e-01
1.571803802611143053e-01
1.538620047872937269e-01
1.470806358370887468e-01
1.367683525782371901e-01
1.230046530154229045e-01
1.059886284177999072e-01
8.596128370072793345e-02
6.333973707433693257e-02
3.859257843389891918e-02
1.225572974013191922e-02
-1.502958642528586311e-02
-4.261022861694679920e-02
-6.980515292816759365e-02
-9.591708182063275745e-02
-1.202716962357816277e-01
-1.422676801628920962e-01
-1.613219453797121450e-01
-1.769628284514407068e-01
-1.888440216555633266e-01
-1.966567166874328421e-01
-2.002992761760743479e-01
-1.997558753854937474e-01
-1.951015822756315410e-01
-1.866109659293637701e-01
-1.745927105572555593e-01
-1.594777989171742294e-01
-1.417964992381743061e-01
-1.220959238359186905e-01
-1.009872251268798676e-01
-7.909959660281307148e-02
-5.704423006166631227e-02
-3.540413990291771396e-02
-1.475022325849148844e-02
4.444752262556194398e-03
2.176520521569183172e-02
3.684435034309165719e-02
4.946709279169959894e-02
5.945184398057438979e-02
6.672251431256771836e-02
7.132178783855652737e-02
7.331661596743996312e-02
7.289459014521761093e-02
7.029320503428065914e-02
6.578187314954256348e-02
5.969998020302917652e-02
5.239704950330818789e-02
4.423571094029635220e-02
3.558924231656832027e-02
2.682372832886231392e-02
1.827085013534428953e-02
1.025179231830185278e-02
3.048262563786987515e-03
-3.119861874927645773e-03
-8.046098611795074462e-03
-1.160530153359753264e-02
-1.371975485167671593e-02
-1.434177762178407214e-02
-1.351664726788264978e-02
-1.130978433653260715e-02
-7.839681855449700046e-03
-3.284625904434883975e-03
2.167042690172532506e-03
8.280780293487203028e-03
1.480296017589980730e-02
2.147645786533915885e-02
2.803656936240282380e-02
3.421916749377308664e-02
3.978596500769224220e-02
4.451968227396480016e-02
4.821761196441165520e-02
5.074113986148438837e-02
5.197074054137292010e-02
5.183082824721522985e-02
5.031468664197137619e-02
4.742830040939381708e-02
4.324569712041859137e-02
3.788060932300735262e-02
3.146529254905452988e-02
2.418896200148899431e-02
1.625270870406430798e-02
7.876459793764646611e-03
-6.986211315535371252e-04
-9.230943314065287800e-03
-1.748368827937625894e-02
-2.522208099964649494e-02
-3.222599052003291553e-02
-3.830758270816371491e-02
-4.328598457302176850e-02
-4.702342684760564551e-02
-4.941720827439718966e-02
-5.037940122247493158e-02
-4.988526910438130513e-02
-4.792875031446197642e-02
-4.453728287531061314e-02
-3.979084861587242616e-02
-3.377826973203065797e-02
-2.663162831355013124e-02
-1.850826760167973914e-02
-9.575273159611040127e-03
-2.953781950471631029e-05
9.925979693567659606e-03
2.008288721133977967e-02
3.022666235334581578e-02
4.014444168756972631e-02
4.963676411590646487e-02
5.850977662537656943e-02
6.658358883938046702e-02
7.370910220079576747e-02
7.974352177122853713e-02
8.457970328798954107e-02
8.813952765385793531e-02
9.035654950545521369e-02
9.121411491652017811e-02
9.071028552477573836e-02
8.886888732366504673e-02
8.575418682431198980e-02
8.143716328665007165e-02
7.602115669581614721e-02
6.962841744023968993e-02
6.238798842432943803e-02
5.444965829322062634e-02
4.596738623304026661e-02
3.709733688676168650e-02
2.799816494970671851e-02
1.882683832193769724e-02
9.728037251278368047e-03
8.413090569157483101e-04
-7.704073825521389612e-03
-1.580150829044424735e-02
-2.334881085005870507e-02
-3.026642017073550781e-02
-3.649320602929959079e-02
-4.197443965107865160e-02
-4.668237826010997182e-02
-5.059722343954056734e-02
-5.371083564978239300e-02
-5.603338863905249490e-02
-5.757783419934445202e-02
-5.836910467944327052e-02
-5.843913841069732495e-02
-5.782197706345035271e-02
-5.655804514621695644e-02
-5.468906981717847060e-02
-5.225799237485674598e-02
-4.930912590999099454e-02
-4.588691709626925574e-02
-4.203621790264802649e-02
-3.780205191242143326e-02
-3.323022690263301160e-02
-2.836828366971326856e-02
-2.326420299737480199e-02
-1.796936229434163354e-02
-1.253790830587735855e-02
-7.025275114971491625e-03
-1.492453295286222045e-03
3.997932507835045765e-03
9.381038776920386929e-03
1.458853415843259366e-02
1.955182877614420126e-02
2.420281576347407121e-02
2.847367172372363905e-02
3.229878845629775841e-02
3.561956841616376046e-02
3.837912135544609138e-02
4.052987976360858391e-02
4.203481690248442315e-02
4.286018457150257699e-02
4.299057620260145207e-02
4.241822855713525686e-02
4.114463086952756254e-02
3.919169546911981106e-02
3.658507322744632834e-02
3.336678511038149164e-02
2.959220849868298558e-02
2.532073695586731926e-02
2.062847640135380065e-02
1.559643883570482545e-02
1.031153292898336418e-02
4.869942974955476962e-03
-6.310036509251841855e-04
-6.090615493116570758e-03
-1.140623156211940936e-02
-1.647621335188764052e-02
-2.120224512263466782e-02
-2.548691659862367676e-02
-2.924002300583474281e-02
-3.237951229468258307e-02
-3.482636016993127803e-02
-3.651906708986280004e-02
-3.740345169829149830e-02
-3.743618187784289453e-02
-3.659790291665780682e-02
-3.487394638085988818e-02
-3.227370370104776232e-02
-2.882621087508303523e-02
-2.456795029016122650e-02
-1.956710189417857487e-02
-1.390122451970777009e-02
-7.663234899504297107e-03
-9.702262653564107039e-04
6.056985264673186986e-03
1.328121895945464509e-02
2.055570382007324004e-02
2.773228200749247238e-02
3.465877812804057240e-02
4.118252592829879655e-02
4.715972077810466623e-02
5.245659175344527525e-02
5.694411458622403166e-02
6.052175900240951145e-02
6.310090277037774809e-02
6.461063547139975216e-02
6.501922058754137923e-02
6.430235336891462761e-02
6.247132375236950919e-02
5.956650506460207939e-02
5.563769101664590988e-02
5.077423123905747127e-02
4.507711691287619171e-02
3.866204107141023305e-02
3.166785696632205133e-02
2.423630360309316986e-02
1.651781850567158455e-02
8.667939534463785234e-03
8.400400288996771533e-04
-6.819590353984340478e-03
-1.416654245394759204e-02
-2.107029283894001209e-02
-2.741605161230606033e-02
-3.309389259256829974e-02
-3.802111450332731901e-02
-4.212638212286504147e-02
-4.535113713220034759e-02
-4.766508174165823286e-02
-4.904299101661606375e-02
-4.948055709407959968e-02
-4.899057507112293541e-02
-4.759082210858774087e-02
-4.531977547156246233e-02
-4.222201819003075507e-02
-3.835039198618815648e-02
-3.377075826579629958e-02
-2.855104162482493754e-02
-2.276857114104884755e-02
-1.650619596030371630e-02
-9.849148765832538288e-03
-2.890018868977779765e-03
4.277039613678328481e-03
1.155478887824012459e-02
1.884249458827394474e-02
2.603908402013051238e-02
3.304246868494662565e-02
3.975014594098855158e-02
4.606125727853076224e-02
5.187859706182473829e-02
5.710594573798399853e-02
6.165521207219248900e-02
6.544495574812764227e-02
6.839772398216992233e-02
7.045359912644229283e-02
7.155793927866611892e-02
7.166937278508973830e-02
7.076746425266890184e-02
6.883605659017819067e-02
6.588397070333136540e-02
6.193470036780475418e-02
5.702077355767702638e-02
5.120287590141582579e-02
4.454785724673288039e-02
3.713936108693426108e-02
2.908008647897443455e-02
2.047645311219439823e-02
1.145315689755628183e-02
2.142518417607953800e-03
-7.318075132644400946e-03
-1.678003578465281365e-02
-2.609308901015025897e-02
-3.510402495873374273e-02
-4.365723026283760411e-02
-5.159823693235492115e-02
-5.877820513682180392e-02
-6.505006694164316983e-02
-7.027589623386124029e-02
-7.433220061996956285e-02
-7.709927050263190584e-02
-7.848318076024060619e-02
-7.840516539389777440e-02
-7.679965341858162320e-02
-7.364248636019489480e-02
-6.891893816400555817e-02
-6.264953850972905525e-02
-5.489484989561987938e-02
-4.572577502234043134e-02
-3.526878235005191653e-02
-2.367357774969774259e-02
-1.111325564929638993e-02
2.187258567364382122e-03
1.599412147131542075e-02
3.004165315087642396e-02
4.403808651907166472e-02
5.768778271597876928e-02
7.068073157788762328e-02
8.270294135184401429e-02
9.345156623885081393e-02
1.026413722394306921e-01
1.099936770447239309e-01
1.152811828243948261e-01
1.183068244998489310e-01
1.189021402766198970e-01
1.169886163360123188e-01
1.125081472298715690e-01
1.054765693347865518e-01
9.599373970097754838e-02
8.417941572959584950e-02
7.025778365499776856e-02
5.449669612856934686e-02
3.719995214621391044e-02
1.875101221946660207e-02
-4.540770349506740786e-04
-1.998891141890860382e-02
-3.940219359623765849e-02
-5.824600512225870663e-02
-7.609149738936343832e-02
-9.251599230074830649e-02
-1.071379117461084690e-01
-1.196406640680339473e-01
-1.297232291980917607e-01
-1.371857557892253998e-01
-1.418879543623363382e-01
-1.437295071478480457e-01
-1.427351827345426649e-01
-1.389571271300161504e-01
-1.325204171107400020e-01
-1.236330603550271634e-01
-1.125172837589608343e-01
-9.946151643977454992e-02
-8.478182684862814456e-02
-6.880367615997122488e-02
-5.187323688509630493e-02
-3.433859520152544864e-02
-1.653327394011491758e-02
1.221154515576954730e-03
1.861283813388058678e-02
3.537338197546896490e-02
5.124744279966711447e-02
6.600877062314915167e-02
7.947714927240918936e-02
9.148093883698842077e-02
1.018949067234440203e-01
1.106211610645366217e-01
1.175770644222474126e-01
1.227275631730732897e-01
1.260480788031736188e-01
1.275433639865152791e-01
1.272515482092107242e-01
1.252181622164819097e-01
1.215268281968549385e-01
1.162771272616788948e-01
1.095832390526743916e-01
1.015917569250828351e-01
9.245485876844322659e-02
8.234463190388832676e-02
7.144951269475696698e-02
5.996105495924738960e-02
4.808303953374784556e-02
3.602276183320984870e-02
2.398551029440605317e-02
1.217339468739355932e-02
7.865175922872605016e-04
-9.992815606576804788e-03
-1.999279405462255077e-02
-2.905232156955906211e-02
-3.704410875184427354e-02
-4.384858660040082123e-02
-4.937507456867176736e-02
-5.356578856717102155e-02
-5.637113264412574321e-02
-5.778516579610676329e-02
-5.782025577016693119e-02
-5.650658352750685676e-02
-5.391391976398300645e-02
-5.011897419384629682e-02
-4.522467763130876006e-02
-3.935550828846771931e-02
-3.264124612817558002e-02
-2.523333879686211895e-02
-1.728959668936467034e-02
-8.972514091547267173e-03
-4.520066298464887888e-04
8.101788039991923360e-03
1.652323009886740718e-02
2.464933490025202067e-02
3.232269810928847104e-02
3.940365214871639765e-02
4.575671233962859408e-02
5.126538615061031201e-02
5.583482360456797078e-02
5.937625290172260373e-02
6.183435676378644386e-02
6.316786872010611564e-02
6.335119239536209090e-02
6.239359960583959475e-02
6.031069243777255340e-02
5.714474814511402712e-02
5.295998018920664019e-02
4.782693072110240362e-02
4.184254529862001248e-02
3.511157437338759124e-02
2.774737853944728161e-02
1.987697124456687392e-02
1.162888953560378344e-02
3.134897882143467852e-03
-5.471334730736496926e-03
-1.405834872325823631e-02
-2.250183508878529637e-02
-3.067924606503339910e-02
-3.847787680620450013e-02
-4.579624698893726420e-02
-5.253600669258075284e-02
-5.861601679866780545e-02
-6.396236991789784609e-02
-6.850875423336824643e-02
-7.220576871361517046e-02
-7.500706852598743035e-02
-7.687899640939852008e-02
-7.779833613262068792e-02
-7.774529784005029809e-02
-7.671459458126336783e-02
-7.470527864934488338e-02
-7.172426014259526694e-02
-6.779091862556453629e-02
-6.292711136053076582e-02
-5.716886832675541208e-02
-5.056059430110503017e-02
-4.315268672558751628e-02
-3.501439100079924149e-02
-2.621921316124560183e-02
-1.685526924621963060e-02
-7.027347923245223088e-03
3.155762065544821197e-03
1.356413590370775420e-02
2.405896971105395132e-02
3.449398861986167908e-02
4.470628518188095313e-02
5.453035464051893266e-02
6.379501435703431589e-02
7.232440583107230259e-02
7.994431339036918438e-02
8.648882337837100753e-02
9.179466715157547085e-02
9.571328545900505136e-02
9.811947923475801414e-02
9.889401138119717494e-02
9.795786789895950808e-02
9.525582110883692999e-02
9.075167674330822387e-02
8.446926699789011894e-02
7.644597841112604764e-02
6.676506213836647108e-02
5.556214639557807700e-02
4.298495752524660041e-02
2.924445143802491612e-02
1.457816390506030090e-02
-7.545263595727016298e-04
-1.644558022202755043e-02
-3.217917088829159999e-02
-4.761979782567474229e-02
-6.241574715742961854e-02
-7.621698043330331351e-02
-8.868352596687278933e-02
-9.947875945861228697e-02
-1.082927795926315606e-01
-1.148581554412053396e-01
-1.189184882115892766e-01
-1.202925375391376284e-01
-1.188435411031251859e-01
-1.144696944105502712e-01
-1.071794927163494671e-01
-9.700624134238107488e-02
-8.406424993957974101e-02
-6.856040049726642993e-02
-5.072195340184722234e-02
-3.088110013775246035e-02
-9.414157693434448138e-03
1.327014535093697621e-02
3.669085746370698287e-02
6.035604257641975778e-02
8.375422465197465693e-02
1.063578130365593621e-01
1.276464924536442058e-01
1.471361424653428451e-01
1.643540023289857266e-01
1.788795295513031236e-01
1.903752309516928698e-01
1.985229445913564150e-01
2.031282925495118685e-01
2.040702022345144973e-01
2.012772287734722609e-01
1.948342079288951922e-01
1.848604704561385703e-01
1.715700015271303946e-01
1.552850352276032853e-01
1.363467224457288463e-01
1.151852922854461753e-01
9.226838200191804507e-02
6.807400937243195116e-02
4.310316210152599636e-02
1.785780471477221854e-02
-7.195836365175643790e-03
-3.162102901027082080e-02
-5.500224602236254701e-02
-7.701886469546725955e-02
-9.737887880869820767e-02
-1.158506042242500450e-01
-1.322983618318412657e-01
-1.466026376862892833e-01
-1.587228835193168763e-01
-1.686653434470283541e-01
-1.764502240925731047e-01
-1.821406332837083308e-01
-1.858081375093702525e-01
-1.875200806444045076e-01
-1.873389740429430572e-01
-1.853220667351773709e-01
-1.814923146172100210e-01
-1.758582223552738466e-01
-1.684158704817975971e-01
-1.591335944431727656e-01
-1.479765582737345153e-01
-1.349199925683803314e-01
-1.199474416924541653e-01
-1.030577611724382697e-01
-8.432020348409402510e-02
-6.382552322819649848e-02
-4.172603523376108847e-02
-1.827210289511045291e-02
6.267536002368802837e-03
3.152412671373616693e-02
5.706960330533222825e-02
8.245507616720400279e-02
1.071671856186377225e-01
1.306799949284447038e-01
1.524782349268634651e-01
1.720588535168709188e-01
1.889335788206119304e-01
2.027110456633521018e-01
2.130409124577330449e-01
2.196418751396363167e-01
2.223872208422414953e-01
2.211799474483974182e-01
2.160675645920054622e-01
2.072170165905007633e-01
1.948328097670689596e-01
1.792783829981657584e-01
1.609644350142638847e-01
1.403552725797067580e-01
1.180006421821193086e-01
9.445952338811841598e-02
7.030754896504153029e-02
4.613022789230136755e-02
2.249552804053329969e-02
-8.546213233102083195e-05
-2.111560694596937432e-02
-4.017319009516805151e-02
-5.692293126620888433e-02
-7.105364717286602461e-02
-8.238716368470924700e-02
-9.080148556738884547e-02
-9.623234950648765218e-02
-9.874469540452339433e-02
-9.842628529007702021e-02
-9.545196206578546172e-02
-9.006858985081314661e-02
-8.254021698405544782e-02
-7.320120385147217690e-02
-6.240666585932960753e-02
-5.052448115927664352e-02
-3.794288195139486342e-02
-2.505002350831414884e-02
-1.221431133560500412e-02
2.075825104777143451e-04
1.187732832037679404e-02
2.251518619364124146e-02
3.185500171195113778e-02
3.968464680626776486e-02
4.585395563188007784e-02
5.022801027463848211e-02
5.275335666656055800e-02
5.341095473335782939e-02
5.221281647385629665e-02
4.924046747947159741e-02
4.458727029108672246e-02
3.838596236659028160e-02
3.080186991278064529e-02
2.200602216095284488e-02
1.219157195669996752e-02
1.558115887352587783e-03
-9.696712783487807311e-03
-2.137841610726778224e-02
-3.329461618367741960e-02
-4.527210512164762946e-02
-5.714906970865044067e-02
-6.877286383723638097e-02
-8.001991086430830513e-02
-9.077307998687411672e-02
-1.009331348109633042e-01
-1.104213764832536748e-01
-1.191626097579446403e-01
-1.270979797122792354e-01
-1.341755199679109112e-01
-1.403451940781111629e-01
-1.455612519471977673e-01
-1.497782378331806719e-01
-1.529458236237707658e-01
-1.550096456943507728e-01
-1.559128838528878735e-01
-1.555877691355426473e-01
-1.539632663622339248e-01
-1.509644476222024578e-01
-1.465101672081184636e-01
-1.405191954565326584e-01
-1.329152378557197922e-01
-1.236249371082702164e-01
-1.125825873310938724e-01
-9.974704521221804121e-02
-8.508313196855381288e-02
-6.858619276686046817e-02
-5.028663031967378627e-02
-3.022550918230109893e-02
-8.504056676035237627e-03
1.475101363107246544e-02
3.938290208893165112e-02
6.516729489818416654e-02
9.186751806929152608e-02
1.191943571838487287e-01
1.468150504118983235e-01
1.743852435062453465e-01
2.015123497971686439e-01
2.277895103297122303e-01
2.528010274294619220e-01
2.761170765892692613e-01
2.973087481624656081e-01
3.159699132126611021e-01
3.317080068795582593e-01
3.441525086052055760e-01
3.530035021958368158e-01
3.579777756805612166e-01
3.588664249870426315e-01
3.555459514706487689e-01
3.479166059343700157e-01
3.360099504771565382e-01
3.199131886017277937e-01
2.997733088685745062e-01
2.758715210460537248e-01
2.485130114201380414e-01
2.180972615110506052e-01
1.851019640133815258e-01
1.500230607649264414e-01
1.134310985980229169e-01
7.591861935066210321e-02
3.808539639105952557e-02
5.427674242607424121e-04
-3.610126050325830616e-02
-7.128434081592259497e-02
-1.044713305618846372e-01
-1.351600099902440788e-01
-1.629533918226759304e-01
-1.874787875499013268e-01
-2.084559434362134589e-01
-2.257109210033186875e-01
-2.390955973518255062e-01
-2.485995262475294287e-01
-2.542705971806081267e-01
-2.562089986480806658e-01
-2.546323452295656264e-01
-2.497782822723137730e-01
-2.419509181992548219e-01
-2.315095272203966104e-01
-2.188227325227518061e-01
-2.042952503711828460e-01
-1.883422956378558721e-01
-1.713726920976774148e-01
-1.537850294031973819e-01
-1.359727272625040617e-01
-1.182847392174523476e-01
-1.010435100178613821e-01
-8.454846405939869802e-02
-6.902571085138736739e-02
-5.468477680441820310e-02
-4.168145538794028326e-02
-3.010969422258054709e-02
-2.004997245224559785e-02
-1.151334085548251854e-02
-4.481424699549702365e-03
1.087279745192173616e-03
5.286217331797667639e-03
8.217464062821847395e-03
1.000856941638084141e-02
1.080824151780663059e-02
1.076808222267694633e-02
1.005028783254896182e-02
8.820106363704158237e-03
7.238771931230491771e-03
5.461087196609387510e-03
3.639603496588263501e-03
1.909354265727487582e-03
3.949220879838205578e-04
-7.874694207570444998e-04
-1.548203073989346500e-03
-1.803688565258753339e-03
-1.489994209523358426e-03
-5.658312575955136425e-04
1.004781523076328509e-03
3.229791048026243224e-03
6.105243946868764600e-03
9.615690508386558200e-03
1.371982231115749518e-02
1.837168651705399502e-02
2.350683448474202505e-02
2.904544370334938980e-02
3.490334727829439571e-02
4.097812177436381542e-02
4.716188212972312332e-02
5.334060417962392664e-02
5.939042211390822834e-02
6.518638247779608152e-02
7.060141845421359641e-02
7.550720253817193306e-02
7.977797377737318174e-02
8.329634057171374228e-02
8.594705984428314960e-02
8.762865664331827287e-02
8.825552555297051793e-02
8.774747028841101137e-02
8.605564514765563777e-02
8.314454506604362916e-02
7.899659906136050069e-02
7.363464774228495324e-02
6.708929866556037624e-02
5.942859352243852478e-02
5.075171181542299792e-02
4.116865182760756636e-02
3.083592992133788596e-02
1.992406744042383299e-02
8.624376081291372509e-03
-2.838477963435276710e-03
-1.423496065743837941e-02
-2.531600138230461622e-02
-3.582086001850562362e-02
-4.548908740401218231e-02
-5.406168516805118229e-02
-6.128062855993050839e-02
-6.690842388965752285e-02
-7.073125904104482498e-02
-7.254520232791154821e-02
-7.220566419741285269e-02
-6.959334208151966850e-02
-6.462654337520784553e-02
-5.730840938161366194e-02
-4.765864980858980360e-02
-3.577992595164120049e-02
-2.184394776829411480e-02
-6.046766648448458417e-03
1.131068780485084552e-02
2.989591373773327690e-02
4.933128965613767236e-02
6.916675488813295303e-02
8.894243175556483527e-02
1.081639677543947964e-01
1.263164045882353426e-01
1.428912950364572831e-01
1.574022181457912783e-01
1.693692023345163278e-01
1.783724246952259063e-01
1.840614903746402298e-01
1.861105908114423224e-01
1.843376401560198885e-01
1.786217848587651202e-01
1.689204587007387404e-01
1.553677458242400666e-01
1.381305658091238897e-01
1.175202659675823325e-01
9.396850075853525885e-02
6.794009658987643085e-02
4.003912771929186987e-02
1.091118326750480962e-02
-1.876708256120125304e-02
-4.826910896285956099e-02
-7.686765384554108960e-02
-1.038756816974518715e-01
-1.286302207040660173e-01
-1.505121784951581887e-01
-1.690439080164332641e-01
-1.837809599388750548e-01
-1.944161838282086885e-01
-2.008010228811656361e-01
-2.028259414858552823e-01
-2.005909717758309063e-01
-1.942853294184954949e-01
-1.841741617556060251e-01
-1.706938367017722669e-01
-1.543090572681830031e-01
-1.355652592188012484e-01
-1.150751761157281505e-01
-9.345547373219550980e-02
-7.133167778132713799e-02
-4.933127157636692239e-02
-2.803817924168819017e-02
-7.966281329521193721e-03
1.038906893527901873e-02
2.666085350409681462e-02
4.055889538379017778e-02
5.184687263857100381e-02
6.046012687821143705e-02
6.637224946254627334e-02
6.966097431294288045e-02
7.052441601426504003e-02
6.918139308915143004e-02
6.594796050006564159e-02
6.118147772361010039e-02
5.525024696731446749e-02
4.854703009420859028e-02
4.146573695923128078e-02
3.436265549961702026e-02
2.756269008788567176e-02
2.136900011957451606e-02
1.598647775593583023e-02
1.159007114738510799e-02
8.292804598032985086e-03
6.108063160312154558e-03
5.032226205307396838e-03
4.977505078473543759e-03
5.805683436327772375e-03
7.361859259980022864e-03
9.439075484077014480e-03
1.181981045473162045e-02
1.428658254490023510e-02
1.662195642847130728e-02
1.861496801799973622e-02
2.009962000348616828e-02
2.092915003687813302e-02
2.098909792115270095e-02
2.023810632800248505e-02
1.864875217904937363e-02
1.625900491991321209e-02
1.316142231040364277e-02
9.464275485309325137e-03
5.342270780867684407e-03
9.900012684213666328e-04
-3.380874247750367823e-03
-7.531219875226468144e-03
-1.122048990105065092e-02
-1.421950721611958332e-02
-1.630591500335347790e-02
-1.727451042502756509e-02
-1.697563201404189356e-02
-1.527281347616272003e-02
-1.208773472050358316e-02
-7.409384079269689533e-03
-1.244158583900496079e-03
6.306563556273613383e-03
1.510088161991240789e-02
2.496001115544347476e-02
3.562178702003265807e-02
4.681006516429231379e-02
5.820670170666805698e-02
6.945846712853590010e-02
8.021028211351011183e-02
9.010340792125265397e-02
9.877844123464066262e-02
1.059038739528709305e-01
1.111931521329509037e-01
1.143720752287498421e-01
1.152538011587373179e-01
1.137039097378805680e-01
1.096274628013790414e-01
1.030558336936175934e-01
9.404885287756087342e-02
8.275089913370102523e-02
6.940429185672590540e-02
5.427011291710720498e-02
3.770198397237982391e-02
2.009295869695601477e-02
1.853911093744427772e-03
-1.656413482915164437e-02
-3.470565864791978761e-02
-5.213295793887393059e-02
-6.842322563769223653e-02
-8.317107931577102931e-02
-9.605155202743106968e-02
-1.067644210923618386e-01
-1.150726510198590985e-01
-1.208411028349558325e-01
-1.239542768506037285e-01
-1.244064598732059490e-01
-1.222578631676900507e-01
-1.176022060333766217e-01
-1.106395379128089079e-01
-1.015931126873293039e-01
-9.073401531116860597e-02
-7.838877770426869174e-02
-6.489085424476261077e-02
-5.060032514958751060e-02
-3.588857062522712860e-02
-2.111957983947447201e-02
-6.640445729915653988e-03
7.206729253572589401e-03
2.012501945332947212e-02
3.185529275667539628e-02
4.215737126247642852e-02
5.087546674417232906e-02
5.787953348275898247e-02
6.308954743450301272e-02
6.650620761406608739e-02
6.814417835888304797e-02
6.808826307576057446e-02
6.646541166756808616e-02
6.341863095991540078e-02
5.914144887831469799e-02
5.383802018167929693e-02
4.772283354084455587e-02
4.102236550243706925e-02
3.396155491946747929e-02
2.674993041754530551e-02
1.959038976855753331e-02
1.267024346066801532e-02
6.141397026304389918e-03
1.487508310116245416e-04
-5.198689514178764931e-03
-9.821968325556014803e-03
-1.365238015916426725e-02
-1.666548271413665488e-02
-1.885025001566065575e-02
-2.021546262600558766e-02
-2.080188667764513652e-02
-2.065533723430156010e-02
-1.984428883314315675e-02
-1.845084180027958126e-02
-1.656131499960029202e-02
-1.427519604280885757e-02
-1.169465258863753437e-02
-8.921731999461847071e-03
-6.058341988025694319e-03
-3.204531251223302624e-03
-4.474242125954821028e-04
2.131407999954711575e-03
4.460692475920137109e-03
6.492555563939566600e-03
8.183769641004052381e-03
9.515086640088588760e-03
1.048734774608349810e-02
1.110823709169044340e-02
1.141500420687099546e-02
1.145384009727343569e-02
1.128237354432303809e-02
1.097671737563107701e-02
1.061523020815217933e-02
1.028224288629520783e-02
1.006567910368293475e-02
1.005042581866629967e-02
1.031128339962614562e-02
1.092044468050989287e-02
1.193325638136725000e-02
1.338549494986049360e-02
1.530708904971579860e-02
1.769478244297295610e-02
2.053109902690519739e-02
2.378368544741816387e-02
2.738641173145430277e-02
3.126721723206088432e-02
3.533270329721919373e-02
3.947158225199201564e-02
4.356946860555466206e-02
4.749987690612264557e-02
5.113277923341422171e-02
5.434154489907327967e-02
5.700503894519050319e-02
5.900459884745330730e-02
6.024246995305294894e-02
6.063349040789321742e-02
6.010374886384842186e-02
5.861557055175931064e-02
5.613958405558418241e-02
5.267419455148925067e-02
4.825009854635267659e-02
4.290513147077072709e-02
3.671436280267840330e-02
2.976880947379750494e-02
2.217161624397546646e-02
1.405344591166481777e-02
5.549436651749059708e-03
-3.194017788770495483e-03
-1.202108065070215878e-02
-2.077588323047361088e-02
-2.930379675088795252e-02
-3.745068258696163110e-02
-4.507063190528987073e-02
-5.203105665276160086e-02
-5.820273880544789280e-02
-6.347933763309056288e-02
-6.776830093370321551e-02
-7.098724976207096415e-02
-7.308648922704086281e-02
-7.402377425192821492e-02
-7.378056716464405362e-02
-7.236591071094379546e-02
-6.979509674141202991e-02
-6.611629579782814237e-02
-6.139177757924259293e-02
-5.569604294357041741e-02
-4.913138302086331177e-02
-4.180489733413393638e-02
-3.383994877785098665e-02
-2.537355436652739826e-02
-1.654530301164397824e-02
-7.505016392382369422e-03
1.594452505632295257e-03
1.060106428257352219e-02
1.936409820225452882e-02
2.773407743925404914e-02
3.557346146709812473e-02
4.275190978881793225e-02
4.914665318211973444e-02
5.465940401307101126e-02
5.919759232832924600e-02
6.269053398188138837e-02
6.509302423144365524e-02
6.636632265253919472e-02
6.650692044973681438e-02
6.552643528566459707e-02
6.345122396620926641e-02
6.034117312169402780e-02
5.626210906916048748e-02
5.130180101384138047e-02
4.556645375244369744e-02
3.916633786689210917e-02
3.222837540752085395e-02
2.488446984226973246e-02
1.726823045609133384e-02
9.516030294318305813e-03
1.763676856267114117e-03
-5.861721033754943577e-03
-1.323830560263718203e-02
-2.025029546731577784e-02
-2.680159637172637929e-02
-3.280067649050608103e-02
-3.817243334615243178e-02
-4.286090511994243568e-02
-4.681454162020937115e-02
-5.000515678896021166e-02
-5.241459758565540639e-02
-5.403312051328583443e-02
-5.487011506637429203e-02
-5.493825739457519619e-02
-5.426095819305308543e-02
-5.287065336222535050e-02
-5.080159103796545728e-02
-4.809532577153760591e-02
-4.479560571407656400e-02
-4.094734189037556316e-02
-3.659733110900373343e-02
-3.179246271538696544e-02
-2.657877559571994799e-02
-2.100179489298145338e-02
-1.510653883407136328e-02
-8.936385424666189181e-03
-2.534374133054233258e-03
4.056535128954467766e-03
1.079347520123741244e-02
1.763322835428008870e-02
2.453007980854710404e-02
3.143723663471616192e-02
3.830580356583017376e-02
4.508208617975280330e-02
5.171145857276192304e-02
5.813477047194187675e-02
6.428906496628362943e-02
7.011039034512114854e-02
7.553061120643361770e-02
8.048034282629121239e-02
8.489006204958599033e-02
8.869002134602836651e-02
9.181091674988059448e-02
9.418838897580945890e-02
9.576106812408330393e-02
9.647150886563976568e-02
9.627501947467610732e-02
9.512996068355308865e-02
9.300822646643215619e-02
8.989749992590566341e-02
8.579002800735428813e-02
8.070384484220156918e-02
7.466808998042080703e-02
6.772480914421695475e-02
5.994549311563737715e-02
5.140712544059156119e-02
4.221059746545301194e-02
3.247693005103786251e-02
2.233297126920013795e-02
1.193041451000762670e-02
1.428469059213299981e-03
-9.006636652517597402e-03
-1.919727333614104983e-02
-2.896515917348441507e-02
-3.813619280583098459e-02
-4.653880317303324410e-02
-5.400938008312079763e-02
-6.041036552806888782e-02
-6.561054854795277114e-02
-6.950972279471670512e-02
-7.204388058139510331e-02
-7.315928523096715264e-02
-7.286000407776400956e-02
-7.117500387001621243e-02
-6.815909222339341933e-02
-6.392605310637453075e-02
-5.860009244133008999e-02
-5.234325737891949715e-02
-4.534947879175968422e-02
-3.781836439460015131e-02
-2.997190732286725626e-02
-2.203870908237680684e-02
-1.424214915872019580e-02
-6.797115463681328851e-03
8.551143769156260149e-05
6.229315929253497093e-03
1.147874696900152286e-02
1.569614484895174439e-02
1.880175049586386635e-02
2.072903425814533185e-02
2.145300309403743930e-02
2.099719361154548519e-02
1.939514109860987837e-02
1.673138598111033326e-02
1.311242169169488624e-02
8.659304772967281807e-03
3.526284272681121795e-03
-2.127172533291905518e-03
-8.131499631636826542e-03
-1.430861608123040751e-02
-2.048167535247450918e-02
-2.648101514449160629e-02
-3.213929777681030775e-02
-3.730137060880957256e-02
-4.183190460259485211e-02
-4.560005202771448551e-02
-4.850340454816172431e-02
-5.045678241826020982e-02
-5.138631418025176034e-02
-5.125456712503498324e-02
-5.003237347281525027e-02
-4.771466662559777083e-02
-4.432455890636030627e-02
-3.989119574679472757e-02
-3.447495265292474520e-02
-2.814966583837604994e-02
-2.100022725695910308e-02
-1.313677447007797344e-02
-4.673799660350599905e-03
4.259914682382747592e-03
1.352352833850140393e-02
2.297408283335675497e-02
3.246028242713304424e-02
4.182836274460072223e-02
5.092628085582770470e-02
5.960479729312424813e-02
6.771620181945632588e-02
7.512638490540766989e-02
8.170948298690886014e-02
8.734779618546244240e-02
9.195014392576049411e-02
9.543153711072602241e-02
9.772989605014091585e-02
9.880994568176733328e-02
9.864303316119862886e-02
9.723645230625067859e-02
9.461301006234031086e-02
9.081012824857634391e-02
8.589864683297178394e-02
7.995530630779622283e-02
7.307806731707905401e-02
6.538280821679481880e-02
5.698919237216618083e-02
4.803233403441604932e-02
3.865198955352133758e-02
2.898908748296985180e-02
1.918646488145273055e-02
9.386315801006604037e-03
-2.779288018634681889e-04
-9.678154917020877213e-03
-1.869191592323616799e-02
-2.721520859614063800e-02
-3.514830220792029836e-02
-4.240628241537111598e-02
-4.892158282317915496e-02
-5.463059862172284231e-02
-5.949071398061782368e-02
-6.346837508497607527e-02
-6.653788183673949030e-02
-6.869149936029651793e-02
-6.992466974793647150e-02
-7.024430297196172790e-02
-6.966699908282247833e-02
-6.821194221737339469e-02
-6.590925457321121506e-02
-6.279240197753306607e-02
-5.889946073862613318e-02
-5.427602360532712833e-02
-4.896903383855437386e-02
-4.303249151651243609e-02
-3.652468112848002157e-02
-2.950668315993762100e-02
-2.204860712448416388e-02
-1.422264414956835032e-02
-6.107889915208363982e-03
2.208469845960680210e-03
1.063740715048499749e-02
1.908013793612019920e-02
2.743366610938323402e-02
3.559216073724996016e-02
4.344330982006423814e-02
5.087391102233071449e-02
5.777106082787265839e-02
6.402210839590073699e-02
6.951662066537724061e-02
7.415477710823328850e-02
7.784011256356171415e-02
8.048816473560853335e-02
8.203405547990377800e-02
8.241742712200283982e-02
8.160705226297039483e-02
7.958940252980999108e-02
7.636339711426402832e-02
7.196824637613859210e-02
6.645235796386764204e-02
5.989191942668534163e-02
5.239569121485669612e-02
4.407920290594874446e-02
3.509270243044546045e-02
2.560143726746508946e-02
1.578052378202093875e-02
5.827654590250467247e-03
-4.056068844210249796e-03
-1.366530755279405165e-02
-2.279113686266864142e-02
-3.122781797375635479e-02
-3.878546796682480480e-02
-4.527925154783314643e-02
-5.054442745550243032e-02
-5.444906449589125008e-02
-5.686880964872376154e-02
