BVP Green Neck Signal
-7.105917976041004058e-02
-7.590426713211999299e-02
-8.635415738890246662e-02
-9.727586800562154634e-02
-1.051418767976657065e-01
-1.102242176608605878e-01
-1.149418048294717221e-01
-1.202085623859798225e-01
-1.248916767466982103e-01
-1.276417135732981489e-01
-1.282896325635473900e-01
-1.279071892882258366e-01
-1.269592783957513016e-01
-1.250838236110301538e-01
-1.218779244066795497e-01
-1.173006516414542427e-01
-1.119913712808707495e-01
-1.062126376420996776e-01
-9.991566906426616046e-02
-9.314358122235640025e-02
-8.591907543876202424e-02
-7.864001320640351400e-02
-7.143372496571684382e-02
-6.432602455156263832e-02
-5.748240142278845943e-02
-5.088506721231300656e-02
-4.473398165949503402e-02
-3.902496822713832914e-02
-3.374863495281320291e-02
-2.901633096227929781e-02
-2.474654035167296595e-02
-2.093855866262485377e-02
-1.760867204112397111e-02
-1.465507263840105934e-02
-1.207607000700343380e-02
-9.855944908007480132e-03
-7.865343410368069721e-03
-6.168587835206240655e-03
-4.711184272052387767e-03
-3.409904083584977541e-03
-2.402455250791649122e-03
-1.547988688913870536e-03
-9.536644938010346850e-04
-7.167985303250107298e-04
-6.929745813250010045e-04
-1.170296240015744615e-03
-2.058302772236439426e-03
-3.441202801061804539e-03
-5.558925383457202773e-03
-8.188763031332160769e-03
-1.166792679759252882e-02
-1.593972026995929547e-02
-2.097686254266080408e-02
-2.706316198098972226e-02
-3.388521148662286542e-02
-4.169836062898755330e-02
-5.044473893909236922e-02
-5.994728012185680799e-02
-7.042822215675365038e-02
-8.153913438501830813e-02
-9.336620146748743354e-02
-1.058569907144614880e-01
-1.187303657790968470e-01
-1.320815343685539378e-01
-1.456450980576199372e-01
-1.593032545412432777e-01
-1.730367918581770803e-01
-1.865462366603247435e-01
-1.997587020022464355e-01
-2.125918237033449787e-01
-2.247227493792362529e-01
-2.361654580922016855e-01
-2.466795188376630088e-01
-2.560136735442121170e-01
-2.642962663622376862e-01
-2.710607929856709841e-01
-2.763356186512340162e-01
-2.800090149613926327e-01
-2.817197656421697172e-01
-2.817712091262200014e-01
-2.797114241958912340e-01
-2.755871569495511597e-01
-2.694836489686089909e-01
-2.610887179097872712e-01
-2.508118476595805335e-01
-2.384319551534270776e-01
-2.240466143803117871e-01
-2.079725044472632567e-01
-1.901205164489619959e-01
-1.708999805326792132e-01
-1.504781928078397779e-01
-1.290013638262098861e-01
-1.069538156989312400e-01
-8.451596001393048285e-02
-6.197593217073485428e-02
-3.983306198644630258e-02
-1.820393054369456864e-02
2.434117685508108142e-03
2.175259687222609595e-02
3.971030178349518880e-02
5.570443672096000998e-02
6.976693922684207294e-02
8.162298964595729456e-02
9.098911510234905520e-02
9.812936614796266555e-02
1.025818491673572974e-01
1.045836263746020844e-01
1.041555869965161141e-01
1.011891438663805598e-01
9.617042385055293852e-02
8.890943090023181727e-02
7.977544474016448617e-02
6.902147316982021330e-02
5.672187342983256442e-02
4.337881195025058978e-02
2.906609780235795693e-02
1.412559184060416251e-02
-1.125390085351188341e-03
-1.649937915552332490e-02
-3.169655757999525342e-02
-4.647231243385619576e-02
-6.065113910193034585e-02
-7.402095557081256327e-02
-8.635822075405978626e-02
-9.767957009848370065e-02
-1.076836440243367082e-01
-1.164003195928643708e-01
-1.238096466922769257e-01
-1.296996791472616040e-01
-1.343630150390038303e-01
-1.375332082805494349e-01
-1.393823206767459133e-01
-1.400598166276047218e-01
-1.393915207061613426e-01
-1.377951445182008239e-01
-1.350943915206119506e-01
-1.315033074883966702e-01
-1.272463562292702743e-01
-1.222146731573159339e-01
-1.167866709328587993e-01
-1.108948332178880669e-01
-1.047237993894861302e-01
-9.846664415566389050e-02
-9.210736013374742903e-02
-8.588078608094379396e-02
-7.981028212293166113e-02
-7.402936645219221345e-02
-6.862288282841728926e-02
-6.367461739000281062e-02
-5.924889535177366162e-02
-5.540876708471408063e-02
-5.224551333574531387e-02
-4.969682151839875661e-02
-4.791664981244470045e-02
-4.682437796038536881e-02
-4.645303789381223514e-02
-4.686880060876756626e-02
-4.786165668284825953e-02
-4.960703229791541685e-02
-5.194061274556870805e-02
-5.481865109372510703e-02
-5.831044908530743504e-02
-6.211232984198246376e-02
-6.638857282400353887e-02
-7.098032468045305243e-02
-7.577646464433186735e-02
-8.087931526197772447e-02
-8.599573006345041792e-02
-9.126111403148726153e-02
-9.660214967653238394e-02
-1.018925886224624489e-01
-1.072579532489695980e-01
-1.125273808612317628e-01
-1.177709605467466281e-01
-1.230180507725965600e-01
-1.281778800438383714e-01
-1.333230769214026334e-01
-1.384502899780422625e-01
-1.435067122654954952e-01
-1.485506138971589285e-01
-1.535404306486597981e-01
-1.583908030919982668e-01
-1.632087458198394070e-01
-1.677958697408332700e-01
-1.721283965501875790e-01
-1.762063033342469165e-01
-1.797481868492424584e-01
-1.828839253235377549e-01
-1.853321893783003438e-01
-1.869507095608286817e-01
-1.877921911636881713e-01
-1.874813794059481120e-01
-1.861328251422116331e-01
-1.835323341056960267e-01
-1.795068194396282624e-01
-1.742025518184160404e-01
-1.673546190474047846e-01
-1.590951646365033889e-01
-1.494343916502069158e-01
-1.383146329971352007e-01
-1.260044739025408256e-01
-1.125163837358763019e-01
-9.803424071436214748e-02
-8.283908032995040971e-02
-6.705171907595175451e-02
-5.100687242679769612e-02
-3.498945624565182044e-02
-1.917625950540488566e-02
-3.997426676089904651e-03
1.034525321663257169e-02
2.360736600309967792e-02
3.540676287622959717e-02
4.571764764024299765e-02
5.417849948186295728e-02
6.068323278163886836e-02
6.524073900395793713e-02
6.757477653519106120e-02
6.790920514736861757e-02
6.611323755937845159e-02
6.226418948523049224e-02
5.665266951766997905e-02
4.918853669017733687e-02
4.026912791430239946e-02
2.999675510446467297e-02
1.854897639431433987e-02
6.340930134084113434e-03
-6.586541613516849747e-03
-1.988513929265360580e-02
-3.333637954744652493e-02
-4.681525844543395903e-02
-6.001375514542729717e-02
-7.282952271481396567e-02
-8.515480207881216679e-02
-9.676755156764807464e-02
-1.076554197463647083e-01
-1.177586724087224535e-01
-1.269093860232660687e-01
-1.352580201881223854e-01
-1.426205520256434156e-01
-1.490246969111468089e-01
-1.546380313319993816e-01
-1.591924027392180863e-01
-1.629598033516689859e-01
-1.657947557851153220e-01
-1.676685288237264593e-01
-1.688516863627988474e-01
-1.690150109934004941e-01
-1.684023842723407771e-01
-1.669257877792920675e-01
-1.645041872391144744e-01
-1.613927541452676029e-01
-1.573400136730982446e-01
-1.525095261599737906e-01
-1.469112747366090876e-01
-1.405158613849320781e-01
-1.335047289229357448e-01
-1.258470448480881465e-01
-1.176584121844165554e-01
-1.090595316742871412e-01
-1.001634576915628738e-01
-9.106482902864825035e-02
-8.197870423630815306e-02
-7.300146848738368888e-02
-6.430953689773022397e-02
-5.612843759449766268e-02
-4.846263176774120995e-02
-4.163537062047695247e-02
-3.568942208346645439e-02
-3.075017308012771566e-02
-2.701977118564386632e-02
-2.438669107079709936e-02
-2.309710816942386891e-02
-2.307334116335781754e-02
-2.431061556819493624e-02
-2.686009103965925765e-02
-3.050147499662948097e-02
-3.529876954260834088e-02
-4.104477096947060227e-02
-4.761730205110011743e-02
-5.489396484684768568e-02
-6.262273527725406574e-02
-7.070550739663913897e-02
-7.888655770061314687e-02
-8.701787815118747216e-02
-9.488696874767935108e-02
-1.023263114830128828e-01
-1.091767614658882418e-01
-1.152567806255859473e-01
-1.204957743808204862e-01
-1.247109510823553313e-01
-1.279016504587247860e-01
-1.299514889600174861e-01
-1.308351810135651161e-01
-1.306050977461172269e-01
-1.291902501445853502e-01
-1.267494988525053878e-01
-1.232626111534975144e-01
-1.188571782375900387e-01
-1.136737146239663043e-01
-1.077708333964163823e-01
-1.013759097657645492e-01
-9.455810934015770886e-02
-8.752477953412625411e-02
-8.041419902783565610e-02
-7.337952609273913629e-02
-6.659505954433440900e-02
-6.016783206850759291e-02
-5.429157906298107128e-02
-4.900817995586713438e-02
-4.450491771850464268e-02
-4.081857828758522766e-02
-3.802921609047179435e-02
-3.625239076695429413e-02
-3.538988911961058609e-02
-3.560106722225398618e-02
-3.677874268044886708e-02
-3.892917543095692628e-02
-4.207052767013161332e-02
-4.599899473563300728e-02
-5.079494365890820096e-02
-5.627478096307382549e-02
-6.236723914305325467e-02
-6.900855441529332723e-02
-7.599444718053977033e-02
-8.329590863631743114e-02
-9.075244097646067987e-02
-9.825743712247278494e-02
-1.056865344870708823e-01
-1.129556154444746885e-01
-1.199148172277273994e-01
-1.264927254535925250e-01
-1.326048058309592381e-01
-1.380702130919216897e-01
-1.429886345170213735e-01
-1.471023661254526882e-01
-1.504283400526591485e-01
-1.529473856944085775e-01
-1.544286301154153551e-01
-1.551290492727156745e-01
-1.547431607017635824e-01
-1.533331758316933136e-01
-1.509627825129201406e-01
-1.474046827299328732e-01
-1.429633297053463370e-01
-1.374120977086753237e-01
-1.308208200829706624e-01
-1.233282213482984058e-01
-1.148178142935152440e-01
-1.055257422080172897e-01
-9.543805137423402862e-02
-8.463802521919289168e-02
-7.330543305997591630e-02
-6.154061527612689209e-02
-4.945045885438192901e-02
-3.727710480988245118e-02
-2.514621711608749227e-02
-1.321238579842037852e-02
-1.817366851597848609e-03
9.079482209656333791e-03
1.906260327120148923e-02
2.796828118897311255e-02
3.574930208002878584e-02
4.192669063694282050e-02
4.667762315708767762e-02
4.959810611670670277e-02
5.055165331412253549e-02
4.965997260963458948e-02
4.651491175842445425e-02
4.140048679252673891e-02
3.412743729660638881e-02
2.468719942197981909e-02
1.336679789512444649e-02
3.995616271505741945e-05
-1.496234452430841855e-02
-3.150666700747110915e-02
-4.941436920901422225e-02
-6.833016224615112710e-02
-8.800877537016990604e-02
-1.081707723221313894e-01
-1.284139837948782281e-01
-1.484149122134352794e-01
-1.679049703706072538e-01
-1.863582248216397452e-01
-2.036535393024059837e-01
-2.193064273905292738e-01
-2.329891282670074892e-01
-2.446490156375778213e-01
-2.537163018629045030e-01
-2.602965820013107834e-01
-2.640470208673717512e-01
-2.648158308800930283e-01
-2.628031475616165458e-01
-2.576724445816208076e-01
-2.497559449939206477e-01
-2.390116649811818983e-01
-2.255933822998495153e-01
-2.098873289415668919e-01
-1.919722433989789756e-01
-1.723259284575844319e-01
-1.512298771241137318e-01
-1.291262817876852875e-01
-1.064419902722975320e-01
-8.364092320928094570e-02
-6.117422575568599863e-02
-3.950585969539468362e-02
-1.915331582914517328e-02
-3.954659814383587602e-04
1.617883273495293595e-02
3.037775048172486336e-02
4.180402382044462462e-02
5.018963666463274742e-02
5.556313794760964209e-02
5.756031370983066831e-02
5.642340681741145336e-02
5.203903112322313951e-02
4.461693104884995043e-02
3.451971065571854402e-02
2.181850388355241477e-02
7.150693529110990765e-03
-9.279605827229864268e-03
-2.685279127991366949e-02
-4.505681118491449560e-02
-6.347607595155063676e-02
-8.139705056446538967e-02
-9.849725031681759446e-02
-1.141208584894328193e-01
-1.279401731875036974e-01
-1.395222455699605679e-01
-1.485095382263178221e-01
-1.547414509261564874e-01
-1.579472645563125832e-01
-1.582175389238367758e-01
-1.554108138773634129e-01
-1.497493113780341556e-01
-1.413650451981486866e-01
-1.305177163999210188e-01
-1.176794133112472052e-01
-1.030498576462425681e-01
-8.728035377416930307e-02
-7.068847818880147349e-02
-5.384877361200788443e-02
-3.732120251311858011e-02
-2.144592830738129702e-02
-6.883136164020114967e-03
6.111751757873720714e-03
1.704597383140576961e-02
2.562882009948823370e-02
3.165199228163767531e-02
3.484938047935766392e-02
3.523275408665940689e-02
3.269062276331233252e-02
2.738090987698033052e-02
1.937932340768504236e-02
8.933802170079094274e-03
-3.659425379426761715e-03
-1.811308986116025310e-02
-3.394343065402338766e-02
-5.084824674017824481e-02
-6.829522867043591461e-02
-8.588340930635246506e-02
-1.031742494611429944e-01
-1.196897212225359330e-01
-1.351019758039191387e-01
-1.489925598362618342e-01
-1.610818316150967600e-01
-1.710960115684164173e-01
-1.788535599917597252e-01
-1.841809139254638183e-01
-1.870635703571014719e-01
-1.874425864925516327e-01
-1.853955780010506094e-01
-1.811081929862396467e-01
-1.746202264003116067e-01
-1.663588768542914875e-01
-1.564263105354962713e-01
-1.452444652888465193e-01
-1.332234899812158591e-01
-1.205597546757690292e-01
-1.079269553997774245e-01
-9.544395244613106122e-02
-8.369712300079845679e-02
-7.306793925507570897e-02
-6.377174916443298369e-02
-5.639583929226917730e-02
-5.093379400534569362e-02
-4.784437721875203081e-02
-4.723841933785811326e-02
-4.918899162147846726e-02
-5.386659181821823461e-02
-6.108381690318316626e-02
-7.089038571045734594e-02
-8.301910781790446114e-02
-9.731922271551454728e-02
-1.133841525519387466e-01
-1.309467269382840193e-01
-1.495434508146348818e-01
-1.686415385221728402e-01
-1.879614258286549933e-01
-2.066411243153916666e-01
-2.245802767063456717e-01
-2.409666569754922161e-01
-2.552933559876774394e-01
-2.673949441408940975e-01
-2.763044121544423470e-01
-2.823280624956946983e-01
-2.846560379798832585e-01
-2.830964273087085425e-01
-2.778220455222687457e-01
-2.681482356685174762e-01
-2.548199124571550733e-01
-2.373834752022276062e-01
-2.160627577355561102e-01
-1.914083630104544964e-01
-1.632697557257322130e-01
-1.325428831636012994e-01
-9.936191378086325909e-02
-6.421602358100821084e-02
-2.784499161848679599e-02
9.359466897341586766e-03
4.674308714454014635e-02
8.363968194507384601e-02
1.195565893540807834e-01
1.538808659627076969e-01
1.858623759607518355e-01
2.153833349979478728e-01
2.415236654001283179e-01
2.640012337231369965e-01
2.826063532197254369e-01
2.965046260732532302e-01
3.061701447149018374e-01
3.107992165782341720e-01
3.104017531006297848e-01
3.052871452216905368e-01
2.948223216127685009e-01
2.798847243859952094e-01
2.601198436844516793e-01
2.357894974736191585e-01
2.076410746447482913e-01
1.754675709413439089e-01
1.402219500533720686e-01
1.021652293294173230e-01
6.169308317946964326e-02
1.973823630071440405e-02
-2.340376159813168516e-02
-6.704928984190405838e-02
-1.104130755171940925e-01
-1.531333740336132954e-01
-1.944410402849554576e-01
-2.336689261684210539e-01
-2.706585521278993545e-01
-3.044249603445180474e-01
-3.348139892158807362e-01
-3.615191152255790019e-01
-3.837901391777491789e-01
-4.020552639443170095e-01
-4.155187776081235573e-01
-4.243331038652353726e-01
-4.287339357746671187e-01
-4.281968153865912674e-01
-4.235541986386790470e-01
-4.144554043597282189e-01
-4.013376954174447397e-01
-3.847794514047461201e-01
-3.646925065471565697e-01
-3.419645077182309478e-01
-3.167188595614125468e-01
-2.895641791490379258e-01
-2.610542842120982532e-01
-2.315939684256992370e-01
-2.017847316662252366e-01
-1.720664459459954609e-01
-1.430745132527989349e-01
-1.150240979489460386e-01
-8.870270885485830037e-02
-6.425139163756241056e-02
-4.219723118760854152e-02
-2.304592836905814540e-02
-6.591586310516719949e-03
6.276103793776757755e-03
1.585964577461948521e-02
2.174850082765332482e-02
2.377015588633300813e-02
2.239075325077946599e-02
1.702671903770405781e-02
8.313439560731203382e-03
-3.921296069989199662e-03
-1.928711309561112475e-02
-3.733343663794353590e-02
-5.796807453003005595e-02
-8.034756333490269964e-02
-1.044062898185941363e-01
-1.290952638345287395e-01
-1.542215710715297283e-01
-1.789406543303224406e-01
-2.023708261608930803e-01
-2.243563584286712709e-01
-2.434477034162454145e-01
-2.598276753490292301e-01
-2.723034996057750456e-01
-2.802403360007611477e-01
-2.836555094189742166e-01
-2.813440587699733153e-01
-2.738496814134564472e-01
-2.603909435280378215e-01
-2.409189271045418801e-01
-2.158596479942579693e-01
-1.849313356403025632e-01
-1.489895785571995201e-01
-1.082197773473710656e-01
-6.333749788104887923e-02
-1.517897792912284438e-02
3.537542563963047559e-02
8.736929109220387124e-02
1.396860751707244552e-01
1.911084180584272652e-01
2.407434966870121706e-01
2.870055682392347318e-01
3.292847018262108350e-01
3.661879038622844473e-01
3.966853572890727264e-01
4.204119141268774507e-01
4.359862065770058748e-01
4.436408470790368930e-01
4.425618516420106174e-01
4.325836803499381600e-01
4.142952008784188678e-01
3.872589724548661794e-01
3.526704318928625126e-01
3.107644842897902548e-01
2.623419009328793461e-01
2.088159900507326472e-01
1.507494779985012467e-01
8.975931126070169075e-02
2.691089562670234692e-02
-3.665571650766082101e-02
-9.941525238655507524e-02
-1.603822191472791259e-01
-2.184728704899842333e-01
-2.724555270105814553e-01
-3.217150563757630310e-01
-3.654349161378466770e-01
-4.028503918747194934e-01
-4.340884823325309450e-01
-4.583129622209639598e-01
-4.758233660440143176e-01
-4.868590985879223676e-01
-4.910903273092536159e-01
-4.897502380112757625e-01
-4.825423337916705524e-01
-4.703522666519072137e-01
-4.541762647493741145e-01
-4.339255124605109759e-01
-4.111749688553960613e-01
-3.859970820460153496e-01
-3.591873604568555645e-01
-3.318464583161819803e-01
-3.038872545540495240e-01
-2.763756272288199201e-01
-2.495368211188061236e-01
-2.236161139788278296e-01
-1.992671741052693957e-01
-1.763941538200350934e-01
-1.551554151301038353e-01
-1.358308369674312288e-01
-1.181503645284245063e-01
-1.021525151773159945e-01
-8.791493914921211239e-02
-7.487305426229592942e-02
-6.335912041809521611e-02
-5.296295203355455561e-02
-4.329209194414098544e-02
-3.474473372930942522e-02
-2.652634960462440378e-02
-1.901315119261548503e-02
-1.201412805272958351e-02
-5.010102595844403983e-03
1.331688390678667511e-03
7.620525857471943665e-03
1.350869845135831138e-02
1.886941725117086133e-02
2.414263668514603223e-02
2.861877439274657098e-02
3.259168013438067113e-02
3.584514390864627920e-02
3.809835709895369182e-02
3.962848902807547535e-02
3.996079870821954427e-02
3.916572766500789338e-02
3.721118772467817137e-02
3.389108824003442266e-02
2.936769278204634515e-02
2.351518689293248532e-02
1.635826284371985628e-02
8.018035187316266410e-03
-1.471692503802579655e-03
-1.202369199272997069e-02
-2.342743219730827192e-02
-3.558755526773967059e-02
-4.831728126515237587e-02
-6.130881564954623192e-02
-7.454872375230994774e-02
-8.760138604533976303e-02
-1.002970204539983534e-01
-1.124852016867841364e-01
-1.236910815534476293e-01
-1.339987428363166588e-01
-1.429260924353086826e-01
-1.503255233042833927e-01
-1.561629417939301712e-01
-1.600099987607914720e-01
-1.620683118264881206e-01
-1.620079078488620428e-01
-1.598445302136189961e-01
-1.556840089792825843e-01
-1.493778284964503711e-01
-1.412277771917517799e-01
-1.311906657865983539e-01
-1.195422172271652095e-01
-1.064647075275913096e-01
-9.221961069761291929e-02
-7.713040050766506450e-02
-6.143226456108034916e-02
-4.563633417465718517e-02
-2.986396316610119561e-02
-1.472716870284555835e-02
-4.477560245458866994e-04
1.261993443653962321e-02
2.389239579536603375e-02
3.345142203664262792e-02
4.058264254848151231e-02
4.528285096887194050e-02
4.731101984797975168e-02
4.625625602590877072e-02
4.245531376000361012e-02
3.542493142873026635e-02
2.542046243893428259e-02
1.248563890428208700e-02
-3.408787497606244332e-03
-2.177575937349571916e-02
-4.260837390171607481e-02
-6.547070800373146204e-02
-9.002346372521896622e-02
-1.158453096253839326e-01
-1.425265315113931619e-01
-1.695063336612029903e-01
-1.963368870977736935e-01
-2.225385279741165512e-01
-2.473550515770741587e-01
-2.706985932818670726e-01
-2.916330043836640740e-01
-3.098989570326693421e-01
-3.251339445446200793e-01
-3.365270506620558488e-01
-3.444617529357687502e-01
-3.479988830859920279e-01
-3.472240190299785145e-01
-3.421351572556982634e-01
-3.322051112540498341e-01
-3.182503923517733813e-01
-2.997388160132590240e-01
-2.771225146189928989e-01
-2.508483090051135678e-01
-2.209014315005935758e-01
-1.882640897328319018e-01
-1.530520989932738218e-01
-1.159103647614091182e-01
-7.757877758081418995e-02
-3.853868218557576775e-02
4.884343457097622965e-04
3.879270357452714590e-02
7.585113713696950422e-02
1.109656792780348566e-01
1.434225240140499513e-01
1.730719380039498212e-01
1.989659618885349923e-01
2.209585165819336061e-01
2.387116700012260062e-01
2.516092054118306831e-01
2.601356145967750333e-01
2.635228879774407229e-01
2.620677076670772099e-01
2.559380708331256415e-01
2.448465039840584945e-01
2.297200921242692484e-01
2.102589070032330754e-01
1.870605917389132622e-01
1.607313618762338248e-01
1.313628553000028287e-01
9.996846633172953855e-02
6.677743377240408229e-02
3.240182505288415060e-02
-2.360597938884836933e-03
-3.717231846650156241e-02
-7.132934561620862812e-02
-1.042479365688037396e-01
-1.356170331585326849e-01
-1.647863870434720379e-01
-1.914104019463272466e-01
-2.153873122505424731e-01
-2.360880791358174746e-01
-2.536879874405036928e-01
-2.679563725449324307e-01
-2.787221075849791729e-01
-2.865130899463097514e-01
-2.908992898670821892e-01
-2.924498792246653656e-01
-2.913788686870945610e-01
-2.876812760536320290e-01
-2.822109865642878912e-01
-2.747793628745470729e-01
-2.660097562017566530e-01
-2.563231519178950091e-01
-2.457347836478172842e-01
-2.349617131907050516e-01
-2.239587272633011827e-01
-2.130638690425168680e-01
-2.025978456129326477e-01
-1.925036931631488590e-01
-1.830440238211049064e-01
-1.742381893387482117e-01
-1.660501082212054724e-01
-1.585466495153606825e-01
-1.516736685711461141e-01
-1.452495092303133506e-01
-1.393731091285949353e-01
-1.338227505712639154e-01
-1.284703169678580170e-01
-1.234203708150644896e-01
-1.182971611581804250e-01
-1.133148817959727661e-01
-1.083216499875365169e-01
-1.031371087038189666e-01
-9.807878418821322497e-02
-9.282033092767431881e-02
-8.764924380975457063e-02
-8.258639181928825734e-02
-7.748028586760498382e-02
-7.274924161972690095e-02
-6.819425710885720915e-02
-6.406632184625601911e-02
-6.047594903685924589e-02
-5.729426489257345018e-02
-5.485984833779494751e-02
-5.304052285335605910e-02
-5.196500281793566683e-02
-5.168573757976743094e-02
-5.207820827443937484e-02
-5.328487889655729448e-02
-5.516621250057099357e-02
-5.773692724212783900e-02
-6.090209790224731384e-02
-6.458177920070592992e-02
-6.871033165983593538e-02
-7.312917426764684037e-02
-7.782198054287192690e-02
-8.254128599214985429e-02
-8.731961377228683596e-02
-9.193923730909170366e-02
-9.624830415826371444e-02
-1.002852090667268187e-01
-1.036901499805541194e-01
-1.066391890573596124e-01
-1.088413280826238672e-01
-1.101719136416751121e-01
-1.107659957203167150e-01
-1.102162271784274394e-01
-1.088115197685576990e-01
-1.062769740809983154e-01
-1.025277587974216253e-01
-9.779277123108952308e-02
-9.171538300590545423e-02
-8.463081103408515160e-02
-7.638198932622922155e-02
-6.695215942302110146e-02
-5.663785403338482405e-02
-4.525224814818774866e-02
-3.311908862528470388e-02
-2.027523483264323523e-02
-6.807957119744342811e-03
6.966472584679195279e-03
2.099499635209731152e-02
3.501009565833124171e-02
4.879611832260030702e-02
6.216942374098705093e-02
7.487565245431909711e-02
8.666927477994429418e-02
9.739181822246703590e-02
1.067739106420600714e-01
1.146150465694019682e-01
1.208277260511207152e-01
1.251271112281388542e-01
1.275252037783477232e-01
1.278751691662081691e-01
1.260673087836900741e-01
1.222663649392506935e-01
1.163052117604034263e-01
1.083895972670752550e-01
9.861617177126857925e-02
8.699811025602460779e-02
7.395637068708560413e-02
5.947850023993600521e-02
4.388531129436404332e-02
2.750582004287971394e-02
1.036483754217429332e-02
-6.961944651565230013e-03
-2.444491028774464780e-02
-4.182497214844355105e-02
-5.866281615808756345e-02
-7.511937778770845509e-02
-9.062369971929616630e-02
-1.052683955980476260e-01
-1.190355373413277129e-01
-1.315148523056299534e-01
-1.431835576217220241e-01
-1.536051404604396042e-01
-1.630631839046657872e-01
-1.718328766573439526e-01
-1.795957517812256654e-01
-1.870708732663358131e-01
-1.939843163456822506e-01
-2.007022662450176631e-01
-2.076528746334395659e-01
-2.145723916066671066e-01
-2.221413261442407860e-01
-2.301793849747824083e-01
-2.389088312626501120e-01
-2.486511811358104729e-01
-2.591248267609592704e-01
-2.706416716370525499e-01
-2.830320391237141076e-01
-2.961851866407827494e-01
-3.101073428824734357e-01
-3.244903200058408821e-01
-3.391047725688253189e-01
-3.538021967333856432e-01
-3.681289315650054794e-01
-3.817703836084513913e-01
-3.945121317160685814e-01
-4.056851887666015344e-01
-4.152915749581392868e-01
-4.227471608724126528e-01
-4.276122797042934409e-01
-4.299783963439061663e-01
-4.290346201162487660e-01
-4.250972273106895516e-01
-4.177609531762605521e-01
-4.066955826714173106e-01
-3.924595859155292077e-01
-3.743903574503992249e-01
-3.531493087484299243e-01
-3.287224881722782266e-01
-3.009655310117517746e-01
-2.708541654066259907e-01
-2.379957576919188855e-01
-2.031746925655919245e-01
-1.667773896732153704e-01
-1.287137681768855679e-01
-9.009149887074120733e-02
-5.075840524349557042e-02
-1.125796365524464604e-02
2.775540817884361577e-02
6.647644700061700052e-02
1.040049515629161980e-01
1.402771832633449567e-01
1.752164463059416866e-01
2.080384915300055870e-01
2.390278233773570626e-01
2.676816175432245593e-01
2.936818577248845319e-01
3.173602070946102693e-01
3.379243107876768737e-01
3.555889710663980852e-01
3.702650461035230656e-01
3.814029787411145067e-01
3.895198803500631302e-01
3.939955843831013382e-01
3.948713617388622255e-01
3.924276482446696357e-01
3.860853176917704577e-01
3.763713503192397392e-01
3.630825053922351331e-01
3.461503779747793774e-01
3.261874637474735938e-01
3.028800972596210062e-01
2.766939714685519025e-01
2.480013754561933847e-01
2.167351006063701901e-01
1.837364222210038922e-01
1.491009830776698630e-01
1.131460822499799623e-01
7.672396931509969931e-02
3.974202960680330021e-02
3.027785070470564999e-03
-3.303928815370735239e-02
-6.845947289374559874e-02
-1.022155545829683682e-01
-1.345696936170672209e-01
-1.650036008196012483e-01
-1.930917100849591783e-01
-2.192802970190531331e-01
-2.427033228899704020e-01
-2.638442638077626023e-01
-2.826632795479714355e-01
-2.987989255642523601e-01
-3.130623285851446003e-01
-3.248847134864301101e-01
-3.347913843816279766e-01
-3.431710766524444511e-01
-3.496502137148769229e-01
-3.550991194393406936e-01
-3.592278335877270301e-01
-3.622871666759005516e-01
-3.648735022445052101e-01
-3.664820050534246532e-01
-3.676731701745430403e-01
-3.683523413028688687e-01
-3.682846731054837397e-01
-3.680024833007446428e-01
-3.668908335767501194e-01
-3.649947107162145876e-01
-3.623567145662122679e-01
-3.583654945781686862e-01
-3.532884582822482522e-01
-3.466594830390581916e-01
-3.381125043668449237e-01
-3.278360363753284323e-01
-3.152674768482304213e-01
-3.004051826836721117e-01
-2.832803083435820324e-01
-2.634836736324293049e-01
-2.413863397307192127e-01
-2.169601771930366463e-01
-1.900919995088786174e-01
-1.614928037099459812e-01
-1.310764765334926918e-01
-9.937609623468679487e-02
-6.708921327686258318e-02
-3.413614151296064797e-02
-1.745934942611715446e-03
2.978817608983855281e-02
5.990811820904193286e-02
8.751044592791210053e-02
1.126581831401385070e-01
1.341068444178677710e-01
1.515397759732935168e-01
1.646018800512357438e-01
1.724860887978488799e-01
1.754275965883058119e-01
1.727555003911136478e-01
1.646655048430676338e-01
1.511963506144949621e-01
1.324713767608867721e-01
1.090774315372204095e-01
8.122639207678533646e-02
4.989467071107581142e-02
1.550434868377141562e-02
-2.080630394893985546e-02
-5.818773159373684389e-02
-9.575232232452039749e-02
-1.320769990173516206e-01
-1.666573726524742116e-01
-1.979584466627552219e-01
-2.253288807416918837e-01
-2.478504759731064711e-01
-2.644889524621515386e-01
-2.751290478091246161e-01
-2.788003469227068321e-01
-2.756230118223708114e-01
-2.653176645531470923e-01
-2.479987368195873676e-01
-2.242248361867806017e-01
-1.942180734049483437e-01
-1.590390400931969150e-01
-1.192413624642828934e-01
-7.613316898711569580e-02
-3.070001572499048842e-02
1.582263704261203940e-02
6.197965257688678453e-02
1.068430256007031620e-01
1.486991457391479143e-01
1.868596983412901813e-01
2.199063855470941853e-01
2.469430674735178521e-01
2.674179090878348042e-01
2.802445880066580242e-01
2.856865509586944407e-01
2.829623094388979410e-01
2.723474712506165352e-01
2.541055354665252008e-01
2.282808906409913852e-01
1.960969698866659172e-01
1.576786913400678170e-01
1.142499717637200651e-01
6.672578819473190537e-02
1.599621773534661007e-02
-3.645512856872436952e-02
-8.986853879833860137e-02
-1.429312262657064792e-01
-1.946306184622566549e-01
-2.439200901873050942e-01
-2.899636682572920288e-01
-3.317990261457602341e-01
-3.688501335106950108e-01
-4.005140879829708900e-01
-4.261173189040223797e-01
-4.459580980228851077e-01
-4.591763608618001924e-01
-4.661835861295112182e-01
-4.669795395810831251e-01
-4.614105074194436718e-01
-4.506541187482581701e-01
-4.341864733654395292e-01
-4.130289055311518465e-01
-3.876772175164802658e-01
-3.583437240088466202e-01
-3.264432071401902058e-01
-2.918897243137997810e-01
-2.557025546410898187e-01
-2.186039182401702252e-01
-1.809470494614184299e-01
-1.437451391280204771e-01
-1.073265699957770269e-01
-7.223622721743006014e-02
-3.911748681654283327e-02
-8.296749547181458961e-03
1.996500570605491687e-02
4.508961883949297311e-02
6.715671950528534495e-02
8.583821337134966978e-02
1.009204345397519964e-01
1.128735318274557420e-01
1.211117858026858618e-01
1.261816362900425592e-01
1.281475937249193509e-01
1.269132641530235639e-01
1.233640458446896293e-01
1.170951546477874694e-01
1.087839024393855436e-01
9.877926607754261568e-02
8.704068393867328557e-02
7.444238306155953611e-02
6.081880983926665762e-02
4.664802003140905429e-02
3.235675106136037815e-02
1.788853844462580389e-02
3.780185808709105033e-03
-9.936776788916870662e-03
-2.315509753299485607e-02
-3.554289389234399632e-02
-4.719705521511452506e-02
-5.802136932766108895e-02
-6.785839419028623365e-02
-7.693717576719108497e-02
-8.508370965274249242e-02
-9.239698743283179805e-02
-9.911638450343991658e-02
-1.050165582779485351e-01
-1.104848310518952575e-01
-1.154811024557367283e-01
-1.200376526212719730e-01
-1.245319167154998879e-01
-1.287181955960240431e-01
-1.329308179965681402e-01
-1.372218424896053113e-01
-1.414926016524392649e-01
-1.460794328298805067e-01
-1.507558595230433784e-01
-1.556344741762021866e-01
-1.608359575168087918e-01
-1.660851821405998074e-01
-1.715669334354411601e-01
-1.771037852031826509e-01
-1.825057480360904594e-01
-1.879586213083895285e-01
-1.930165506917039531e-01
-1.976885651867221205e-01
-2.018800135864362300e-01
-2.051445496280005776e-01
-2.077347600427018603e-01
-2.091335836085844446e-01
-2.092339821684673640e-01
-2.080689453603859485e-01
-2.051178884546945302e-01
-2.006876115748567613e-01
-1.943864388807212129e-01
-1.861121231585526337e-01
-1.760666529525422297e-01
-1.639176080256466717e-01
-1.499885338810121593e-01
-1.342316715619429335e-01
-1.166721992866200097e-01
-9.767778853863139099e-02
-7.731294669785510054e-02
-5.584680317559898022e-02
-3.368016938661765741e-02
-1.100172924973646937e-02
1.174405997664096368e-02
3.409267052285952504e-02
5.590383136798987573e-02
7.647045320983927863e-02
9.553599259799414045e-02
1.127567369222794436e-01
1.274950858174187796e-01
1.398474400129590678e-01
1.491237773382058651e-01
1.552013980227797685e-01
1.580452101664516495e-01
1.571735039399828338e-01
1.530113176193233782e-01
1.452098698590975068e-01
1.339350508660505923e-01
1.195713808231676500e-01
1.019980288525774714e-01
8.191940820634729947e-02
5.945222332753893890e-02
3.498692584774819314e-02
9.222046123693455888e-03
-1.766692595659120901e-02
-4.496243241745284669e-02
-7.222773428444463628e-02
-9.913751023160657927e-02
-1.249921255139185283e-01
-1.495731878499429179e-01
-1.725241893129731974e-01
-1.933711989961009459e-01
-2.121422862717487479e-01
-2.284730591529113564e-01
-2.422826369323515527e-01
-2.537880206641065506e-01
-2.626688861706132361e-01
-2.693088453475490640e-01
-2.738143726418905688e-01
-2.761642304102263079e-01
-2.770103895949931339e-01
-2.761830975957567658e-01
-2.740937271264997088e-01
-2.711937090709868325e-01
-2.672796773799130943e-01
-2.630361125950720913e-01
-2.583451556816875883e-01
-2.532488779942193569e-01
-2.482856443060281193e-01
-2.429360819190010401e-01
-2.375440997455599557e-01
-2.320109701713463368e-01
-2.258835154624384001e-01
-2.195925763853795731e-01
-2.124686779184887520e-01
-2.044384100194680531e-01
-1.955245650313705563e-01
-1.850574846604815527e-01
-1.733356979792554375e-01
-1.599402435688214164e-01
-1.446199638626479711e-01
-1.276678884609216691e-01
-1.086848641095915363e-01
-8.790916946157879830e-02
-6.552784705260583653e-02
-4.142282792839686867e-02
-1.617781200970105915e-02
1.000801759717116768e-02
3.696478376129963550e-02
6.385941656159702107e-02
9.058550351338345852e-02
1.164819603215916377e-01
1.408210207785215995e-01
1.636786099683924245e-01
1.838968904275292693e-01
2.013385448989341575e-01
2.156195036079047722e-01
2.258663576784397664e-01
2.326061709109235043e-01
2.348220754583102976e-01
2.326009419661860256e-01
2.260815566883234706e-01
2.146477848141282174e-01
1.992353070980389940e-01
1.793351580415428748e-01
1.553087161579572995e-01
1.277837057874333937e-01
9.660108526755772917e-02
6.276827598607709335e-02
2.642334804176124652e-02
-1.197492130566327195e-02
-5.157618864041008111e-02
-9.210681635404135981e-02
-1.328754890608264405e-01
-1.732112666723477079e-01
-2.127795898660910512e-01
-2.508397076611399434e-01
-2.868189239373896138e-01
-3.206006261088654163e-01
-3.512301844187482591e-01
-3.786278506649679576e-01
-4.024274792445971527e-01
-4.219386213394061835e-01
-4.376482960060731897e-01
-4.486470680553477086e-01
-4.551156171628522595e-01
-4.572023278815043890e-01
-4.543041746507540113e-01
-4.473406495264209970e-01
-4.357687020886902296e-01
-4.199404982461397151e-01
-4.004976340011177638e-01
-3.770937359184035609e-01
-3.507795473526528207e-01
-3.215539166820553518e-01
-2.897827137097724881e-01
-2.563929916576278556e-01
-2.213446135064426612e-01
-1.854639057159467030e-01
-1.492270171850646476e-01
-1.128261548645858037e-01
-7.712964730981723693e-02
-4.232162115231688504e-02
-8.712426427817540620e-03
2.299289485267944078e-02
5.288975989933861199e-02
8.048457614269316496e-02
1.054803251010042742e-01
1.281573279560353218e-01
1.478408724866816237e-01
1.648484297168757995e-01
1.791793162660199612e-01
1.904695488934958769e-01
1.993972081857947054e-01
2.054732663714503582e-01
2.090234990548615612e-01
2.104395595771829663e-01
2.093001269769072525e-01
2.063454024864209702e-01
2.013357444677535413e-01
1.944013324388555453e-01
1.861160948442852070e-01
1.760601233428782941e-01
1.647493262763383426e-01
1.522139922323456629e-01
1.383325456264418440e-01
1.236616289228388843e-01
1.079130387484820153e-01
9.126175117368034995e-02
7.399538439890399055e-02
5.584664722992133123e-02
3.722476834427373982e-02
1.810778268331099394e-02
-1.621542828800809355e-03
-2.148196893447554268e-02
-4.171284700923261896e-02
-6.210885265488507584e-02
-8.237068735100798456e-02
-1.027747910732918213e-01
-1.227548201213992107e-01
-1.423910039652311887e-01
-1.616802800817462582e-01
-1.800603868135711161e-01
-1.978425078718282215e-01
-2.145029731980759025e-01
-2.299453901574693704e-01
-2.443434910118103820e-01
-2.570338562289150586e-01
-2.683116679475319732e-01
-2.778220333206220527e-01
-2.854002626979516011e-01
-2.913381369990817316e-01
-2.951093942219487065e-01
-2.969934209946726855e-01
-2.968906488445472447e-01
-2.946964166250525263e-01
-2.907851043471257335e-01
-2.849141324083062088e-01
-2.773542585883926881e-01
-2.682655435394094567e-01
-2.576673607790223031e-01
-2.459407659259016110e-01
-2.331482585774020400e-01
-2.195011146942666136e-01
-2.053232685151828996e-01
-1.907234458643120578e-01
-1.759595140891559995e-01
-1.613052348369410360e-01
-1.468164512523254250e-01
-1.328170460609635062e-01
-1.194260425814393373e-01
-1.066474700969168299e-01
-9.483456440982879210e-02
-8.383649529491048191e-02
-7.382717662089366417e-02
-6.490898631666938701e-02
-5.679494303170810887e-02
-4.982976757958457875e-02
-4.372967526827396811e-02
-3.846062382172533295e-02
-3.417030268979539404e-02
-3.038938728207579015e-02
-2.743316108608109122e-02
-2.506397170364389748e-02
-2.309792685624190850e-02
-2.181238921893591254e-02
-2.076157982742832253e-02
-2.023480245279933587e-02
-2.019339368798886425e-02
-2.042473350156075174e-02
-2.131829061498421996e-02
-2.261572534337538687e-02
-2.454295932159425431e-02
-2.723995488317954711e-02
-3.055758522884154116e-02
-3.481945727670819613e-02
-3.996067749852438150e-02
-4.605628676642744418e-02
-5.321648543648477975e-02
-6.137123974829803569e-02
-7.053123177941496291e-02
-8.069065625266175212e-02
-9.170571071291430676e-02
-1.034172095926542689e-01
-1.158123784255617739e-01
-1.284637830247159773e-01
-1.413008659674776235e-01
-1.540130373290001520e-01
-1.661181101209714128e-01
-1.776927444237465514e-01
-1.880064220396857055e-01
-1.969578289631226387e-01
-2.042686002720942584e-01
-2.093400103095169607e-01
-2.124465001402154052e-01
-2.128874034501174461e-01
-2.106975181876883374e-01
-2.058631824580563208e-01
-1.979780824714567622e-01
-1.875927775058906788e-01
-1.743442434678004194e-01
-1.585199229866364745e-01
-1.404630317902206826e-01
-1.201277887284528667e-01
-9.824577410388259102e-02
-7.488107584690260887e-02
-5.047961663673287275e-02
-2.560168967096163040e-02
-4.792295916892785890e-04
2.427059277380778923e-02
4.829568494282884816e-02
7.125770580384438446e-02
9.266740596800071561e-02
1.122326996340250460e-01
1.297663032999647748e-01
1.448438011152080040e-01
1.574433090673309499e-01
1.673792320826925084e-01
1.744505078611500171e-01
1.789655103615079845e-01
1.805934428332753305e-01
1.795870288945116133e-01
1.760963759883452662e-01
1.700090224134674366e-01
1.619003068100329790e-01
1.515994077862068690e-01
1.394002171669661561e-01
1.256461309998476439e-01
1.102654062878785091e-01
9.375110102411848834e-02
7.613394549035340519e-02
5.755156389675533668e-02
3.837217381374362357e-02
1.860901290985633727e-02
-1.542079083012473650e-03
-2.179176255977821608e-02
-4.216271422648140699e-02
-6.234494515449469365e-02
-8.212994271454041040e-02
-1.016020930664709443e-01
-1.202157034328957264e-01
-1.380385506935800366e-01
-1.548336485852211952e-01
-1.701925586708952221e-01
-1.843484132693846700e-01
-1.966525296323102523e-01
-2.071792099608021076e-01
-2.157877129890611034e-01
-2.220782629975429356e-01
-2.263542962325083840e-01
-2.281348123660135174e-01
-2.276177113954996611e-01
-2.248026475021216719e-01
-2.196059021643605447e-01
-2.123987049979710051e-01
-2.030742468592067473e-01
-1.920840340674218050e-01
-1.795459631535600287e-01
-1.658433972045076366e-01
-1.513676732067815167e-01
-1.363587899580913088e-01
-1.214721694365045873e-01
-1.067905001099009460e-01
-9.302559684014141683e-02
-8.042180640766478927e-02
-6.931926931089139876e-02
-6.033444216274799765e-02
-5.329116785736801032e-02
-4.891099222539167790e-02
-4.708982604455164839e-02
-4.798006049689587660e-02
-5.190661762252446465e-02
-5.830009230239318468e-02
-6.763266583637428386e-02
-7.940194556267426984e-02
-9.344578216840311591e-02
-1.097491662605034612e-01
-1.274484758342099844e-01
-1.467302106380589666e-01
-1.669007594806735106e-01
-1.875906133409718790e-01
-2.086313409096456351e-01
-2.291803954451755720e-01
-2.492762264976531028e-01
-2.683801891613796786e-01
-2.861487284696258016e-01
-3.024927907788219628e-01
-3.169283790075604346e-01
-3.294776404729767849e-01
-3.399852938914154077e-01
-3.483154664521557753e-01
-3.545198141836681249e-01
-3.586121251926478459e-01
-3.606062827698641171e-01
-3.606716430718228672e-01
-3.589139687797225364e-01
-3.553802317065182237e-01
-3.504509111724088966e-01
-3.440709779689966052e-01
-3.364572630163624178e-01
-3.278881479524964337e-01
-3.182246107291411552e-01
-3.079267409613973827e-01
-2.968852124949645788e-01
-2.850933710890539707e-01
-2.729300298924229873e-01
-2.600234358914405020e-01
-2.467033694931112797e-01
-2.329066564689460384e-01
-2.183343689503120244e-01
-2.034468889204902320e-01
-1.877717753760688724e-01
-1.714773765901503877e-01
-1.546791201566406482e-01
-1.369241764087922031e-01
-1.187732318780477525e-01
-9.985079301512683747e-02
-8.025892290511697780e-02
-6.035022212529746188e-02
-3.970606449901501606e-02
-1.897536474584340938e-02
2.023494941877090891e-03
2.317316188532905774e-02
4.396376342043742391e-02
6.470478274285720865e-02
8.474242853133057141e-02
1.041354082268300396e-01
1.227617789571971429e-01
1.401312655724221423e-01
1.565074083258002624e-01
1.713457335302284168e-01
1.847459248599143122e-01
1.966411937016035449e-01
2.067237761651291028e-01
2.153096889004342263e-01
2.220224933853285898e-01
2.271287113861399365e-01
2.306277185309243416e-01
2.324541549319890654e-01
2.330004570100052685e-01
2.320152708500747285e-01
2.299520991235917133e-01
2.268031354670750344e-01
2.227035680456714850e-01
2.180582637429588355e-01
2.126388972918267228e-01
2.070260205919464691e-01
2.011007428738409430e-01
1.951143655302865487e-01
1.893866300817980131e-01
1.836292739935668772e-01
1.784566808529948756e-01
1.735744758185728820e-01
1.692724106441194087e-01
1.657030366014048961e-01
1.625065996196142226e-01
1.602323537664142039e-01
1.584167958959767641e-01
1.573409195241210201e-01
1.569416368978456544e-01
1.568479172357701845e-01
1.574550082614791513e-01
1.581875664868200582e-01
1.593054285098118583e-01
1.605170239468046156e-01
1.615326693143917247e-01
1.625455176678772540e-01
1.629460374290061797e-01
1.630019719594310579e-01
1.622344092806242977e-01
1.605241203896727309e-01
1.578975241434656396e-01
1.537969799178892927e-01
1.485684198848408744e-01
1.416508661782687473e-01
1.331570948638069740e-01
1.230643225768065230e-01
1.109462147489380934e-01
9.730888363240022820e-02
8.163899449202707825e-02
6.429935915641107891e-02
4.534975100043564522e-02
2.453251459002528390e-02
2.557629145781073476e-03
-2.096820755070365888e-02
-4.548597452146830450e-02
-7.079406711318128598e-02
-9.703866044624709364e-02
-1.233436743744007746e-01
-1.500493212413619160e-01
-1.765040378489733941e-01
-2.024518222928130551e-01
-2.280741750567221449e-01
-2.524383547218912449e-01
-2.760096533477602310e-01
-2.981701071800610392e-01
-3.187768238741442994e-01
-3.382088889995232273e-01
-3.555965776569994796e-01
-3.716943406386109539e-01
-3.860085107692162176e-01
-3.986306453832676455e-01
-4.101985774789929096e-01
-4.199637642108292046e-01
-4.289831323291688481e-01
-4.368744289191425767e-01
-4.439456179901450361e-01
-4.509714798019371917e-01
-4.572812088089310278e-01
-4.640544289220904228e-01
-4.708851344368368275e-01
-4.781500535963091325e-01
-4.864979306173816131e-01
-4.952220353845606104e-01
-5.053560061457132990e-01
-5.162906680618730704e-01
-5.283036079220890802e-01
-5.416774086170464964e-01
-5.555815150226310895e-01
-5.707297586605116768e-01
-5.862312443012653862e-01
-6.022122507483405052e-01
-6.185530075437568609e-01
-6.343459012519896412e-01
-6.500376299103822753e-01
-6.645847641972650877e-01
-6.780874341733467148e-01
-6.902317778667295123e-01
-7.002317870339405115e-01
-7.084943745669307624e-01
-7.140936686329644179e-01
-7.173131625505826392e-01
-7.179174554512248729e-01
-7.154632818445594289e-01
-7.105072225814530462e-01
-7.024366507445944929e-01
-6.918444516525394938e-01
-6.786629941443897973e-01
-6.628768100960555909e-01
-6.451732600435093890e-01
-6.252098395627712080e-01
-6.038499928434861719e-01
-5.810096680917052892e-01
-5.570080138027773131e-01
-5.324512171995466892e-01
-5.070165764054371804e-01
-4.816977473096469287e-01
-4.560713346826342218e-01
-4.306296227263261001e-01
-4.056599768654426397e-01
-3.806042941351927555e-01
-3.564859041139769591e-01
-3.323160399573921175e-01
-3.086987316696621630e-01
-2.855003338887460718e-01
-2.618646686984517635e-01
-2.388744442672187662e-01
-2.149796908618266389e-01
-1.910119218291839727e-01
-1.664748030518488631e-01
-1.403724270767331972e-01
-1.139782300211128474e-01
-8.536000259215750785e-02
-5.579155385895044617e-02
-2.453818613918643671e-02
9.299650232478584577e-03
4.413257018990640601e-02
8.205890268698257106e-02
1.212695295616866287e-01
1.625914398409543937e-01
2.067059256745938933e-01
2.516820377426821631e-01
2.996373917129327991e-01
3.483624400835758639e-01
3.986424554247845475e-01
4.509905408873596255e-01
5.032333177262837687e-01
5.574553858753130697e-01
6.112954385635553933e-01
6.654550650156321190e-01
7.203956176286361313e-01
7.738912075222423859e-01
8.279537677752226710e-01
8.803466329291564918e-01
9.316802535475778857e-01
9.824266530393475083e-01
1.030515837635988863e+00
1.077802859486786335e+00
1.122342862458776791e+00
1.164677445921221022e+00
1.205223321266899239e+00
1.242234970004713723e+00
1.277301357255585801e+00
1.308783628928895659e+00
1.337228732569245127e+00
1.362848027975507526e+00
1.384341696130753530e+00
1.402971240805396258e+00
1.417326882090909512e+00
1.428100392333214730e+00
1.435164496829863356e+00
1.437761995494195144e+00
1.436855724692007286e+00
1.431188577770254433e+00
1.421771623703149245e+00
1.408077549834588105e+00
1.389975461783502286e+00
1.368203669547562340e+00
1.341614769526354278e+00
1.311670839432987457e+00
1.277412547151752120e+00
1.239380947084686380e+00
1.198106476525007791e+00
1.152506697621185072e+00
1.104518224146246341e+00
1.052675841523259992e+00
9.981835907797056429e-01
9.412727577685546798e-01
8.808542036606057390e-01
8.192677429886612295e-01
7.544231553487423803e-01
6.881469392524488526e-01
6.202205541076488693e-01
5.494739449234657958e-01
4.785522068949401020e-01
4.046461478592028316e-01
3.301735336512933161e-01
2.543544493526757044e-01
1.759201261108087611e-01
9.776339486673976675e-02
1.637603620156607986e-02
-6.521905830831273287e-02
-1.483642977035535826e-01
-2.343421827267638535e-01
-3.200075244092921989e-01
-4.094078383155949075e-01
-4.988538122004538278e-01
-5.901550274721725220e-01
-6.844391943357723829e-01
-7.782753022192743231e-01
-8.760192097780803433e-01
-9.732480593679544434e-01
-1.072129951186624019e+00
-1.173472947003386668e+00
-1.273566291942302087e+00
-1.376890648771804448e+00
-1.478301501506226412e+00
-1.580297933088327111e+00
-1.683315594186312714e+00
-1.783487013306819691e+00
-1.885341195395003888e+00
-1.983231753426846877e+00
-2.080020272038777041e+00
-2.175868463779937478e+00
-2.267015699973810250e+00
-2.357921183906426688e+00
-2.443102712374968455e+00
-2.525535850654002434e+00
-2.605316176244344639e+00
-2.679129188990633015e+00
-2.751225752250167744e+00
-2.816671885110436868e+00
-2.878496518662706727e+00
-2.936652958859814255e+00
-2.988577856469853078e+00
-3.037939449997152153e+00
-3.080546319032837044e+00
-3.119317882864747649e+00
-3.153709788428108673e+00
-3.182122477026173346e+00
-3.207117756628142580e+00
-3.225208617439044190e+00
-3.239074950077788007e+00
-3.247199682286122879e+00
-3.249116558703243562e+00
-3.245893050613711583e+00
-3.234611457776503496e+00
-3.217803858968574016e+00
-3.192682975282004065e+00
-3.160131888796217314e+00
-3.119724288453757044e+00
-3.069073368300414550e+00
-3.010937679728721506e+00
-2.941327449478300160e+00
-2.862773217117248858e+00
-2.773736661809395709e+00
-2.672499880723020027e+00
-2.562557247483302714e+00
-2.439043250493887260e+00
-2.306436086441628230e+00
-2.162539462240569588e+00
-2.006478021682192026e+00
-1.842840377177034306e+00
-1.666116760798281637e+00
-1.482859112267318258e+00
-1.290349088073544870e+00
-1.088499992897114188e+00
-8.829766219980728081e-01
-6.674639532076136472e-01
-4.503897122935096586e-01
-2.281912802478802960e-01
-1.156094477729061043e-03
2.243678772385852005e-01
4.559841364256775331e-01
6.839001399762987266e-01
9.130318608230481026e-01
1.143295551638675356e+00
1.368178683685818742e+00
1.596892584272397553e+00
1.818874214775075604e+00
2.040563058191462886e+00
2.262353377923667530e+00
2.477886605145009469e+00
2.697587530844912873e+00
2.910504416029148445e+00
3.124100756235005605e+00
3.338875870998472273e+00
3.548637101449723552e+00
3.763834070983885560e+00
3.973203938260419399e+00
4.184284347447292163e+00
4.396804087100885994e+00
4.604668603888037559e+00
4.816932739459665491e+00
5.022016936542927468e+00
5.226775133988606825e+00
5.429386759715455035e+00
5.624095520140400595e+00
5.817710546069466027e+00
5.998670176714648861e+00
6.173101594236747758e+00
6.337559483799052096e+00
6.487440749988273581e+00
6.627326213903282692e+00
6.746741906855031168e+00
6.851624171874513891e+00
6.937593228426095493e+00
7.002595312888665546e+00
7.049068175476482345e+00
7.070001208610814381e+00
7.070999642272459695e+00
7.047636851187993656e+00
7.002167811834741684e+00
6.934094009322993912e+00
6.842056235860350277e+00
6.730694489986158047e+00
6.595068001649643463e+00
6.443437619569322372e+00
6.269730287967255400e+00
6.079340705359833841e+00
5.874544449483209974e+00
5.640771249215446481e+00
5.392255954426406817e+00
5.152250727074204839e+00
4.906495043970775960e+00
4.624440271634848720e+00
4.278386502691420290e+00
3.923677635467485381e+00
3.629053771684970009e+00
3.347489208136584349e+00
2.960886502746569615e+00
2.416167781643292489e+00
1.867084110136815633e+00
1.485352502152024412e+00
1.160027010450811913e+00
5.852138042462589063e-01
-3.516960987252022997e-01
-1.286500300245488670e+00
-1.792649950968591366e+00
-2.070763641360746199e+00
-2.882636968053781334e+00
-4.632756932839686925e+00
-6.497832996323662513e+00
-6.903684526840280888e+00
-5.086554410777125668e+00
-2.014253652868592148e+00
