BVP Signal
-2.619116431073231083e-02
-3.787299834390550624e-03
2.013415942979340789e-02
4.646463144261131495e-02
7.535559221312898570e-02
1.060211283566750984e-01
1.366798730144307417e-01
1.646275031967273650e-01
1.864363395576051352e-01
1.982908628913882254e-01
1.964631859778904199e-01
1.779024990314295729e-01
1.408711634593044215e-01
8.552891903609058377e-02
1.435528445228867467e-02
-6.769614390943659576e-02
-1.534027884762544369e-01
-2.338933163316152530e-01
-2.996703047469105319e-01
-3.419251239867505676e-01
-3.539346084698332118e-01
-3.322644765109633580e-01
-2.775072954129910174e-01
-1.943639586946416253e-01
-9.102142502518122125e-02
2.205343517280386467e-02
1.336452824762320857e-01
2.333234099085862989e-01
3.126802784253664425e-01
3.660812183698368694e-01
3.908650695895089511e-01
3.870609688112592872e-01
3.567801892247562945e-01
3.034921974328367855e-01
2.313904811813930484e-01
1.449930656995355449e-01
4.902295513795951187e-02
-5.148908480486014128e-02
-1.510114657626923096e-01
-2.433943945624530425e-01
-3.219855104063957252e-01
-3.800797699976867228e-01
-4.116998976377804764e-01
-4.125717128836130509e-01
-3.810491373084105016e-01
-3.187121856970128175e-01
-2.304330980114707994e-01
-1.238548714045928645e-01
-8.391240055999393821e-03
1.060209240797100883e-01
2.101386250531561695e-01
2.963544531000709137e-01
3.592175734022170497e-01
3.955199466213927817e-01
4.040523933767107279e-01
3.852035611417256589e-01
3.405800921419199212e-01
2.727802784630523059e-01
1.853764993430593866e-01
8.307019461459301535e-02
-2.810357947364827691e-02
-1.406970710320386564e-01
-2.460623265114188218e-01
-3.349496522650974861e-01
-3.984764012396375676e-01
-4.293337285141569093e-01
-4.230018041053151268e-01
-3.786929433741560991e-01
-2.997672305131847126e-01
-1.934796761775241514e-01
-7.009222626861916217e-02
5.845017070230495299e-02
1.799904272433641983e-01
2.835000403495322452e-01
3.601005255299247199e-01
4.036893836149173520e-01
4.111910116797574122e-01
3.825160563937837765e-01
3.203404193898579111e-01
2.298071712782852605e-01
1.182119999120617715e-01
-5.332922515977896183e-03
-1.303247637070378828e-01
-2.454828149514606817e-01
-3.396204575367844369e-01
-4.027700047445366138e-01
-4.274439007631889997e-01
-4.098119597995479868e-01
-3.505227445244514239e-01
-2.549333253634670782e-01
-1.326363529788035789e-01
3.658072858860838411e-03
1.396836367222238917e-01
2.613470427170965227e-01
3.563527647706721813e-01
4.155045730292825645e-01
4.335454312922016884e-01
4.094886913313257604e-01
3.464791299862402529e-01
2.512798528465198800e-01
1.334958709177258007e-01
4.626209979444191600e-03
-1.229890891146432630e-01
-2.372713335270190682e-01
-3.274941143032735202e-01
-3.852904403527307453e-01
-4.054879942754475164e-01
-3.866655416496865838e-01
-3.313186761725119278e-01
-2.455614197222300010e-01
-1.383798891885097693e-01
-2.056099810549481127e-02
9.651117271785059071e-02
2.019965551215996968e-01
2.865375923775120293e-01
3.429326633448925854e-01
3.665527945266653931e-01
3.555554065923827167e-01
3.109595214226175686e-01
2.366213354897143961e-01
1.390984719435052475e-01
2.734087977583610218e-02
-8.787484515386959072e-02
-1.948265431892517163e-01
-2.820342186656277228e-01
-3.396510221792676254e-01
-3.608566978927522650e-01
-3.429837900027550845e-01
-2.881013770806878926e-01
-2.028638868656400251e-01
-9.759621851177921470e-02
1.522043848407442224e-02
1.227494853402127245e-01
2.135240639704431009e-01
2.787874132825429729e-01
3.132627877212240675e-01
3.153174682462945300e-01
2.866231996346740862e-01
2.315055947807340142e-01
1.561921721352808046e-01
6.811430439046006757e-02
-2.467323615713254426e-02
-1.139748216325577324e-01
-1.919044616833022743e-01
-2.513726816035565248e-01
-2.866426968944564835e-01
-2.939262178757353627e-01
-2.719203709941281355e-01
-2.221451323215046791e-01
-1.489564408787787952e-01
-5.918625933852761367e-02
3.853959101467611947e-02
1.346833002912582733e-01
2.197369540935615317e-01
2.851109600870386229e-01
3.238977395786541980e-01
3.314779877729252533e-01
3.059623126403681059e-01
2.484671178464733510e-01
1.632082958166710673e-01
5.736909305898865719e-02
-5.931949341522856078e-02
-1.753354987790482489e-01
-2.784618571142220000e-01
-3.571492527015848184e-01
-4.019897882881633411e-01
-4.070710438108930962e-01
-3.709432082238401929e-01
-2.969641351011284014e-01
-1.929039407737973555e-01
-6.986547456670821887e-02
5.925778396312150753e-02
1.814746535933212945e-01
2.852335665000373943e-01
3.615745520755448417e-01
4.047770663872898300e-01
4.125009847169903709e-01
3.855186340544980439e-01
3.272014331053017533e-01
2.429382698682273078e-01
1.396189993979584654e-01
2.523217259548510283e-02
-9.146397333732728119e-02
-2.012981164738021911e-01
-2.951784525361141887e-01
-3.647816502869026256e-01
-4.034083050826665628e-01
-4.068718643862494488e-01
-3.742147030948320130e-01
-3.080422489253691332e-01
-2.143457590794224654e-01
-1.018176329515968759e-01
1.920353002675114634e-02
1.379358986001624210e-01
2.442699967342505385e-01
3.296177978018111077e-01
3.874201817939686432e-01
4.133518931695289722e-01
4.053432359756985459e-01
3.635527980655591795e-01
2.903774640946432117e-01
1.905059799750313809e-01
7.094668139137461083e-02
-5.908907828324619360e-02
-1.885788689335161084e-01
-3.054549866350917409e-01
-3.977593656650908471e-01
-4.550818469821975021e-01
-4.700549210776761577e-01
-4.396051167110098801e-01
-3.656713117847356087e-01
-2.551971070142028952e-01
-1.193597884847672486e-01
2.783375526650516685e-02
1.713205447531875036e-01
2.967988642264036692e-01
3.922901358387160808e-01
4.492473205963078975e-01
4.631448232636437567e-01
4.335968519965640033e-01
3.641103288201447130e-01
2.615858976162416805e-01
1.356563325692001221e-01
-2.085914607515037753e-03
-1.389590633436075529e-01
-2.621724241635389197e-01
-3.599214944694999474e-01
-4.225529614319791794e-01
-4.436784129939749244e-01
-4.210482645929353174e-01
-3.569798707419673534e-01
-2.581898335949133205e-01
-1.350022328592009047e-01
-5.271742877033247510e-05
1.332697196564713027e-01
2.523496512809568770e-01
3.465843881351625688e-01
4.081902146681833932e-01
4.325674341760479824e-01
4.183203450673589341e-01
3.670676284457131677e-01
2.831596132887393980e-01
1.733676287889209799e-01
4.654907621564185333e-02
-8.676572434464951966e-02
-2.149554690400622969e-01
-3.261419043274624840e-01
-4.092937788276311828e-01
-4.555089914179674127e-01
-4.592727122721359523e-01
-4.194252280929282595e-01
-3.395844152491610535e-01
-2.278593626472905087e-01
-9.584687479319413395e-02
4.291982968656038455e-02
1.747603572585516574e-01
2.875149180301074248e-01
3.717916668040368022e-01
4.216359155610414078e-01
4.346256430660166981e-01
4.115252005946004044e-01
3.556950478109410785e-01
2.724580281949570693e-01
1.685708186411998821e-01
5.185860255067113733e-02
-6.902998892397640973e-02
-1.848662745432086418e-01
-2.862247433092813265e-01
-3.641085949027258462e-01
-4.108288570142524798e-01
-4.210313146592282729e-01
-3.926615893435715376e-01
-3.276097103326165438e-01
-2.318119504818849652e-01
-1.147101004968587579e-01
1.186454668624034592e-02
1.351701908107755812e-01
2.431135853588847207e-01
3.256207981648273075e-01
3.756267126982479887e-01
3.895920033129492976e-01
3.675563687830081250e-01
3.128153062570855347e-01
2.313491698620327719e-01
1.311301652526511430e-01
2.139423602907810501e-02
-8.808474271585292614e-02
-1.877158152404291291e-01
-2.688126671123818867e-01
-3.243069824007098201e-01
-3.494123275966634079e-01
-3.421562864046423513e-01
-3.036654185826737073e-01
-2.380916283576132442e-01
-1.521301711005135782e-01
-5.418470529639442257e-02
4.666402083108028842e-02
1.416801112739551061e-01
2.232982876899281821e-01
2.856363274022135079e-01
3.246697650560146364e-01
3.381380423309808814e-01
3.253229089542136743e-01
2.868607761149958302e-01
2.247035188949999540e-01
1.422435344413649494e-01
4.451455537214067670e-02
-6.168630925433563061e-02
-1.679198405852184162e-01
-2.645924571469027708e-01
-3.418507810653439449e-01
-3.908092844918344411e-01
-4.049136711204395223e-01
-3.811502670112988378e-01
-3.207962296136275815e-01
-2.294877614879968775e-01
-1.165420543378986595e-01
6.348714763159304941e-03
1.267813705433877280e-01
2.333140722544355672e-01
3.168122311604365526e-01
3.712402838066010125e-01
3.938363932754732621e-01
3.847720326598319529e-01
3.465087168983563837e-01
2.830939682122945444e-01
1.995954711172548690e-01
1.017805655978915591e-01
-3.966692430081596166e-03
-1.106084069863710884e-01
-2.104815495931515179e-01
-2.955722445674668908e-01
-3.581282580083118838e-01
-3.915666357961770649e-01
-3.915036092116528921e-01
-3.566559003327213206e-01
-2.893592871064957217e-01
-1.955254940949334441e-01
-8.399742681128709310e-02
3.457524163762221159e-02
1.490930635742730992e-01
2.493099478149247428e-01
3.268497921937753015e-01
3.758163201343517335e-01
3.929967246048016727e-01
3.777517338130786939e-01
3.317315659764034086e-01
2.585562385219172254e-01
1.635533319583494793e-01
5.356921565880307101e-02
-6.321208560649550778e-02
-1.775605080537350777e-01
-2.797183664503746781e-01
-3.602019997792196282e-01
-4.108415023195067795e-01
-4.259015512543825599e-01
-4.030436096820028680e-01
-3.438745121307217878e-01
-2.539006627524680315e-01
-1.418559102695161611e-01
-1.853757686577092723e-02
1.045998652823607877e-01
2.168159553631007208e-01
3.091890285971332641e-01
3.753092517859750177e-01
4.115138718781436444e-01
4.167175732346251049e-01
3.919728922448952324e-01
3.399383196211075431e-01
2.644213452269597586e-01
1.701067206188382475e-01
6.249631337168540246e-02
-5.200348402462352804e-02
-1.659880219773751109e-01
-2.711349722706373200e-01
-3.586161711791143181e-01
-4.199028306673958655e-01
-4.478841051852909816e-01
-4.380805307198342158e-01
-3.896548103821237952e-01
-3.059374254169244245e-01
-1.942912441611687746e-01
-6.530184811201168726e-02
6.855358778931294750e-02
1.944869860166434650e-01
3.009202932369521855e-01
3.786881612464608748e-01
4.217769916464996216e-01
4.275826049589831479e-01
3.967686410573514344e-01
3.328621340435700682e-01
2.417323455568061719e-01
1.310676352367624586e-01
9.899235157121814843e-03
-1.118590247740024746e-01
-2.239431656155276840e-01
-3.164327294191544571e-01
-3.806324975824345591e-01
-4.100688510484519211e-01
-4.014301226142722445e-01
-3.552244605078544448e-01
-2.759423152919980859e-01
-1.716050323283895285e-01
-5.273736238052294939e-02
6.903462341860451545e-02
1.824564315611073018e-01
2.778873158294691836e-01
3.481086878433266030e-01
3.886400107308349838e-01
3.976355899261167504e-01
3.755201999852223471e-01
3.245487505098034187e-01
2.484483471236709207e-01
1.522285194824069265e-01
4.214546705442401980e-02
-7.428849386767806540e-02
-1.884119763498146582e-01
-2.907900645383905136e-01
-3.719419438508261289e-01
-4.233962146171788565e-01
-4.389254986205479159e-01
-4.157029082025305855e-01
-3.550724220931559816e-01
-2.626737305651795085e-01
-1.478132608426416528e-01
-2.217684685337398265e-02
1.018425711598009986e-01
2.128378591283882348e-01
3.017523191152766127e-01
3.626743821098755149e-01
3.929851657512141161e-01
3.929544049377673431e-01
3.650066874104409553e-01
3.129218763667011016e-01
2.411897866323111095e-01
1.546422587623879075e-01
5.837567566897435695e-02
-4.212123894511560218e-02
-1.407915678605978216e-01
-2.309721894029196643e-01
-3.056472226215328769e-01
-3.580527505149153633e-01
-3.825644702765131355e-01
-3.756823669678909239e-01
-3.368598425406040819e-01
-2.689309434295392709e-01
-1.779721968922979292e-01
-7.257844622307166316e-02
3.730676644023946803e-02
1.417427836826717635e-01
2.320224993557580551e-01
3.015347983232328222e-01
3.461356646301197992e-01
3.640499825201121697e-01
3.554465940686155623e-01
3.218957157587232776e-01
2.659175401866231692e-01
1.907652355970596014e-01
1.004736217833478995e-01
8.420930403041371193e-05
-1.041286130571395518e-01
-2.046290356156740819e-01
-2.929473840760899450e-01
-3.604327780819094329e-01
-3.993777751797515929e-01
-4.043263393173013309e-01
-3.732630296123197189e-01
-3.083412593971845972e-01
-2.158825805416674792e-01
-1.055636875777891115e-01
1.105786462216301613e-02
1.223376351623578495e-01
2.182411360377228271e-01
2.915802186563741238e-01
3.385728604986938950e-01
3.586974366442925444e-01
3.539851217665883620e-01
3.280068689681111538e-01
2.848439805422578464e-01
2.282927950250601967e-01
1.614678217609244459e-01
8.685335655513296005e-02
6.728053611811890544e-03
-7.622361794961937664e-02
-1.583597514537451734e-01
-2.348217910643038420e-01
-2.997144412320220108e-01
-3.467439566495928993e-01
-3.702026884860649125e-01
-3.660805814939414593e-01
-3.330238618637253456e-01
-2.728733408481897049e-01
-1.906141075514244387e-01
-9.373052257057332137e-02
8.876314536178153691e-03
1.081478661232531252e-01
1.960249640836666252e-01
2.662787673976172442e-01
3.148961285846852420e-01
3.400222362170844392e-01
3.415756053263145908e-01
3.207224627295944819e-01
2.794081234761500165e-01
2.200921099430734329e-01
1.457436096202358033e-01
6.005384700772270490e-02
-3.226480292815972484e-02
-1.252778952203066065e-01
-2.119123853977304406e-01
-2.844426256704074008e-01
-3.353705950442107953e-01
-3.585505658005314622e-01
-3.503053635951931533e-01
-3.102527106235797860e-01
-2.416139737931059517e-01
-1.508989764380603282e-01
-4.701675257057771895e-02
5.999234194536776088e-02
1.603198695038063337e-01
2.455629021526867795e-01
3.095017145315903107e-01
3.483988623948079399e-01
3.608618637707307064e-01
3.474071764420255115e-01
3.099145641818840669e-01
2.511615620521164272e-01
1.745744349514684601e-01
8.423365448912556452e-02
-1.494115370960003020e-02
-1.169870545448744442e-01
-2.148615603312105382e-01
-3.007248139002389742e-01
-3.666032509060739852e-01
-4.053792732780198138e-01
-4.119297994315451183e-01
-3.841502184967419131e-01
-3.235873823161818374e-01
-2.354826185226133739e-01
-1.281740153016795447e-01
-1.197510222096850180e-02
1.022250610878297772e-01
2.043462160001384698e-01
2.862249038420786595e-01
3.422793071907390683e-01
3.696874565017882475e-01
3.681550418088363474e-01
3.394327237479980441e-01
2.867692302243047275e-01
2.144557883887641125e-01
1.275468519202445639e-01
3.175430621664679376e-02
-6.656911408362232996e-02
-1.604914682885749122e-01
-2.427406595749276030e-01
-3.061960397482285656e-01
-3.446142888299714713e-01
-3.534744033509477079e-01
-3.307588960896680197e-01
-2.774732548495385531e-01
-1.977526209160204718e-01
-9.850219993218198300e-02
1.136702854530931631e-02
1.219543486511661251e-01
2.234454968408166597e-01
3.070773707548178910e-01
3.658793947947491798e-01
3.951455970977853505e-01
3.926395738852504480e-01
3.585671832770916945e-01
2.953814303804177532e-01
2.075052484551729859e-01
1.010486776721356006e-01
-1.645226270773103572e-02
-1.363151868858356319e-01
-2.490975375973945027e-01
-3.451799036822876809e-01
-4.155893233555810196e-01
-4.530176687126551416e-01
-4.528845300043576882e-01
-4.142083034106252004e-01
-3.400310817099335692e-01
-2.372234681882585128e-01
-1.156579357953924636e-01
1.308210146845603661e-02
1.371732375892908418e-01
2.459045976283495971e-01
3.306893018654068483e-01
3.856320795975863303e-01
4.076695445481021696e-01
3.963905809277933345e-01
3.536908169597843266e-01
2.834091538362187856e-01
1.910404377148107180e-01
8.353663689409779325e-02
-3.087171634049079572e-02
-1.429541229162252236e-01
-2.429833205185121248e-01
-3.215345562510145694e-01
-3.705469136399641150e-01
-3.844841288077892605e-01
-3.613327916393810346e-01
-3.031568244696028480e-01
-2.160092014929061444e-01
-1.091604229621914168e-01
6.218712939617843105e-03
1.186440596335273101e-01
2.178379947988903220e-01
2.958763891551773328e-01
3.477716947350966148e-01
3.714648058527860730e-01
3.673538035926173784e-01
3.375839097431335145e-01
2.853415869632882074e-01
2.143492174928875449e-01
1.286664631253177649e-01
3.278935698277890554e-02
-6.807634451944399867e-02
-1.677689305732949498e-01
-2.591621470153537277e-01
-3.345380246267634083e-01
-3.863658381899545136e-01
-4.083792033088262663e-01
-3.967310061519490061e-01
-3.509406617721135824e-01
-2.743570460564002111e-01
-1.739609230858549793e-01
-5.950478998558961230e-02
5.782563163644960369e-02
1.669210592948431326e-01
2.581077216946028319e-01
3.241185536504076481e-01
3.605733004123563568e-01
3.659951960510050561e-01
3.414870084958634422e-01
2.902343490251386715e-01
2.169948364260738671e-01
1.276757141029098985e-01
2.902387839479114717e-02
-7.161778744951874387e-02
-1.665737455195979155e-01
-2.482083626080686667e-01
-3.094660768803221274e-01
-3.445745236566886138e-01
-3.498213720478483557e-01
-3.242365771633489713e-01
-2.699779848795945125e-01
-1.922583798478609829e-01
-9.876001418616286998e-02
1.380585342765527912e-03
9.881693557028548014e-02
1.852030719028254779e-01
2.541194009989655722e-01
3.015485466620428934e-01
3.258676422260458061e-01
3.274543610219371459e-01
3.080875876494406640e-01
2.703404064997942946e-01
2.171249533321102376e-01
1.514800891221943502e-01
7.661149839242265003e-02
-3.888918189799639435e-03
-8.578402738075308065e-02
-1.640579191172708562e-01
-2.330424227007439342e-01
-2.868623072393443607e-01
-3.201634238465418392e-01
-3.289973611077128268e-01
-3.116622699163325017e-01
-2.692628451921672550e-01
-2.057852266625792570e-01
-1.276008229081924128e-01
-4.248399467470320712e-02
4.162097932527247801e-02
1.177816680181121289e-01
1.809378365533727551e-01
2.282727359020955138e-01
2.590616248147437073e-01
2.740955378170428780e-01
2.748785773705448854e-01
2.628411455610515368e-01
2.387897776823870721e-01
2.027392442195097289e-01
1.541711533845653292e-01
9.265895296928583491e-02
1.870458725000734290e-02
-6.544136342481454705e-02
-1.552342154892576431e-01
-2.437841058179035514e-01
-3.224085473891946663e-01
-3.817448993325101014e-01
-4.132306182488978408e-01
-4.106551915687655097e-01
-3.714516694573974931e-01
-2.974378859686268584e-01
-1.948328529223433137e-01
-7.353556594107057975e-02
5.418480885522392043e-02
1.753246046309580031e-01
2.778054028467327186e-01
3.518889197082772924e-01
3.911605789788918930e-01
3.930020449418917816e-01
3.585804230536844273e-01
2.924635759410014746e-01
2.020011842111530953e-01
9.658330176800600242e-02
-1.317146604891128447e-02
-1.162933410802615697e-01
-2.024057845206437278e-01
-2.627057743893903563e-01
-2.908969724297545412e-01
-2.839442883945988427e-01
-2.424969820118754171e-01
-1.708561007613340621e-01
-7.644795435127527128e-02
3.111536968495087763e-02
1.412051768430533372e-01
2.433525522962352028e-01
3.282426767527244493e-01
3.884160359993309442e-01
4.186527986225652143e-01
4.160895946924849653e-01
3.801649392927259896e-01
3.125020661524899879e-01
2.168099827820206826e-01
9.882079939195342888e-02
-3.379200802047410690e-02
-1.716209314358909666e-01
-3.039723820077893102e-01
-4.196338031836224780e-01
-5.079611609316545540e-01
-5.601792620104104614e-01
-5.706754147280834744e-01
-5.379982903770610392e-01
-4.652898890342811455e-01
-3.599896993308444593e-01
-2.328252167860043187e-01
-9.628275274965503172e-02
3.712026886690722449e-02
1.564005757732047641e-01
2.532086520237584182e-01
3.222983021056933239e-01
3.613779256144340479e-01
3.705112209160930092e-01
3.513265229262358957e-01
3.063068223803426804e-01
2.383763568989607506e-01
1.508920640496000942e-01
4.800950731886644007e-02
-6.474766609926518868e-02
-1.799874486776111837e-01
-2.883126896795289440e-01
-3.787635075664219642e-01
-4.398951935802042357e-01
-4.613599497502747226e-01
-4.357004727072593120e-01
-3.599703629462460697e-01
-2.367961224540877652e-01
-7.459973814871290188e-02
