BVP Signal
-2.617745937818117402e-02
-2.307312421372067351e-02
-1.097391666044306158e-02
2.761285325389217782e-03
1.280690864140127116e-02
2.026089798139638076e-02
2.869201050220326898e-02
3.999164098389540456e-02
5.260613988917212103e-02
6.431283801347104090e-02
7.512981326853740427e-02
8.644177517283313517e-02
9.892608814748710122e-02
1.118712744948279769e-01
1.243144934921779354e-01
1.359021468388260656e-01
1.473088424344619618e-01
1.584573936209364708e-01
1.688345873332979807e-01
1.781758465494131249e-01
1.858244760371059734e-01
1.921951929214374410e-01
1.968750820225459164e-01
1.993962103753840476e-01
1.999230015397354399e-01
1.976989915013041554e-01
1.930805199484577905e-01
1.856737497538477610e-01
1.751667719792577294e-01
1.619827378156974973e-01
1.455900107695896062e-01
1.263411517123154693e-01
1.042891771804876078e-01
7.935758930892497509e-02
5.208903084402463635e-02
2.255855707583034886e-02
-8.907744460858735280e-03
-4.174096967751911302e-02
-7.562966619504893351e-02
-1.100676857147975807e-01
-1.442908563543645051e-01
-1.780696269672244481e-01
-2.104995461720156058e-01
-2.409584100556238506e-01
-2.692122132455787575e-01
-2.940766988192719533e-01
-3.155798594844181904e-01
-3.328903659308699581e-01
-3.453912739629328987e-01
-3.533708397609449658e-01
-3.557361724583640306e-01
-3.529416860447318061e-01
-3.446641662361944469e-01
-3.306388633688828182e-01
-3.117535706953481478e-01
-2.874557650406363574e-01
-2.585930753124838222e-01
-2.255262138551945572e-01
-1.884457526120278392e-01
-1.485676229900446954e-01
-1.060109090300906109e-01
-6.167214430785740442e-02
-1.638843544862127188e-02
2.939174405323335959e-02
7.468241605203757016e-02
1.188577228448070011e-01
1.614437384296597555e-01
2.015563642353890295e-01
2.387570973130845320e-01
2.728131109232824203e-01
3.028285632266202732e-01
3.290030033899519202e-01
3.507744038536497189e-01
3.678015381416968044e-01
3.807667639116411040e-01
3.886711696402886385e-01
3.922343596005150035e-01
3.913669050264735882e-01
3.857279323886928513e-01
3.766274767246588495e-01
3.631143733980669031e-01
3.460009728510803906e-01
3.256202242160333160e-01
3.015615545984902668e-01
2.752075324541665147e-01
2.459000187905379942e-01
2.141640077991154301e-01
1.806122789917106175e-01
1.449172195141402164e-01
1.080003292003158810e-01
6.984112943837361698e-02
3.057454603690262784e-02
-9.061658467633404435e-03
-4.903100435004498214e-02
-8.905102381531204703e-02
-1.283768421558108552e-01
-1.670848531559393502e-01
-2.044819112845728815e-01
-2.399938556082064633e-01
-2.738817492895562200e-01
-3.048556537327327676e-01
-3.330019503807263304e-01
-3.578940820677079526e-01
-3.785567863351678164e-01
-3.956589531234731005e-01
-4.078804770352588704e-01
-4.153111060910223418e-01
-4.180405827757911474e-01
-4.151130597011446488e-01
-4.075177962261465336e-01
-3.944684821060165381e-01
-3.761811072167378645e-01
-3.533643020993366135e-01
-3.254934203200927634e-01
-2.937074726871991004e-01
-2.580285762927356785e-01
-2.188113490691731833e-01
-1.771549009267016639e-01
-1.331002223811044438e-01
-8.757772402485089480e-02
-4.127819577894353831e-02
5.471518521488749620e-03
5.167710560856125790e-02
9.684742885027425308e-02
1.406533623958301504e-01
1.821102942278031434e-01
2.210755831342707534e-01
2.571278461206366606e-01
2.894834086608155110e-01
3.185571278916168314e-01
3.434229897062609504e-01
3.640808357183348831e-01
3.808522233019430159e-01
3.927629714625796020e-01
4.007423010340203651e-01
4.041451705609880873e-01
4.029291529815933748e-01
3.979831792730167406e-01
3.882943698343883088e-01
3.748702483564170795e-01
3.574791432163130223e-01
3.359471867902154574e-01
3.113626536101745668e-01
2.829883423098483175e-01
2.515595581399744374e-01
2.173347035735062882e-01
1.801655328750751406e-01
1.409785900374709855e-01
9.970794548622387288e-02
5.672059231434890825e-02
1.274081859430541315e-02
-3.205983817144089643e-02
-7.716349964412048956e-02
-1.217508621864879514e-01
-1.657446961993572221e-01
-2.081665944981504202e-01
-2.483854083988060457e-01
-2.864463451667899063e-01
-3.208447374138652664e-01
-3.517438256015464892e-01
-3.783131943313985945e-01
-3.996650432028473476e-01
-4.164933229378695589e-01
-4.271889167024306433e-01
-4.322094373642489940e-01
-4.312939750084471835e-01
-4.237360128820178984e-01
-4.108056503479410315e-01
-3.914442112908932403e-01
-3.664174329903982508e-01
-3.361981567250420522e-01
-3.006238949421682349e-01
-2.611488575715408822e-01
-2.176516180130209643e-01
-1.709935987660675394e-01
-1.221285708878131482e-01
-7.149070956805309018e-02
-2.010102301280240755e-02
3.126863313653703569e-02
8.201680665635131817e-02
1.312207600783256989e-01
1.780534136516449539e-01
2.223624258029934797e-01
2.628756703096328806e-01
2.994560484473125506e-01
3.316519476743362560e-01
3.584843738495626653e-01
3.807151821597973829e-01
3.970263891767539799e-01
4.076917955261066262e-01
4.128904088933159633e-01
4.117202302135694048e-01
4.054966915154255003e-01
3.932724703509936637e-01
3.755283285975876129e-01
3.529450967517210880e-01
3.249627939035000246e-01
2.929144714670482985e-01
2.565361184405713368e-01
2.163618663249994856e-01
1.732786864875815735e-01
1.273526526852379881e-01
7.951203190486708094e-02
3.028851433024285639e-02
-1.974822489167359779e-02
-6.983385806019573594e-02
-1.191357071193328565e-01
-1.673148251533668751e-01
-2.132397658482259595e-01
-2.563086620082462574e-01
-2.961806316006531103e-01
-3.314632387146409509e-01
-3.624316230618824797e-01
-3.878624916766337249e-01
-4.072754125466013786e-01
-4.209774487372308638e-01
-4.275780307103844713e-01
-4.279144084090864553e-01
-4.212735518421499847e-01
-4.075628165154733251e-01
-3.877496013627037552e-01
-3.610687723685300776e-01
-3.287287138308441214e-01
-2.908596085544877252e-01
-2.478963984234548446e-01
-2.011260679673309015e-01
-1.507206920163168540e-01
-9.785898038294937873e-02
-4.336966775834572713e-02
1.192325097014457561e-02
6.701817432315877732e-02
1.209252791383836623e-01
1.729671639046102549e-01
2.220999666242922943e-01
2.674234437677767140e-01
3.087576683208378414e-01
3.446947375493679133e-01
3.753350295774255385e-01
3.999297100591229226e-01
4.177957906227775520e-01
4.297281978257614377e-01
4.343822888226651635e-01
4.325614581778937651e-01
4.241088431921054003e-01
4.087310320016839804e-01
3.878786687188729432e-01
3.607040993483919267e-01
3.283496213144472264e-01
2.912603509712888838e-01
2.495986209901205621e-01
2.048522172251753259e-01
1.569743793965374667e-01
1.070054425817917459e-01
5.576877819549157234e-02
3.871436742052196400e-03
-4.778653409337158681e-02
-9.838320791276179700e-02
-1.473156438649289024e-01
-1.937485653921193207e-01
-2.367713093080556219e-01
-2.764083782662768440e-01
-3.112762134050707230e-01
-3.413475873170888075e-01
-3.661609860040160314e-01
-3.847928485118807806e-01
-3.981340130622385010e-01
-4.048440897687163864e-01
-4.054142831138489722e-01
-4.000001745696915023e-01
-3.879967451784750998e-01
-3.708195336913945317e-01
-3.477209353987896767e-01
-3.195087836388513236e-01
-2.868999385652011291e-01
-2.498237821635518330e-01
-2.096783629509527680e-01
-1.665356127647584783e-01
-1.212192385337044903e-01
-7.463784909600858219e-02
-2.726690536838260320e-02
2.005435838118199698e-02
6.657764379079959827e-02
1.117203329491447822e-01
1.548458844592791039e-01
1.950729877272186774e-01
2.323923049051211942e-01
2.657406349429911607e-01
2.948645979940892614e-01
3.196882482436263495e-01
3.391598465651416427e-01
3.539918668013967151e-01
3.632227988575047473e-01
3.668853042929172137e-01
3.654666289387890066e-01
3.580725580872035074e-01
3.457800191820450397e-01
3.280892964598528527e-01
3.052781826315341673e-01
2.781797851185880965e-01
2.464319451880500611e-01
2.110989599642340842e-01
1.723448017537707044e-01
1.307067681770657241e-01
8.705193355749381301e-02
4.179829040359211989e-02
-4.272465244707257526e-03
-5.040108538669772764e-02
-9.582989761556900965e-02
-1.399873165521661744e-01
-1.817680211909244725e-01
-2.208617074402006997e-01
-2.562877264983980941e-01
-2.872910515450574631e-01
-3.138863210417378591e-01
-3.347535470433148919e-01
-3.501922051709187578e-01
-3.595280022231209793e-01
-3.623624121850528845e-01
-3.594234467556224888e-01
-3.497855536761705908e-01
-3.343451068884607524e-01
-3.131001748781612193e-01
-2.862378765511578438e-01
-2.549851987803020137e-01
-2.191810768263978970e-01
-1.800061739312565356e-01
-1.380722587988139627e-01
-9.404724149782811571e-02
-4.908083231634223498e-02
-3.730243881217371049e-03
4.107911820292779043e-02
8.454661437885269137e-02
1.258635469626951942e-01
1.645908637838858490e-01
1.997584408418557333e-01
2.311233807529619877e-01
2.581541712192674254e-01
2.801932907465315425e-01
2.977842766019308529e-01
3.098709586066150656e-01
3.169238887299871132e-01
3.188920663357338592e-01
3.153894726729478681e-01
3.076338148102477632e-01
2.947999419977961333e-01
2.777249470875310378e-01
2.567692145273137161e-01
2.318423925871655467e-01
2.042059499107163889e-01
1.735493783096522247e-01
1.406609284080639899e-01
1.061027499495305337e-01
7.011534893456067286e-02
3.350990648677421024e-02
-3.387934418745824905e-03
-4.004804196789452098e-02
-7.593919593363204767e-02
-1.104529494038584136e-01
-1.434349711893964929e-01
-1.740324514809451772e-01
-2.019918433714038564e-01
-2.270330698071427178e-01
-2.482826302700947285e-01
-2.661960244883573301e-01
-2.797635349388735704e-01
-2.889778391478418640e-01
-2.939780642898226493e-01
-2.939295148891976073e-01
-2.897043453259930956e-01
-2.806128850998730329e-01
-2.668938872251638839e-01
-2.491183399264013665e-01
-2.268603062454225827e-01
-2.011182052554564836e-01
-1.718283437321455609e-01
-1.394514957492650198e-01
-1.047563180136433236e-01
-6.794135519223321040e-02
-2.978358862855187694e-02
9.186751433174766834e-03
4.838039150534392124e-02
8.722388696768758332e-02
1.249235343050006108e-01
1.611935703941714537e-01
1.952035840430292324e-01
2.263580874306810875e-01
2.545969843986510828e-01
2.787676360203302228e-01
2.991383430252028131e-01
3.149556206306791672e-01
3.257436822700275902e-01
3.320286526471428745e-01
3.326826243158819141e-01
3.283877078904875457e-01
3.187855954643907808e-01
3.036685159280518853e-01
2.839651255014906672e-01
2.590170212168814157e-01
2.296857367540665606e-01
1.961749514947943585e-01
1.587007972010280876e-01
1.182564870630132270e-01
7.499612496998964151e-02
2.972725018710645206e-02
-1.684244895375197615e-02
-6.401981685363938857e-02
-1.111286396780367808e-01
-1.571694586741666233e-01
-2.016125674613836738e-01
-2.435600754160764381e-01
-2.820209431760521412e-01
-3.169714301040886806e-01
-3.469376546468797562e-01
-3.718830585077906870e-01
-3.911912256239111763e-01
-4.039678133671186222e-01
-4.110079874379419795e-01
-4.109861010975572881e-01
-4.044673893132859632e-01
-3.914958035969031691e-01
-3.716640782193879611e-01
-3.464149660027756594e-01
-3.151045023574770010e-01
-2.787343368157402246e-01
-2.380215291991618631e-01
-1.931754897500155277e-01
-1.457034696718552680e-01
-9.582888048312621088e-02
-4.453716709716032396e-02
7.170425219246184811e-03
5.863193715720538268e-02
1.090012007878465444e-01
1.573530312932524544e-01
2.031774371998310569e-01
2.457123449809302529e-01
2.841234246174305644e-01
3.185882173071769019e-01
3.478941816582747371e-01
3.721416807953936701e-01
3.911529840237509825e-01
4.041192146038347643e-01
4.121102011900822926e-01
4.140309767306152855e-01
4.103867850892424785e-01
4.016095242018505873e-01
3.870450816077599665e-01
3.681324405909965902e-01
3.442206650269938328e-01
3.158891504636694436e-01
2.839506599617552807e-01
2.480718397535356390e-01
2.094774619209642252e-01
1.681775655205750841e-01
1.246365418176252349e-01
7.973293591596528063e-02
3.366435087032390583e-02
-1.290999855376881444e-02
-5.928946930141231614e-02
-1.051096773081325320e-01
-1.497195137942984311e-01
-1.923024888363559226e-01
-2.328413352873608677e-01
-2.701956472362530004e-01
-3.040460829085092076e-01
-3.342212821869091632e-01
-3.594961416760898421e-01
-3.804273551929089892e-01
-3.959310087318509974e-01
-4.057954095097484060e-01
-4.104943942609388663e-01
-4.088636468466151364e-01
-4.018941363792957189e-01
-3.890585757723822868e-01
-3.703838998087903844e-01
-3.469219234108463223e-01
-3.180274239653202439e-01
-2.848531287895951225e-01
-2.476242788982538912e-01
-2.066380241689160790e-01
-1.631243389959741719e-01
-1.171608001039082525e-01
-6.965558595400433983e-02
-2.138426252190647747e-02
2.718438493819643614e-02
7.522272963718854011e-02
1.219856280681146377e-01
1.671544669984239007e-01
2.098144982370795109e-01
2.494235654724407947e-01
2.859804674730731522e-01
3.182609538717144360e-01
3.465938036138667133e-01
3.702899928073817848e-01
3.887584534500749256e-01
4.028464070290436183e-01
4.111320613582173378e-01
4.143508689537249712e-01
4.122479328468427462e-01
4.042440646659740122e-01
3.916846275369678110e-01
3.733772842416181459e-01
3.501424614271368418e-01
3.222313984795237563e-01
2.893058416415236200e-01
2.527059401766207913e-01
2.119786817715409444e-01
1.678307305862736243e-01
1.209596001869352455e-01
7.158574714221638269e-02
2.059458921801946008e-02
-3.139306217302614832e-02
-8.384994692029651420e-02
-1.358607862451033654e-01
-1.865201604212574638e-01
-2.356564698466251107e-01
-2.817301471583653072e-01
-3.244490443746032016e-01
-3.630747810382335405e-01
-3.963051874337548686e-01
-4.247189203980185068e-01
-4.465611832797632408e-01
-4.618963566898191542e-01
-4.705843001797865854e-01
-4.715057778079619344e-01
-4.658904435329007665e-01
-4.525726517564322426e-01
-4.320795899673047780e-01
-4.050430345864938775e-01
-3.710420396356212680e-01
-3.316222907338428061e-01
-2.866600217147059482e-01
-2.370358444415443522e-01
-1.838880851446407783e-01
-1.276416733577579454e-01
-6.959035097048127394e-02
-1.055896420742408193e-02
4.855795299683970945e-02
1.067070170449849753e-01
1.628427455816989777e-01
2.164739386090043793e-01
2.663047616925939831e-01
3.117717632639264158e-01
3.524602521215071671e-01
3.870885423616107768e-01
4.161656519942245058e-01
4.384753540025516094e-01
4.539148067534893305e-01
4.629041725611535152e-01
4.643018560839658471e-01
4.593505304388935118e-01
4.473331383704818309e-01
4.285312511358470022e-01
4.039881819522733730e-01
3.730441716216662540e-01
3.371400543630816427e-01
2.962744590068691064e-01
2.509881087733669691e-01
2.024907621003747826e-01
1.508758788727788958e-01
9.727187345563911847e-02
4.236506991897560220e-02
-1.313136439686718449e-02
-6.833107563680446139e-02
-1.223157491245149414e-01
-1.745769772414458576e-01
-2.240335111085650088e-01
-2.699018801568436321e-01
-3.119916955709767237e-01
-3.488214799643782893e-01
-3.806032112242013210e-01
-4.063577959687785235e-01
-4.254374838301559492e-01
-4.385131047208513655e-01
-4.441013089294164606e-01
-4.430671281731709543e-01
-4.350216000371201486e-01
-4.197069310191905989e-01
-3.985046874667417249e-01
-3.705190226035263157e-01
-3.369973939704882238e-01
-2.983204302505460537e-01
-2.547378218354169332e-01
-2.078138335555042293e-01
-1.575472640703751981e-01
-1.051002151021033226e-01
-5.136379429695164811e-02
3.006157281427557226e-03
5.699266525589186116e-02
1.097581072959444570e-01
1.606868718002988361e-01
2.088837163774938388e-01
2.534843908959047432e-01
2.945500305049167933e-01
3.306845351320822357e-01
3.619928442063854446e-01
3.879964438568240803e-01
4.077972560405468405e-01
4.225042317506971234e-01
4.305919891949026579e-01
4.326915202107722846e-01
4.288994038174779311e-01
4.184767849117149163e-01
4.030138311390740746e-01
3.814172650548189880e-01
3.544816139688612977e-01
3.228022464318724971e-01
2.860361687852036594e-01
2.456420201640041878e-01
2.013699917138559170e-01
1.539445896255879354e-01
1.042372980375057406e-01
5.253784302550502938e-02
-2.490670550391689206e-04
-5.340862912463614776e-02
-1.063545443460124362e-01
-1.582462080001388327e-01
-2.081195137134195516e-01
-2.557926341158786032e-01
-2.998843490861083372e-01
-3.399902180035218047e-01
-3.756575878499983645e-01
-4.055586249511088925e-01
-4.302462195407505963e-01
-4.483175549512076197e-01
-4.596834155868080307e-01
-4.645825556119625444e-01
-4.618848446040161315e-01
-4.527643514032374528e-01
-4.364571912973975731e-01
-4.133083814895986974e-01
-3.842835813609136730e-01
-3.489228932725995103e-01
-3.086910829791423838e-01
-2.637510970968013346e-01
-2.147889747832818219e-01
-1.631167392835893293e-01
-1.090519592477057487e-01
-5.379585522364697947e-02
1.781080255192787898e-03
5.696276308744732675e-02
1.107454859020152171e-01
1.622544189447820973e-01
2.110752905865919682e-01
2.561305817168157972e-01
2.969518662863244174e-01
3.333720713764258270e-01
3.642574912191910985e-01
3.901236290550342267e-01
4.101283520649862679e-01
4.240832963124799848e-01
4.327372752988909443e-01
4.349440350541809996e-01
4.318227374321083056e-01
4.229973193127625208e-01
4.084254776398434927e-01
3.894033617074187381e-01
3.650350093523462847e-01
3.364991880011794501e-01
3.039371413037995073e-01
2.673914767063839126e-01
2.281447167944249677e-01
1.858824333043370414e-01
1.414305207185294067e-01
9.538205422045885340e-02
4.798633343689752417e-02
4.881141942851899285e-05
-4.789621506678688745e-02
-9.549564045348599151e-02
-1.418871111285726072e-01
-1.864632910186777015e-01
-2.291298206198129628e-01
-2.685500532934316231e-01
-3.047838297190892942e-01
-3.370243499631558892e-01
-3.643821083995157917e-01
-3.875087855854427166e-01
-4.047391819309240635e-01
-4.164943394083684969e-01
-4.224151739496913027e-01
-4.216965924910169861e-01
-4.156049475028076867e-01
-4.028486727451444649e-01
-3.841815333349052342e-01
-3.599283099337802216e-01
-3.298127017579919329e-01
-2.952849088590561166e-01
-2.560294036273478291e-01
-2.129504050098975365e-01
-1.669198156586184090e-01
-1.183160177298451243e-01
-6.829380273719458383e-02
-1.749288777256730043e-02
3.333251574704854114e-02
8.323050364076833851e-02
1.313702547484351113e-01
1.773475481371734053e-01
2.199849755490083658e-01
2.589608599659918298e-01
2.937393934448390143e-01
3.233678240392305336e-01
3.483546177448080261e-01
3.675016377098132003e-01
3.809879236957814386e-01
3.889336527684564837e-01
3.905451714865604829e-01
3.870022166359488036e-01
3.774929647207100891e-01
3.625343677539613618e-01
3.428053673514530053e-01
3.178665718393137718e-01
2.890645139912382255e-01
2.561965449962113062e-01
2.198776327618953974e-01
1.810226575030992324e-01
1.396826129319828080e-01
9.687756661906429811e-02
5.303637670776881891e-02
8.710203266160967961e-03
-3.532661092998404251e-02
-7.848958787378600144e-02
-1.203713794417415606e-01
-1.601053568198960442e-01
-1.972707858077210052e-01
-2.315437090052763769e-01
-2.619419245330771862e-01
-2.887223117627028546e-01
-3.109563169047780407e-01
-3.283976854973507664e-01
-3.413444532005781018e-01
-3.487422821412070051e-01
-3.513880116947594168e-01
-3.487083806836376865e-01
-3.406849518829225265e-01
-3.282010976744347830e-01
-3.105121454552288163e-01
-2.886890432505391790e-01
-2.627532198688362630e-01
-2.329147152759730721e-01
-2.003316683793383846e-01
-1.648066255312797823e-01
-1.272984619024253861e-01
-8.833846184909321941e-02
-4.827457618833411873e-02
-8.025935714658087583e-03
3.203501915398328931e-02
7.142598098782124150e-02
1.094276925951792878e-01
1.456413428408573629e-01
1.798381210777882377e-01
2.111800703953023994e-01
2.397892205320645009e-01
2.650903832736257737e-01
2.866264202834079566e-01
3.049824112125891773e-01
3.190217920922192030e-01
3.292904258927444872e-01
3.355443039601508914e-01
3.372326007992492714e-01
3.354933082714953718e-01
3.291618903950808694e-01
3.188812865847471811e-01
3.047807608623926967e-01
2.863262194141486527e-01
2.647499551321328970e-01
2.392746506131898376e-01
2.104256502750752322e-01
1.786730643821565490e-01
1.438172738022673314e-01
1.067544565678348045e-01
6.753731664780135424e-02
2.655165002308081112e-02
-1.550004548074541966e-02
-5.820952496520749586e-02
-1.011862565886247900e-01
-1.434879645293405115e-01
-1.847985599486708097e-01
-2.244182644246585645e-01
-2.613662982504051935e-01
-2.957836443436829832e-01
-3.262505253046400489e-01
-3.525652925344373578e-01
-3.743760161269647502e-01
-3.905349751857439822e-01
-4.017260863718144503e-01
-4.067268299010259325e-01
-4.056318119743883566e-01
-3.987304205875273899e-01
-3.852477537514561456e-01
-3.663329887769106730e-01
-3.415096026607686852e-01
-3.112618913266227416e-01
-2.765088985226661356e-01
-2.371531089551079940e-01
-1.944806239131983139e-01
-1.488665217568104493e-01
-1.009985346803838752e-01
-5.201154184178347073e-02
-2.405983369514086423e-03
4.693263525676766301e-02
9.509877367822996974e-02
1.415549009094274335e-01
1.855460700105379113e-01
2.262558723099752922e-01
2.636282294385970948e-01
2.966853705504562955e-01
3.252477149848193028e-01
3.493323365788238988e-01
3.680305720679486470e-01
3.821132847076747496e-01
3.908553072614195933e-01
3.943359232539102033e-01
3.933040151838597120e-01
3.868812041917878419e-01
3.762331596666839695e-01
3.610315975353378670e-01
3.413826916657082267e-01
3.183863572881887594e-01
2.913693807960548998e-01
2.613551723883414946e-01
2.284626139812443446e-01
1.927495512217635432e-01
1.552154356248472422e-01
1.156887860945596258e-01
7.474604238757444341e-02
3.294439677089739532e-02
-9.543841694024873118e-03
-5.212915240302332109e-02
-9.422831538586574907e-02
-1.357102574890747260e-01
-1.757157082593627795e-01
-2.137706322682379201e-01
-2.498404432297352262e-01
-2.826530434002652581e-01
-3.124106096411558564e-01
-3.382837704780228272e-01
-3.595609077099242157e-01
-3.768190450791677470e-01
-3.885673454440402019e-01
-3.952977419261478054e-01
-3.966308084029928072e-01
-3.919446753670778327e-01
-3.823688283915092634e-01
-3.668181558055104707e-01
-3.460449643561527844e-01
-3.203545961009491849e-01
-2.895428996586608683e-01
-2.549913119988254651e-01
-2.164275407868253009e-01
-1.746851115399606080e-01
-1.306009734253218979e-01
-8.447695539702376744e-02
-3.738751538121647122e-02
1.009983941287929260e-02
5.739941415702098232e-02
1.035997369531333617e-01
1.480435066139526024e-01
1.904606993932321524e-01
2.297353500923919323e-01
2.657566094541404800e-01
2.979892940917479027e-01
3.256200782742210142e-01
3.492883118974884349e-01
3.677373961161825577e-01
3.812725708466939700e-01
3.899366708341904797e-01
3.929092809922150042e-01
3.914306458614296158e-01
3.844747501206691176e-01
3.725155527697336377e-01
3.561005486562541789e-01
3.345786090409598179e-01
3.092732178281792921e-01
2.797029931412350345e-01
2.463051679240682856e-01
2.099010592622143345e-01
1.702670650591116275e-01
1.283811173038259812e-01
8.449904292679552564e-02
3.899861511121505142e-02
-7.293268451502549210e-03
-5.394729306007925440e-02
-1.005227125818613232e-01
-1.460848335013144317e-01
-1.902459929514659920e-01
-2.324469493203045189e-01
-2.716364563089895268e-01
-3.079382400304592204e-01
-3.401214995805998953e-01
-3.678215539549675728e-01
-3.910162530688028326e-01
-4.084115474330722861e-01
-4.206701341600596056e-01
-4.268382669328205092e-01
-4.267480524277926790e-01
-4.210702037501167783e-01
-4.088021192532728110e-01
-3.910293032722174655e-01
-3.675136362063727291e-01
-3.384137783317298087e-01
-3.049471688049421036e-01
-2.667559294800996295e-01
-2.250248881434103732e-01
-1.802652630509435361e-01
-1.328791214584188474e-01
-8.413974392294407134e-02
-3.435753535307045636e-02
1.565111144336094051e-02
6.495939676037289223e-02
1.131289010492691760e-01
1.594270866386625352e-01
2.030467674568514624e-01
2.438803549745100219e-01
2.810266872364287627e-01
3.141268274394471982e-01
3.433574159208238052e-01
3.676134525948429044e-01
3.874855393145176241e-01
4.024231497586110429e-01
4.120959223185123865e-01
4.175332305506682107e-01
4.175346128714301219e-01
4.130371883844761727e-01
4.039660507435428038e-01
3.899332455022587185e-01
3.723823973678349608e-01
3.502997898259260223e-01
3.245222340208188117e-01
2.954145441370011338e-01
2.626109485911887753e-01
2.274002675727171408e-01
1.893351293901996413e-01
1.488994005075527649e-01
1.067760241082831296e-01
6.290603478892584088e-02
1.800207691950429789e-02
-2.749149250050486604e-02
-7.341142998366552430e-02
-1.189333157330677432e-01
-1.635431195987108177e-01
-2.072201623081882937e-01
-2.486521046048711936e-01
-2.878352357511802517e-01
-3.240643246743294403e-01
-3.563070465954010224e-01
-3.851264916142015937e-01
-4.088650388177177408e-01
-4.276249187779158634e-01
-4.411536024097086894e-01
-4.483290978224634404e-01
-4.501829804470992569e-01
-4.454438672279235067e-01
-4.344282798807176382e-01
-4.175658764642671272e-01
-3.941860878064625817e-01
-3.656015186319279686e-01
-3.314500559346552078e-01
-2.923115084559352317e-01
-2.491870871634481177e-01
-2.021439993083867792e-01
-1.523957705848055788e-01
-1.005226899338280688e-01
-4.719590591687271297e-02
6.485877924753500473e-03
5.980920611673771342e-02
1.121412255746288833e-01
1.623438163808042789e-01
2.099345327651006565e-01
2.542822305806097805e-01
2.943258031347220638e-01
3.303017304503386153e-01
3.610198469384355846e-01
3.863338556474300578e-01
4.063893704327348200e-01
4.200791292380148256e-01
4.283914456383849378e-01
4.304785370766788244e-01
4.264683088074030515e-01
4.171914041148599983e-01
4.017608166523907176e-01
3.814703913224859466e-01
3.560337009566615918e-01
3.257211836047346210e-01
2.916638165032315322e-01
2.534665810137919917e-01
2.122360601435470673e-01
1.683009911376812662e-01
1.220357957996133502e-01
7.442425986188989928e-02
2.579358760456679917e-02
-2.322969938129522752e-02
-7.181816229309062605e-02
-1.194441859648980031e-01
-1.656117124363540027e-01
-2.092556056528563913e-01
-2.503003831408299185e-01
-2.877387301605138781e-01
-3.209239170261600771e-01
-3.500494872466168861e-01
-3.736505915086139051e-01
-3.921776371852376819e-01
-4.049079632081443725e-01
-4.112909570878420240e-01
-4.122519076397552773e-01
-4.065066563468525684e-01
-3.949451770311421805e-01
-3.775075946572532537e-01
-3.539979699682954117e-01
-3.258513521553671466e-01
-2.924563671516599017e-01
-2.548977246141493347e-01
-2.137993968021602575e-01
-1.693959636178113959e-01
-1.230886728700331667e-01
-7.508348463142847096e-02
-2.624291590549428232e-02
2.250022664225672514e-02
7.061566021648923996e-02
1.173988802015591970e-01
1.619836384857698541e-01
2.040876573263336602e-01
2.429666778822023310e-01
2.779564312330888853e-01
3.094022785022774724e-01
3.360645598230272979e-01
3.582645733667710330e-01
3.757562237878220857e-01
3.878249380837816007e-01
3.956438409595807726e-01
3.979715620336278237e-01
3.954187255194092088e-01
3.882671322424307569e-01
3.758214808226655324e-01
3.595341342758885950e-01
3.385239596918357963e-01
3.133444476316793459e-01
2.846475268682406301e-01
2.519592426346268788e-01
2.164712806393266353e-01
1.779839798766469083e-01
1.368702482352926186e-01
9.393655163577015188e-02
4.923368494935981970e-02
3.415054753306556723e-03
-4.290200297802530816e-02
-8.942416364861861811e-02
-1.354146923932831315e-01
-1.801349843615069335e-01
-2.234957265201499288e-01
-2.642719872315829610e-01
-3.021565910029976321e-01
-3.367378478917558149e-01
-3.667933145836458908e-01
-3.927472657039769999e-01
-4.133085356585559644e-01
-4.282578506082659331e-01
-4.377675613556460399e-01
-4.406595182916792086e-01
-4.378314346665945211e-01
-4.285416271055662030e-01
-4.128733873826038181e-01
-3.916821939499307015e-01
-3.643538518195512665e-01
-3.321033177114525170e-01
-2.950512111458180042e-01
-2.536314156598289404e-01
-2.091176504135704439e-01
-1.616262693984834020e-01
-1.122794932144480923e-01
-6.188129372197484490e-02
-1.098092093599206676e-02
3.932031031035738977e-02
8.837142238492656787e-02
1.356519332678700895e-01
1.801561222209704938e-01
2.215121438630504869e-01
2.593595202606435723e-01
2.927944970589609341e-01
3.221428931003634810e-01
3.466280431168092258e-01
3.661160409662631565e-01
3.811677342002117164e-01
3.907936600841159791e-01
3.959437975994892223e-01
3.962585217229575019e-01
3.916603449678058846e-01
3.833421146045217220e-01
3.703511684687069705e-01
3.537446952019972501e-01
3.335810250719661862e-01
3.096874951444468227e-01
2.833570421866862810e-01
2.539165928603456801e-01
2.220933207404236220e-01
1.883000212738315526e-01
1.523690279252544189e-01
1.152239854921903728e-01
7.680832163312015237e-02
3.739792737465406913e-02
-2.335944813464975456e-03
-4.227291502416676700e-02
-8.209123988901972924e-02
-1.210308050645607231e-01
-1.591288059120635756e-01
-1.956285448131126481e-01
-2.299433710216512161e-01
-2.623688585095881320e-01
-2.915025058256198731e-01
-3.175425832057033881e-01
-3.399330389515438089e-01
-3.577999033615035795e-01
-3.719104784115389029e-01
-3.808352805984103195e-01
-3.849027544618009999e-01
-3.840670807810603327e-01
-3.775758625941513791e-01
-3.665472975020716007e-01
-3.501241053730709263e-01
-3.288092471096629166e-01
-3.031836759894883659e-01
-2.729551913405854346e-01
-2.393569757148319155e-01
-2.023650608710984289e-01
-1.625651253090335258e-01
-1.209289819525946885e-01
-7.766938639361153918e-02
-3.371877620100495465e-02
1.027619046152548898e-02
5.389530143903458609e-02
9.626802750781364437e-02
1.368521636186462442e-01
1.754221368157988237e-01
2.110357879095650924e-01
2.436142639568283363e-01
2.728216870343554423e-01
2.979471484610061172e-01
3.195659873210008328e-01
3.367681168578829931e-01
3.497280284016577312e-01
3.587638286664709963e-01
3.630606540713010033e-01
3.636840457885051614e-01
3.599600806004653597e-01
3.520590715515221625e-01
3.407535689026459647e-01
3.252332626690950246e-01
3.065585742174415929e-01
2.844399322432870081e-01
2.588995663277692261e-01
2.308345015175498893e-01
1.997238597598132159e-01
1.662756284082143599e-01
1.307090307097241721e-01
9.302921415630466262e-02
5.398735043154956337e-02
1.370845944731613475e-02
-2.750558530416252756e-02
-6.892089634090381445e-02
-1.102950259555351420e-01
-1.511889954638129252e-01
-1.907017264094492681e-01
-2.288350400602246482e-01
-2.645731966144839742e-01
-2.973654900822186864e-01
-3.272150761221356285e-01
-3.527406175804845279e-01
-3.742122651226035268e-01
-3.907862299786971638e-01
-4.018565863972842767e-01
-4.079967942792019353e-01
-4.079546168772220649e-01
-4.023438414735089896e-01
-3.909507351730667768e-01
-3.734970758951032810e-01
-3.511255903229649200e-01
-3.232465925486708858e-01
-2.907837939399208760e-01
-2.542893569211659988e-01
-2.139530374135548696e-01
-1.711517848137761311e-01
-1.260674395318427399e-01
-7.959082869621153522e-02
-3.271592495699404690e-02
1.412452098666439060e-02
5.994202543542892503e-02
1.040492534167364869e-01
1.460684485928535059e-01
1.851027266041279651e-01
2.207777215894521361e-01
2.530259705265361370e-01
2.809554984194747029e-01
3.049145329969877860e-01
3.244812018976798162e-01
3.394112197715224988e-01
3.505803820501114387e-01
3.570826625706443602e-01
3.597235035131601810e-01
3.586106966484409186e-01
3.534632261315486246e-01
3.456317230702737886e-01
3.343144637647155193e-01
3.202437028176960965e-01
3.038859924246473110e-01
2.847837902017300582e-01
2.641565980103399713e-01
2.414577731380453673e-01
2.169724149094640897e-01
1.913111503470130148e-01
1.639663547686509293e-01
1.356325388447983671e-01
1.062308635699893006e-01
7.562858076600943724e-02
4.443919686255654034e-02
1.245880804272636588e-02
-2.016613982221410195e-02
-5.290870339819403467e-02
-8.598488695936568060e-02
-1.188583571489654767e-01
-1.511393791281171184e-01
-1.830269937514837353e-01
-2.135026114901341920e-01
-2.425745108808502748e-01
-2.699027606078160946e-01
-2.945615393100667889e-01
-3.169395550464703115e-01
-3.359255420301121564e-01
-3.513286941493049542e-01
-3.631957888497205356e-01
-3.704730165948204590e-01
-3.737397386274311506e-01
-3.722876433332533708e-01
-3.659710808293406004e-01
-3.553629828157249815e-01
-3.397605539308827804e-01
-3.199488693481957746e-01
-2.959192541289410450e-01
-2.677601458618335539e-01
-2.364609127732457128e-01
-2.019002637185067228e-01
-1.648877576135370504e-01
-1.260326412191165313e-01
-8.559666786604241961e-02
-4.457740219067737875e-02
-3.354329794095778361e-03
3.759266110567602293e-02
7.739130050210500655e-02
1.157979209487537270e-01
1.522951058852026196e-01
1.861946731238575681e-01
2.176057003216220476e-01
2.457603957414010720e-01
2.705098556080839378e-01
2.920817223076462854e-01
3.096079250960109830e-01
3.237243377806164890e-01
3.339740247368535586e-01
3.401948656903541757e-01
3.432500696933810103e-01
3.421857427835414134e-01
3.378174860109631750e-01
3.300437287829729449e-01
3.185724655421753315e-01
3.045159012609119364e-01
2.870379788024055023e-01
2.667706372226710254e-01
2.439430697298269057e-01
2.182250038687560956e-01
1.905593597703786890e-01
1.605727692004396134e-01
1.285793229175970220e-01
9.509477867705676268e-02
6.004921176078559242e-02
2.395717602357833043e-02
-1.278747727917320387e-02
-5.008723531565584253e-02
-8.724381029190197978e-02
-1.238142841811959993e-01
-1.597841492003361508e-01
-1.940076590427421144e-01
-2.264753787926228612e-01
-2.565432840511505663e-01
-2.833391720174358586e-01
-3.073028484445813335e-01
-3.270178830258169689e-01
-3.425778149420388718e-01
-3.537281118700766891e-01
-3.595624405663123135e-01
-3.609502618367570470e-01
-3.568277381484258326e-01
-3.475123902411145216e-01
-3.333640426753581298e-01
-3.138598453916597864e-01
-2.901680410873472282e-01
-2.619696214361615927e-01
-2.298027434379216749e-01
-1.945406570762526766e-01
-1.561968245921133147e-01
-1.158825597742053626e-01
-7.400146450155981048e-02
-3.109016823413873754e-02
1.188724025656257011e-02
5.450749345022415371e-02
9.617950734831456905e-02
1.360896220003997847e-01
1.739622027438610941e-01
2.092298938664768626e-01
2.412482437351235465e-01
2.702133565312646590e-01
2.952468698399385305e-01
3.163794569835008397e-01
3.337002815490640040e-01
3.464388350152990403e-01
3.554491433796678757e-01
3.600269458976423920e-01
3.603122161432960047e-01
3.569750742310365821e-01
3.491850348263176862e-01
3.380184545394157025e-01
3.230932450565758840e-01
3.044385836415133273e-01
2.829994549012375127e-01
2.580749806229687415e-01
2.305216926238063679e-01
2.003895565189925676e-01
1.675967467259673327e-01
1.330317418906587223e-01
9.645668117518058082e-02
5.831740604795718208e-02
1.914549253292818776e-02
-2.102258281104367466e-02
-6.158143214731841286e-02
-1.020360437042837354e-01
-1.422948683333119524e-01
-1.814618294067966708e-01
-2.191756272824484930e-01
-2.552542992769941677e-01
-2.885312042261655718e-01
-3.191698388060447145e-01
-3.462494185671468605e-01
-3.691502626125487962e-01
-3.882249701361657479e-01
-4.020851302092048329e-01
-4.111527662887782819e-01
-4.149277187347699125e-01
-4.128584002560367616e-01
-4.058643330401514593e-01
-3.929291877187833792e-01
-3.747547901332666243e-01
-3.515418630837717218e-01
-3.231169008617822969e-01
-2.907604785018798044e-01
-2.542031699151882651e-01
-2.142670227153986862e-01
-1.717515040666743042e-01
-1.269081515897957646e-01
-8.088121488706710716e-02
-3.414797242059546684e-02
1.270107616603229073e-02
5.869073414781776632e-02
1.033160758155928782e-01
1.461362165290787385e-01
1.861608193550864099e-01
2.233297594876522130e-01
2.569502533479466333e-01
2.864547553781441325e-01
3.123225233889495023e-01
3.333854689236291358e-01
3.500936027791055616e-01
3.622783414962281734e-01
3.693822591053589899e-01
3.725632010002011274e-01
3.707773875425769416e-01
3.646790595062656126e-01
3.545938842392324930e-01
3.400086642937925063e-01
3.222409665600849960e-01
3.006327294494655078e-01
2.757152355773660468e-01
2.481143143696332709e-01
2.175029709364043606e-01
1.848753178539906394e-01
1.501737157220941199e-01
1.136959502608773653e-01
7.613873240129298559e-02
3.760184430337851214e-02
-1.472761370219274890e-03
-4.047589556323938353e-02
-7.923130789645106697e-02
-1.171844332434315711e-01
-1.536630738383024386e-01
-1.887659595738542806e-01
-2.214163893234979419e-01
-2.514282220108849386e-01
-2.785976565504943991e-01
-3.018253219849995617e-01
-3.216510473461501318e-01
-3.369789145578467870e-01
-3.476371169177480680e-01
-3.539413658567386323e-01
-3.547818392981070268e-01
-3.510281840877923498e-01
-3.420484915135600934e-01
-3.278276995023422513e-01
-3.092007636003346049e-01
-2.854938472445163189e-01
-2.577230976474632618e-01
-2.259616113164606421e-01
-1.904374045457053466e-01
-1.522297757610018010e-01
-1.113312742131880445e-01
-6.860191776025495458e-02
-2.470132623199183808e-02
1.995486621116416420e-02
6.451545997098821761e-02
1.083542596651676376e-01
1.510790265261142962e-01
1.918000141763298583e-01
2.300272459431113581e-01
2.655619764675242189e-01
2.973350445335017911e-01
3.255535334534754854e-01
3.494815617619636550e-01
3.686270006663205923e-01
3.835926273331903280e-01
3.931391856635800819e-01
3.979444723063801370e-01
3.976957013791034279e-01
3.919438060035066451e-01
3.818904109184295681e-01
3.664639846197118578e-01
3.465055673228355504e-01
3.222145473069629729e-01
2.932758683434186775e-01
2.610307529558376638e-01
2.249381479975938458e-01
1.857002640471681343e-01
1.439486839285104569e-01
9.967789085199676991e-02
5.388533921018615058e-02
6.847336181186575166e-03
-4.101410991530776706e-02
-8.883056716774254125e-02
-1.361282170948172610e-01
-1.825689259632623518e-01
-2.270231989543881057e-01
-2.693563619568357659e-01
-3.087555147634352681e-01
-3.443168198960722681e-01
-3.764298236298468936e-01
-4.035083506980292611e-01
-4.256976630761679647e-01
-4.425970685626585688e-01
-4.532228684535415386e-01
-4.585779101004809899e-01
-4.573213296977923781e-01
-4.498980750503664972e-01
-4.365875173293297662e-01
-4.167704249569220698e-01
-3.918313072711958611e-01
-3.612260701728914336e-01
-3.256385362619648172e-01
-2.859717000470493042e-01
-2.422083008682778260e-01
-1.956709813505417839e-01
-1.467214665668584161e-01
-9.603311543411108264e-02
-4.469897033492004068e-02
6.769450258895692851e-03
5.764302434567461497e-02
1.069452514156587208e-01
1.542958197280808463e-01
1.989550208019034705e-01
2.400935244552541425e-01
2.778760738321728319e-01
3.111340282941588153e-01
3.398610311150241925e-01
3.639907006189510574e-01
3.825656715733201096e-01
3.965186231214865575e-01
4.048540386074320763e-01
4.077940704875602784e-01
4.059114721016391925e-01
3.983115759432592773e-01
3.862450918489545026e-01
3.691558897895367286e-01
3.473140405979024958e-01
3.216397780447444177e-01
2.915743959166532395e-01
2.582095421952184111e-01
2.215920060047418816e-01
1.820135804652437961e-01
1.403866169110596362e-01
9.679363651012778957e-02
5.190115709617404427e-02
6.361920383036290261e-03
-3.940382305400746965e-02
-8.478343701914325958e-02
-1.289301522981532444e-01
-1.716553804969957464e-01
-2.119402221005701192e-01
-2.492049657710676824e-01
-2.833568805423840598e-01
-3.130354209479078165e-01
-3.385245524767659941e-01
-3.589054044225656881e-01
-3.736315934182778964e-01
-3.832789758670475111e-01
-3.865329865072992810e-01
-3.841451190527931381e-01
-3.757711943325384718e-01
-3.611871692055516059e-01
-3.415879701626087783e-01
-3.162319986652088466e-01
-2.861914241738904296e-01
-2.518592210252867392e-01
-2.134367788166607882e-01
-1.723452591981206039e-01
-1.285973350595105980e-01
-8.319672685637891085e-02
-3.700218326525783752e-02
9.525538429042579303e-03
5.537805104068815876e-02
9.994247707075776255e-02
1.427362728307178807e-01
1.829306750442648566e-01
2.200300774518227920e-01
2.539661560927078954e-01
2.837742145683845862e-01
3.096762349688249039e-01
3.312558059863841553e-01
3.480412834626472884e-01
3.609541954879738057e-01
3.688862282692324523e-01
3.725230917301757261e-01
3.719551139545981266e-01
3.666772422362258865e-01
3.580926143077903800e-01
3.452316281899816541e-01
3.287687077763373766e-01
3.091758267400971372e-01
2.859240449770630299e-01
2.602918004335974533e-01
2.317318832625782643e-01
2.006096714112329815e-01
1.675895759828516240e-01
1.323473747204365059e-01
9.564865582928044896e-02
5.762373140715210118e-02
1.837584861763888466e-02
-2.139989935082692307e-02
-6.150344982069116950e-02
-1.017339913576125465e-01
-1.412396070615029586e-01
-1.799431275242292794e-01
-2.172803813720252386e-01
-2.524238065175474777e-01
-2.856146676717280508e-01
-3.155862065905098990e-01
-3.421741006561420662e-01
-3.651610433559114299e-01
-3.833859164200871250e-01
-3.974427944210756625e-01
-4.062177994250315560e-01
-4.095983658409134698e-01
-4.079193212259613066e-01
-4.002297097577406371e-01
-3.874321881251644450e-01
-3.690840881309270793e-01
-3.453411825243644095e-01
-3.170925502694534881e-01
-2.840267762384602879e-01
-2.471838286431334852e-01
-2.069372289479304294e-01
-1.637286247124037919e-01
-1.186558405952067297e-01
-7.210246405066167430e-02
-2.486339034608131549e-02
2.216093419882514404e-02
6.846289738657085344e-02
1.132892799244602511e-01
1.557957306554638155e-01
1.958128803931138417e-01
2.323768635551233253e-01
2.651309567617408103e-01
2.940699311190664300e-01
3.181610079550514225e-01
3.379405393642371802e-01
3.527320320039224466e-01
3.623604106048576856e-01
3.675798755131485240e-01
3.673830853739374902e-01
3.627334739044163481e-01
3.533920668783618879e-01
3.392803748802797337e-01
3.215664861410880704e-01
2.994945076891242230e-01
2.740273417805136891e-01
2.453673999973882136e-01
2.135174346156121228e-01
1.795820753820818183e-01
1.433299511550230054e-01
1.054160496277576353e-01
6.639677749056671630e-02
2.647155972073256258e-02
-1.369950510513673336e-02
-5.363080935490827095e-02
-9.305899581603815918e-02
-1.312548398476123257e-01
-1.677143681664716723e-01
-2.024089921776865975e-01
-2.342130486890465768e-01
-2.632071273708207482e-01
-2.887676311640581250e-01
-3.101644238114971142e-01
-3.280190759766037356e-01
-3.409644386506389679e-01
-3.493803473445250551e-01
-3.530576845211381709e-01
-3.513481298255689556e-01
-3.453337395194834292e-01
-3.340228852356543765e-01
-3.180268624558384438e-01
-2.977211806462067845e-01
-2.728189596028294805e-01
-2.445927259508999807e-01
-2.127738223870025980e-01
-1.780485382082928614e-01
-1.412416410590341398e-01
-1.024733797037814531e-01
-6.280135437005673893e-02
-2.262212911440597551e-02
1.757642516674851052e-02
5.692438567340118993e-02
9.505560992391437480e-02
1.315386760099874763e-01
1.656221280650675975e-01
1.972274737784993626e-01
2.258595181983298339e-01
2.510646362970834211e-01
2.731942572548313741e-01
2.914506346423015870e-01
3.061117819890799563e-01
3.172399087578450239e-01
3.243203397432354862e-01
3.282635107009763686e-01
3.284161318936948959e-01
3.251285974242676957e-01
3.189196811695227396e-01
3.092074311788071128e-01
2.970092492262379480e-01
2.819424272279129617e-01
2.641672208760370566e-01
2.444083959567131537e-01
2.221426374966326556e-01
1.981015774253154227e-01
1.722849938685606652e-01
1.446381561430176710e-01
1.158493767245571959e-01
8.571950628507618575e-02
5.455650663152900037e-02
2.279932365167791630e-02
-9.618331431031634793e-03
-4.219677744835781397e-02
-7.458621567235645955e-02
-1.068110556600001537e-01
-1.380843141812473363e-01
-1.682753817426130283e-01
-1.971653927819438934e-01
-2.238905168594000905e-01
-2.486807089287448314e-01
-2.706823670830154072e-01
-2.895736659748071595e-01
-3.055118623939572231e-01
-3.174547026917902137e-01
-3.258165888341233440e-01
-3.300548539795444825e-01
-3.298735667403884797e-01
-3.258836072162978326e-01
-3.173063089235577117e-01
-3.047679870412456360e-01
-2.883040803086920345e-01
-2.678505446029657566e-01
-2.443946517840742683e-01
-2.176772383775134045e-01
-1.884184456629010018e-01
-1.571898800909174998e-01
-1.241325072174714883e-01
-9.026582329983701136e-02
-5.579107745011335773e-02
-2.120415396733665858e-02
1.271819677774221891e-02
4.582649680212169674e-02
7.754524470961809968e-02
1.074099407200161393e-01
1.354333585519044703e-01
1.610041988606211727e-01
1.840537170201417272e-01
2.047582151858096666e-01
2.224879608832387445e-01
2.377470122458567037e-01
2.502824310070126401e-01
2.599622510329306913e-01
2.676292480015112218e-01
2.724991642925722601e-01
2.752191659634732890e-01
2.758815823648164134e-01
2.740716797177604747e-01
2.708790915065630855e-01
2.654577879702992860e-01
2.581782179810354627e-01
2.493693677451114254e-01
2.383042790382479126e-01
2.258944629462309450e-01
2.114595546133930526e-01
1.949426260917910270e-01
1.768145138759988910e-01
1.563383101829165511e-01
1.340363065358394223e-01
1.097120660328227970e-01
8.309828037741784357e-02
5.475546360091865239e-02
2.441857265383351461e-02
-7.726038858054451453e-03
-4.118222880464728064e-02
-7.603884023845530749e-02
-1.117131774300199609e-01
-1.476833326143252023e-01
-1.839504619708938193e-01
-2.194332147683191181e-01
-2.538377916300040837e-01
-2.867367690255147039e-01
-3.169588312028110977e-01
-3.446697950004153910e-01
-3.686610188804948507e-01
-3.884333043290970622e-01
-4.039832521538375687e-01
-4.140422741374853999e-01
-4.190609548754880009e-01
-4.182832687906818947e-01
-4.114082881039760053e-01
-3.990263442310002517e-01
-3.803919677803895283e-01
-3.562954711740644598e-01
-3.267889515564696978e-01
-2.920488418268112341e-01
-2.531156165048260576e-01
-2.100834557246802348e-01
-1.638708225680352015e-01
-1.152629260843500703e-01
-6.484963594696591116e-02
-1.365129553089516889e-02
3.750190097488914631e-02
8.798753973663675509e-02
1.367048262777430523e-01
1.829636772530909283e-01
2.262998210051034853e-01
2.655115735845314795e-01
3.006216269225405746e-01
3.306972509425842865e-01
3.552572926684960386e-01
3.746551885369053814e-01
3.877290786700271497e-01
3.951705143045987079e-01
3.965279869395866852e-01
3.916799341779634291e-01
3.816239735232158647e-01
3.655885010478867603e-01
3.446300184918046350e-01
3.188462883026841332e-01
2.884971914099219159e-01
2.547358599118425548e-01
2.174496447941569599e-01
1.776465183106537005e-01
1.358509083061751888e-01
9.268649583495625066e-02
4.892817372249780306e-02
5.246894304597127245e-03
-3.771443447235434121e-02
-7.926374006587089127e-02
-1.184903122649609841e-01
-1.553753623289022556e-01
-1.886129896732189337e-01
-2.180918880483337929e-01
-2.433041565744540335e-01
-2.632669393377309319e-01
-2.788277059834936011e-01
-2.885015181843009202e-01
-2.927279243761162775e-01
-2.914955439268052118e-01
-2.840897211621786767e-01
-2.719303178339576021e-01
-2.539951876242589890e-01
-2.310962880426359334e-01
-2.037873784325974214e-01
-1.718510624842704004e-01
-1.368015239488435952e-01
-9.839822417919386055e-02
-5.752529146323581699e-02
-1.502735370279140170e-02
2.878648151181550929e-02
7.287658122151441376e-02
1.167553302161223883e-01
1.597656472372008807e-01
2.012340319081609152e-01
2.404257567062941803e-01
2.771555257351252521e-01
3.105000094470717897e-01
3.401403736222441410e-01
3.659444557268098919e-01
3.868898636134563418e-01
4.036361011629825413e-01
4.151977803198985129e-01
4.214910160848308607e-01
4.230293032584366841e-01
4.186965890148517389e-01
4.096405530111582038e-01
3.951793087662540671e-01
3.753043212334592482e-01
3.510164414876939531e-01
3.214153387805094297e-01
2.876725880813655323e-01
2.497018735510767584e-01
2.075384394512180819e-01
1.623730701446621794e-01
1.138981379910433134e-01
6.298098738887780712e-02
1.024977594620768429e-02
-4.410635048674915737e-02
-9.902829268892876513e-02
-1.539983847166146447e-01
-2.085880993328661503e-01
-2.616228830242310899e-01
-3.126893417385891993e-01
-3.611655440866397004e-01
-4.058437924042792577e-01
-4.467823648545943827e-01
-4.827259367444356464e-01
-5.131783052648009047e-01
-5.382171901080332610e-01
-5.564584348201635500e-01
-5.684840868571550132e-01
-5.735382305537743974e-01
-5.713398970603265070e-01
-5.627639859906947706e-01
-5.468610703849865473e-01
-5.246553616057809677e-01
-4.962484375365150413e-01
-4.617591314519859935e-01
-4.226000966043397256e-01
-3.785982906205145326e-01
-3.308661114072553033e-01
-2.802588542158872542e-01
-2.271920837202614507e-01
-1.729828467494094468e-01
-1.181952479215446772e-01
-6.349717508702923396e-02
-1.002338119725365573e-02
4.175695506269505586e-02
9.132870452125629868e-02
1.376127908246225218e-01
1.807453619543011314e-01
2.198226301831205376e-01
2.544165751666547237e-01
2.851636013143448167e-01
3.106572372382530034e-01
3.317379187144666730e-01
3.480009656431590770e-01
3.589372783645785603e-01
3.661070637203991396e-01
3.679501001876701594e-01
3.655314254815422714e-01
3.589357975796261258e-01
3.475148016502345172e-01
3.330032943640830467e-01
3.141092650455874491e-01
2.916135484600133054e-01
2.659327153958130907e-01
2.364920577766724819e-01
2.045359553462660074e-01
1.695178000625219283e-01
1.318169057818998624e-01
9.200500935439848149e-02
5.005979296948126489e-02
6.470119206547053636e-03
-3.824740522777148044e-02
-8.375601015324107834e-02
-1.294929447407433543e-01
-1.749755349972765828e-01
-2.198352578053892614e-01
-2.627096099484127478e-01
-3.032144980641042764e-01
-3.407345855006340685e-01
-3.746890961503837048e-01
-4.046653738839420811e-01
-4.287131431041490970e-01
-4.464643645059549470e-01
-4.578788244022513609e-01
-4.629165076107657484e-01
-4.612594854438700764e-01
-4.506374806824600121e-01
-4.308047759024882239e-01
-4.032052416413316465e-01
-3.695705344347146593e-01
-3.298954910143461206e-01
-2.806841539486377712e-01
-2.202642223415836042e-01
-1.527502028808669365e-01
-8.840642029885259490e-02
-3.882329863360212130e-02
-9.674206605051693941e-03
