BVP Green Neck Signal
-7.461673366292873033e-02
-8.320351613848252226e-02
-9.157729838292978652e-02
-9.956497158555389915e-02
-1.069934269356381668e-01
-1.136895556224659237e-01
-1.194909806476535385e-01
-1.242825323268480497e-01
-1.279631690931270493e-01
-1.304653335507894307e-01
-1.317593716031742468e-01
-1.318281841375864849e-01
-1.307055547329964984e-01
-1.284413835015373873e-01
-1.251113124918327990e-01
-1.208226376612775432e-01
-1.156888118207946847e-01
-1.098457213493869156e-01
-1.034367325228260914e-01
-9.660687744048347680e-02
-8.950340819951635440e-02
-8.227118214833739618e-02
-7.504009224046032100e-02
-6.793427083875330785e-02
-6.106169582610308094e-02
-5.450687853605891420e-02
-4.834762181016493549e-02
-4.263024312358044271e-02
-3.738826756552621894e-02
-3.263932462658988148e-02
-2.837595933768710665e-02
-2.458608745268506951e-02
-2.124035863032321114e-02
-1.830187639722580251e-02
-1.573189949473734195e-02
-1.348856380340897332e-02
-1.153094772698681769e-02
-9.828047374405610159e-03
-8.353671750594607315e-03
-7.091427798128574489e-03
-6.043254950741025477e-03
-5.215461224269191121e-03
-4.635026249981979984e-03
-4.339724060112584714e-03
-4.375377026071547437e-03
-4.804097307852098209e-03
-5.690601790136431970e-03
-7.105592314558900613e-03
-9.123147352198518467e-03
-1.181450714451279249e-02
-1.524447895074239334e-02
-1.947547686686566804e-02
-2.455326935557858997e-02
-3.051332414067736004e-02
-3.738042434637037920e-02
-4.515359685735733514e-02
-5.382603195942214230e-02
-6.336669290232740948e-02
-7.372826129663168082e-02
-8.485397191237821490e-02
-9.666257446450712831e-02
-1.090676167224819415e-01
-1.219667674425145842e-01
-1.352460972264558081e-01
-1.487868804390542476e-01
-1.624570898960822074e-01
-1.761218088384480240e-01
-1.896388822030314336e-01
-2.028604096867844264e-01
-2.156366939710432917e-01
-2.278127584881607937e-01
-2.392325383254368387e-01
-2.497394789327005982e-01
-2.591766036464881462e-01
-2.673887822221341359e-01
-2.742274677465645905e-01
-2.795461936053217356e-01
-2.832113010122395136e-01
-2.851011281706415934e-01
-2.851024315109144114e-01
-2.831329217579009461e-01
-2.791192057890977130e-01
-2.730203755814406552e-01
-2.648285720513198216e-01
-2.545508218731726835e-01
-2.422515001246774990e-01
-2.280118405424740313e-01
-2.119553407425474600e-01
-1.942521998342578438e-01
-1.750868532582611214e-01
-1.546993691967768481e-01
-1.333469309425812932e-01
-1.113117817821394490e-01
-8.890624450838287285e-02
-6.644672365609280429e-02
-4.426154673177965654e-02
-2.268259647541978619e-02
-2.030257231222354353e-03
1.739008831583641057e-02
3.528220798289515014e-02
5.139631715603763806e-02
6.549992597091110202e-02
7.740109106535829342e-02
8.696534412642038803e-02
9.407472874501250637e-02
9.868769347489507460e-02
1.007930439630982805e-01
1.004220171032043502e-01
9.767120928499879728e-02
9.265129929391098529e-02
8.553201315481902267e-02
7.650842332700928672e-02
6.579661768366128205e-02
5.364782552820217265e-02
4.031841442067950199e-02
2.607840505169299605e-02
1.120410450921516254e-02
-4.032957603928161161e-03
-1.937005765901944621e-02
-3.454860250794720283e-02
-4.933722288992185845e-02
-6.351848709868046505e-02
-7.689475008164443903e-02
-8.930764181315063721e-02
-1.006079838325818210e-01
-1.106895851443260442e-01
-1.194701044298412673e-01
-1.268871790460940341e-01
-1.329214362146842743e-01
-1.375623515091149163e-01
-1.408331725414689872e-01
-1.427775102986705014e-01
-1.434506211410831455e-01
-1.429348365822566691e-01
-1.413177002069566091e-01
-1.387017975803785663e-01
-1.351995738665241753e-01
-1.309265177558835980e-01
-1.260056065152084792e-01
-1.205609995411477675e-01
-1.147165514002983638e-01
-1.085958971030842185e-01
-1.023204574259461014e-01
-9.600534057009531275e-02
-8.976395558319111290e-02
-8.370096408415329814e-02
-7.791424973455848835e-02
-7.249696696826080089e-02
-6.752800020405648473e-02
-6.308264676702179941e-02
-5.922248359632160952e-02
-5.599753810994599623e-02
-5.345165065246638980e-02
-5.160860035907531562e-02
-5.048705908026758504e-02
-5.009008831912122733e-02
-5.040647578430067222e-02
-5.141960829955625339e-02
-5.309442091432193395e-02
-5.539107665257907848e-02
-5.826047487521841817e-02
-6.164431482396483253e-02
-6.548273396166173765e-02
-6.971101447696347042e-02
-7.426327353959898125e-02
-7.907621653318352983e-02
-8.408934068345727542e-02
-8.924463863657317031e-02
-9.449488994364221850e-02
-9.979626041598005370e-02
-1.051143288076307469e-01
-1.104257029960888647e-01
-1.157100743524954456e-01
-1.209595010538264681e-01
-1.261700153300999716e-01
-1.313409848675520519e-01
-1.364760221403210627e-01
-1.415780381029932145e-01
-1.466445272836119362e-01
-1.516708983673127620e-01
-1.566427057229455855e-01
-1.615318682821539342e-01
-1.663055434697401358e-01
-1.709078951540635161e-01
-1.752741559302674612e-01
-1.793259860549028251e-01
-1.829646408484999764e-01
-1.860874230678979946e-01
-1.885763371949870093e-01
-1.903070586922055996e-01
-1.911551139849729242e-01
-1.909958182754970535e-01
-1.897070644340741741e-01
-1.871861368816296611e-01
-1.833393205764413669e-01
-1.780939721397120645e-01
-1.714149738048801330e-01
-1.632775562424295113e-01
-1.537104697379472196e-01
-1.427691381127144388e-01
-1.305389578873286383e-01
-1.171632789301675637e-01
-1.027975379826420732e-01
-8.764697617025760112e-02
-7.194374914835427459e-02
-5.593501911660466591e-02
-3.989926565671747527e-02
-2.411920171781899158e-02
-8.879911277264992964e-03
5.532179610263060487e-03
1.884332228389246078e-02
3.080922845473400840e-02
4.119426800283963741e-02
4.981434379517347966e-02
5.651836511092513116e-02
6.118494998531777418e-02
6.376678653110280648e-02
6.423318864746739576e-02
6.261854776914567433e-02
5.900253500582793020e-02
5.348776605538559104e-02
4.623812636346814886e-02
3.743010160098525496e-02
2.726979070587573495e-02
1.598568211784656690e-02
3.808864718802984495e-03
-9.023326241536663850e-03
-2.227331749885108625e-02
-3.571922764318869598e-02
-4.915206978288113454e-02
-6.237415446619307829e-02
-7.522435391403831106e-02
-8.755086144340577803e-02
-9.923352363349859095e-02
-1.101804404868777787e-01
-1.203104509739932187e-01
-1.295782756046473250e-01
-1.379476708231976712e-01
-1.453993987988331793e-01
-1.519307087441113813e-01
-1.575418277925459964e-01
-1.622422946470282734e-01
-1.660439791483454830e-01
-1.689581301266294133e-01
-1.709953424968798652e-01
-1.721652426045575113e-01
-1.724732838827774950e-01
-1.719237516556033907e-01
-1.705207115009155505e-01
-1.682679777132241039e-01
-1.651710603282212642e-01
-1.612438411707471375e-01
-1.565030950483330408e-01
-1.509773841259253735e-01
-1.447099173850153742e-01
-1.377495401158959354e-01
-1.301705532307272928e-01
-1.220561857092354319e-01
-1.135061406212654334e-01
-1.046423625667035756e-01
-9.559172207996273485e-02
-8.650099909783576235e-02
-7.752436477145588367e-02
-6.881949410122975563e-02
-6.054919146739919100e-02
-5.287478644003631295e-02
-4.594525264316240420e-02
-3.990432372753632134e-02
-3.487861221956321811e-02
-3.096739050749948430e-02
-2.826158986432357467e-02
-2.680944687801038034e-02
-2.664007818820253448e-02
-2.775675375734704131e-02
-3.011790322025007655e-02
-3.367208426248248510e-02
-3.832466824472079842e-02
-4.396009097502416585e-02
-5.044622596394112563e-02
-5.761978001002539262e-02
-6.531231771001123898e-02
-7.334057623976497631e-02
-8.151351630395727021e-02
-8.964180546959549245e-02
-9.753978731134083091e-02
-1.050242918366465078e-01
-1.119323195894906253e-01
-1.181124874670722302e-01
-1.234288657182540661e-01
-1.277801576719115317e-01
-1.310732661845925573e-01
-1.332533057027722456e-01
-1.342892647960911845e-01
-1.341677676564280164e-01
-1.329181555409520432e-01
-1.305788790878252281e-01
-1.272210525262686964e-01
-1.229379682302011723e-01
-1.178333897063547353e-01
-1.120382944851039397e-01
-1.056890464977942867e-01
-9.893359642298227286e-02
-9.192844391577181806e-02
-8.483009377833257425e-02
-7.779447363460392784e-02
-7.097670662783306383e-02
-6.452080193213403925e-02
-5.856185393240001535e-02
-5.322726320601029598e-02
-4.862017290185206148e-02
-4.483748372446463848e-02
-4.195231952003558584e-02
-4.001708701694056680e-02
-3.907421581882546818e-02
-3.913288969513129684e-02
-4.019374739617811304e-02
-4.223434266325765823e-02
-4.521038118952714485e-02
-4.907030408933479859e-02
-5.373733039058659761e-02
-5.912799199176491799e-02
-6.514719815188374508e-02
-7.168791103477122062e-02
-7.864098815637107776e-02
-8.589053673138451195e-02
-9.331887767105692677e-02
-1.008094682637316608e-01
-1.082470345815916279e-01
-1.155179667278801448e-01
-1.225162619162749877e-01
-1.291383918713975842e-01
-1.352879392183939933e-01
-1.408771110806199545e-01
-1.458209530918030128e-01
-1.500466710716225616e-01
-1.534856355071763934e-01
-1.560770080320686981e-01
-1.577702170393502357e-01
-1.585176197846687174e-01
-1.582844371843911968e-01
-1.570406752108438608e-01
-1.547650521983209848e-01
-1.514487640242289657e-01
-1.470867572639104892e-01
-1.416917384787023393e-01
-1.352835909472356879e-01
-1.278948957063073544e-01
-1.195780056377750422e-01
-1.103906239548075319e-01
-1.004160434231575749e-01
-8.974873104726768802e-02
-7.849781234914615657e-02
-6.679722370603916048e-02
-5.478630230973576681e-02
-4.262770595390678874e-02
-3.049511406670880886e-02
-1.857049006190059082e-02
-7.051004055066409371e-03
3.864118772326924356e-03
1.397211279187358934e-02
2.306844199910630666e-02
3.095450864133918178e-02
3.744372603680738709e-02
4.235392413686413227e-02
4.553152840055073314e-02
4.683903744246996348e-02
4.616038479751639889e-02
4.342634785534547903e-02
3.857907883983736907e-02
3.161581847853724148e-02
2.256740291196794590e-02
1.149224246037768016e-02
-1.485972308908400930e-03
-1.622940350289736600e-02
-3.254582264555748450e-02
-5.020695817087384577e-02
-6.896552561157277828e-02
-8.852580121629399779e-02
-1.085824529080581802e-01
-1.288068577830585870e-01
-1.488536218398529842e-01
-1.683765542431145956e-01
-1.870282290560717486e-01
-2.044624327672053821e-01
-2.203549599479491250e-01
-2.343988379640105091e-01
-2.463045920979423653e-01
-2.558367815059610639e-01
-2.627740625564889965e-01
-2.669546739202173224e-01
-2.682675311943503726e-01
-2.666294127383863066e-01
-2.620485377764984469e-01
-2.545566323072552817e-01
-2.442576604214169445e-01
-2.313223253642983646e-01
-2.159472517387409640e-01
-1.984187398463161944e-01
-1.790467015671416973e-01
-1.581907566910034091e-01
-1.362604042844677565e-01
-1.136758539862187112e-01
-9.089323068151314300e-02
-6.837793139927124397e-02
-4.659047881907620037e-02
-2.598608312478490473e-02
-7.008097001720392516e-03
9.953804716587050239e-03
2.452747392488285882e-02
3.640433698102173155e-02
4.535108610384698535e-02
5.116360701092896590e-02
5.376437686354591794e-02
5.311839391084775819e-02
4.927786724383860506e-02
4.240717903992170801e-02
3.270020140148435783e-02
2.047487428897429296e-02
6.093530745332378928e-03
-1.002917446840510818e-02
-2.740547655740967897e-02
-4.553745113003750816e-02
-6.389800319625547897e-02
-8.194924570792286311e-02
-9.917352099394831366e-02
-1.150839776727589636e-01
-1.292097924083460136e-01
-1.411720384844845910e-01
-1.506312339147156676e-01
-1.573208247130547521e-01
-1.610947942669521127e-01
-1.618373334088170357e-01
-1.595754300772582457e-01
-1.544020929121963370e-01
-1.464792068035507544e-01
-1.360922881561379971e-01
-1.235506203355650062e-01
-1.092540689279350857e-01
-9.364787678920739877e-02
-7.719721957190363304e-02
-6.040582402962729053e-02
-4.377995343756081043e-02
-2.780758330683035656e-02
-1.296654352948097000e-02
2.990389783655567069e-04
1.161718941288131246e-02
2.063530650384354237e-02
2.710514042740205798e-02
3.084056097102086391e-02
3.171191809969672870e-02
2.972019244447997310e-02
2.489469891592129003e-02
1.737673176398413233e-02
7.379999694250433118e-03
-4.842958181671602746e-03
-1.894299691528526786e-02
-3.455233038373942828e-02
-5.125931509466801622e-02
-6.862149097626255023e-02
-8.619629369304372679e-02
-1.035426656655359101e-01
-1.202226182051537584e-01
-1.358396675707631285e-01
-1.500290520068829070e-01
-1.624550258087002486e-01
-1.728689195471223017e-01
-1.810438295554733790e-01
-1.868372412972641450e-01
-1.901767028543048244e-01
-1.910241979568014226e-01
-1.894512258300004304e-01
-1.855562728517696214e-01
-1.795110534855316464e-01
-1.715533240969281115e-01
-1.619423957225750166e-01
-1.510090596607604474e-01
-1.391019587241888178e-01
-1.265965715893740962e-01
-1.138946643270029174e-01
-1.013983243406432894e-01
-8.950644580644283310e-02
-7.861589995345456827e-02
-6.909247767730961054e-02
-6.126890295823814864e-02
-5.545807935135821376e-02
-5.189084633935688723e-02
-5.077252365163769515e-02
-5.223503175904791601e-02
-5.632546787772288455e-02
-6.306158638595034394e-02
-7.233911599889369937e-02
-8.401400468414971234e-02
-9.786840323593698487e-02
-1.135918142894887239e-01
-1.308517224589206551e-01
-1.492275477413357310e-01
-1.682681832087562501e-01
-1.874947790969705430e-01
-2.063906558285137915e-01
-2.244375325268622157e-01
-2.411238585058594897e-01
-2.559412269196034151e-01
-2.684154677864140082e-01
-2.781232199901333413e-01
-2.846603090093170474e-01
-2.877226000640437653e-01
-2.870477814089117952e-01
-2.824451645408093681e-01
-2.738395535021685423e-01
-2.611844565088297099e-01
-2.445670110138916664e-01
-2.241346543871751695e-01
-2.001010290475079278e-01
-1.727957603912435025e-01
-1.425717832880074587e-01
-1.098757930613514650e-01
-7.520036274815103394e-02
-3.906704184824506126e-02
-2.052363285251046499e-03
3.525949109568132789e-02
7.227143048329782993e-02
1.083795944703011688e-01
1.429936814205430839e-01
1.755518967355343407e-01
2.055021387016577883e-01
2.323538554577536108e-01
2.556522869481938631e-01
2.749841350138226836e-01
2.900299056650963436e-01
3.004922331337338548e-01
3.061759747954532207e-01
3.069505335170566451e-01
3.027349374684147887e-01
2.935698075565993381e-01
2.795226851908176879e-01
2.607650814876396606e-01
2.375398535632992081e-01
2.101302881233226283e-01
1.789265991409841883e-01
1.443420001195119817e-01
1.068589803534281818e-01
6.701169092619187195e-02
2.535187619582703056e-02
-1.751958506963706419e-02
-6.099226520160054565e-02
-1.044498813772465617e-01
-1.472714087721765652e-01
-1.888470344291223735e-01
-2.286043676488487830e-01
-2.659819837947300369e-01
-3.004787528798552043e-01
-3.316466268711429355e-01
-3.590697670804377517e-01
-3.824424783163033470e-01
-4.014884074586406726e-01
-4.160247335759014176e-01
-4.259580751701220191e-01
-4.312308120356176389e-01
-4.319135296656102518e-01
-4.281119997113549402e-01
-4.200123743574255553e-01
-4.078842878174412934e-01
-3.920212974236334524e-01
-3.728047693697510434e-01
-3.506413918264801310e-01
-3.259748133346571652e-01
-2.992903764707986469e-01
-2.710797441358429594e-01
-2.418542880592983724e-01
-2.121310728499098963e-01
-1.824190410673665053e-01
-1.532171796791701734e-01
-1.250163723022793827e-01
-9.826773988256670700e-02
-7.340832908235597754e-02
-5.083656646940971219e-02
-3.089944999707228135e-02
-1.392669803324339539e-02
-1.678761185990723659e-04
1.015762032006357896e-02
1.688730135863837634e-02
1.994103228144501749e-02
1.926163956362524077e-02
1.489844320932053046e-02
6.944048474544703420e-03
-4.444600593353748019e-03
-1.900934799703711542e-02
-3.646790275559030209e-02
-5.642940810741525759e-02
-7.845524787987977200e-02
-1.020563089346597230e-01
-1.266571679245336868e-01
-1.516665239540180288e-01
-1.764347884763382834e-01
-2.002846836486805726e-01
-2.225344969866008826e-01
-2.424945355230532784e-01
-2.594804503054954914e-01
-2.728623818901314002e-01
-2.820390960154300353e-01
-2.864701101368631320e-01
-2.857383817499683509e-01
-2.794601424131106238e-01
-2.674294407390551132e-01
-2.495411721737084143e-01
-2.257936093121345467e-01
-1.964128108483435275e-01
-1.616754510433406899e-01
-1.220744555741844761e-01
-7.823594355531424127e-02
-3.087069165790613107e-02
1.910901458234119665e-02
7.075186032815332371e-02
1.229974457312652397e-01
1.747123802988881369e-01
2.247572289560305636e-01
2.719800064183612864e-01
3.152336746111569221e-01
3.534677901270609213e-01
3.857022638911996038e-01
4.110381490093706347e-01
4.288090862869374797e-01
4.384073819785203607e-01
4.394807920869643336e-01
4.318791457927005917e-01
4.155650259091615562e-01
3.908450957688637262e-01
3.581083165368325605e-01
3.179821420112405317e-01
2.712989793230282665e-01
2.189578415700190184e-01
1.620690219813008537e-01
1.017920957763656792e-01
3.934271832018702841e-02
-2.401110582601527488e-02
-8.701741661127990191e-02
-1.484941985702538936e-01
-2.072822117437303491e-01
-2.623597912916916797e-01
-3.128447544917847822e-01
-3.579241380479014634e-01
-3.970534724196885801e-01
-4.297669165657252988e-01
-4.557947039091112540e-01
-4.750829845733987589e-01
-4.876422176913929873e-01
-4.937322722028313904e-01
-4.936895237030737849e-01
-4.879639750976549339e-01
-4.771415466004916839e-01
-4.618311739123915904e-01
-4.427192619097942150e-01
-4.205168813299536845e-01
-3.959257132661612166e-01
-3.696352175500394743e-01
-3.423188273173572993e-01
-3.145635593912086692e-01
-2.869243337629234225e-01
-2.598795318323509629e-01
-2.337994167749739560e-01
-2.090248536261817836e-01
-1.857637324977975402e-01
-1.641714471154701316e-01
-1.443385857814843964e-01
-1.262562805611494587e-01
-1.098967246210582061e-01
-9.515958681951887377e-02
-8.191365244464376971e-02
-7.001209757274720613e-02
-5.928215949569567988e-02
-4.955011072112219112e-02
-4.065376098308017688e-02
-3.243646189199540092e-02
-2.476184386476622257e-02
-1.753045959851869118e-02
-1.065247400141518253e-02
-4.086375241255740809e-03
2.184791412635361807e-03
8.155705219752895641e-03
1.377712297554337106e-02
1.899165311636601128e-02
2.371396841259761079e-02
2.784334517583933466e-02
3.127512972477596020e-02
3.389648338499516578e-02
3.559462098747404046e-02
3.626863930359566779e-02
3.582480505324482645e-02
3.418222448143910797e-02
3.129024371154795481e-02
2.710574924454417500e-02
2.162287058353326574e-02
1.486008631041138561e-02
6.854194798091656216e-03
-2.311511943822772142e-03
-1.254346871905753780e-02
-2.371059874903139186e-02
-3.565517595513480187e-02
-4.820673016722114984e-02
-6.116013647216723276e-02
-7.430307912571930407e-02
-8.740721103098335332e-02
-1.002318097948213527e-01
-1.125358032030675942e-01
-1.240780269389667317e-01
-1.346183082692814226e-01
-1.439337253860212273e-01
-1.518158285595799795e-01
-1.580694354964611303e-01
-1.625433261671516694e-01
-1.650980998845534842e-01
-1.656413722858088855e-01
-1.641236020085072300e-01
-1.605164037659490561e-01
-1.548652378359863524e-01
-1.472353788141169684e-01
-1.377466784221408058e-01
-1.265730049146838176e-01
-1.139065563678815507e-01
-1.000059541558123155e-01
-8.514826593188527804e-02
-6.964312066925359979e-02
-5.383514960738872840e-02
-3.807488515512915533e-02
-2.273188685295811362e-02
-8.180828992588609627e-03
5.213029539885366548e-03
1.709542459228928502e-02
2.712227270793741984e-02
3.499743438276675667e-02
4.044110296220594647e-02
4.322263080284717562e-02
4.317373439522613487e-02
4.014763787248008808e-02
3.409414758059671480e-02
2.499765812470998438e-02
1.290623719369199396e-02
-2.044275382404980856e-03
-1.969548216941501007e-02
-3.979065526081212306e-02
-6.203519691209342934e-02
-8.608708381125175502e-02
-1.115332580838269971e-01
-1.379470071418315569e-01
-1.648490979737330664e-01
-1.917385237726738356e-01
-2.181049806949264536e-01
-2.434230980105700493e-01
-2.671693671400673931e-01
-2.888444526514750699e-01
-3.079602976099913847e-01
-3.240636849870054403e-01
-3.367632538837167511e-01
-3.456860827638212341e-01
-3.505587093790564213e-01
-3.511571368547658500e-01
-3.473213351867829313e-01
-3.390146211706411283e-01
-3.262288491588537509e-01
-3.090877303545612742e-01
-2.877861045379437877e-01
-2.625794799402391133e-01
-2.338503001965110961e-01
-2.020063421849600527e-01
-1.675491214852643795e-01
-1.310350813389714042e-01
-9.304578421478901240e-02
-5.421927124964744799e-02
-1.520188060107252603e-02
2.335617396087842634e-02
6.080225732610129719e-02
9.650270993231556405e-02
1.298719690776369839e-01
1.603382207844843421e-01
1.874099945442376791e-01
2.106515513530861639e-01
2.296733782232165955e-01
2.442109466844908927e-01
2.540292690214490112e-01
2.590103208368600418e-01
2.591242258627518558e-01
2.543895065547130963e-01
2.449651976374225271e-01
2.310428944600257384e-01
2.129123741188484464e-01
1.909438075399115808e-01
1.655373329564374107e-01
1.371851812939729465e-01
1.064007602459838969e-01
7.373493709130572726e-02
3.977189990551986687e-02
5.096726050276972897e-03
-2.970650654545529956e-02
-6.405571670216374247e-02
-9.740706906251817010e-02
-1.292536801700290561e-01
-1.591141755353560616e-01
-1.866039440306681008e-01
-2.113662648515855225e-01
-2.331325353790411059e-01
-2.517266212478475040e-01
-2.670065283619207364e-01
-2.789622243800424228e-01
-2.876228436927709131e-01
-2.930943248925401701e-01
-2.955701483221589432e-01
-2.952641819148918989e-01
-2.924664967086422762e-01
-2.874908745692850154e-01
-2.806690015892442380e-01
-2.723547289288354434e-01
-2.628995650234031700e-01
-2.526350447487971107e-01
-2.418852011513053513e-01
-2.309392273615650804e-01
-2.200394313950472247e-01
-2.094123504235359534e-01
-1.992107460849735223e-01
-1.895595284827412408e-01
-1.805414953350452933e-01
-1.721778704710630326e-01
-1.644771954532749658e-01
-1.573971518809678671e-01
-1.508748140832130158e-01
-1.448346410358080649e-01
-1.391810892482961137e-01
-1.338177004757847843e-01
-1.286542947688553151e-01
-1.236036221824439452e-01
-1.185928597263832540e-01
-1.135741828642078677e-01
-1.085065624625738967e-01
-1.033833615091073604e-01
-9.821458117940104482e-02
-9.302613809512438880e-02
-8.787383542196440522e-02
-8.281875094343270349e-02
-7.793930001751184222e-02
-7.332297347620980732e-02
-6.905762845150326124e-02
-6.523171360396180785e-02
-6.193225552849471183e-02
-5.923149712202123440e-02
-5.719319392678465924e-02
-5.586919039190109404e-02
-5.528472038684126288e-02
-5.545886095233763108e-02
-5.638288076966105344e-02
-5.803073861642554787e-02
-6.036493347758548067e-02
-6.332037120198383273e-02
-6.682636072948328065e-02
-7.079456254199667509e-02
-7.512469797090307044e-02
-7.971219767970780246e-02
-8.444152429969442597e-02
-8.919518169972230626e-02
-9.385388796488447483e-02
-9.829704951440772220e-02
-1.024057844593127681e-01
-1.060663633748074874e-01
-1.091665476785695782e-01
-1.116026976821717642e-01
-1.132780470228319236e-01
-1.141006933117707234e-01
-1.139939013894411823e-01
-1.128848507720315586e-01
-1.107159343859681067e-01
-1.074427552508496336e-01
-1.030283940596287418e-01
-9.746103812448056458e-02
-9.073557274288704400e-02
-8.286975689737093032e-02
-7.390292321427142930e-02
-6.388425791944021825e-02
-5.289828662279742744e-02
-4.103926096931761330e-02
-2.842700675988862891e-02
-1.520754755137201930e-02
-1.535278447987259431e-03
1.240443086577848464e-02
2.641739090090901299e-02
4.029615214425850966e-02
5.381851152562362739e-02
6.676105158372629134e-02
7.889825468599802327e-02
9.000435504436533896e-02
9.986601775195581843e-02
1.082849336382076672e-01
1.150714236169047694e-01
1.200761727699495712e-01
1.231639005355913558e-01
1.242353999350827992e-01
1.232388392244430780e-01
1.201370737904539215e-01
1.149589146521505095e-01
1.077574862114333981e-01
9.862384921550125527e-02
8.770320079808240077e-02
7.515251049446390608e-02
6.117706575370208955e-02
4.600127441822023100e-02
2.986364366122652714e-02
1.302451832624959560e-02
-4.254512898781481756e-03
-2.171635146940963101e-02
-3.910605496954369653e-02
-5.618679903196789616e-02
-7.275239286193839472e-02
-8.860667375225490805e-02
-1.036083217578073201e-01
-1.176419985297395138e-01
-1.306273987681790261e-01
-1.425485185939621702e-01
-1.534036481834125665e-01
-1.632544947662888934e-01
-1.721952984997855152e-01
-1.803445572996400514e-01
-1.878690150921419888e-01
-1.949434049573831318e-01
-2.017636352097473829e-01
-2.085373705782455067e-01
-2.154674703440220274e-01
-2.227459665181170112e-01
-2.305596641779069644e-01
-2.390548481269919034e-01
-2.483531471111800060e-01
-2.585465395590829663e-01
-2.696566728397937762e-01
-2.816886565110517937e-01
-2.945732364094437172e-01
-3.081920402204562648e-01
-3.223950918291089707e-01
-3.369516754814239623e-01
-3.516142077141005129e-01
-3.660842544970062673e-01
-3.800268855661936285e-01
-3.930978206142291542e-01
-4.049281558506848677e-01
-4.151455717224454278e-01
-4.233928390743497139e-01
-4.293245071882942909e-01
-4.326147540194916763e-01
-4.329987803132395174e-01
-4.302280270872643197e-01
-4.241272437518598393e-01
-4.145833164169350771e-01
-4.015166648199817168e-01
-3.849572505437177106e-01
-3.649626990758700895e-01
-3.416686739676922380e-01
-3.152826884864756152e-01
-2.860357529996648829e-01
-2.542382882453675941e-01
-2.202209790445016080e-01
-1.843451565372559720e-01
-1.470027981831130426e-01
-1.085883042568664414e-01
-6.950064867015746939e-02
-3.013936628869252204e-02
9.113119136448383228e-03
4.789296875807276532e-02
8.584593338509184657e-02
1.226576982282414491e-01
1.580263172767766844e-01
1.916770432105592281e-01
2.233672177661114033e-01
2.528626160947768930e-01
2.799624490352111139e-01
3.044769249104280484e-01
3.262318601443975896e-01
3.450730756880347472e-01
3.608515654922676563e-01
3.734399171798802319e-01
3.827185972794447943e-01
3.885854004990245691e-01
3.909622602936039248e-01
3.897800357856965325e-01
3.850135753222164170e-01
3.766551160118574715e-01
3.647332751742848878e-01
3.493317667458012976e-01
3.305498344673786781e-01
3.085611345688500928e-01
2.835709012297397136e-01
2.558252433300786666e-01
2.256375399406323479e-01
1.933346610774984708e-01
1.592976963529521006e-01
1.239325567797841393e-01
8.765659237565641415e-02
5.090748772233517905e-02
1.412279459213812427e-02
-2.227876771365504271e-02
-5.788807579738364240e-02
-9.232459559335026711e-02
-1.252636898282293298e-01
-1.563958697846422607e-01
-1.854919886343325830e-01
-2.123667332204960401e-01
-2.368780779713949847e-01
-2.589756783813721985e-01
-2.786284103986539917e-01
-2.958817898538612101e-01
-3.108267334419769767e-01
-3.235787855394680612e-01
-3.343096908552991020e-01
-3.432007923967236307e-01
-3.504517359894762651e-01
-3.562739319915297909e-01
-3.608720383177905222e-01
-3.644329398124530606e-01
-3.671373852643755598e-01
-3.691226877566892717e-01
-3.704957147496302783e-01
-3.713374960273318481e-01
-3.716584013845795620e-01
-3.714524395691973790e-01
-3.706536480112818666e-01
-3.691503987065929415e-01
-3.668121038094532271e-01
-3.634534084804386112e-01
-3.588775659763872028e-01
-3.528727518690603082e-01
-3.452146690399224838e-01
-3.356868173142773526e-01
-3.241002854533210908e-01
-3.102749712784139136e-01
-2.940879974725953971e-01
-2.754679185648998274e-01
-2.543757747989072171e-01
-2.308863519496723304e-01
-2.051051870333599481e-01
-1.772342206909333640e-01
-1.475695024379023168e-01
-1.164415581627216562e-01
-8.430559646131147167e-02
-5.165101095193446595e-02
-1.902845371618774872e-02
1.294647322970082781e-02
4.364941308290330724e-02
7.243077324791936944e-02
9.863507198963693268e-02
1.216425131030245826e-01
1.408743991448484500e-01
1.557813574847544680e-01
1.659475451282824698e-01
1.710018306304579294e-01
1.707012399304587147e-01
1.649631467090946768e-01
1.537583770394517768e-01
1.372932552536141326e-01
1.158570241546769547e-01
8.988129680318100723e-02
5.999123052640355225e-02
2.685596295531907096e-02
-8.674862385877932236e-03
-4.568369684312037493e-02
-8.320018104182105856e-02
-1.201760091742144071e-01
-1.555610377330393368e-01
-1.883345336130082259e-01
-2.174890051340941377e-01
-2.421037601029607522e-01
-2.613977539464951705e-01
-2.746376293807016311e-01
-2.813462393440438469e-01
-2.811621653220631734e-01
-2.738954702108750694e-01
-2.596559001918725684e-01
-2.386222409107234266e-01
-2.112869802421965537e-01
-1.782958498254758606e-01
-1.404249604300027154e-01
-9.869763389737190584e-02
-5.417984898030459018e-02
-8.070852404505737820e-03
3.835963233780646797e-02
8.384579652562111629e-02
1.271313314603478295e-01
1.669757580718368439e-01
2.022853695112276640e-01
2.320516017121364571e-01
2.553854299219615043e-01
2.716678027770252357e-01
2.803438135876924475e-01
2.811582782798871527e-01
2.740445732219001229e-01
2.590697658103344736e-01
2.366267654577460799e-01
2.071764565391323032e-01
1.714071503970346910e-01
1.301626377855403249e-01
8.434633335911910501e-02
3.501613726937773119e-02
-1.674216808079345697e-02
-6.981760413780191410e-02
-1.230804920528444368e-01
-1.754293532354195828e-01
-2.258484157623069088e-01
-2.733464681775360505e-01
-3.170707280403093353e-01
-3.562802129861007416e-01
-3.903043843016978376e-01
-4.186935982709060200e-01
-4.410530516012252100e-01
-4.571634679242473909e-01
-4.669595676899872538e-01
-4.704376070531534615e-01
-4.677970890741920407e-01
-4.592887706477267185e-01
-4.452777602193326301e-01
-4.262381382409092812e-01
-4.026725491031648008e-01
-3.751797798942037021e-01
-3.443834876886103791e-01
-3.109324028744421264e-01
-2.755012071295985243e-01
-2.387613290361050855e-01
-2.013647657712077099e-01
-1.639567018529004550e-01
-1.271389214099805931e-01
-9.146441754604991980e-02
-5.746364851324731182e-02
-2.557135467846654436e-02
3.808580308390804858e-03
3.034596903570584148e-02
5.380062556526575557e-02
7.395980199989347914e-02
9.072682243072614783e-02
1.040448081339417213e-01
1.139222173424388612e-01
1.204542004208580402e-01
1.237558245793981132e-01
1.240232758760549253e-01
1.214826150558304813e-01
1.163897199324387260e-01
1.090434430818682660e-01
9.974846742138192279e-02
8.882541606923287369e-02
7.660107716824444968e-02
6.339374124110179476e-02
4.950833167747810404e-02
3.524320881832769536e-02
2.085845800259496230e-02
6.597251136518739179e-03
-7.325762295381496592e-03
-2.074458233344410318e-02
-3.350493100425265547e-02
-4.550720426043713962e-02
-5.667788112305589820e-02
-6.696903569141346435e-02
-7.638014272329388121e-02
-8.491995998273070556e-02
-9.263307452213299931e-02
-9.958262734955672379e-02
-1.058422722535160287e-01
-1.115067170629671922e-01
-1.166737929587679107e-01
-1.214468515149872696e-01
-1.259323307985056872e-01
-1.302329497451336082e-01
-1.344430954325695204e-01
-1.386543087750163328e-01
-1.429394177345401085e-01
-1.473597491632496759e-01
-1.519642721657383233e-01
-1.567723658369925832e-01
-1.617964759205920977e-01
-1.670182655935832927e-01
-1.723988512698379771e-01
-1.778856573162992949e-01
-1.833907204047179329e-01
-1.888184006689212491e-01
-1.940475189243460186e-01
-1.989383715582350443e-01
-2.033441986690509573e-01
-2.070988978752478782e-01
-2.100327026684117859e-01
-2.119733315036049781e-01
-2.127465223940730454e-01
-2.121833540309983612e-01
-2.101321465553261381e-01
-2.064463825739281388e-01
-2.010100190624872774e-01
-1.937331122179264120e-01
-1.845434095876020697e-01
-1.734278155879041550e-01
-1.603888898136321683e-01
-1.454834679593772495e-01
-1.288188767661124501e-01
-1.105241815302130948e-01
-9.080494696160053281e-02
-6.988725822750914418e-02
-4.804558751191648214e-02
-2.560329618488870612e-02
-2.896647131508348072e-03
1.969252473467679454e-02
4.177000140224769453e-02
6.293353332910468778e-02
8.277205716095924204e-02
1.008804122154278310e-01
1.168830988397203258e-01
1.304147253685881136e-01
1.411570169113870454e-01
1.488478670732337195e-01
1.532489779289006315e-01
1.542274874358377512e-01
1.516863175298718835e-01
1.456063083449286033e-01
1.360692180364755366e-01
1.231846706399543495e-01
1.071819738520718296e-01
8.833369494996061444e-02
6.696906608274406925e-02
4.349705598154236796e-02
1.834039232365267114e-02
-8.029779435577588664e-03
-3.512373553575433294e-02
-6.245544680622963640e-02
-8.954460387934820575e-02
-1.159199321075260608e-01
-1.411690889021319228e-01
-1.649052969018321713e-01
-1.867957958323565038e-01
-2.065977575765362562e-01
-2.240915329389879806e-01
-2.391692137336395851e-01
-2.517749216031199277e-01
-2.619069625996850448e-01
-2.696615866319685417e-01
-2.751535957200816340e-01
-2.785670560642419802e-01
-2.801209635615026783e-01
-2.800472716140118834e-01
-2.786030833034346954e-01
-2.760462587100542264e-01
-2.726139309489537532e-01
-2.685317161289454968e-01
-2.639975045185624092e-01
-2.591494668075337016e-01
-2.541108646251623027e-01
-2.489303035962251998e-01
-2.436116616930135703e-01
-2.381254283707958663e-01
-2.323645705594398203e-01
-2.262069440985869373e-01
-2.194844373870023513e-01
-2.119990307432321197e-01
-2.035489739283676269e-01
-1.939241825822249909e-01
-1.829159389392152890e-01
-1.703511821901176060e-01
-1.560821166080597344e-01
-1.399918421431906868e-01
-1.220495398088216193e-01
-1.022457449832773202e-01
-8.066373072045740500e-02
-5.745812760278015685e-02
-3.282225627989713429e-02
-7.064076156372445237e-03
1.948213183807920301e-02
4.641244189960201660e-02
7.326470812743961225e-02
9.956332322355741782e-02
1.247928103073497191e-01
1.484299732683790896e-01
1.699669177690769639e-01
1.889096451864543114e-01
2.047854156198694042e-01
2.171994144464071685e-01
2.257790021479363918e-01
2.302388189885795078e-01
2.303795917262008164e-01
2.260398133162497825e-01
2.171988283635631900e-01
2.038759818909315347e-01
1.861860903635478848e-01
1.643462458942649973e-01
1.386037720690276864e-01
1.093204795152433045e-01
7.689236815708593020e-02
4.176802367907327118e-02
4.457221526132329470e-03
-3.451916266723888127e-02
-7.460200675211532684e-02
-1.152202911365974997e-01
-1.558038112048049095e-01
-1.957833976803875220e-01
-2.345964713945918323e-01
-2.717163407431422151e-01
-3.066294769023001909e-01
-3.388616647738900700e-01
-3.679927045940916686e-01
-3.936204221645537293e-01
-4.154281565612362170e-01
-4.331323879973645874e-01
-4.465084328034526484e-01
-4.554194635522733625e-01
-4.597517198710567299e-01
-4.594977260561952659e-01
-4.546944838045899329e-01
-4.454372616431463983e-01
-4.319158925352928335e-01
-4.143409361471639407e-01
-3.930121447383276290e-01
-3.682696982776766936e-01
-3.404887459126079707e-01
-3.101060572584994901e-01
-2.775684989757102872e-01
-2.433539506325952395e-01
-2.079554681510015213e-01
-1.718629966134446185e-01
-1.355602702208789090e-01
-9.952587159454265309e-02
-6.419787526384654330e-02
-2.999249797335138551e-02
2.706405243027898422e-03
3.358277076535129413e-02
6.233660631353347970e-02
8.874396126216636815e-02
1.126253447193415608e-01
1.338360885951768720e-01
1.523104640113726038e-01
1.679989650929868406e-01
1.809106053500827982e-01
1.910915800407267384e-01
1.986059491961369994e-01
2.035612982539005689e-01
2.060733719442989775e-01
2.062759271269834493e-01
2.043151586483213378e-01
2.003381230956437498e-01
1.944935731091602671e-01
1.869299436857556063e-01
1.777869090590402656e-01
1.671975629067604663e-01
1.552899041081875486e-01
1.421769933695375965e-01
1.279684617136934710e-01
1.127638951592288968e-01
9.665468317221410921e-02
7.973013440996414014e-02
6.207343780179065684e-02
4.376658754657387906e-02
2.489297914177455995e-02
5.537250332095761118e-03
-1.421343242956316089e-02
-3.426282417915703371e-02
-5.451213270929805566e-02
-7.485234658665834706e-02
-9.516461481315208193e-02
-1.153259691685771526e-01
-1.351985104775243474e-01
-1.546402890890963833e-01
-1.735017929636737399e-01
-1.916256016174653354e-01
-2.088536529482800663e-01
-2.250266949722071197e-01
-2.399854330504405109e-01
-2.535789364184272698e-01
-2.656657748457356694e-01
-2.761106377033783477e-01
-2.848054472182247054e-01
-2.916511300154585595e-01
-2.965745279565061288e-01
-2.995344621324826373e-01
-3.005006810234777115e-01
-2.994908070645396769e-01
-2.965391233228487633e-01
-2.917101231537419515e-01
-2.851088045390279824e-01
-2.768500108604536880e-01
-2.670898759506142306e-01
-2.559999156666469822e-01
-2.437674196222957557e-01
-2.306026501004854734e-01
-2.167187026657946824e-01
-2.023352836239805663e-01
-1.876746160473211911e-01
-1.729508349875761297e-01
-1.583652296503932910e-01
-1.441135693872883372e-01
-1.303601484195079929e-01
-1.172552169028246438e-01
-1.049261959534864841e-01
-9.346115820080491687e-02
-8.293890188241545558e-02
-7.339549950881417428e-02
-6.484644050785925984e-02
-5.728897329258955673e-02
-5.068623047207230364e-02
-4.499538532011639752e-02
-4.015430418525754719e-02
-3.609078361821166370e-02
-3.273222960987467317e-02
-3.000542452263210008e-02
-2.783874280708156096e-02
-2.617698474489638105e-02
-2.497434705697205298e-02
-2.419798711244292022e-02
-2.384390919057496894e-02
-2.391456486224272093e-02
-2.444009638313404675e-02
-2.546781409203068697e-02
-2.705354559910691514e-02
-2.927339736271321324e-02
-3.220655830660562602e-02
-3.593256132059712005e-02
-4.053115545163609584e-02
-4.607281152002379310e-02
-5.260305418541313255e-02
-6.016029320030323591e-02
-6.874167224253438513e-02
-7.831408084740078268e-02
-8.882179424354344488e-02
-1.001445059034671292e-01
-1.121467451408084681e-01
-1.246405816134024680e-01
-1.373963011336502005e-01
-1.501681879102422790e-01
-1.626625269285301156e-01
-1.745752545570052050e-01
-1.855903805361689141e-01
-1.953815948404560299e-01
-2.036295739078975986e-01
-2.100410263425154522e-01
-2.143308536468285785e-01
-2.162637477059579649e-01
-2.156511995109207658e-01
-2.123316776748402357e-01
-2.062419390728920665e-01
-1.973460601792614844e-01
-1.856874923221843443e-01
-1.713907177894363754e-01
-1.546078510354982338e-01
-1.355939974476242926e-01
-1.146337123613541120e-01
-9.206185925271945236e-02
-6.826908371159043365e-02
-4.365531494957046454e-02
-1.865063928160501372e-02
6.306306129451544340e-03
3.078833789127838338e-02
5.438207093980475249e-02
7.668617308280435696e-02
9.735771818466122662e-02
1.160740424036926094e-01
1.325653952096497168e-01
1.466312766503660714e-01
1.580917161076785815e-01
1.668575212126121587e-01
1.728727597169462116e-01
1.761294183098686128e-01
1.766876241069121334e-01
1.746215271173492400e-01
1.700609871537873130e-01
1.631578295061889561e-01
1.540801057520447270e-01
1.430209129663196910e-01
1.301761652511967959e-01
1.157464249730954936e-01
9.993417268735536874e-02
8.293713484726024376e-02
6.494501274068641139e-02
4.614538351225051793e-02
2.671537602435308800e-02
6.827231875599582001e-03
-1.334895085030160522e-02
-3.364696071028708962e-02
-5.390043794527869803e-02
-7.393817884751792413e-02
-9.358648119155002498e-02
-1.126667602165257187e-01
-1.309906902240167426e-01
-1.483682141099779139e-01
-1.646038414297097408e-01
-1.794990923381860060e-01
-1.928598711198294957e-01
-2.045017406438776053e-01
-2.142444833638762480e-01
-2.219392010475335630e-01
-2.274559959413519072e-01
-2.306905100590914137e-01
-2.315988215210533219e-01
-2.301518498981645067e-01
-2.263920670104547228e-01
-2.204090487433514323e-01
-2.123263598374435235e-01
-2.023543542236377335e-01
-1.907221387213162977e-01
-1.777223198061610443e-01
-1.636929253534978312e-01
-1.489886013878411741e-01
-1.340088324160311484e-01
-1.191612130617657472e-01
-1.048551942698485173e-01
-9.150166404344085846e-02
-7.949730689881655266e-02
-6.919399276200147164e-02
-6.093088317377878815e-02
-5.497948461437292267e-02
-5.155415578574855384e-02
-5.083471702384868146e-02
-5.288781384588660955e-02
-5.775117023974639385e-02
-6.537369389797439978e-02
-7.562280042871505348e-02
-8.833642326034545078e-02
-1.032519485873453768e-01
-1.200808735992755782e-01
-1.384886816510771945e-01
-1.580950003499113632e-01
-1.785134200765022272e-01
-1.993405859222052989e-01
-2.201694908384791982e-01
-2.406137117724920782e-01
-2.603091057115335394e-01
-2.789070615276593168e-01
-2.961252263689014841e-01
-3.117020687976848059e-01
-3.254326153214872619e-01
-3.371783902696722790e-01
-3.468214226972361480e-01
-3.543281718079460685e-01
-3.596928468206286866e-01
-3.629518971942330419e-01
-3.641957248935383529e-01
-3.635250396808981654e-01
-3.610783688337975694e-01
-3.570074194815203161e-01
-3.514681988486980102e-01
-3.446226685188509276e-01
-3.366302072582799676e-01
-3.276316423498404351e-01
-3.177604130590095943e-01
-3.071301951618484738e-01
-2.958248317228686641e-01
-2.839203341319957996e-01
-2.714564201430793022e-01
-2.584575270423808413e-01
-2.449329398139936664e-01
-2.308671124176163714e-01
-2.162409453187135178e-01
-2.010260237328145849e-01
-1.851897686730733239e-01
-1.687054267813403730e-01
-1.515567156518125291e-01
-1.337317561145387468e-01
-1.152462265496158600e-01
-9.612961306542654183e-02
-7.642996389180188588e-02
-5.623138292679213252e-02
-3.562582786454962513e-02
-1.473929789839746596e-02
6.283740442549270999e-03
2.728753444832117403e-02
4.809265952284703938e-02
6.851617401303265742e-02
8.837020133070087879e-02
1.074639837867727016e-01
1.256135107201312162e-01
1.426505741985554798e-01
1.584118877899088895e-01
1.727650283941201681e-01
1.855974107960373098e-01
1.968148629655469550e-01
2.063693120281993587e-01
2.142231634916208494e-01
2.203808384455900327e-01
2.248760948877975285e-01
2.277586509093326717e-01
2.291211142826527492e-01
2.290652533389597179e-01
2.277182139324648857e-01
2.252263975026391751e-01
2.217417030978899861e-01
2.174313981746570090e-01
2.124656612760114638e-01
2.070143253100686365e-01
2.012469375115680803e-01
1.953287262133150959e-01
1.894104249669901208e-01
1.836387130695570358e-01
1.781410555546087404e-01
1.730277077214032455e-01
1.683996080423224573e-01
1.643255097828526523e-01
1.608655545138314991e-01
1.580540870563851841e-01
1.559003560625102924e-01
1.544038110584289858e-01
1.535282971839456723e-01
1.532277050384700523e-01
1.534327290408727396e-01
1.540495541423418380e-01
1.549769558819751314e-01
1.560858441913598460e-01
1.572389162044618427e-01
1.582859789503278103e-01
1.590620456992434262e-01
1.593998629761790298e-01
1.591250362407832242e-01
1.580611178914287929e-01
1.560365633681070063e-01
1.528859427541932048e-01
1.484485700526496088e-01
1.425873604119414217e-01
1.351737364900410521e-01
1.261030553159396828e-01
1.153031043283789664e-01
1.027124190986170443e-01
8.831988524769339433e-02
7.213360774142719978e-02
5.419463653907220790e-02
3.459253381487911727e-02
1.342866739513760843e-02
-9.143499831022236513e-03
-3.294909958051638749e-02
-5.779086406292972822e-02
-8.343569598536818011e-02
-1.096446841327259614e-01
-1.361600872623864311e-01
-1.627158760416884398e-01
-1.890493632023475534e-01
-2.149037632873279646e-01
-2.400267998959169646e-01
-2.641977679565842285e-01
-2.872114583463775128e-01
-3.088901809784280750e-01
-3.291084502605888251e-01
-3.477539352099995318e-01
-3.647796976114384693e-01
-3.801734821501189798e-01
-3.939564125616504819e-01
-4.062183131561253324e-01
-4.170630778364722846e-01
-4.266496204919227875e-01
-4.351685359692434307e-01
-4.428262112392937211e-01
-4.498640172768010870e-01
-4.565284013713817868e-01
-4.630685974744063182e-01
-4.697355476406014363e-01
-4.767672876920721059e-01
-4.843697511339585260e-01
-4.927395433772259747e-01
-5.020177728025015940e-01
-5.123077127719402046e-01
-5.236808115501218053e-01
-5.361239781730909870e-01
-5.496046367438010005e-01
-5.640159846611073613e-01
-5.791962430691856012e-01
-5.949576082642445973e-01
-6.110385625614930261e-01
-6.271618488964145754e-01
-6.430171172549683511e-01
-6.582673868972555020e-01
-6.725754207580628696e-01
-6.856056142573636603e-01
-6.970245975146159845e-01
-7.065337356820818870e-01
-7.138647639116237897e-01
-7.187725141521196237e-01
-7.210911761149089161e-01
-7.206761610320606692e-01
-7.174541440394188729e-01
-7.114194782521413574e-01
-7.025928293854821760e-01
-6.910882920610451619e-01
-6.770451038506662966e-01
-6.606526667085896865e-01
-6.421521251401325348e-01
-6.217949152523442047e-01
-5.998668758878487051e-01
-5.766630120491101907e-01
-5.524732238246460314e-01
-5.275816918520780385e-01
-5.022627916821131855e-01
-4.767454625411506330e-01
-4.512437000228016748e-01
-4.259249836170769243e-01
-4.009001799767023533e-01
-3.762614184202849876e-01
-3.520202314237759755e-01
-3.281606119505718344e-01
-3.046212168916505036e-01
-2.812807569537010832e-01
-2.580051821811539803e-01
-2.346103189882669526e-01
-2.108937363083014382e-01
-1.866413211110528603e-01
-1.616221939194459889e-01
-1.356061320046910712e-01
-1.083754282918068246e-01
-7.971767257708324561e-02
-4.944307877900389753e-02
-1.739724081625673713e-02
1.656313853885882370e-02
5.252462938475950527e-02
9.054891473662284029e-02
1.306628573735621468e-01
1.728341656095969125e-01
2.170172432916734895e-01
2.631075143301264130e-01
3.109723912813758262e-01
3.604544777904262753e-01
4.113506233856495387e-01
4.634492717545920515e-01
5.165090579340547716e-01
5.702732534204361103e-01
6.244789179208679597e-01
6.788507867772737292e-01
7.331123896278946006e-01
7.869899947595315748e-01
8.402114341979818324e-01
8.925104750443579871e-01
9.436339720000418430e-01
9.933320334622949277e-01
1.041370968000177255e+00
1.087526995922511563e+00
1.131583712954712606e+00
1.173342206026757983e+00
1.212607247562691892e+00
1.249196851590855362e+00
1.282937838297125932e+00
1.313662021434506721e+00
1.341214012626181340e+00
1.365441335788600608e+00
1.386202676018908564e+00
1.403364788773756811e+00
1.416800619795369975e+00
1.426400554268832055e+00
1.432059437871644469e+00
1.433692413913763231e+00
1.431230572221600328e+00
1.424615958262551940e+00
1.413824131997639233e+00
1.398839060613693341e+00
1.379675493826661326e+00
1.356374453313834438e+00
1.328989300379937344e+00
1.297613605085084387e+00
1.262350989132200008e+00
1.223330585910747503e+00
1.180705179792162829e+00
1.134634176388160665e+00
1.085299002914757338e+00
1.032886556431886538e+00
9.775878815085864426e-01
9.195981988693288089e-01
8.591101715931390714e-01
7.963048719732089831e-01
7.313596338064233260e-01
6.644334260393117697e-01
5.956651331205553568e-01
5.251848230081136437e-01
4.530863111462347659e-01
3.794521062213155327e-01
3.043398013940615265e-01
2.277773908774369249e-01
1.497851863322443577e-01
7.035300068370999027e-02
-1.053933863076549071e-02
-9.292180962562215929e-02
-1.768370431803962806e-01
-2.623276582465423057e-01
-3.494314853003223087e-01
-4.381843294013472723e-01
-5.286057325377190308e-01
-6.206924156402523485e-01
-7.144319591786930657e-01
-8.097657564918234741e-01
-9.066168937246570358e-01
-1.004874391007720469e+00
-1.104375321156755518e+00
-1.204943642170756002e+00
-1.306343336670455102e+00
-1.408312831317768188e+00
-1.510562967150519187e+00
-1.612758891142155537e+00
-1.714557744227064973e+00
-1.815588619848122143e+00
-1.915467736775078089e+00
-2.013810945538834662e+00
-2.110233552141460134e+00
-2.204353997552901401e+00
-2.295817609313184793e+00
-2.384283375588877707e+00
-2.469434627822820971e+00
-2.551002555008324624e+00
-2.628729875501917501e+00
-2.702414764059374974e+00
-2.771885829668486956e+00
-2.836995348384355076e+00
-2.897645937950491746e+00
-2.953749252601808983e+00
-3.005242983572786297e+00
-3.052080317396500764e+00
-3.094212486314046107e+00
-3.131585634175490185e+00
-3.164142101649442651e+00
-3.191788299594387812e+00
-3.214407291442042514e+00
-3.231855524583002737e+00
-3.243921854413244876e+00
-3.250379292271094123e+00
-3.250933732462879089e+00
-3.245243715596549894e+00
-3.232943178750816049e+00
-3.213599371830327289e+00
-3.186766126803258548e+00
-3.151971572199717908e+00
-3.108724135996642879e+00
-3.056539325851079791e+00
-2.994956139722715349e+00
-2.923522202740706621e+00
-2.841854296933457924e+00
-2.749626821477606509e+00
-2.646559409838609600e+00
-2.532519624381456946e+00
-2.407413867547087083e+00
-2.271291778766213909e+00
-2.124332624034445782e+00
-1.966774087148424499e+00
-1.799054842148499089e+00
-1.621666262139963566e+00
-1.435227337220475352e+00
-1.240482497236835568e+00
-1.038209618507940357e+00
-8.293023817160720679e-01
-6.146850261810677951e-01
-3.953024056025410404e-01
-1.721213813078378840e-01
5.390462865500163236e-02
2.818878603860745513e-01
5.109623551238537953e-01
7.403614340449793385e-01
9.694335476871852597e-01
1.197573539216726379e+00
1.424375031963701410e+00
1.649496912090351763e+00
1.872727172112577110e+00
2.094016453142046874e+00
2.313353697852492452e+00
2.530880843906936573e+00
2.746792816806415072e+00
2.961322280402983509e+00
3.174753522867910682e+00
3.387365467434371613e+00
3.599382103725271342e+00
3.811005044363143135e+00
4.022335501558893966e+00
4.233325199860519028e+00
4.443875043653964241e+00
4.653628306395440006e+00
4.862120452570164453e+00
5.068720451798538917e+00
5.272527909268817758e+00
5.472581519480334222e+00
5.667652340241603248e+00
5.856390640371575529e+00
6.037349728657220638e+00
6.208912723363761543e+00
6.369440468816212508e+00
6.517253737505972921e+00
6.650654266157908445e+00
6.768006568219402830e+00
6.867796235473999644e+00
6.948552722432107309e+00
7.009078750475414843e+00
7.048323804055637964e+00
7.065425742559838795e+00
7.059915238332596488e+00
7.031412450778567802e+00
6.979941502957561106e+00
6.905761771314220532e+00
6.809291017792046041e+00
6.691303842434324523e+00
6.552638267170339148e+00
6.394285804643075721e+00
6.217334916164462655e+00
6.022829905347243162e+00
5.811700376932193102e+00
5.584827623266741981e+00
5.342704063917511625e+00
5.085554153138580169e+00
4.813322432417440844e+00
4.525198294079185501e+00
4.220187812602163469e+00
3.896513236722553675e+00
3.551810176521041029e+00
3.183398820960543940e+00
2.787690892868238457e+00
2.360897600057829671e+00
1.898742548930510088e+00
1.396552868668090364e+00
8.496690848806655039e-01
2.535141351005383847e-01
-3.964430052725024800e-01
-1.104194370160650696e+00
-1.873255827339693758e+00
-2.706384139040089565e+00
-3.603634073967306950e+00
-4.564446146700507079e+00
-5.588260871819226594e+00
-6.674518763901905238e+00
