BVP Signal
-2.615949205059438926e-02
-1.730204485015172239e-02
-8.304883734668838668e-03
8.944026540887439758e-04
1.035822567435515373e-02
2.014899668436503921e-02
3.032105074365357145e-02
4.089319672502522707e-02
5.187360658236134237e-02
6.324511666100585128e-02
7.496188398799086272e-02
8.696798505393238399e-02
9.916618537657623245e-02
1.114460537938032347e-01
1.236724014755494760e-01
1.356795954027855133e-01
1.472943447855303289e-01
1.583125342723915030e-01
1.685195573227639132e-01
1.776896612427407984e-01
1.855822045590605762e-01
1.919556756739222436e-01
1.965695498144730546e-01
1.991839559704964013e-01
1.995739863281192350e-01
1.975364788448432107e-01
1.928779438758470854e-01
1.854564482184335450e-01
1.751512835859940775e-01
1.618853673527271275e-01
1.456505181247050307e-01
1.264578289768810426e-01
1.044127627472273834e-01
7.966259053373600518e-02
5.241042761874628586e-02
2.295525173289053589e-02
-8.382594693114475692e-03
-4.118853032555028215e-02
-7.500276611277945094e-02
-1.093286847667769290e-01
-1.436010726406324878e-01
-1.772438958365856188e-01
-2.096524017837662068e-01
-2.402069983082034121e-01
-2.683000534000308246e-01
-2.933486821204200345e-01
-3.147811812552497313e-01
-3.321057309682732828e-01
-3.448760439049893822e-01
-3.527071863966520504e-01
-3.553502632377570358e-01
-3.525890017332183879e-01
-3.443622391228954860e-01
-3.307047187384275500e-01
-3.117240426174977541e-01
-2.877025213935627823e-01
-2.589593150891433826e-01
-2.259442601784151239e-01
-1.891949907106661444e-01
-1.492868819974173256e-01
-1.068920024385794920e-01
-6.270022686837850578e-02
-1.742627624364820327e-02
2.819699757126523099e-02
7.344926144863983541e-02
1.176481362297420175e-01
1.601229133181205633e-01
2.002772275471023655e-01
2.375737288770690125e-01
2.715151793536569325e-01
3.017283189177168978e-01
3.278704754297087631e-01
3.497003121136317283e-01
3.670638780985287508e-01
3.798428430924434829e-01
3.880348023875366259e-01
3.916661177558165563e-01
3.908274168404318183e-01
3.856695245876017863e-01
3.763590877856674566e-01
3.631152865431448440e-01
3.461707854923398719e-01
3.257750980640884975e-01
3.021948789303514071e-01
2.756991053240001044e-01
2.465634032150904875e-01
2.150652615478014784e-01
1.814845308735719698e-01
1.461036713039061130e-01
1.092076176775242102e-01
7.109231593748599476e-02
3.205740571545417916e-02
-7.582481288172071565e-03
-4.749471733304666543e-02
-8.733961792770766897e-02
-1.267464649596963255e-01
-1.653340721412682179e-01
-2.027035248922589017e-01
-2.384327892587468911e-01
-2.720966306459337569e-01
-3.032604250854415984e-01
-3.314865412315436966e-01
-3.563524913440246356e-01
-3.774572695351308682e-01
-3.944124475550639941e-01
-4.068984608744611320e-01
-4.146235407372962367e-01
-4.173599313788525222e-01
-4.149785414192352362e-01
-4.073784379154103963e-01
-3.945957802685829408e-01
-3.767259596038444736e-01
-3.539420533022284987e-01
-3.265472543249130499e-01
-2.948723286408483357e-01
-2.593643469990082329e-01
-2.205247386161769407e-01
-1.788937583535793463e-01
-1.350821650563675813e-01
-8.971050007061653897e-02
-4.341854535176697949e-02
3.144289574467273862e-03
4.934442408592570883e-02
9.458001961447043415e-02
1.382602493861778692e-01
1.798630443021438652e-01
2.189045391613252400e-01
2.549436591289864218e-01
2.876317003889614643e-01
3.166403848934876697e-01
3.417289763647522460e-01
3.627095402133786450e-01
3.794292804508689887e-01
3.918173795560149775e-01
3.998196588311175859e-01
4.034376637998511872e-01
4.027094791425855913e-01
3.976910353943589604e-01
3.884831355213051451e-01
3.751960133270818565e-01
3.579694272242137654e-01
3.369641865203742426e-01
3.123537370787941025e-01
2.843463353375472735e-01
2.531587876971597706e-01
2.190437525123122564e-01
1.822816677505340877e-01
1.431716067238705814e-01
1.020687856029595664e-01
5.934227345137271792e-02
1.541065408872916223e-02
-2.926580871790723792e-02
-7.420904947485144898e-02
-1.188841888332953650e-01
-1.627428986234495112e-01
-2.052126192913974467e-01
-2.456986346436221824e-01
-2.836080889119971804e-01
-3.183582525766154303e-01
-3.493708326453117130e-01
-3.761139127722595843e-01
-3.981016351382217211e-01
-4.148788774363137977e-01
-4.261101925579254823e-01
-4.314955236037103514e-01
-4.308476608321965551e-01
-4.241011197270166955e-01
-4.112362853001636509e-01
-3.924158252098644550e-01
-3.678581646371562597e-01
-3.378951257123125607e-01
-3.029913961238908104e-01
-2.636450775528013102e-01
-2.204844564128615181e-01
-1.741799178344926313e-01
-1.254467752856554263e-01
-7.505752443326704770e-02
-2.378934575228540405e-02
2.757515698390833325e-02
7.825221878845251000e-02
1.274899480583131517e-01
1.745805666745378348e-01
2.188349079214657045e-01
2.596578006107112535e-01
2.964908259380555355e-01
3.288444906285688529e-01
3.563329495752015630e-01
3.785973391597121651e-01
3.954031080015620314e-01
4.065680735746454166e-01
4.119770549037149454e-01
4.116243681390427400e-01
4.055288074128319820e-01
3.938161887510659431e-01
3.766612762201260733e-01
3.542892632751532545e-01
3.270149107622151718e-01
2.951719981789004410e-01
2.591750242090120615e-01
2.194786389500171242e-01
1.765731901487138100e-01
1.310179329495532730e-01
8.338597735068128958e-02
3.430489880330121755e-02
-1.556829313068366222e-02
-6.556005533487255232e-02
-1.149623360667789002e-01
-1.630625466090321329e-01
-2.091467962017344306e-01
-2.525005045736898879e-01
-2.924281712919346021e-01
-3.282785953111137522e-01
-3.594145274233614407e-01
-3.852869124894935382e-01
-4.054032051887544452e-01
-4.193309486127841379e-01
-4.267879214755568862e-01
-4.275279836599998329e-01
-4.214674201473087578e-01
-4.086355507571854395e-01
-3.891362147622394740e-01
-3.632741578903471158e-01
-3.313991251901426405e-01
-2.940115975597069053e-01
-2.517260413207930148e-01
-2.052038157165421983e-01
-1.552407450937185462e-01
-1.026614008656193122e-01
-4.834323471866764504e-02
6.792855117383270191e-03
6.182727486465677824e-02
1.158491145155323976e-01
1.679524708606965622e-01
2.172917497695278088e-01
2.630751888205132838e-01
3.045496619073370104e-01
3.410973161416203103e-01
3.721371402052625621e-01
3.972126617413724858e-01
4.159881488657425352e-01
4.281781288214980830e-01
4.336804830890376161e-01
4.324443445262065033e-01
4.245418753785411003e-01
4.101747860033808091e-01
3.895851589351353450e-01
3.631673257559168144e-01
3.313606494361912569e-01
2.946841229841166143e-01
2.537478152707918211e-01
2.091827717530069519e-01
1.616983504667939830e-01
1.120284744183769471e-01
6.092928579846804138e-02
9.184530110574684603e-03
-4.242238372344467323e-02
-9.311915607875932699e-02
-1.421380297154804795e-01
-1.887458902415974915e-01
-2.322564083526658663e-01
-2.720029435899243841e-01
-3.074161524236167509e-01
-3.379639827372249439e-01
-3.631925087748413272e-01
-3.827624665751044875e-01
-3.963672764824222039e-01
-4.038546224460473621e-01
-4.051357356323035397e-01
-4.002133416665820120e-01
-3.892361142495932569e-01
-3.723861207358594161e-01
-3.499926461708843251e-01
-3.224505926750008133e-01
-2.902178758916053036e-01
-2.538615867959989059e-01
-2.139685032786443619e-01
-1.711956314626526254e-01
-1.262338812025626256e-01
-7.978540028264857753e-02
-3.257324485113507334e-02
1.467985168728948298e-02
6.127484994994433776e-02
1.065253456719347791e-01
1.497743193625119817e-01
1.904253460779395390e-01
2.278977855524317309e-01
2.616931540217618535e-01
2.913602059020093948e-01
3.164934348504807593e-01
3.367894995863829344e-01
3.519681222216837213e-01
3.618492596474225387e-01
3.663154956110570848e-01
3.652961804137422330e-01
3.588339680990592084e-01
3.469966897332634193e-01
3.299514625470891804e-01
3.079328342129473151e-01
2.812175081311699132e-01
2.501928743815584610e-01
2.152708978153186625e-01
1.769481366657415233e-01
1.357835857751366615e-01
9.236474539861662392e-02
4.735942489532915523e-02
1.452542478501697709e-03
-4.463478585015499822e-02
-9.015241577481492019e-02
-1.343509179544068732e-01
-1.764858564219154990e-01
-2.158165978124780560e-01
-2.516531379217858966e-01
-2.833495871844056158e-01
-3.102973329992040896e-01
-3.320159661155402397e-01
-3.480601315337733537e-01
-3.581173821365143950e-01
-3.620010571059719684e-01
-3.595821764716052305e-01
-3.509394010852270873e-01
-3.362084097040272668e-01
-3.156681075257515845e-01
-2.897446244747744482e-01
-2.589080938443555913e-01
-2.237900596102692929e-01
-1.850679876572084437e-01
-1.434829466080541627e-01
-9.984701582813709786e-02
-5.497874864747791246e-02
-9.709740726939655731e-03
3.512576202992581664e-02
7.873464150997860900e-02
1.203736650862261975e-01
1.593256012697690793e-01
1.949937862131524424e-01
2.268232911140585228e-01
2.543542179787717794e-01
2.772519020504611853e-01
2.952171387612581022e-01
3.081060982129945613e-01
3.158322822357839121e-01
3.183916428931328202e-01
3.158981926125244422e-01
3.084917448166536458e-01
2.964184456579485039e-01
2.799668532137125077e-01
2.594676203955211813e-01
2.353168780134871074e-01
2.079226600686810977e-01
1.777368163793687783e-01
1.452301596670792505e-01
1.108853743564776062e-01
7.520517404664325833e-02
3.869474639048658959e-02
1.863411198140041414e-03
-3.477763206993497724e-02
-7.072319573066064569e-02
-1.054792329734470652e-01
-1.385562111939501739e-01
-1.694932054662503240e-01
-1.978441188090479252e-01
-2.231877792138491357e-01
-2.451530655039614592e-01
-2.633823453595339759e-01
-2.775898464101651530e-01
-2.875301440299750100e-01
-2.930029069535053377e-01
-2.939061940483591040e-01
-2.901610075138795208e-01
-2.817938690577566074e-01
-2.688956398957432770e-01
-2.516066142364559721e-01
-2.301839759136679042e-01
-2.049097112638007534e-01
-1.761568214375988095e-01
-1.443586159624222764e-01
-1.099778350377765834e-01
-7.355198699940712626e-02
-3.563312152918327036e-02
3.194686876990149305e-03
4.232430465635587946e-02
8.114868390477451843e-02
1.190624924875182677e-01
1.554627596359852981e-01
1.897780208232767996e-01
2.214614807449775125e-01
2.499891907059771934e-01
2.749075691255464804e-01
2.957812059827570894e-01
3.122490184088549947e-01
3.240131414857341241e-01
3.308103542070468528e-01
3.324911079921970547e-01
3.289352838586480088e-01
3.201167241472057112e-01
3.060960799704315338e-01
2.869713887981113487e-01
2.629713855936753886e-01
2.343600184281258159e-01
2.014922081554433864e-01
1.648141620395962570e-01
1.248023857741455966e-01
8.204416067035097404e-02
3.715796241191837712e-02
-9.182693557441667931e-03
-5.624430532036535368e-02
-1.032830539943642156e-01
-1.495213715420318779e-01
-1.941724414612407690e-01
-2.364658675742936922e-01
-2.756506953843754215e-01
-3.109945612347665977e-01
-3.418541208036079415e-01
-3.676167925712207074e-01
-3.877641081664476852e-01
-4.018986583016306291e-01
-4.096650114750524097e-01
-4.108986174667518254e-01
-4.055041937093823989e-01
-3.935116318732635454e-01
-3.751257849123198485e-01
-3.505948565258929506e-01
-3.203546902709319966e-01
-2.849142599332112891e-01
-2.448641587859953228e-01
-2.009189187596007731e-01
-1.538140837247002901e-01
-1.043577876040089891e-01
-5.338852984274117253e-02
-1.745224576540110872e-03
4.973269688357295770e-02
1.002140747019411027e-01
1.489306657939580836e-01
1.951436115177830888e-01
2.381721658884595194e-01
2.774401387804302788e-01
3.123979932616866018e-01
3.426277518687996793e-01
3.677776554931714847e-01
3.875646230032442907e-01
4.018397073708418477e-01
4.104823425395668357e-01
4.134906660281098545e-01
4.109277118575612175e-01
4.029037468117208642e-01
3.896290627577819743e-01
3.713337212398278298e-01
3.483187302807583818e-01
3.209272797682503620e-01
2.895269272765740309e-01
2.545411148519178823e-01
2.164044943706907032e-01
1.755890073642022431e-01
1.325907089178129938e-01
8.791822751648906142e-02
4.211144432420126094e-02
-4.283529050381443271e-03
-5.070377595822222333e-02
-9.657457086013007674e-02
-1.413205219358151798e-01
-1.843650525805991536e-01
-2.251328952296384467e-01
-2.630712056322596082e-01
-2.976442804970737543e-01
-3.283378274917980733e-01
-3.547022969359707179e-01
-3.763055297022382950e-01
-3.927984068799119100e-01
-4.039007535920975389e-01
-4.093754499677950132e-01
-4.091242195549650296e-01
-4.030842879341369200e-01
-3.913104829905479920e-01
-3.739636942123587549e-01
-3.512484261534292163e-01
-3.235175005775812185e-01
-2.911621255114139606e-01
-2.546590166257531873e-01
-2.145686496359868189e-01
-1.714721384344646271e-01
-1.260207649678039277e-01
-7.888421255047491087e-02
-3.074345324996301254e-02
1.770853057171843659e-02
6.578549817757675666e-02
1.128342014786774539e-01
1.582122019523959922e-01
2.013232294172589698e-01
2.416243680931969284e-01
2.785935579075440316e-01
3.117973830219497033e-01
3.408315148054696375e-01
3.653520463112519545e-01
3.850909278723821938e-01
3.998017271484309854e-01
4.093297049000819143e-01
4.135524888999956850e-01
4.124019517700162063e-01
4.058839641708732460e-01
3.940242663532732004e-01
3.769361033092548108e-01
3.547662766806271017e-01
3.277149484300371785e-01
2.960613979124251394e-01
2.601053527147887401e-01
2.202397252287087159e-01
1.768961578524992917e-01
1.305577328332781506e-01
8.179043808765085188e-02
3.117828296233779439e-02
-2.061776445908719557e-02
-7.290215058953924965e-02
-1.249535028980311990e-01
-1.760053066949665013e-01
-2.252863147901462415e-01
-2.720240894244982943e-01
-3.154458687895155267e-01
-3.548084161779821999e-01
-3.894251224832929181e-01
-4.186287657893702496e-01
-4.418694324474752300e-01
-4.586600091750348551e-01
-4.685967290251808470e-01
-4.714490460660810678e-01
-4.670274965680845103e-01
-4.553372054284297032e-01
-4.364962897707541645e-01
-4.107152668615376423e-01
-3.784127755151746042e-01
-3.400506582762504726e-01
-2.962512076052314369e-01
-2.477379501935080830e-01
-1.952832198015053145e-01
-1.397774623174286024e-01
-8.213219955117873061e-02
-2.329578431773926539e-02
3.575819577381683656e-02
9.406861852485884357e-02
1.507098572320086094e-01
2.047682658870591532e-01
2.554151952061703423e-01
3.018854013613461174e-01
3.434645382520088996e-01
3.795865882727772478e-01
4.097217421272945082e-01
4.334773348965009765e-01
4.505718442615583852e-01
4.607799214310050462e-01
4.640509048484530163e-01
4.603768299699322886e-01
4.498742761609599294e-01
4.327694674570826128e-01
4.093311718137792043e-01
3.799687476075155890e-01
3.451272905768006938e-01
3.053348271212998344e-01
2.611986854454915741e-01
2.133497947962041119e-01
1.625004592049602292e-01
1.093845739076670515e-01
5.476876138023327456e-02
-5.463658756077374029e-04
-5.575708051505284812e-02
-1.100529327542742047e-01
-1.626225366610806466e-01
-2.126806225090720759e-01
-2.594713821292574107e-01
-3.022588495688039445e-01
-3.403950948886402261e-01
-3.732612645513733729e-01
-4.003270719114964682e-01
-4.211707688364170199e-01
-4.354102007139332708e-01
-4.428380724627257736e-01
-4.433077931302553121e-01
-4.367936947125136693e-01
-4.234311228124360005e-01
-4.033985456758488186e-01
-3.770612108277628383e-01
-3.448538435024342541e-01
-3.073021571912755157e-01
-2.650635033676556063e-01
-2.188203749801940212e-01
-1.693509317503280598e-01
-1.174715611643453450e-01
-6.401523205840412012e-02
-9.840889891120682686e-03
4.419518068018368773e-02
9.727194371076025581e-02
1.485842484528868690e-01
1.973737442151584365e-01
2.429622695243988661e-01
2.846941563246959683e-01
3.220289933858241360e-01
3.544816673493396686e-01
3.816336158322395922e-01
4.031900997346389293e-01
4.188839986245628255e-01
4.285711886938715631e-01
4.321716093113063817e-01
4.296621715729418423e-01
4.211349062703007573e-01
4.067060926786146280e-01
3.865916816318004101e-01
3.610640784249354307e-01
3.304382446535637508e-01
2.951225371714543133e-01
2.555448838650047350e-01
2.122089993216603743e-01
1.656652749527888213e-01
1.164932225674268768e-01
6.534163815133288422e-02
1.287316966921308974e-02
-4.020674173598381973e-02
-9.316401378892487373e-02
-1.452579604957048298e-01
-1.957316842488261432e-01
-2.438274363241493825e-01
-2.888125540264571134e-01
-3.299726534958050683e-01
-3.666230465373510050e-01
-3.981646584742181139e-01
-4.240213563441724842e-01
-4.437320433463823877e-01
-4.569266251607687623e-01
-4.632958469693329029e-01
-4.627176929403160610e-01
-4.551167194112866188e-01
-4.405790247300063189e-01
-4.193295325672569129e-01
-3.916536376485669213e-01
-3.580339741250739838e-01
-3.190022058403994554e-01
-2.752039618246694408e-01
-2.273912543848218282e-01
-1.763417832430457799e-01
-1.229170129856356486e-01
-6.799880297246076177e-02
-1.247151815595441693e-02
4.277793618763260641e-02
9.687911006087603083e-02
1.490321610561856636e-01
1.984591516834170455e-01
2.444675126810078036e-01
2.864586821830270580e-01
3.238712588122913960e-01
3.562953723398389894e-01
3.833685881069744394e-01
4.048285163351239002e-01
4.205324406947364979e-01
4.303705328457210211e-01
4.343662907989735977e-01
4.325877734209549463e-01
4.251690458847320331e-01
4.123299510911835886e-01
3.943093628718066235e-01
3.714216802851947330e-01
3.440086181367251195e-01
3.124439398825042402e-01
2.771466586521114106e-01
2.385454704821718674e-01
1.971083019537694936e-01
1.533185587845169451e-01
1.076782692628444754e-01
6.071804024844866532e-02
1.297459361459549383e-02
-3.498985145155495552e-02
-8.260219585278223697e-02
-1.292821995203323193e-01
-1.744377363800124203e-01
-2.174769742759271596e-01
-2.578190052031949508e-01
-2.948882240025091361e-01
-3.281336236241293447e-01
-3.570489975937306548e-01
-3.811432992040256762e-01
-4.000138232742205258e-01
-4.133029464658559138e-01
-4.207185903485934353e-01
-4.220983321688587253e-01
-4.173114409053645391e-01
-4.063818354948770528e-01
-3.894189676500410813e-01
-3.666102104085829372e-01
-3.383101842772616163e-01
-3.049083629803552853e-01
-2.669305165077808795e-01
-2.249842970515968932e-01
-1.797209131356803935e-01
-1.318923045754585022e-01
-8.226789292409847354e-02
-3.165096081295409869e-02
1.913312854754631309e-02
6.926968464136884496e-02
1.179727230853835906e-01
1.644664788155859592e-01
2.080498615067579715e-01
2.480748552574465471e-01
2.839401198509434177e-01
3.151739387907548373e-01
3.413357277577793725e-01
3.621085058116346178e-01
3.772707287638445983e-01
3.866520274846943495e-01
3.902341105900886120e-01
3.880345767661999012e-01
3.801785174252808042e-01
3.668811958046286903e-01
3.483932006249948476e-01
3.250766900550159932e-01
2.973208686725274386e-01
2.655765568307736912e-01
2.303507213514892904e-01
1.921660435854906368e-01
1.515967052099908285e-01
1.092297219569131478e-01
6.566794230870767746e-02
2.152988487095409270e-02
-2.256702803326983420e-02
-6.601269010653229574e-02
-1.081998636747276976e-01
-1.485469022533184580e-01
-1.864996690010148339e-01
-2.215200390274355557e-01
-2.531366925890818909e-01
-2.808993864298495735e-01
-3.044213278355364372e-01
-3.233898130369382562e-01
-3.375200384579653545e-01
-3.466461089857331701e-01
-3.506416174664961916e-01
-3.494644480181873791e-01
-3.431794134111191275e-01
-3.318816226606888797e-01
-3.157954371342723277e-01
-2.951910824387456445e-01
-2.704050707754625527e-01
-2.418652768859043400e-01
-2.100179678562285601e-01
-1.753807835011184646e-01
-1.384985071671193668e-01
-9.993141721908620212e-02
-6.026296044523059281e-02
-2.007588683857684103e-02
2.006454473977502262e-02
5.960070207520246077e-02
9.800404789194711030e-02
1.347935041845748083e-01
1.695019626514707167e-01
2.017336396352974459e-01
2.311253407825625827e-01
2.573548878010040730e-01
2.801727580986705934e-01
2.993452530014587554e-01
3.147074138503716534e-01
3.261283464379485242e-01
3.335065912938615651e-01
3.367972949096872948e-01
3.359672236307405524e-01
3.310301322220395304e-01
3.220251267845140042e-01
3.090136076138880195e-01
2.921036366231287151e-01
2.714141589470284721e-01
2.471146150788375295e-01
2.194040941913297516e-01
1.885102860869662944e-01
1.547261448251233684e-01
1.183596692498167513e-01
7.978567478264358970e-02
3.942160144603550076e-02
-2.285710193818471514e-03
-4.481678640313811746e-02
-8.763716978235350230e-02
-1.301652391245897711e-01
-1.717866845519560037e-01
-2.118802363659281207e-01
-2.498071572851301714e-01
-2.849277711128491708e-01
-3.166322691098140130e-01
-3.443333640653585825e-01
-3.674763442323082385e-01
-3.856038116947931860e-01
-3.982841739804674486e-01
-4.052073771192229446e-01
-4.061628902834675259e-01
-4.009995792975304951e-01
-3.897547161521712766e-01
-3.725126412833122957e-01
-3.495047022292300243e-01
-3.210930123118643786e-01
-2.876886918274048077e-01
-2.498658386310014801e-01
-2.082394143981005086e-01
-1.635005078654510058e-01
-1.164137593229623846e-01
-6.775396833579953870e-02
-1.832478572994974964e-02
3.106416241358844754e-02
7.963578341194695043e-02
1.266471240340869275e-01
1.713807173069244183e-01
2.132249318184918363e-01
2.516006355327350952e-01
2.860223346167403702e-01
3.161112650871510943e-01
3.415238986528313925e-01
3.620602408228884572e-01
3.775662968335921077e-01
3.879686499129689214e-01
3.932936550342411297e-01
3.935911814809413545e-01
3.890040827590842687e-01
3.797071713005177318e-01
3.659124737614644074e-01
3.478820743508009850e-01
3.258874788228218744e-01
3.002350746680918503e-01
2.712442897177105294e-01
2.392478459201142771e-01
2.045978935992144032e-01
1.676514348183552328e-01
1.287870704454690263e-01
8.839230714037303593e-02
4.686998904754604428e-02
4.647348158446480693e-03
-3.784215165806231046e-02
-8.013577094727299122e-02
-1.217577839928112859e-01
-1.622212781370830359e-01
-2.010200360540099207e-01
-2.376464002518774987e-01
-2.715965955623758088e-01
-3.023689053327333065e-01
-3.294832317932179233e-01
-3.525003185489551938e-01
-3.709949330121597999e-01
-3.846260475611181784e-01
-3.930971020380329417e-01
-3.961725052429930227e-01
-3.937416080676331975e-01
-3.857235729380248945e-01
-3.721798051729318102e-01
-3.532531595703862770e-01
-3.291540155159748959e-01
-3.002427332412873073e-01
-2.669104040761601793e-01
-2.296609835603999616e-01
-1.890686396789839352e-01
-1.457393179165613062e-01
-1.003546560845167412e-01
-5.360892971909501925e-02
-6.211155848061425226e-03
4.111970553307755377e-02
8.767921736634293195e-02
1.328026275701397751e-01
1.758368016993263061e-01
2.161983907108440683e-01
2.533553855707371683e-01
2.868135484311618022e-01
3.161868413506997433e-01
3.411149670468252015e-01
3.613300227684240196e-01
3.766379544220570530e-01
3.868799354537053592e-01
3.920048055378686502e-01
3.919871999798578699e-01
3.868737440126146510e-01
3.767735725249681256e-01
3.618198924745170131e-01
3.422243652678557679e-01
3.182185497067230306e-01
2.900840531516865051e-01
2.581496869776135350e-01
2.227617972692480797e-01
1.843282681357046870e-01
1.432737467177281621e-01
1.000632483571495257e-01
5.520314093484933460e-02
9.212692299866043211e-03
-3.734129256992102519e-02
-8.387852637530102129e-02
-1.297998765413835021e-01
-1.744852426094493647e-01
-2.173146688032134566e-01
-2.576740878682565739e-01
-2.949521852716410764e-01
-3.285711714954481777e-01
-3.579937794970231013e-01
-3.827045602256481382e-01
-4.022893188122038666e-01
-4.163690737702404610e-01
-4.246556524255509224e-01
-4.269801408905858353e-01
-4.232112210469486935e-01
-4.133871924968474665e-01
-3.976089521850877384e-01
-3.760783951600391029e-01
-3.491415477851408378e-01
-3.171772056549101437e-01
-2.807018554337146754e-01
-2.402866321128618310e-01
-1.965525790392622651e-01
-1.501980865558755207e-01
-1.019318243322754891e-01
-5.248772477014973514e-02
-2.610289677601851377e-03
4.697408911448694435e-02
9.556972100297603245e-02
1.424939477426334922e-01
1.871422110121659377e-01
2.289470087369568641e-01
2.673964412803830348e-01
3.020807081994424936e-01
3.326139478763627810e-01
3.587216890986288376e-01
3.801866689978998237e-01
3.968431852390537640e-01
4.086282756863031107e-01
4.154996422692469049e-01
4.174950538980340409e-01
4.146969652037719167e-01
4.072155548870516339e-01
3.952208074113803260e-01
3.788941226381379312e-01
3.584540410440624214e-01
3.341416544725950288e-01
3.062106470044468898e-01
2.749441659448617070e-01
2.406318229863827485e-01
2.035888255373284328e-01
1.641472932495706138e-01
1.226532720751776773e-01
7.948860594328899243e-02
3.504369405333859766e-02
-1.025399515104902237e-02
-5.595037908669802523e-02
-1.015755578729835712e-01
-1.466157671840804255e-01
-1.905478715813231083e-01
-2.328254560492263869e-01
-2.728839477623369314e-01
-3.101600884399195457e-01
-3.440962921608131109e-01
-3.741385912307580996e-01
-3.997764659242321050e-01
-4.205362245578245783e-01
-4.359773905396968630e-01
-4.457707018828914736e-01
-4.496169613200731163e-01
-4.473355909413455622e-01
-4.388552258493509939e-01
-4.241566821960252032e-01
-4.034042875308275766e-01
-3.768116907617612421e-01
-3.447206916242995800e-01
-3.076012406813963262e-01
-2.659627255357419062e-01
-2.204565845606295538e-01
-1.717736063703588223e-01
-1.206611855448475323e-01
-6.792819796181560899e-02
-1.438905025930835996e-02
3.913058128777616163e-02
9.180294103143146756e-02
1.428372071624834094e-01
1.914861345476241983e-01
2.370261164753376670e-01
2.788408132724413124e-01
3.163501447557173218e-01
3.490610138105333937e-01
3.765918201086104200e-01
3.985941582692804075e-01
4.148643681028534314e-01
4.252508664711908137e-01
4.296845216695682756e-01
4.282110393952005545e-01
4.209033304620639626e-01
4.079495295768823526e-01
3.895825817110247780e-01
3.660890373870348546e-01
3.378365740882858237e-01
3.052098829539617864e-01
2.686633839508522636e-01
2.286809567038254887e-01
1.857754434643528185e-01
1.405073135485948310e-01
9.344618478920480031e-02
4.519702753892637648e-02
-3.618987568317230674e-03
-5.237173520127023224e-02
-1.004151422414610861e-01
-1.471025762990114116e-01
-1.917966356721069743e-01
-2.338646883579940106e-01
-2.726964052980067055e-01
-3.077251020294400341e-01
-3.383981040093292925e-01
-3.642457204631565082e-01
-3.848436192679774992e-01
-3.998269254894962765e-01
-4.089570066664806047e-01
-4.120256605101866310e-01
-4.089712532465977768e-01
-3.998190726626980052e-01
-3.846667943900663467e-01
-3.637786979665914577e-01
-3.374543911813986385e-01
-3.061274006467661346e-01
-2.703175450827356996e-01
-2.305875179719529822e-01
-1.876060422948584161e-01
-1.420615349407640671e-01
-9.468123312756725196e-02
-4.621954819132993025e-02
2.575449464094239221e-03
5.097502917033149006e-02
9.825793733197996094e-02
1.437634672110075507e-01
1.868770249011747486e-01
2.270202046905896998e-01
2.637222990540930567e-01
2.965388747937023894e-01
3.251198892707920507e-01
3.491933954660615957e-01
3.685230120961111022e-01
3.829844959884892708e-01
3.924809498022207022e-01
3.969863316206962423e-01
3.965382818093718398e-01
3.911961492685852582e-01
3.810914228109342772e-01
3.663741622189911618e-01
3.472350311356321440e-01
3.239043305472812939e-01
2.966259224275610284e-01
2.656922667001820337e-01
2.314095712903263824e-01
1.941187721016606749e-01
1.541976257465580147e-01
1.120376672762451176e-01
6.808429159329751346e-02
2.279917165245501712e-02
-2.332056008979882175e-02
-6.973693400589985047e-02
-1.159017233517059126e-01
-1.612272272253554573e-01
-2.051134177404080883e-01
-2.469542604112346662e-01
-2.861362090027591565e-01
-3.220519626952671466e-01
-3.541307416282217790e-01
-3.818154182537062957e-01
-4.046052121831646975e-01
-4.220759642905496656e-01
-4.338329168570039807e-01
-4.396245955586747800e-01
-4.392546251120569845e-01
-4.326320392582975738e-01
-4.198216457433716076e-01
-4.009286358902893199e-01
-3.762421338663106685e-01
-3.461272533102510707e-01
-3.110378527978566177e-01
-2.715702800309772735e-01
-2.283474380665890258e-01
-1.820920910941232762e-01
-1.335715084212866222e-01
-8.356822215631563855e-02
-3.289116726693390447e-02
1.765344480936284488e-02
6.730308782345600926e-02
1.153168699233086403e-01
1.610056385605111717e-01
2.037788367821084523e-01
2.430714070948752914e-01
2.784477975189321164e-01
3.095413831378440728e-01
3.360515506289839527e-01
3.578140268474136465e-01
3.746926988535825842e-01
3.866627974843902527e-01
3.937639184913241941e-01
3.960736504614413844e-01
3.937543621356908718e-01
3.869841737564053696e-01
3.759861010445927354e-01
3.610113748952089030e-01
3.423203683572256240e-01
3.201951456161902243e-01
2.949215779685238070e-01
2.667916422069062654e-01
2.361014901883022044e-01
2.031495829003210907e-01
1.682404618377362215e-01
1.316805779816734301e-01
9.378889998244271942e-02
5.489370323397434887e-02
1.533231549054244955e-02
-2.453151012366429351e-02
-6.432753773029595279e-02
-1.036603937884452847e-01
-1.421144039904419787e-01
-1.792665064228868843e-01
-2.146712782359476990e-01
-2.478788760952320702e-01
-2.784424660612181412e-01
-3.059178548708716971e-01
-3.298732412271533909e-01
-3.499212274576473658e-01
-3.656875789830815737e-01
-3.768645604758305012e-01
-3.832078074751048558e-01
-3.845081368391650711e-01
-3.806859716974103081e-01
-3.716982215440507442e-01
-3.576080889575710686e-01
-3.385887915983790131e-01
-3.148518432627179786e-01
-2.867536941789657345e-01
-2.546929705597411053e-01
-2.191442644314683941e-01
-1.806675683636927987e-01
-1.398396135823555542e-01
-9.729567276100020701e-02
-5.368850880100950462e-02
-9.669002419171665585e-03
3.411426846837039423e-02
7.702382187593456719e-02
1.184800679847797245e-01
1.579239207685265156e-01
1.948556000467828730e-01
2.288540279686889223e-01
2.595222576438261930e-01
2.865722055535668278e-01
3.097562938941614274e-01
3.288875629865485317e-01
3.438664602989067176e-01
3.546125506656675475e-01
3.611244421476038635e-01
3.634324779344649814e-01
3.615972247446423982e-01
3.557265842603832828e-01
3.459370206476443665e-01
3.323763593686640538e-01
3.152061427503817237e-01
2.946000534656164627e-01
2.707524370103122080e-01
2.438629135700577932e-01
2.141566513058456578e-01
1.818710820596584066e-01
1.472635074308583092e-01
1.106281150167285343e-01
7.226886779416547002e-02
3.253986730874519617e-02
-8.178731901456792741e-03
-4.947929046995230840e-02
-9.089874524906038644e-02
-1.319628613912005588e-01
-1.721542311584877138e-01
-2.109311336007365645e-01
-2.477447065154583239e-01
-2.820308376520017091e-01
-3.132261205116150804e-01
-3.407970482085305730e-01
-3.642285458994838354e-01
-3.830431151056994388e-01
-3.968538114112440396e-01
-4.052976836814710104e-01
-4.081397315285537064e-01
-4.052303820856945626e-01
-3.964895930108686684e-01
-3.820179402010465131e-01
-3.619569729388139034e-01
-3.366031433152265051e-01
-3.063652687976341493e-01
-2.717057682487186709e-01
-2.332358406679754803e-01
-1.915979651885466595e-01
-1.475019798062817689e-01
-1.017108133502978573e-01
-5.498953066068867912e-02
-8.105423968126523881e-03
3.817704802706539668e-02
8.315132464844360305e-02
1.261604312986500664e-01
1.665860320040344345e-01
2.039398331127244002e-01
2.377677374612928440e-01
2.677305496895966419e-01
2.935959633246453260e-01
3.151734618265714105e-01
3.324181477222704628e-01
3.453236499578916652e-01
3.539631687545662375e-01
3.584903014136804900e-01
3.590771396294387685e-01
3.559591637752907989e-01
3.493890603471475620e-01
3.396301888959595283e-01
3.269576215910944272e-01
3.116426113918284724e-01
2.939357856162621019e-01
2.740809885328879814e-01
2.522972398448383724e-01
2.287739657843664287e-01
2.036923289452415020e-01
1.771999324598126646e-01
1.494334354558106981e-01
1.205219180467346218e-01
9.058464854183106985e-02
5.974343932785222688e-02
2.813819484912397084e-02
-4.084242103727042661e-03
-3.674973188563268600e-02
-6.964570232985894949e-02
-1.025473820866488195e-01
-1.351719196792058320e-01
-1.672135931344499171e-01
-1.983371179062743406e-01
-2.281619941968426046e-01
-2.563005918012576378e-01
-2.823425178128615709e-01
-3.058679424447230955e-01
-3.264684371108943495e-01
-3.437546415570484348e-01
-3.573480588799344826e-01
-3.669392541616736114e-01
-3.722512145975975240e-01
-3.730658886595766832e-01
-3.692720373869302630e-01
-3.607854147065074901e-01
-3.476545017179270003e-01
-3.299950331256566449e-01
-3.079891970832466797e-01
-2.819498435657206148e-01
-2.522159340490230939e-01
-2.192274023207557709e-01
-1.834797053189706484e-01
-1.454956895175781029e-01
-1.058562152902596532e-01
-6.515004443018626579e-02
-2.396937325713160982e-02
1.709161970967890132e-02
5.745835884384142833e-02
9.660267970846164731e-02
1.340093538855793298e-01
1.692363948243178484e-01
2.018895401238228471e-01
2.316131596885057098e-01
2.581494787327287543e-01
2.812623831188950652e-01
3.007956760398062812e-01
3.166497395282228400e-01
3.287523112873071418e-01
3.371052985940262703e-01
3.417263337368126597e-01
3.426729783534563922e-01
3.400335144583724323e-01
3.339055087554373413e-01
3.244129523795616366e-01
3.116856241520312154e-01
2.958646065831520011e-01
2.771004319023804285e-01
2.555483960329706927e-01
2.313790750550152875e-01
2.047673569330599186e-01
1.759085938007764471e-01
1.450167213950986356e-01
1.123180015896614314e-01
7.808244342910716784e-02
4.259213480815479680e-02
6.169854436576721612e-03
-3.082148448531782381e-02
-6.800384639432879852e-02
-1.049437874928880743e-01
-1.411926269522355282e-01
-1.762771446690884758e-01
-2.096978323690216472e-01
-2.409547304905074461e-01
-2.695516865676049756e-01
-2.949948195500137205e-01
-3.168268622147610847e-01
-3.346331535293368686e-01
-3.480226589472190102e-01
-3.567103978380325446e-01
-3.604469561798763766e-01
-3.590749771630519227e-01
-3.525534841331969815e-01
-3.408776888305549146e-01
-3.242008136879095392e-01
-3.027321173606782878e-01
-2.767690091747541659e-01
-2.467299817859297528e-01
-2.130593710613767344e-01
-1.763048888218268218e-01
-1.370535114941280885e-01
-9.591977353459296696e-02
-5.355929729254654825e-02
-1.062911418485118498e-02
3.222682085787714756e-02
7.437043943172813587e-02
1.151992634028925488e-01
1.541686817000069154e-01
1.907521572004983457e-01
2.245176401416544287e-01
2.550761274520613742e-01
2.820950890893315077e-01
3.053416953432795955e-01
3.246049253748872210e-01
3.397688362903150683e-01
3.507644157199466539e-01
3.575609999869760469e-01
3.602013817540374307e-01
3.587420655000200798e-01
3.532881335633336617e-01
3.439707317656710561e-01
3.309351450195223698e-01
3.143559481042220716e-01
2.944132061123229116e-01
2.713050667936742766e-01
2.452402547740387406e-01
2.164368534373221908e-01
1.851342007515102417e-01
1.515771723494897527e-01
1.160396973786867736e-01
7.881418791582350813e-02
4.021106182845202159e-02
5.853686956990705736e-04
-3.969754942211117799e-02
-8.022928661303628528e-02
-1.205716817184418893e-01
-1.602714144808044527e-01
-1.988349553317022289e-01
-2.357611730389263527e-01
-2.705385135941913433e-01
-3.026476042094192742e-01
-3.315791739778642389e-01
-3.568551061762075260e-01
-3.780071951463063740e-01
-3.946333097297836101e-01
-4.063852398547912470e-01
-4.129556719711905410e-01
-4.141679764637816730e-01
-4.098792151096578018e-01
-4.000693589243558557e-01
-3.848273331961410415e-01
-3.642907800365492998e-01
-3.387614895465094200e-01
-3.085834026985764256e-01
-2.742012406039995853e-01
-2.361567603635567614e-01
-1.950172618116028378e-01
-1.514368100014528151e-01
-1.060919044059862038e-01
-5.967544810319942022e-02
-1.289749840631928754e-02
3.353986684036499438e-02
7.897337483522336166e-02
1.227524787674501017e-01
1.642856782798441662e-01
2.030485434661928323e-01
2.385440109104963735e-01
2.703903363776998803e-01
2.982429923296285867e-01
3.218354744816339652e-01
3.409975559319183835e-01
3.555850011118186216e-01
3.655607654310320531e-01
3.709247266561128686e-01
3.717284637879915143e-01
3.680928669029049360e-01
3.601534394891345858e-01
3.481031755076058332e-01
3.321564903707837635e-01
3.125499870404829794e-01
2.895525825627017769e-01
2.634397549926768001e-01
2.345130299932228768e-01
2.030845586743558195e-01
1.694799806280024024e-01
1.340462966003981293e-01
9.713597039210297712e-02
5.912709801782792263e-02
2.040915853011920911e-02
-1.861420257214481400e-02
-5.751494169464328732e-02
-9.586032314575688995e-02
-1.331995455235988057e-01
-1.690731794714760150e-01
-2.030222448354683240e-01
-2.345887084375354315e-01
-2.633180662503932790e-01
-2.887860824992664055e-01
-3.105845210583504934e-01
-3.283376112570041694e-01
-3.417360122624739094e-01
-3.504883207193679739e-01
-3.543993105745966710e-01
-3.533286843070941874e-01
-3.471924416079467113e-01
-3.360315192511100779e-01
-3.199147791469444946e-01
-2.990310309696738722e-01
-2.736434862013158997e-01
-2.440641315999254879e-01
-2.107219565132815997e-01
-1.740695784252286882e-01
-1.346337008562618065e-01
-9.299096849094065642e-02
-4.973409725588238961e-02
-5.496487309274988853e-03
3.908205318569232117e-02
8.336666907247003433e-02
1.267261474265440335e-01
1.685454213569184401e-01
2.082567486467232221e-01
2.453050782552713693e-01
2.791986821171906774e-01
3.094962722185157222e-01
3.357881966988355282e-01
3.577625858146489812e-01
3.751318248034262171e-01
3.876895958992258029e-01
3.952999296225973569e-01
3.978580122359015592e-01
3.953614759307607640e-01
3.878340233475482401e-01
3.753680125612995355e-01
3.581203324348413153e-01
3.362708159318522627e-01
3.100791424237974714e-01
2.798265103811736210e-01
2.458424939234476192e-01
2.085060521460027627e-01
1.682119682121802351e-01
1.254134272688854634e-01
8.058048879624374328e-02
3.421660970345391517e-02
-1.313772169668536716e-02
-6.093267737743518486e-02
-1.085834001047772113e-01
-1.554944573972932842e-01
-2.010625019122042056e-01
-2.446746541682337517e-01
-2.857217551137917755e-01
-3.236169404132345218e-01
-3.577816233838767568e-01
-3.876788967839249200e-01
-4.128264067403333293e-01
-4.327652378541353984e-01
-4.471496081950590007e-01
-4.556758491549802725e-01
-4.581319213059135143e-01
-4.544361180661742328e-01
-4.445437287113627178e-01
-4.285808771748679247e-01
-4.067417814773344187e-01
-3.793144822148338813e-01
-3.467320420597210795e-01
-3.094579632292348004e-01
-2.680812657011139022e-01
-2.232449617026062150e-01
-1.756306599266330148e-01
-1.259846871123093126e-01
-7.506047615144556540e-02
-2.361828419146394520e-02
2.757871285596552591e-02
7.779317985138606284e-02
1.263352702846923803e-01
1.725305286915082559e-01
2.157927616106004864e-01
2.555810514645863174e-01
2.914095639568765606e-01
3.229020889845931053e-01
3.497069932779521273e-01
3.715823437916811467e-01
3.883472702434675461e-01
3.998693519020549147e-01
4.061207153759542332e-01
4.070950417732741022e-01
4.028682849754622319e-01
3.935661911920450562e-01
3.793459768446069136e-01
3.604384542419005744e-01
3.370898768119822142e-01
3.096022387047818736e-01
2.783142211763987017e-01
2.435870089088321144e-01
2.058389959596898522e-01
1.655012009599172162e-01
1.230500318057609621e-01
7.899436818116950532e-02
3.385961016256833211e-02
-1.178347946885632824e-02
-5.735461425432208937e-02
-1.022516058290159346e-01
-1.458552418917927751e-01
-1.875478341296013540e-01
-2.267178982261482123e-01
-2.627575599969399489e-01
-2.951002889802765150e-01
-3.232144785497177430e-01
-3.466002225125286995e-01
-3.648633931053438806e-01
-3.776384850455160591e-01
-3.846744992960277054e-01
-3.858255004030829993e-01
-3.809967262325453241e-01
-3.702730591833494622e-01
-3.537876199139798894e-01
-3.318010728242595797e-01
-3.047011878613126168e-01
-2.729154376217998168e-01
-2.370142265266730885e-01
-1.976074452744546739e-01
-1.553626285507730964e-01
-1.110097045203088384e-01
-6.528425460353648457e-02
-1.893352142872917199e-02
2.729309950646108263e-02
7.268370662735446075e-02
1.165704833320787559e-01
1.583092837797759334e-01
1.973628873645207893e-01
2.332300107116846988e-01
2.654925947267374742e-01
2.938388898398875959e-01
3.179869451019717852e-01
3.377821558637654764e-01
3.531153684709633644e-01
3.639404460711694878e-01
3.702987093641781913e-01
3.722491927122919542e-01
3.699200755354066228e-01
3.634661416371147702e-01
3.530636106631792615e-01
3.389210058029068495e-01
3.212516293794468458e-01
3.002829958969382984e-01
2.762485726867394131e-01
2.493855801437762088e-01
2.199373774895510003e-01
1.881496451884449583e-01
1.542811842805491551e-01
1.185969126525014961e-01
8.137663155044583263e-02
4.292674371786731058e-02
3.561352949065510476e-03
-3.636440039399713164e-02
-7.647485492160897846e-02
-1.163716901187600017e-01
-1.556126229876518829e-01
-1.937470344058346283e-01
-2.302942569566492070e-01
-2.647573814176260587e-01
-2.966398251530701358e-01
-3.254460407894084750e-01
-3.506849087282814526e-01
-3.719095665774471704e-01
-3.886993868683048525e-01
-4.006763627807110595e-01
-4.075609804843901562e-01
-4.090987705954818310e-01
-4.051626999355461001e-01
-3.957076230551365148e-01
-3.807543106143438383e-01
-3.604881059975457713e-01
-3.351306615337694694e-01
-3.050393842061892569e-01
-2.706664618836103209e-01
-2.325091568280391874e-01
-1.911851804603907912e-01
-1.473365481873886162e-01
-1.016557262310880949e-01
-5.487345444257174520e-02
-7.719417180619858598e-03
3.908285081827633789e-02
8.481414383316798755e-02
1.288077308384205644e-01
1.704401492499787452e-01
2.091214173789046615e-01
2.443697969029696715e-01
2.757313721494702996e-01
3.028490734659659012e-01
3.254525735858362356e-01
3.433085996659392958e-01
3.563094941806148608e-01
3.643802276458678602e-01
3.675249376565747905e-01
3.658247788901181075e-01
3.593849354530473938e-01
3.483952996858206141e-01
3.330689673221141067e-01
3.136620057671131168e-01
2.904758870034964691e-01
2.638240295272145097e-01
2.340635201831569034e-01
2.015643635691954927e-01
1.667181819941863097e-01
1.299414080982523867e-01
9.165682675680231206e-02
5.231174037470132099e-02
1.236126698548489777e-02
-2.772906802539720772e-02
-6.748076415676140805e-02
-1.064140222907188349e-01
-1.440464239004002334e-01
-1.798949436283372449e-01
-2.134883545516592651e-01
-2.443714212381589146e-01
-2.720982612992024485e-01
-2.962720001433900574e-01
-3.165147971741215649e-01
-3.324980715017198385e-01
-3.439658010057680126e-01
-3.506850413083080209e-01
-3.525364526015566380e-01
-3.494477651585541356e-01
-3.414213223456161739e-01
-3.285789253475505656e-01
-3.110707932078100590e-01
-2.891756826253100154e-01
-2.632298621582722098e-01
-2.336261177049766269e-01
-2.008555083480248471e-01
-1.654264407489113853e-01
-1.279074355500922633e-01
-8.889609071670578899e-02
-4.899415156315156672e-02
-8.810900593503090406e-03
3.104827115371222579e-02
7.002040013714916356e-02
1.075651405176825115e-01
1.431817956611065590e-01
1.764516214950373474e-01
2.069757568803367587e-01
2.344519017418813522e-01
2.586334321200929320e-01
2.793187471057871907e-01
2.964069222757117483e-01
3.098176417166880192e-01
3.195455418527120006e-01
3.256322199366161740e-01
3.281422432506690967e-01
3.271954114536788083e-01
3.229218922081296128e-01
3.154761994412722537e-01
3.050294284247141441e-01
2.917558788474896581e-01
2.758376962542081756e-01
2.574583016578628758e-01
2.368004800222363038e-01
2.140465460421983046e-01
1.893797157431578171e-01
1.629859246482903146e-01
1.350523640378624712e-01
1.057782552112680463e-01
7.537250263309624998e-02
4.405330427294762430e-02
1.206836707891456584e-02
-2.032696762194330375e-02
-5.284796928778678904e-02
-8.518421177360346874e-02
-1.170147987396563671e-01
-1.479843044327249224e-01
-1.777290033964744609e-01
-2.058737728267905354e-01
-2.320326660748008862e-01
-2.558237315369256137e-01
-2.768825011312205930e-01
-2.948505270183776616e-01
-3.094107539239367988e-01
-3.202888213460721722e-01
-3.272349231095033062e-01
-3.300974601368631411e-01
-3.287544995039954898e-01
-3.231692364930034422e-01
-3.134002384429854793e-01
-2.995382962962667150e-01
-2.818041524801271347e-01
-2.604594281253860277e-01
-2.358360007650555090e-01
-2.083512501863362676e-01
-1.784396835594932451e-01
-1.465987381954392266e-01
-1.133465843024124009e-01
-7.920560702760059968e-02
-4.470375077998300917e-02
-1.036130481493491295e-02
2.334804161833681224e-02
5.596838122935821058e-02
8.709460486011777469e-02
1.163946272265505011e-01
1.435576800960526034e-01
1.683731312968728411e-01
1.906706475186950023e-01
2.103328448852668786e-01
2.273250373926020140e-01
2.416289318211507497e-01
2.532911702565254775e-01
2.623865757290344547e-01
2.690057030603461019e-01
2.732657200056725078e-01
2.752855175883717198e-01
2.751771689434461265e-01
2.730493784706067295e-01
2.689944748084220905e-01
2.630744212918676439e-01
2.553434644882974780e-01
2.458174993719484114e-01
2.344926120806096748e-01
2.213509271747313711e-01
2.063466242584173216e-01
1.894303877349434728e-01
1.705517527908630981e-01
1.496596900266986552e-01
1.267193387097158563e-01
1.017316096769498301e-01
7.470844740646409576e-02
4.572918090404876068e-02
1.491440224092954736e-02
-1.757352858723404410e-02
-5.147268306293550921e-02
-8.649876781952414717e-02
-1.222753489080936617e-01
-1.583647202902538353e-01
-1.942970152668710426e-01
-2.295201607824672863e-01
-2.634665087739405109e-01
-2.955393984432239662e-01
-3.251212152148781342e-01
-3.516045744195013256e-01
-3.744131214809192088e-01
-3.929813829955710602e-01
-4.068254244854587753e-01
-4.155253739907118771e-01
-4.187129912938774012e-01
-4.161789331114951196e-01
-4.077539484845713602e-01
-3.934188147623816079e-01
-3.732823538882783510e-01
-3.475129262540930242e-01
-3.164727547079912995e-01
-2.805724039164667616e-01
-2.403429998055361949e-01
-1.964274363785563082e-01
-1.494995266927885424e-01
-1.003357250095104902e-01
-4.973806143701509086e-02
1.470209950322320935e-03
5.244446452104156720e-02
1.023494399277629086e-01
1.503934342308452798e-01
1.957989048894290818e-01
2.378603012895044166e-01
2.759508059257762547e-01
3.094789435181777293e-01
3.379989827023166526e-01
3.611108880434192869e-01
3.785224869498799993e-01
3.900697452923678199e-01
3.956273469051982961e-01
3.952299446461047250e-01
3.889655507326772454e-01
3.770113466876577890e-01
3.596595982193784291e-01
3.372302464237602049e-01
3.101562709046519206e-01
2.789112840956102790e-01
2.440185807421189068e-01
2.060711206339265189e-01
1.656749635381262742e-01
1.234851663160712043e-01
8.017572464770683638e-02
3.642899908697661004e-02
-7.059939447882968011e-03
-4.959830216007610204e-02
-9.051631335272425360e-02
-1.291543330639033371e-01
-1.648873531407817339e-01
-1.971478564558744040e-01
-2.253868480043319522e-01
-2.491547869254633341e-01
-2.680485022928049688e-01
-2.817343137192711566e-01
-2.900039052426190977e-01
-2.926795425863364386e-01
-2.897298342886305278e-01
-2.811972888535088089e-01
-2.671985479993832513e-01
-2.479955186300450976e-01
-2.238801277568249759e-01
-1.952660309077671741e-01
-1.626336286083951421e-01
-1.265045188109166219e-01
-8.748762827444167556e-02
-4.620671746108762079e-02
-3.321915217666671083e-03
4.048501002399440551e-02
8.453617117326750474e-02
1.281635010969797150e-01
1.707042281362571856e-01
2.115410046225427720e-01
2.500859942901527688e-01
2.857825565668612455e-01
3.181531795995571343e-01
3.467390224749884453e-01
3.711614298654595245e-01
3.910983275067891896e-01
4.062630305936991704e-01
4.164654584863622944e-01
4.215375789424022912e-01
4.213874177785505992e-01
4.159813208656863992e-01
4.053151316927383618e-01
3.894714810255717197e-01
3.685536308817258799e-01
3.427303254437781277e-01
3.122248621994732076e-01
2.772864499804637006e-01
2.382467972538950818e-01
1.954583527947786337e-01
1.493356409004160668e-01
1.003493629249501140e-01
4.899275760633159393e-02
-4.164226908780044312e-03
-5.853175117710662789e-02
-1.134762141363045984e-01
-1.683209997115255874e-01
-2.223806372505388040e-01
-2.749406977223753934e-01
-3.252797932851509977e-01
-3.726891001210774768e-01
-4.164732076122313886e-01
-4.559541699014212357e-01
-4.905300699110877183e-01
-5.196234227346137047e-01
-5.427467301840191993e-01
-5.595168462795139241e-01
-5.695927867499444019e-01
-5.728142964359017597e-01
-5.690807702209417229e-01
-5.584203827136029474e-01
-5.410235477581863961e-01
-5.171253519223490969e-01
-4.871489272435507445e-01
-4.515834761911481365e-01
-4.110060052516253393e-01
-3.661136988537094794e-01
-3.176247598786421378e-01
-2.663318716573677136e-01
-2.130555172754000637e-01
-1.586151298725297920e-01
-1.038285073299469730e-01
-4.950284966867712910e-02
3.624405081847470456e-03
5.484531159232020059e-02
1.035173730232052947e-01
1.491040411247617214e-01
1.910964885401114088e-01
2.291188973514373117e-01
2.628556907469743464e-01
2.920580412127371517e-01
3.165944728183056611e-01
3.363569626377653776e-01
3.513312478286110263e-01
3.615491156768797509e-01
3.670723692783610659e-01
3.680199841515232606e-01
3.645202793965012233e-01
3.567274158576623222e-01
3.448093492940387250e-01
3.289381391403907173e-01
3.092941944889417982e-01
2.860597852687902787e-01
2.594253502065129169e-01
2.295861199187214652e-01
1.967489140845373186e-01
1.611470135877084431e-01
1.230217532897270871e-01
8.266376670918873515e-02
4.039494629278195248e-02
-3.430230497574626725e-03
-4.837672032161677294e-02
-9.399084148930825222e-02
-1.397401539253451119e-01
-1.850379871760559070e-01
-2.292694156125065774e-01
-2.717447596108755192e-01
-3.117599080942277112e-01
-3.485864398469544767e-01
-3.814777541901648306e-01
-4.097003444795319638e-01
-4.325615089977290495e-01
-4.493820840541982164e-01
-4.595785443644615498e-01
-4.626451436487393210e-01
-4.581385407374245489e-01
-4.458145203731972428e-01
-4.254793975919235471e-01
-3.971137817422611960e-01
-3.608522563666500815e-01
-3.169211088359169537e-01
-2.658609723366360811e-01
-2.082839414458703686e-01
-1.448021107406916030e-01
-7.602757479822486175e-02
