6.097887192683344892e+00
5.345669807069953094e+00
5.133745855287088489e+00
4.970676199699823883e+00
4.882732023495236717e+00
4.634319148758606843e+00
4.538252240930546577e+00
4.888357531288534119e+00
5.283447601862121701e+00
5.513472859876742405e+00
5.368291282382472218e+00
5.443337423281434440e+00
5.329155952339419855e+00
5.507282455759025197e+00
5.576723228575133362e+00
5.536843701518250782e+00
5.547843495306381101e+00
5.351551390560359778e+00
5.200520032398685544e+00
5.059474895692062546e+00
4.633029602675321712e+00
4.644221999692206282e+00
4.457075432170654494e+00
4.697492657533871352e+00
5.270861859426020146e+00
5.379635910700699242e+00
5.637088266696139272e+00
5.615599162867397354e+00
5.720768924036974568e+00
5.908236718043156088e+00
5.860128081578750425e+00
5.754162796455261741e+00
5.678124835980042917e+00
5.591858501022556993e+00
5.490929046354381171e+00
5.231342476267798247e+00
5.161089869259740226e+00
4.776011308433510294e+00
4.810571541433944276e+00
4.881206093966454773e+00
4.969167548953350888e+00
5.488178727270053514e+00
5.810116432601660108e+00
6.125013790718696782e+00
6.618332282229573593e+00
6.358817495352525384e+00
6.450004167094789409e+00
6.291702237259130470e+00
6.325096636099260650e+00
6.433118162233483872e+00
6.284950822362191047e+00
6.134619173436590245e+00
5.888520929967285156e+00
5.849830819443070595e+00
5.633425192180538943e+00
5.401017686931766093e+00
5.361613550248762294e+00
5.352231970082073076e+00
6.124492109437142062e+00
6.614472955690871459e+00
6.695807986984391391e+00
6.921225275608946959e+00
7.361541471225905298e+00
7.797826707464480478e+00
7.676308076089526367e+00
7.146513586193293577e+00
7.053793594780017884e+00
6.685626433502079635e+00
6.658315569672595302e+00
6.425006935750843695e+00
6.047416203250236322e+00
5.921298713000851421e+00
5.735294822353466770e+00
5.716186644970548514e+00
5.547260656682965418e+00
5.581446513699518164e+00
6.047484280458490957e+00
6.277052614435035593e+00
6.659632837903473046e+00
6.867980299384498721e+00
6.793981161994167906e+00
6.683663343909643118e+00
6.593374303952714399e+00
6.770397511873284202e+00
6.848091832463126138e+00
6.490255034763663389e+00
6.194523669102522945e+00
5.916133440768703622e+00
6.097614871991993368e+00
5.817887163527927896e+00
5.680969818354583367e+00
5.314488850632585581e+00
5.284944242139772541e+00
5.745595461187576802e+00
6.198399438941919470e+00
6.308141746699902797e+00
6.380128613054182551e+00
6.112473488910836750e+00
6.294428397815295284e+00
6.182640785604803568e+00
6.080775466399245488e+00
5.987595540277823147e+00
5.740864832567865506e+00
5.685461254261440445e+00
5.568100078119755381e+00
5.249684497602459032e+00
4.958711613461844081e+00
4.692160928257976593e+00
4.635682253073355241e+00
4.723654246387638977e+00
4.947132300648149794e+00
5.126998904378865518e+00
5.396424382222278382e+00
5.673045893239589077e+00
5.391985710277083399e+00
4.844170221410195154e+00
4.738635592459559120e+00
4.866672852090289325e+00
5.119100179292274788e+00
5.010539296749584537e+00
4.763469543020448782e+00
4.606462929568692743e+00
4.311597571157903985e+00
4.289566950056439509e+00
4.249882567815802759e+00
3.828521125351414867e+00
3.658256574827134955e+00
3.757863573103634280e+00
4.401551287757342834e+00
4.633433770663373252e+00
4.463807622971785349e+00
4.803971019799917030e+00
4.677572738608660075e+00
4.965052747517120224e+00
4.728539478662753481e+00
4.599031120582026233e+00
4.710823976099788979e+00
4.435708159705541220e+00
4.469803965311314187e+00
4.323212527402063188e+00
4.086413665548775498e+00
3.870853353738027636e+00
3.599348233158252697e+00
3.762859284925241354e+00
3.791620501028660328e+00
3.809228911381580929e+00
3.975910387094700127e+00
4.072849765056616889e+00
4.314061627852424863e+00
4.560101556233803421e+00
4.332846869258730749e+00
4.266322989456909909e+00
4.162690015379382658e+00
4.179836877013769936e+00
4.184927663262101305e+00
3.872425735866386276e+00
3.536490443772322578e+00
3.402482911025629164e+00
3.437332484952662526e+00
3.223131550225673436e+00
2.998530604517270604e+00
3.009360102355344679e+00
3.217254976951835488e+00
3.769396790478992898e+00
3.790497248488350124e+00
3.807713145951595379e+00
3.812068111899407086e+00
3.891927827687140962e+00
4.055371566705559871e+00
4.211771290237606991e+00
3.885250420002762439e+00
3.837814772600950164e+00
3.662612670441319551e+00
3.846963331722918156e+00
4.103591057322262259e+00
3.578832370974907917e+00
3.321441618290293718e+00
2.992481903855434666e+00
3.272437857359705049e+00
3.646959859783748925e+00
3.888879194417768304e+00
4.244184163673708099e+00
4.178910314800418746e+00
4.380491203638712250e+00
4.580583762761534672e+00
4.540015972057631188e+00
4.485149007674920085e+00
4.434837052534021495e+00
4.577437377510591432e+00
4.535586495276277219e+00
4.170497749675234900e+00
4.195765870727825586e+00
4.083892743862520547e+00
3.772155115461828245e+00
3.861917470521120777e+00
4.090702723463948587e+00
4.571686459148565973e+00
4.923303047332410642e+00
5.318769890094415587e+00
5.518798884935108617e+00
5.222716775660614985e+00
5.326794777071995668e+00
5.545728010727884794e+00
5.686809033422548509e+00
5.562556694909176258e+00
5.521598186281380549e+00
5.384680123712200839e+00
5.264859986982912687e+00
5.198526463567816336e+00
4.924473462928688150e+00
4.613656421204154867e+00
4.601052270141337885e+00
5.010806290082257419e+00
5.767328782609297377e+00
6.668351662034240235e+00
6.980396786215521843e+00
7.072149204230072428e+00
6.798628171585846758e+00
6.661182725696335183e+00
6.583208342277998781e+00
6.382244238282510196e+00
6.534131071806768887e+00
6.393550165205965641e+00
6.210318645356096567e+00
6.140877373946921125e+00
5.852405280031632628e+00
5.588226952522063584e+00
5.554267181908471684e+00
5.670839015485796608e+00
6.266515527196247604e+00
6.536385800654841205e+00
6.737570589006793398e+00
6.841306204880368114e+00
6.956224405382499754e+00
7.175602958785361807e+00
6.826996728291760519e+00
6.797096983999210806e+00
6.724787514346985517e+00
6.595451126068326175e+00
6.548964611649182643e+00
6.060865094435996525e+00
6.087065291767771669e+00
5.819477086877270722e+00
5.736786249770034374e+00
5.566580575523516927e+00
5.600994360375466385e+00
6.376732264001987005e+00
6.649817281039815953e+00
6.845421272618011699e+00
6.785658807371589774e+00
6.463568288511794435e+00
6.562958357439697465e+00
6.454084091430047465e+00
6.391984921109781226e+00
6.351305331839625978e+00
6.360359195539047050e+00
6.190390379368636786e+00
6.039498861738024971e+00
5.858801168569925721e+00
5.566677050467149002e+00
5.177148171618853212e+00
5.152584335616779754e+00
5.482981246841802658e+00
6.096633016819964723e+00
6.369551539535734719e+00
6.128652973086786915e+00
6.020427269331833031e+00
6.314793002334340599e+00
6.264620061422647268e+00
6.308770466715316161e+00
6.249382103298216862e+00
6.170734261610959948e+00
6.208936352417651960e+00
6.191840382704128842e+00
5.951297325355426437e+00
5.447757403637581319e+00
5.245806961139749092e+00
4.951861645244662213e+00
5.213703855469759674e+00
5.599301631312357586e+00
5.680849914795601308e+00
5.864388294729678819e+00
5.970064084530747550e+00
5.907818406407443490e+00
5.963200974198173299e+00
5.703964781101433346e+00
5.756505424174292784e+00
5.583331952521689345e+00
5.654425028916477913e+00
5.331966375591377982e+00
5.030846015844417707e+00
4.983703570859404408e+00
4.715841615278350218e+00
4.486502010555170727e+00
4.645386979031457031e+00
4.628416229382821712e+00
4.955677722668042406e+00
5.345416165839196765e+00
5.624669098968809067e+00
5.667557153529969582e+00
5.548549359398009528e+00
5.562446872473117310e+00
5.542843171856986828e+00
5.453281174808694232e+00
5.488066272426635805e+00
5.240866561863697370e+00
5.070799476365209557e+00
5.017445504138208889e+00
4.991230125940035123e+00
4.674612281172073835e+00
4.288110701932509983e+00
4.523859881042767483e+00
5.061642015933387029e+00
5.545787042198753625e+00
5.766369840182733242e+00
5.677082571475239092e+00
5.716011092340465893e+00
5.857085957287551992e+00
5.997244288396757383e+00
5.975736900887056890e+00
5.393552773143596824e+00
5.402385117229869138e+00
5.528224533227444226e+00
5.419249940790848541e+00
5.217232464798087221e+00
4.864408760245112262e+00
4.774679606806330412e+00
5.036908478893678875e+00
5.694445350667308503e+00
5.825941774317641375e+00
6.012631588755652956e+00
6.035456559128419940e+00
6.029245395986208678e+00
6.215174696766553097e+00
6.194011456603050192e+00
5.993532348422036193e+00
5.954434102796142270e+00
5.971911299343332757e+00
5.810547811568198995e+00
5.833088364886009458e+00
5.575151463111410521e+00
5.536007973952507655e+00
5.460707397137468888e+00
6.176247847223294229e+00
6.986422566321834893e+00
6.962918780933534890e+00
6.948305209686225226e+00
7.047713202045940761e+00
6.906442153309683363e+00
7.007656850360433509e+00
6.829702133558782862e+00
6.733878225425712571e+00
6.792206549865454690e+00
6.598282195129343108e+00
6.820984659615135115e+00
6.270741481960783403e+00
6.167915161986684325e+00
6.021838723065513932e+00
6.622084189079942007e+00
7.193096211863007738e+00
7.297992441094493188e+00
7.702341136930726861e+00
7.833782966968499295e+00
8.024225796379766962e+00
8.020415752787073416e+00
7.758620030044767191e+00
7.674206868718329133e+00
7.607378600286892834e+00
7.406748828975366905e+00
7.463506089223756135e+00
7.131907767639518170e+00
6.980137862335993759e+00
6.793236758914929396e+00
6.851918099646638893e+00
7.764343656622770595e+00
7.809750185530674571e+00
7.901534986697129170e+00
8.060153845724869370e+00
8.320906700355124030e+00
8.255310576314343507e+00
8.036065236251033639e+00
8.088259876385052394e+00
8.034328107775081662e+00
7.885362665347258826e+00
7.769536357522724757e+00
7.361247980945790914e+00
7.175569012317396300e+00
6.932772149196068767e+00
6.926234061023421873e+00
7.454354396426310814e+00
7.652716282275605408e+00
7.810706232955794803e+00
7.952222111306298302e+00
7.933896892903590015e+00
8.090784642133598936e+00
7.846656671834296048e+00
7.718567069799007641e+00
7.865805029890509559e+00
7.691229601870816168e+00
7.507180951591919893e+00
7.194844953171070756e+00
7.161886561515927951e+00
6.949285537089110676e+00
7.105104165262559945e+00
7.481144034580495372e+00
7.450614256077869868e+00
7.507975261995511573e+00
7.659711816049252775e+00
7.474124448716281677e+00
7.371772172143550961e+00
7.195036443539208904e+00
6.947765109731221855e+00
6.946905295795431812e+00
6.705501510768044682e+00
6.736575176907990681e+00
6.177388790285078812e+00
6.174530416014931689e+00
6.173536486450643679e+00
6.441944575792604155e+00
6.838314646951346276e+00
6.887209991199313208e+00
6.885324486216461537e+00
7.103526858366876695e+00
7.080200455176964169e+00
6.970951692276116773e+00
6.789887880634978501e+00
6.722074229466613815e+00
6.885433744346983076e+00
6.743242951014678965e+00
6.493139151615025639e+00
6.305136826477053091e+00
6.162529130351913409e+00
6.278197516759689734e+00
6.797266735298137519e+00
7.084235305114702896e+00
7.097261283331420145e+00
7.437277857060053066e+00
7.418557448250851394e+00
7.520493084989652743e+00
7.512883998175823308e+00
7.210925045559861246e+00
6.946934622904620937e+00
7.277000934207705996e+00
6.834333023549788777e+00
6.599630698290411601e+00
6.164783733981039404e+00
5.681967040144400016e+00
5.860794774051385048e+00
6.034467268441005672e+00
6.489367589029995997e+00
6.424331381693377807e+00
6.403291866875861160e+00
6.601190154403411725e+00
6.485701655901493723e+00
6.438369633218201216e+00
6.340031336971946985e+00
6.244575293024809071e+00
6.034602019243720861e+00
5.889699260960810534e+00
5.671107639986757931e+00
5.248789547088335894e+00
5.148250658379367906e+00
5.015963347756780877e+00
4.940954725615029020e+00
5.345425380505503199e+00
5.458704785800534864e+00
5.604713106248652821e+00
5.879963256774715319e+00
5.772885064252193388e+00
5.938934190108852818e+00
5.548459382496957915e+00
5.452277827490263462e+00
5.738962568528734209e+00
5.582308300864383455e+00
5.519251241980157374e+00
5.197988632204726400e+00
4.959259333868885733e+00
4.878712075454984642e+00
4.726820693885770197e+00
4.965287798009796916e+00
5.141800477004608183e+00
5.383601373500425780e+00
5.683930290948808306e+00
5.763137191331679787e+00
5.730635659453980679e+00
5.432226968744032547e+00
5.492243747205577620e+00
5.494945252077172881e+00
5.545918916535981680e+00
5.235617385311286398e+00
4.954154211235447747e+00
4.836687118788518092e+00
4.652860739951449887e+00
4.409941391954589562e+00
4.652664838541682002e+00
4.843486910621834340e+00
5.217077908816122545e+00
5.546634775345580692e+00
5.593490009845538680e+00
5.636135553670669651e+00
5.574258648383136006e+00
5.466792963566774688e+00
5.676013565756306889e+00
5.447282119088185937e+00
5.364958144704473852e+00
5.023629925196871682e+00
4.832547039949304235e+00
4.877069809485760743e+00
4.931949223268702553e+00
4.593752608166028040e+00
4.929836677716764370e+00
5.692125337219124503e+00
5.890325532141048370e+00
5.926826024760146083e+00
5.939567786341513056e+00
5.627236912902674248e+00
5.862924888412976543e+00
5.917741968533846375e+00
5.764642830494381087e+00
5.633092001345517019e+00
5.431986772677760200e+00
5.091592205894301060e+00
5.270434669682344975e+00
4.980205240003499512e+00
5.110261393428402243e+00
5.541543801632940358e+00
6.445705565279411076e+00
6.519538777077968916e+00
6.690710689995171379e+00
6.629134693857054117e+00
6.461269521102337876e+00
6.444081329264406577e+00
6.554221332653071386e+00
6.474088420572343239e+00
6.393763204925789978e+00
6.114706864904121630e+00
5.780658754634544039e+00
5.853076763952572037e+00
5.476830007100204512e+00
5.258342293576276916e+00
5.094386883897300322e+00
5.803126947293378635e+00
6.663042390222813083e+00
7.010228238497177244e+00
7.288439363988345576e+00
7.559177342080147355e+00
7.461053249913106811e+00
7.562784891636169959e+00
7.751162818039574631e+00
7.750682347272970674e+00
7.324850448386939661e+00
7.354169737833842646e+00
7.345202755348623214e+00
7.011977613731062320e+00
6.798985556633738270e+00
6.509670750291263630e+00
6.443565374585887184e+00
7.367823496742630596e+00
8.040428806819193142e+00
8.080996345371715961e+00
7.877570824392137183e+00
7.826076176393769401e+00
8.315788966776324287e+00
8.158241064974220080e+00
7.871969332904882322e+00
7.786207444049011883e+00
7.659947236719119701e+00
7.521984672351948120e+00
7.366445202587328822e+00
7.278420695883198732e+00
6.841297473839119903e+00
6.782411903344382154e+00
6.651154714728988893e+00
7.110106590898908507e+00
7.537785836705381826e+00
7.400838110258973757e+00
7.457302327256115859e+00
7.662480085863080603e+00
7.529772835630865302e+00
7.460493808529861326e+00
7.098751233669020166e+00
7.199450105225196239e+00
7.869168403499998021e+00
7.784763407166508387e+00
7.914875522733836988e+00
7.595432405944904986e+00
7.539267779867941499e+00
7.765359816720433628e+00
7.674711298985471331e+00
7.792203770337778224e+00
7.908322662605939968e+00
8.402627131236954483e+00
8.798146874440760712e+00
8.661002386048721746e+00
8.430359343350914969e+00
8.082641826619465064e+00
8.132278936726777374e+00
8.139089671691920103e+00
8.103619700847389140e+00
7.975991971407097481e+00
7.750327774354957455e+00
7.566734616529402047e+00
7.389969395138393793e+00
7.136863702375194407e+00
7.047702646506479596e+00
6.696484664653553409e+00
7.186424495901746923e+00
7.734348729852797533e+00
7.834882283289346105e+00
7.801165445473486670e+00
7.544626383195407016e+00
7.637861731105431318e+00
7.636099989027002266e+00
7.458636005924574874e+00
7.247076964774578300e+00
6.816652122055415930e+00
6.725713452603599762e+00
6.502926498770307262e+00
6.316665893856907132e+00
5.989808704154256702e+00
5.774899368250999032e+00
5.971559212734064204e+00
6.251197374625917291e+00
6.825913782766974691e+00
6.816512164819698683e+00
6.815561094758436411e+00
6.970865615451486974e+00
7.050044451776386722e+00
6.964334577696035922e+00
6.877582467605463989e+00
6.599950912855263141e+00
6.522446495198551020e+00
6.299307103577859834e+00
6.147566919623955073e+00
6.142651231064064632e+00
5.767406151035004314e+00
5.766979571801925886e+00
5.899146214599340965e+00
6.520251528830328880e+00
6.877773480334951728e+00
7.031355188130305578e+00
7.057489949077478286e+00
7.001943732000256659e+00
6.794485077877027379e+00
6.486055597316806143e+00
5.955774728143865104e+00
5.927929468830768656e+00
5.785987381066036050e+00
5.445732719369459573e+00
5.192318879782192198e+00
4.755077476241410750e+00
4.583711156654828756e+00
4.935071794672637679e+00
5.163824751635957000e+00
5.404496226275341542e+00
5.334126486846002990e+00
5.337833816376587492e+00
5.555691303252501712e+00
5.350039599996648576e+00
5.286406708155880096e+00
5.004000176131114586e+00
5.075968637958567342e+00
5.177013581801531927e+00
4.900364258711533694e+00
4.600286287852554779e+00
4.279572261982991677e+00
4.398521936484996786e+00
4.929402431025891929e+00
5.377464164638070088e+00
5.565758781272052147e+00
5.426233501595163489e+00
5.666359953760490953e+00
5.791203162332863030e+00
5.444581366222791985e+00
5.281963908484044623e+00
5.274611752451107805e+00
5.367799643409966848e+00
5.144391241361631728e+00
5.066983222793851382e+00
4.851426558808213940e+00
4.498332334854637793e+00
4.827949953081770218e+00
5.516121969514358625e+00
5.720324411059323211e+00
5.917572243166432600e+00
5.851800226351883794e+00
6.139784988121107290e+00
6.331244267057684283e+00
6.204316772809818303e+00
6.182349589911666499e+00
6.022603173042170965e+00
6.039946934400688860e+00
5.767198415402958744e+00
5.509304520504315406e+00
5.452002812539717524e+00
5.458428254509556155e+00
6.014144540127176697e+00
6.642587342654962868e+00
6.662175312584281528e+00
6.799224512971306922e+00
6.706244036072348536e+00
6.641180345565544485e+00
6.783114459286082365e+00
6.695059266526698138e+00
6.679237272055445374e+00
6.418692099175700605e+00
6.241270350812385459e+00
6.156272025649855095e+00
5.825889172039694586e+00
5.882369197149444062e+00
6.351038027583683743e+00
7.055624094569395766e+00
7.439543858945285137e+00
7.734830989928298095e+00
7.739956308691944287e+00
7.432909930102368889e+00
7.595924962452727414e+00
7.612052944423169265e+00
7.449560960307906043e+00
7.271957265527703385e+00
6.935583147537556670e+00
6.831587793847631929e+00
6.856358596200436750e+00
6.748119755977882051e+00
7.181319047104125275e+00
7.354273799076509022e+00
7.723388272517013320e+00
8.224267481113145095e+00
8.030489193818027616e+00
7.896961191558887094e+00
7.771412050246624403e+00
7.744288788518701949e+00
7.758606944546954765e+00
7.526472334087088711e+00
7.489377296922612004e+00
7.111139297594775144e+00
7.227150746931840786e+00
7.591449751886784725e+00
7.558011764698619572e+00
8.363469851063882743e+00
8.546639578930921743e+00
8.777933316527310126e+00
8.939541027443738130e+00
8.978477884636561157e+00
8.929441825014919232e+00
8.975580820848165331e+00
8.922585530568653667e+00
8.965490750632000072e+00
8.743185447281973666e+00
8.622702931927676673e+00
8.281003355631298746e+00
8.515479172042034861e+00
8.924228712106128114e+00
9.105615438060453926e+00
9.310698115500315453e+00
9.524412966550755755e+00
9.645486198441574288e+00
9.630553355945323801e+00
9.588121665572714392e+00
9.585693878719382610e+00
9.379065275233017474e+00
9.372374330983802793e+00
9.297457400864743704e+00
9.178690058141000918e+00
8.766353628022045541e+00
8.547798397171220586e+00
8.860583608703109348e+00
9.477518912534549145e+00
9.793901550196949302e+00
9.835960252290306016e+00
1.007606921508818232e+01
1.011722924306764071e+01
1.002506426575706655e+01
9.715176596003857412e+00
9.714697525481540197e+00
9.303370580000148493e+00
9.421095416912407927e+00
9.153535164269612778e+00
8.857952677568562194e+00
8.739013825345239184e+00
8.747797355022953525e+00
9.360346858216757937e+00
9.859665338377169519e+00
9.814538252175111666e+00
9.849060127399582143e+00
9.773339217482430286e+00
9.792258985974058305e+00
9.853830065758359069e+00
9.612915080979973936e+00
9.363575314809850170e+00
9.035418020632732805e+00
8.993957341606858336e+00
8.824470984106881133e+00
8.637351945784018881e+00
8.316465703390633735e+00
8.485960862325839571e+00
8.994705999644736494e+00
9.527310406576475543e+00
9.600246214267997402e+00
9.730493848909475219e+00
9.468250590102456954e+00
9.485853020344450215e+00
9.446638622894965920e+00
9.075334943783502695e+00
8.945479982757319704e+00
8.553887893529463327e+00
8.424483426337246783e+00
8.479220543488963813e+00
8.017227733625247765e+00
7.805877828939344454e+00
7.620624944994688121e+00
8.246083914437008389e+00
8.711515203858084533e+00
8.754267343413459912e+00
9.039891077045012935e+00
8.740590128158487460e+00
8.696302331301296817e+00
8.703425994562621781e+00
8.523746068105936047e+00
8.321050579439315698e+00
7.837470705556938810e+00
8.005302467686362888e+00
7.797512264009640148e+00
7.469996087153504050e+00
7.437255782341992472e+00
7.115689014241183941e+00
7.687231139200946473e+00
7.967925714916248126e+00
8.296612998684565810e+00
8.148625790259586665e+00
8.108866802468980950e+00
8.042995743069866421e+00
8.001184476311721028e+00
7.895252911457589562e+00
7.556819591428052263e+00
7.508661842479853021e+00
7.306147606116155657e+00
7.282687094208199596e+00
6.915161262831475142e+00
6.766530349774541264e+00
6.420286713550410695e+00
6.715040093028051160e+00
7.122464432305548598e+00
7.312987733963780101e+00
7.430667593791952186e+00
7.408517628785432407e+00
7.517668173957872568e+00
7.439527472073393710e+00
7.176675905213585338e+00
7.015904930890656033e+00
6.787722797195101521e+00
6.634141367003337564e+00
6.465052686026467654e+00
6.279001458005950553e+00
6.012117607168420363e+00
5.711552862420944621e+00
5.609995059670836781e+00
5.982931077120895225e+00
6.305610959772081969e+00
6.622306134297730296e+00
6.639474773686231401e+00
7.126882874884415742e+00
7.208409652086686492e+00
6.949798104630417583e+00
6.889778699805447104e+00
6.687043119573672811e+00
6.590174306325820908e+00
6.520703139039767393e+00
6.224988516070823152e+00
5.914942569911886494e+00
5.673703793057882194e+00
5.460068680483686876e+00
5.561324299420562056e+00
5.926164816941593472e+00
6.317577840753585861e+00
6.425246902170783869e+00
6.769879291625329643e+00
6.907954962834594426e+00
6.686571116023060313e+00
6.872936503350445037e+00
6.938185282462598025e+00
6.846671940374051246e+00
6.699806329245518555e+00
6.189726245032488805e+00
6.208327226804044585e+00
5.747216355313412350e+00
5.867850396938592894e+00
5.711171988090711693e+00
5.763068045590841848e+00
6.317848390081223897e+00
6.489787702883575093e+00
6.860911492824413926e+00
7.062026819473317119e+00
6.923448634191572637e+00
7.104041200005553947e+00
7.115519395080355025e+00
7.280372581267556598e+00
7.251252636300932863e+00
6.902503277299729234e+00
6.671879570040687213e+00
6.383279602706409150e+00
6.363109460992347977e+00
6.259741952045089874e+00
6.158470135045831739e+00
6.530749911591271939e+00
6.958172663478762843e+00
7.405103598871562554e+00
7.770617255338777341e+00
7.531069950837434135e+00
7.646183886108872230e+00
7.267485630061628399e+00
7.585494637555314057e+00
7.439020198358377911e+00
7.268304015233752580e+00
7.058689955133445437e+00
6.700042943352855218e+00
6.706780200516448076e+00
6.630432440965648766e+00
6.407812528921738249e+00
6.634143802854509886e+00
7.120990970808804832e+00
7.572284504333481436e+00
7.725792482893098168e+00
7.408538938477931879e+00
7.491696809713971561e+00
7.195018854955492316e+00
7.408133648088494283e+00
7.469360714576737337e+00
7.196899526368213174e+00
6.965476814806777384e+00
6.733691778892421098e+00
6.522735404828665651e+00
6.516976701139128636e+00
6.707121727747676232e+00
7.056535158205065272e+00
7.233312996553536323e+00
7.301499562577248525e+00
7.535559687128738915e+00
7.166784932524137730e+00
7.441400398125779247e+00
7.282440331616840012e+00
7.556274936655086094e+00
7.508801152796138467e+00
7.049261654037650260e+00
6.993152590194995355e+00
6.561307031996818750e+00
6.580638747205682648e+00
6.820621511204251419e+00
7.325000105458400412e+00
7.336298545057616138e+00
7.642506355171576615e+00
8.008219265549826105e+00
8.157251503113229774e+00
7.938202377027494094e+00
7.833283624231569320e+00
7.651911395955494299e+00
7.561615949825238658e+00
7.560672346793694487e+00
7.311507976209384196e+00
7.053501363374834909e+00
6.892467653587061704e+00
7.475210031908375186e+00
7.992921818869433537e+00
8.088835986539493206e+00
8.390650296670173702e+00
8.235823737355701724e+00
8.297377558739810866e+00
8.152908961050286507e+00
8.088566161601136173e+00
8.143632086331137998e+00
7.778417840498832447e+00
7.777026572547242722e+00
7.838954076179561525e+00
7.595756275852750150e+00
7.437083430203642820e+00
7.781675821009002902e+00
8.036490865382234006e+00
8.625284380479456559e+00
8.722565184026620955e+00
8.873757616167779361e+00
8.676829099275494173e+00
8.608530353980313521e+00
8.379443389247057894e+00
8.223372874682524980e+00
7.865564703122117862e+00
7.740962251121061399e+00
7.702263947085100426e+00
7.591948529258615963e+00
7.300080832888625082e+00
7.148593775096060199e+00
6.941305764138519407e+00
6.929572649622684821e+00
7.024229636249629039e+00
7.324998511337469154e+00
7.737443339481160365e+00
7.992188926038579666e+00
8.369521835140631083e+00
8.582924001988772034e+00
8.541274669701977018e+00
8.332246756292136070e+00
8.330718251323048662e+00
8.148640574170485706e+00
8.214700409513227441e+00
7.840009871673942143e+00
7.492874925558624000e+00
6.809128368076301285e+00
6.497794927369398010e+00
6.261920369348104032e+00
6.113675520346532721e+00
6.002848567588728201e+00
5.813240654169192112e+00
6.728557589137494688e+00
7.150449736826772096e+00
7.554611114990848364e+00
7.780192223394408302e+00
7.930170179557705978e+00
7.987460603407726012e+00
8.129032346029589462e+00
7.739938083092340548e+00
8.008807556763144930e+00
7.786769785012097600e+00
7.906700843392684419e+00
8.122875299951942907e+00
7.813378578511446904e+00
7.739672940684329205e+00
7.517878594358364808e+00
7.446885775759824355e+00
7.563216990547232399e+00
7.779023723298507775e+00
8.155736939801897734e+00
8.416690389419670737e+00
8.952865735810746628e+00
9.258035042713288476e+00
9.295584481250728004e+00
9.205437859220751307e+00
9.000930314994036507e+00
9.148908311672528271e+00
9.152576482940787628e+00
8.821141799743827505e+00
8.812239605090042005e+00
8.398996165240134815e+00
8.261749266034712491e+00
8.330892713167884267e+00
8.055070828343446010e+00
7.758114817918965400e+00
7.619706803046199184e+00
7.693210343487805858e+00
8.312685234126831801e+00
8.656591525840383383e+00
8.967330424854765170e+00
9.159308462649164539e+00
9.554518408798742257e+00
9.851604470235258759e+00
9.677030170274349530e+00
9.534243198082265280e+00
9.476247788921284609e+00
9.424046038411859172e+00
1.007922781373110865e+01
9.643785968010433862e+00
9.232522464674048024e+00
8.867461036778479411e+00
8.685086094073596996e+00
8.631666544593770141e+00
8.252180075164858408e+00
8.114484031781557860e+00
7.894806593846055875e+00
8.522236179777507914e+00
9.095760400381209365e+00
9.364862721593794959e+00
9.641471210639053879e+00
9.410246343481105669e+00
9.466272969017950345e+00
9.738619312654861915e+00
9.503639297846291356e+00
9.343338172812423181e+00
9.328230631663643635e+00
9.172302365518078204e+00
9.100533971986635606e+00
8.837260058784977446e+00
8.571506624421772358e+00
8.330454071448173181e+00
8.210198648075675010e+00
8.142876160895525572e+00
7.894415863946619538e+00
8.124447493535910780e+00
8.567778429530164885e+00
8.960185005020264271e+00
9.285364689956736584e+00
9.317243321907596965e+00
9.198913852690509430e+00
8.967715547432078438e+00
8.999417206731664010e+00
9.210583276314366685e+00
8.901928836765648612e+00
8.837802405108050152e+00
8.413886639951442703e+00
8.479126689161944341e+00
8.557405487145729239e+00
8.211288230454840686e+00
7.944901491196333154e+00
7.485077109293001740e+00
7.858911214088607267e+00
8.430648812828792416e+00
8.674629388614903291e+00
8.962237919691119714e+00
8.852658325889080970e+00
9.085119099955477395e+00
9.183318060244857861e+00
9.125478113097074129e+00
8.791680124021013398e+00
8.718918960101007087e+00
8.719571453958451457e+00
8.483827674861515789e+00
8.182016154857365109e+00
8.039084247736127509e+00
7.592885920532864930e+00
7.723918014192463488e+00
7.638409543718864825e+00
7.112030564213398520e+00
7.288339230453971140e+00
7.683370352668703163e+00
8.229040793846422730e+00
8.449509951925904261e+00
8.650594376278775144e+00
8.564039784744863937e+00
8.761660686522475316e+00
9.046872901701135561e+00
8.999199343852922084e+00
8.424598615897764375e+00
8.135608604941239719e+00
7.971803838000141695e+00
7.954226862791244912e+00
7.795048376450210981e+00
7.505300344644695087e+00
7.167181717141261288e+00
6.774229776494962607e+00
6.494237014158500187e+00
6.454435573395642223e+00
6.865289120661941524e+00
7.384367114033182133e+00
7.539317183486843987e+00
8.208660752890239110e+00
7.977690706493831385e+00
7.742374539923673638e+00
7.683878616755237090e+00
7.427192297791577857e+00
7.707844779782476508e+00
7.485462568379546155e+00
7.266291798887266395e+00
6.902830152456090218e+00
6.585641617393662273e+00
6.449544524088651087e+00
6.581113303594463559e+00
6.471892486929789357e+00
6.268261198587822491e+00
5.859150555075871125e+00
6.588123508573005438e+00
7.082471175328009849e+00
7.447577541476846363e+00
7.512756134288906651e+00
7.523411063566243229e+00
7.545586170533056247e+00
7.660615480011188083e+00
7.567767060441497051e+00
7.556692518781687795e+00
7.199988975811152159e+00
7.132073408053543062e+00
7.212357106074477997e+00
7.134727675231033572e+00
6.877945925234371316e+00
6.449073996630204419e+00
6.534817856346762710e+00
6.428467547403954541e+00
6.749297624639268633e+00
7.307885409206733129e+00
7.450770105655408315e+00
7.684365415825482160e+00
7.855947872687352174e+00
7.594683565163336425e+00
7.774854779156783025e+00
7.504439448653215550e+00
7.507461190668493600e+00
7.587076701027740455e+00
7.336491351076290357e+00
7.104407825417013100e+00
6.764859633041794496e+00
6.682601566989603725e+00
6.559548648683346528e+00
6.266041654474747702e+00
6.119500331366509727e+00
6.757015076641778251e+00
7.534013996546605085e+00
8.127917034642791805e+00
8.242908547799970620e+00
8.210005914614612266e+00
8.128488984936154793e+00
8.124267832504187936e+00
8.258496092667257926e+00
8.139545134234197121e+00
7.920873421682131266e+00
7.580039743099860061e+00
7.512105022679691047e+00
7.392094925715241516e+00
7.122130235127883680e+00
7.008658810923463989e+00
6.658897839181463496e+00
7.069768014367980413e+00
7.837209054794755048e+00
8.188774375102013892e+00
8.629015882472231169e+00
8.733600483443012763e+00
8.825959405007665737e+00
9.031855126875370843e+00
8.730891172278973045e+00
8.679893329139531488e+00
8.434514162406287596e+00
8.341054908368676024e+00
8.249319728511238736e+00
7.980090573254642550e+00
7.715737910811242273e+00
7.247465557143357273e+00
7.443823164202910903e+00
7.204138025008489876e+00
7.116979506524273802e+00
7.540429688768256256e+00
8.116493421106099504e+00
8.482811993172049370e+00
8.744084717934811124e+00
8.790549143680664201e+00
8.734660983218873298e+00
8.589719443192961990e+00
8.686904982131011366e+00
8.984680625123246500e+00
8.822646461482634095e+00
8.489939025065439182e+00
8.098695544157749282e+00
8.226900358809814406e+00
7.930637151060579981e+00
7.550594064268466354e+00
7.281316240968010334e+00
6.677855922099979580e+00
7.043131524123396048e+00
7.664786233173458641e+00
7.836154469300254277e+00
7.889020939605245530e+00
7.914390929135606711e+00
7.953750109114878342e+00
7.701660907260873046e+00
7.513270286668216613e+00
7.527198306770742420e+00
7.100806610432982779e+00
7.117248253120521895e+00
6.969860929317405862e+00
6.760806727154090368e+00
6.440842587061695212e+00
5.941490261888986879e+00
5.948421457315532734e+00
5.849547414312780802e+00
5.797455584971316966e+00
6.043587161130631102e+00
6.375994405525716502e+00
6.580396724365755290e+00
6.711816032612489380e+00
6.512977021690801394e+00
6.680079757996963963e+00
6.297624475880923001e+00
6.457143552708885181e+00
6.525167071483338077e+00
6.278090229942506539e+00
5.973355188940956850e+00
5.597456070127066141e+00
5.562520782844444511e+00
5.390306844665531116e+00
5.036625136319742069e+00
4.950922906258142575e+00
4.778534012183172308e+00
5.426024200521339935e+00
5.834655093856099484e+00
5.748134112891477798e+00
5.750414789256524273e+00
5.629871986209820989e+00
5.528214008040947647e+00
5.543680833912617345e+00
5.377315987008330467e+00
5.149870277759021064e+00
4.946063197785917964e+00
4.985500629723730981e+00
4.989861935036401519e+00
4.634922584608887064e+00
4.291013802438897073e+00
4.223312467582957197e+00
4.682445815033418057e+00
5.114361822000887514e+00
5.386973344722605361e+00
5.407060068523435348e+00
5.323108951550580059e+00
5.263893820274688551e+00
5.556100313307297256e+00
5.379693154199571836e+00
5.355033322726001188e+00
5.041713300076082760e+00
5.025002793802400447e+00
4.864384875361906779e+00
4.564786690304856620e+00
4.460690805533602088e+00
4.434166220902397981e+00
4.905068132166888972e+00
5.441477677066302476e+00
5.935239657657859880e+00
6.006022044506607926e+00
5.896981728528714939e+00
6.220872129328824940e+00
6.435847194690325068e+00
6.246177682302459289e+00
6.243594235354805733e+00
6.271543674012775682e+00
6.100491323576079594e+00
5.975072193786104435e+00
5.800988726522803063e+00
5.474867867542457134e+00
4.990961277225608228e+00
5.405246178192783191e+00
6.126671554412496334e+00
6.757710423308424197e+00
7.782751475164559452e+00
8.470545465873499325e+00
8.672833022038730633e+00
8.756379904186530894e+00
8.528507080517670147e+00
8.319106420653383793e+00
8.078102499093972710e+00
8.130242589074100579e+00
8.319310867381489061e+00
8.455659288842866772e+00
8.106328704386328354e+00
7.811524068083940620e+00
8.088095868135326327e+00
8.402169994584255619e+00
9.213641487875634084e+00
9.571839160929243917e+00
9.773807347726744865e+00
9.906452343820603801e+00
1.023247382587737775e+01
1.011939678968815315e+01
1.008112033943660890e+01
9.980340006346636983e+00
1.016999760616039339e+01
1.020605245214778733e+01
1.007659812210283690e+01
1.024802327197653540e+01
9.911009376623496792e+00
1.014227409684411896e+01
1.020921374821818972e+01
1.007854928021470187e+01
1.075480980409827225e+01
1.079698237198221022e+01
1.127969235206211351e+01
1.175166717675693917e+01
1.190030455179760338e+01
1.170652242224156225e+01
1.145625947781229570e+01
1.149811565196171159e+01
1.144866331489868116e+01
1.132893859183934637e+01
1.134647578043933436e+01
1.096852955077122260e+01
1.108452011535177917e+01
1.095726236214085247e+01
1.078499996446993237e+01
1.064633199378346262e+01
1.093142154984502668e+01
1.143227856313234270e+01
1.169262961722120053e+01
1.161884455888321099e+01
1.150264732580529881e+01
1.139349633416014740e+01
1.189787428249718459e+01
1.196733206476193345e+01
1.219969736048756204e+01
1.226154900358551458e+01
1.224463024191379645e+01
1.230064196014848221e+01
1.240864906942954349e+01
1.240115440868055430e+01
1.275987210842413333e+01
1.275786064887154225e+01
1.293226690090108377e+01
1.285675297103233561e+01
1.247300155246659870e+01
1.237085952022169977e+01
1.219282661571980952e+01
1.224043957777831793e+01
1.243206443157254171e+01
1.233939468036646758e+01
1.271142101717663309e+01
1.252085155538094341e+01
1.234406243484295373e+01
1.234135129074854831e+01
1.228295589249779596e+01
1.233003084639625513e+01
1.254362601176592307e+01
1.249268489989879072e+01
1.259003244891073336e+01
1.265797797131187963e+01
1.233065850344291903e+01
1.224912002089240559e+01
1.217844719219988292e+01
1.222246248791117296e+01
1.205929245456633225e+01
1.192895627294529959e+01
1.152356720454275774e+01
1.153414166936806851e+01
1.150643032601038840e+01
1.167609388790907587e+01
1.188675580983681357e+01
1.168264377481818883e+01
1.189880247886389952e+01
1.187350543798964964e+01
1.193011261739638940e+01
1.159206868129132317e+01
1.147171710537264744e+01
1.157528922161270657e+01
1.136746325226494037e+01
1.130718415876754079e+01
1.126652710015889625e+01
1.105444850366683340e+01
1.111767674062707556e+01
1.126609888674562399e+01
1.157075908478157089e+01
1.144413574564021019e+01
1.148699683879209488e+01
1.144528964285774464e+01
1.141269207767624039e+01
1.141534006306591209e+01
1.132105206045275736e+01
1.119244127734037875e+01
1.144791397222206797e+01
1.156771505959682145e+01
1.121464493529686024e+01
1.065993703310368801e+01
1.005804596782354565e+01
1.040553578734841267e+01
1.012635492502175794e+01
9.705546832533912038e+00
9.310697811651550637e+00
8.962471851049315319e+00
8.738410511912377387e+00
8.476796628254760435e+00
8.271204389151364467e+00
8.331121841650428905e+00
7.956603610423712780e+00
8.120579172779571309e+00
8.529969207108479168e+00
8.824133581579360452e+00
9.837753803895452620e+00
1.054784600129164573e+01
1.162460016501540849e+01
1.203627035358692865e+01
1.237574002378170235e+01
1.280001099453465940e+01
1.300416901366514821e+01
1.321861109188404271e+01
1.344126264889945332e+01
1.330906146783723898e+01
1.333121770009063312e+01
1.266405562477410740e+01
1.280734084953064666e+01
1.271590408967034591e+01
1.306650243251823440e+01
1.321431868087353223e+01
1.247570020815061298e+01
1.186049406822553465e+01
1.183836011399097288e+01
1.169959386570377546e+01
1.149228979448167820e+01
1.160154776908672147e+01
1.160874418579464873e+01
1.147100917919664198e+01
1.146132650024986788e+01
1.123580103092672289e+01
1.090030012466451126e+01
1.113302364247437026e+01
1.142678561330671982e+01
1.124708557573842427e+01
1.100030457354677083e+01
1.030696779845118272e+01
1.008575901709878053e+01
9.929917325400708705e+00
9.818288382730315789e+00
9.744192741404901881e+00
9.080635332372310131e+00
8.949120081841442698e+00
8.656225049063834831e+00
8.542837618020882928e+00
8.526359845191109343e+00
8.541008257382429747e+00
9.021687271383825646e+00
9.461313541896913648e+00
9.495635625580348460e+00
9.453551501327922324e+00
9.228600975435540477e+00
9.223623043136342403e+00
9.430442316023231797e+00
9.301603511591338247e+00
9.158506340587109662e+00
8.478672987055347221e+00
8.508224173729843187e+00
8.277896422742969662e+00
8.105697319277396673e+00
8.399830751807826346e+00
8.707070712112738420e+00
8.800578842087872999e+00
8.817556871601652801e+00
8.703745864826714751e+00
8.815178907546396658e+00
8.797415553862492743e+00
8.687252195142946221e+00
8.790917576376443776e+00
8.936213990172916510e+00
8.667523444700236723e+00
8.672358285405152856e+00
8.510925741955418289e+00
8.709280188541811185e+00
9.323872343888979231e+00
9.464263403746372205e+00
9.104037526638137479e+00
8.938631927579990588e+00
8.856027004136194591e+00
8.698900718789047914e+00
8.610839667614186510e+00
7.957544620274916269e+00
7.944343692199311135e+00
7.796303515703982612e+00
7.495895224494631748e+00
7.359173088997465584e+00
6.995556988870248460e+00
7.158088486509655013e+00
7.536045893610378243e+00
7.512458834294932331e+00
7.566898957091382272e+00
7.213681762623480154e+00
7.043514974941331275e+00
6.952289637685964863e+00
6.701346900480643853e+00
6.692589148221600226e+00
6.322252304226481101e+00
6.167894441295572960e+00
6.081865997034981319e+00
5.958632524798929353e+00
6.414388414089444268e+00
6.438490771014642178e+00
6.724984664162718673e+00
6.960702272457069739e+00
6.555865658876257385e+00
6.552122556614335736e+00
6.117551695244230814e+00
6.245054177282952423e+00
6.164854385254841418e+00
6.036151435450278768e+00
5.934649651351492139e+00
5.361616589750553885e+00
5.467031734255670017e+00
5.493534924322375446e+00
6.051019167634876794e+00
6.457420837818347081e+00
6.469430798558335027e+00
6.431104355374372972e+00
6.438989218711412832e+00
6.530391271258906727e+00
6.514384820266172937e+00
6.164052923599001588e+00
5.913527076163802576e+00
5.908337254654895787e+00
5.870544523351952648e+00
5.851198480421487602e+00
5.836227935042984427e+00
6.367287169109545175e+00
7.070100059320395758e+00
7.404387025156779600e+00
7.349803854055551255e+00
7.123068173945171111e+00
7.129529220929100575e+00
7.058197869876551067e+00
7.165855052762367450e+00
7.090987002514282267e+00
6.807870150635892514e+00
6.739520718645337638e+00
7.074726629189115101e+00
7.549654340162646804e+00
8.345369052237174401e+00
8.303741909508971730e+00
8.376334859058090387e+00
8.279885404925835246e+00
8.492238912061850442e+00
8.423592383127015637e+00
8.381077900166019390e+00
8.008179361032148336e+00
8.120809195240042300e+00
7.866657247791181362e+00
7.848725109808981415e+00
7.860248399416377652e+00
8.767374314010851322e+00
9.278456073538109194e+00
9.504507558847592463e+00
9.050424551388800865e+00
8.884689748363825856e+00
8.968925482389465742e+00
8.821187497992696080e+00
8.957314034998375973e+00
8.732382317380597669e+00
8.312363686398612117e+00
8.228873350194362501e+00
