BVP Signal
3.678916605762634455e-03
2.222340944661038709e-02
4.000050064566973429e-02
5.691176484363008603e-02
7.285877668118079242e-02
8.774311079901042643e-02
1.014663418378094484e-01
1.139300444382668198e-01
1.250357932410708361e-01
1.346851628869115691e-01
1.427797280164783134e-01
1.492210632704605855e-01
1.539107432895467920e-01
1.567503427144266714e-01
1.576414361857896296e-01
1.564855983443247389e-01
1.531844391438355046e-01
1.476745028675796600e-01
1.399927412203373356e-01
1.301940342862647482e-01
1.183332621495185588e-01
1.044653048942544293e-01
8.864504260462935381e-02
7.092735536479999325e-02
5.136723837056689224e-02
3.005845670307616402e-02
7.189700433554185866e-03
-1.703608036299311679e-02
-4.241593561155936054e-02
-6.874691523713830077e-02
-9.582606916472358183e-02
-1.234504473193092644e-01
-1.514167803345274066e-01
-1.794702788140859484e-01
-2.072482827259649607e-01
-2.343745738404412193e-01
-2.604729339277904732e-01
-2.851671447582893038e-01
-3.080809881022142371e-01
-3.288382457298409944e-01
-3.470633372196753053e-01
-3.624398493921188180e-01
-3.747576811675978337e-01
-3.838178257180472897e-01
-3.894212762154030116e-01
-3.913690258316000481e-01
-3.894620677385744467e-01
-3.835013951082614225e-01
-3.732913812724377167e-01
-3.588379960894836906e-01
-3.404589885110463898e-01
-3.184988460694490597e-01
-2.933020562970145018e-01
-2.652131067260647401e-01
-2.345764848889226040e-01
-2.017366783179103673e-01
-1.670406351373864007e-01
-1.309369473130226336e-01
-9.400981848720457723e-02
-5.685288398804375087e-02
-2.005977914365174308e-02
1.577586071786041266e-02
5.006040026838091961e-02
8.220020417979945204e-02
1.116082264218103692e-01
1.378960910135857143e-01
1.609044380747606251e-01
1.804866047016183694e-01
1.964959279904425760e-01
2.087857450375165680e-01
2.172093929391231137e-01
2.216202087915459251e-01
2.218840258083207839e-01
2.181524058330976956e-01
2.108617079705782660e-01
2.004606011682818767e-01
1.873977543737270490e-01
1.721218365344327483e-01
1.550815165979178012e-01
1.367254635117010342e-01
1.175026072847323994e-01
9.786653694879382526e-02
7.827485683294829744e-02
5.918530268958795137e-02
4.105561027110581074e-02
2.434351532989450367e-02
9.506753618346727719e-03
-2.996939111144736323e-03
-1.272969244454069671e-02
-1.953649364586207415e-02
-2.347294321552800822e-02
-2.459966299637694753e-02
-2.297727483124722969e-02
-1.866640056297752537e-02
-1.172766203440678279e-02
-2.221681088372395863e-03
9.772700636662134954e-03
2.396611394226977332e-02
3.993396958392825269e-02
5.724945163945482918e-02
7.548574418666786912e-02
9.421603130338507270e-02
1.130134970674252504e-01
1.314513255566072125e-01
1.491150309716107181e-01
1.657072755487187798e-01
1.809954772159469982e-01
1.947477366849366121e-01
2.067321546673261956e-01
2.167168318747552114e-01
2.244698690188648982e-01
2.297593668112927201e-01
2.323887302531495447e-01
2.324399662212519591e-01
2.301272224125223698e-01
2.256654425023866262e-01
2.192695701662720209e-01
2.111545490796029045e-01
2.015353229178077354e-01
1.906268353563108642e-01
1.786541073270886404e-01
1.659087155432150684e-01
1.527092269505716526e-01
1.393742855438173667e-01
1.262225353176147369e-01
1.135726202666207385e-01
1.017431843855014506e-01
9.105287166891207207e-02
8.177849336854592366e-02
7.396436688439500529e-02
6.757450700833755874e-02
6.257285221300312728e-02
5.892334097101503687e-02
5.658991175500238668e-02
5.553650303759072315e-02
5.572705329140337227e-02
5.708237057804277370e-02
5.932084022511130428e-02
6.210151469667035684e-02
6.508343880920097746e-02
6.792565737918909718e-02
7.028721522311909276e-02
7.182715715747622909e-02
7.220452799921683873e-02
7.110875125312798861e-02
6.834985609868909906e-02
6.376779756257629217e-02
5.720253067146668924e-02
4.849401045203710625e-02
3.748219193096369306e-02
2.400703013492400117e-02
7.908494970469304164e-03
-1.088405298818195810e-02
-3.214078862209190923e-02
-5.556882594630807581e-02
-8.087527897587931669e-02
-1.077672617258520482e-01
-1.359518882112722427e-01
-1.651362724471909793e-01
-1.950274869620697293e-01
-2.252939593483362923e-01
-2.554938513930152810e-01
-2.851657867407682012e-01
-3.138483890362543938e-01
-3.410802819241367523e-01
-3.664000890490753393e-01
-3.893464340557311054e-01
-4.094582126161283586e-01
-4.263624667577313732e-01
-4.399005279125224321e-01
-4.499456662310938881e-01
-4.563711518640379272e-01
-4.590502549619469019e-01
-4.578562456754133314e-01
-4.526623941550292352e-01
-4.433429041218595046e-01
-4.299184476900833607e-01
-4.127142439252008410e-01
-3.920934784780342186e-01
-3.684193369994047673e-01
-3.420550051401348712e-01
-3.133636685510465258e-01
-2.827085128829613381e-01
-2.504531172808379669e-01
-2.169967735118487062e-01
-1.828025071751506192e-01
-1.483399380275724488e-01
-1.140786858259439929e-01
-8.048837032709410533e-02
-4.803861128785263945e-02
-1.719902846504856031e-02
1.156326129616075393e-02
3.792776941997472173e-02
6.179926507081034970e-02
8.310166069047419946e-02
1.017588687207730269e-01
1.176948016035144484e-01
1.308333717805044705e-01
1.410984916935506539e-01
1.484181514135163305e-01
1.528862501159449772e-01
1.548165849806115157e-01
1.545380979607911542e-01
1.523797310097586288e-01
1.486704260807889810e-01
1.437391251271572523e-01
1.379147701021385397e-01
1.315251835386772317e-01
1.248648784967279352e-01
1.181902211997967467e-01
1.117554853983129814e-01
1.058149448427059547e-01
1.006228732834050787e-01
9.643354447083962722e-02
9.350123215543884592e-02
9.207210615181424251e-02
9.220919127868923426e-02
9.379415248753847356e-02
9.670090783048376770e-02
1.008033753596470627e-01
1.059754731271503325e-01
1.120911191851153288e-01
1.190242315856640531e-01
1.266455124989671888e-01
1.347688759334198516e-01
1.431596134899224548e-01
1.515814463866141382e-01
1.597980958416336528e-01
1.675732830731207212e-01
1.746707292992142058e-01
1.808541557380530518e-01
1.858977282439162604e-01
1.897228928734953080e-01
1.923600374446973182e-01
1.938421075255210013e-01
1.942020486839649562e-01
1.934728064880278930e-01
1.916873265057082998e-01
1.888785543050051086e-01
1.850879205175046671e-01
1.804540160751714195e-01
1.751774209637640967e-01
1.694597175388511401e-01
1.635024881560007137e-01
1.575073151707817587e-01
1.516757809387622169e-01
1.462094678155101413e-01
1.412980300939201406e-01
1.370187575320912787e-01
1.333872500164658415e-01
1.304184713449565991e-01
1.281273853154758502e-01
1.265289557259360043e-01
1.256381463742496929e-01
1.254699210583291591e-01
1.260230765047921642e-01
1.271698630285527098e-01
1.287229263473378404e-01
1.304945633286194173e-01
1.322970708398686357e-01
1.339427457485560247e-01
1.352438849221537787e-01
1.360127852281323158e-01
1.360706559452669051e-01
1.352971081211207238e-01
1.335952680926015823e-01
1.308683266955873448e-01
1.270194747659553480e-01
1.219519031395831787e-01
1.155688026523485901e-01
1.077733641401288495e-01
9.849349308770577460e-02
8.779340350069192445e-02
7.578404731835419739e-02
6.257641817809100893e-02
4.828150971730016394e-02
3.301031557338041100e-02
1.687382938372949948e-02
-1.695521425415513761e-05
-1.754574956580401413e-02
-3.557160084328614413e-02
-5.394638046343347426e-02
-7.252195903692038037e-02
-9.115020717442368081e-02
-1.096829954866177514e-01
-1.279721945841783004e-01
-1.458696750799980402e-01
-1.632452506715366125e-01
-1.800394375489815513e-01
-1.962101640392501234e-01
-2.117153584692593182e-01
-2.265129491659272354e-01
-2.405608644561706144e-01
-2.538170326669070831e-01
-2.662393840298843406e-01
-2.777960048221385092e-01
-2.884888655666574264e-01
-2.983269948130894966e-01
-3.073194211110838459e-01
-3.154751730102884899e-01
-3.228032790603527769e-01
-3.293127678109247780e-01
-3.350126561977018191e-01
-3.399017599278837398e-01
-3.439499986313174773e-01
-3.471222109836764602e-01
-3.493832356606341172e-01
-3.506979113378642654e-01
-3.510310766910405000e-01
-3.503475703958366938e-01
-3.486122171109959922e-01
-3.457854689455780450e-01
-3.418172233356459033e-01
-3.366558169635999742e-01
-3.302495865118403318e-01
-3.225468686627671611e-01
-3.134960000987806472e-01
-3.030453175022809198e-01
-2.911433253326009551e-01
-2.777641308756242933e-01
-2.629347084038056170e-01
-2.466885691157594818e-01
-2.290592242101001652e-01
-2.100801848854421117e-01
-1.897849623403998209e-01
-1.682070677735887365e-01
-1.453805243524985968e-01
-1.213848240323742167e-01
-9.638005433856200455e-02
-7.053457012910074875e-02
-4.401672626202826621e-02
-1.699487759538283183e-02
1.036262101279760220e-02
3.788741470447471588e-02
6.541072757902499646e-02
9.273955181588698637e-02
1.196439010440045192e-01
1.458906748829253419e-01
1.712467729521969795e-01
1.954790948713675536e-01
2.183545402599839647e-01
2.396400087375943344e-01
2.591036520284057953e-01
2.765638062802378006e-01
2.919048855628164074e-01
3.050158103690895905e-01
3.157855011920066568e-01
3.241028785245149146e-01
3.298568628595626717e-01
3.329363746900978471e-01
3.332345976177071289e-01
3.307699183550223965e-01
3.257031740152058763e-01
3.182029322981768660e-01
3.084377609038552182e-01
2.965762275321606745e-01
2.827868998830131986e-01
2.672383456563321991e-01
2.501030046863221279e-01
2.316398125223186888e-01
2.121927998548135963e-01
1.921095893703851087e-01
1.717378037556115122e-01
1.514250656970710374e-01
1.315189978813422478e-01
1.123672229950039569e-01
9.431227632603106370e-02
7.760779802588146925e-02
6.243181259406083150e-02
4.895993484173477572e-02
3.736777958006820555e-02
2.783096162022619113e-02
2.052509577337391367e-02
1.562579685067660984e-02
1.329338444831307253e-02
1.347457861064610407e-02
1.595914216832398924e-02
2.053320944672311354e-02
2.698291477121980350e-02
3.509439246719041339e-02
4.465377686001134605e-02
5.544720227505886556e-02
6.725421859288760462e-02
7.977965643707518595e-02
9.268099308441252182e-02
1.056149540263436881e-01
1.182382647543110399e-01
1.302076507597572652e-01
1.411798375341257739e-01
1.508115505688588653e-01
1.587810078275755377e-01
1.649671729380420837e-01
1.693584731446983183e-01
1.719444391918547588e-01
1.727146018238210345e-01
1.716584917849068859e-01
1.687656398194222751e-01
1.640255766716773311e-01
1.574533606297289223e-01
1.492622464800511528e-01
1.397581932728404475e-01
1.292476870353991836e-01
1.180372137950289890e-01
1.064332595790321440e-01
9.474231041471041503e-02
8.327085232936577708e-02
7.230312449509324058e-02
6.197872508920801438e-02
5.237942726888147188e-02
4.358685190488102018e-02
3.568261986797402474e-02
2.874835202892773306e-02
2.286566925850958693e-02
1.811619242748691017e-02
1.452923369893920763e-02
1.184780679207099452e-02
9.717473465675571798e-03
7.783713995135332908e-03
5.692008655832497821e-03
3.087837723149300384e-03
-3.833185275320394325e-04
-5.075979820829357170e-03
-1.132177337222700642e-02
-1.934649428384510594e-02
-2.934537568433975840e-02
-4.151364773221966065e-02
-5.604654058599417565e-02
-7.313928440417155619e-02
-9.298710934526172034e-02
-1.157852455187022289e-01
-1.416104119545099627e-01
-1.700758425985686162e-01
-2.006814813922920271e-01
-2.329272722770953652e-01
-2.663131591943928567e-01
-3.003390860855992828e-01
-3.345049968921295913e-01
-3.683108288270719455e-01
-4.012245185175332685e-01
-4.326080270197850131e-01
-4.618014071095052908e-01
-4.881447115623711586e-01
-5.109779931540601172e-01
-5.296413046602498342e-01
-5.434746988566179215e-01
-5.518184622380855053e-01
-5.542067227680762542e-01
-5.507187063936321847e-01
-5.415287524459173607e-01
-5.268112002560959573e-01
-5.067403891553323714e-01
-4.814906584747904450e-01
-4.512363475456345752e-01
-4.161524437551723521e-01
-3.766086721398914094e-01
-3.334414999006902747e-01
-2.875558696114928203e-01
-2.398567238462226969e-01
-1.912490051788041656e-01
-1.426376561831599332e-01
-9.492761943321514906e-02
-4.902284970594372737e-02
-5.680635698360969599e-03
3.464249086550275081e-02
7.152688239287763317e-02
1.045528912909943209e-01
1.333008699670887864e-01
1.573511708283885646e-01
1.762841462821294058e-01
1.896841547647096782e-01
1.974837817912384885e-01
2.002286861726463307e-01
1.985268747074679929e-01
1.929863541942253846e-01
1.842151314314484090e-01
1.728212132176651927e-01
1.594126063514038627e-01
1.445977138255023497e-01
1.290073424415782988e-01
1.133062604261929618e-01
9.816206986026299042e-02
8.424237282470703470e-02
7.221477140044185727e-02
6.274686766838566410e-02
5.650626370945403820e-02
5.415079781223758326e-02
5.595277952978605640e-02
6.168022668851325108e-02
7.106710248067971136e-02
8.384737009854958956e-02
9.975499273438126480e-02
1.185239335804384453e-01
1.398881558289817306e-01
1.635742925973540096e-01
1.890964844607321282e-01
2.157286843611498917e-01
2.427319500723976731e-01
2.693673393682702866e-01
2.948959100225589935e-01
3.185787198090501704e-01
3.396768265015435162e-01
3.574655243242270686e-01
3.715344589334961256e-01
3.817805243451948272e-01
3.881134301783761842e-01
3.904428860520967604e-01
3.886786015854171161e-01
3.827302863973898184e-01
3.725076501070732071e-01
3.579420481607060722e-01
3.393391186220742206e-01
3.173207911482039956e-01
2.925189398810275621e-01
2.655654389624763079e-01
2.370921625344827033e-01
2.077309847389793851e-01
1.781137797178974358e-01
1.488628205989859232e-01
1.204675890847033415e-01
9.332063191125583579e-02
6.781228952675832922e-02
4.433290237932419053e-02
2.327281091706923100e-02
5.022355588106819368e-03
-1.002812315944789923e-02
-2.152514842766173331e-02
-2.952981667419929401e-02
-3.436420566798159548e-02
-3.635446056188240682e-02
-3.582672650877372078e-02
-3.310714866153063873e-02
-2.852187217302626365e-02
-2.239704219613392056e-02
-1.506501975357066314e-02
-6.915732494237936123e-03
1.629715191558078757e-03
1.014991170711243562e-02
1.822344545572152086e-02
2.542890484067972245e-02
3.134487826528309373e-02
3.554995413282713290e-02
3.766588400380521673e-02
3.764683020051839968e-02
3.560135581012102701e-02
3.163887605403958858e-02
2.586880615369913095e-02
1.840056133052603293e-02
9.343556805945230082e-03
-1.192792198616121624e-03
-1.307615195830402754e-02
-2.602634409546156213e-02
-3.970450529262858907e-02
-5.377162394481393992e-02
-6.788868844702578009e-02
-8.171668719427413463e-02
-9.491660858156669711e-02
-1.071494410039123824e-01
-1.181204009207779404e-01
-1.277749320599689542e-01
-1.361396519301302233e-01
-1.432412415407737505e-01
-1.491063819014116221e-01
-1.537617540215559797e-01
-1.572340389107186875e-01
-1.595499175784119983e-01
-1.607727601351817137e-01
-1.611342767244207108e-01
-1.609144291237319946e-01
-1.603931831350715875e-01
-1.598505045603957064e-01
-1.595663592016603460e-01
-1.598207128608216954e-01
-1.608935312922159244e-01
-1.630158999894163463e-01
-1.662291683561148425e-01
-1.705286554697823531e-01
-1.759096804078902898e-01
-1.823675622479098424e-01
-1.898976200673122006e-01
-1.984951729435685264e-01
-2.081555248652717516e-01
-2.188096628408369715e-01
-2.301771516400248629e-01
-2.419341781370769884e-01
-2.537569292062346604e-01
-2.653215917217391917e-01
-2.763043525578321447e-01
-2.863813985887547764e-01
-2.952289569140829073e-01
-3.025547973252591394e-01
-3.081547481446689773e-01
-3.118398850947156076e-01
-3.134212838978019389e-01
-3.127100202763316572e-01
-3.095171699527077269e-01
-3.036538086493333344e-01
-2.949313387761649530e-01
-2.832557827292103703e-01
-2.687583432386051463e-01
-2.516029986261605345e-01
-2.319537272136874551e-01
-2.099745073229977166e-01
-1.858293172759019063e-01
-1.596821353942117216e-01
-1.316973052520247212e-01
-1.020919548000058796e-01
-7.119070589662401805e-02
-3.933125521477653930e-02
-6.851299427361540184e-03
2.591146479272368741e-02
5.861934077258100506e-02
9.093463183930985960e-02
1.225198827738577106e-01
1.530581855122085388e-01
1.822685619025033454e-01
2.098736563290825863e-01
2.355961131762867589e-01
2.591585768284558888e-01
2.802836916699305569e-01
2.986941020850508721e-01
3.141142619550653659e-01
3.263691757181777509e-01
3.354352570709400183e-01
3.413014382482730258e-01
3.439566514850976864e-01
3.433898290163351907e-01
3.395899030769058413e-01
3.325458059017311063e-01
3.222505696357799709e-01
3.088567283499831229e-01
2.927240830046714537e-01
2.742262934223412274e-01
2.537370194254887079e-01
2.316299208366102147e-01
2.082786574782022337e-01
1.840568891727605294e-01
1.593395993244919318e-01
1.345396473787355274e-01
1.101124262202186066e-01
8.651558772402573316e-02
6.420678376524197040e-02
4.364366621895149345e-02
2.528388696023892157e-02
9.585097864189595640e-03
-3.006086103042704405e-03
-1.228395998577364034e-02
-1.827675254882657474e-02
-2.102233383026273772e-02
-2.055857386814276613e-02
-1.692334270052757439e-02
-1.015451036547873609e-02
-2.899469010557431670e-04
1.261649922997365447e-02
2.823756530274912357e-02
4.601644633122953243e-02
6.538921753172327600e-02
8.579195412053874925e-02
1.066607313139848467e-01
1.274316243283697414e-01
1.475407083800022723e-01
1.664328171039207160e-01
1.836727619936974198e-01
1.989123586108036412e-01
2.118053719500938015e-01
2.220055670064213782e-01
2.291667087746409592e-01
2.329425622496063275e-01
2.329868924261709884e-01
2.289909488654244263e-01
2.210637717127979518e-01
2.095756499960159946e-01
1.949008690052321802e-01
1.774137140305999671e-01
1.574884703622727311e-01
1.354994232904045137e-01
1.118208581051481632e-01
8.683986272496224679e-02
6.106109210492910444e-02
3.505243934594193256e-02
9.382406485230421200e-03
-1.538050443997562855e-02
-3.866779139244624908e-02
-5.991095233495091765e-02
-7.854148523026072137e-02
-9.404241074124652933e-02
-1.062903374661070544e-01
-1.153434187148665302e-01
-1.212607801828441412e-01
-1.241015475653589606e-01
-1.239248465577293956e-01
-1.207898028552756298e-01
-1.147555421533150710e-01
-1.059371206693954237e-01
-9.480758335630312672e-02
-8.198106107292013611e-02
-6.807202647941035245e-02
-5.369495223593734323e-02
-3.946431100266500902e-02
-2.599457543975691731e-02
-1.390021820737746827e-02
-3.757424021761046617e-03
4.064002895779843250e-03
9.263486169329163133e-03
1.154049999912840074e-02
1.059451858541898828e-02
6.125016128442184460e-03
-2.168533171560071970e-03
-1.458665511434709128e-02
-3.131509048199332401e-02
-5.201686730470234110e-02
-7.620630150167029271e-02
-1.033976984431237423e-01
-1.331053634992895862e-01
-1.648436020403947211e-01
-1.981267194366642670e-01
-2.324690209853421674e-01
-2.673461684977762598e-01
-3.020849449628759675e-01
-3.359762853620802403e-01
-3.683111246768258074e-01
-3.983803978885509522e-01
-4.254750399786928483e-01
-4.488859859286902232e-01
-4.679042051854729323e-01
-4.819529042097745464e-01
-4.908867666634754157e-01
-4.946483357829153382e-01
-4.931801548044344452e-01
-4.864247669643740890e-01
-4.743247154990751779e-01
-4.568225436448762333e-01
-4.338610237013831306e-01
-4.055529655603897221e-01
-3.724824447485117207e-01
-3.353145104922745645e-01
-2.947142120182034142e-01
-2.513465985528235969e-01
-2.058767193226600789e-01
-1.589696235542385483e-01
-1.112902950659536705e-01
-6.348544740193523550e-02
-1.615862068278478558e-02
3.009287936307653011e-02
7.467174700722806202e-02
1.169806765212483834e-01
1.564223621767165673e-01
1.923994982452117974e-01
2.243162585396544229e-01
2.517849929632970385e-01
2.748390734024160342e-01
2.935626616234051633e-01
3.080399193926577350e-01
3.183550084765685018e-01
3.245920906415308282e-01
3.268353276539380792e-01
3.251705764105729535e-01
3.198249406265268324e-01
3.112708481289306883e-01
3.000052475079486025e-01
2.865250873537448228e-01
2.713273162564829311e-01
2.549088828063268974e-01
2.377667355934408033e-01
2.203961167540311461e-01
2.031990730353058772e-01
1.864382494527023204e-01
1.703648710039672998e-01
1.552301626868482498e-01
1.412853494990935488e-01
1.287816564384480222e-01
1.179703085026598264e-01
1.090978948460260001e-01
1.022332926882714710e-01
9.721596482135824724e-02
9.387018584947803834e-02
9.202023037682233175e-02
9.149037300758300351e-02
9.210488834595145780e-02
9.368805099611954290e-02
9.606333060137206559e-02
9.903145637239579857e-02
1.023677873039223613e-01
1.058463494978826996e-01
1.092411690562079540e-01
1.123262720808292647e-01
1.148756846736776749e-01
1.166634329366841305e-01
1.174696720511333448e-01
1.172068146421697543e-01
1.159148648574853113e-01
1.136390223624785256e-01
1.104244868225477405e-01
1.063164579030918544e-01
1.013601352695089330e-01
9.560071858719765281e-02
8.908821761484783663e-02
8.195409766839589771e-02
7.439776239694648186e-02
6.662069416310727188e-02
5.882437532948652653e-02
5.121028825869199108e-02
4.397991531333175774e-02
3.733473885601365505e-02
3.146981153409839083e-02
2.649294838276683439e-02
2.244911972409385781e-02
1.938190984022306051e-02
1.733490301329826400e-02
1.635168352546298443e-02
1.647583565886109880e-02
1.775094369563631758e-02
2.020779308723237577e-02
2.373578884222311836e-02
2.813652055449154463e-02
3.321025957897905112e-02
3.875727727062794337e-02
4.457784498438008280e-02
5.047223407517736904e-02
5.624071589796142412e-02
6.168317647287341332e-02
6.659599308449853927e-02
7.077366856219846625e-02
7.401068810116029351e-02
7.610153689657106479e-02
7.684070014361799039e-02
7.602266303748839160e-02
7.344191077336936768e-02
6.891410184949509077e-02
6.241533723701409020e-02
5.399520742914376559e-02
4.370368477697639253e-02
3.159074163160324744e-02
1.770635034411549569e-02
2.100483265604358163e-03
-1.517688725283887485e-02
-3.405211627154680620e-02
-5.430121980012141136e-02
-7.564138695920280542e-02
-9.778967033358537675e-02
-1.204631225080632917e-01
-1.433787960674308137e-01
-1.662537435964820398e-01
-1.888050176800115110e-01
-2.107555687213040208e-01
-2.318598959373391333e-01
-2.518830039001403454e-01
-2.705899043357816169e-01
-2.877456089703369635e-01
-3.031151295298802339e-01
-3.164634777404854993e-01
-3.275556653282266084e-01
-3.361967286444634273e-01
-3.423726021113295270e-01
-3.461203028475011156e-01
-3.474768510226445284e-01
-3.464792668064264336e-01
-3.431645703685131665e-01
-3.375697818785715620e-01
-3.297319216010591858e-01
-3.197172703305255492e-01
-3.077039958852265666e-01
-2.938970053475820077e-01
-2.785012058000115309e-01
-2.617215043249344619e-01
-2.437628080047705148e-01
-2.248300239219395147e-01
-2.051280526798030523e-01
-1.848393288788365840e-01
-1.640735237014103731e-01
-1.429256036408383945e-01
-1.214905351904336239e-01
-9.986328484351147949e-02
-7.813881909338427079e-02
-5.641210443336674984e-02
-3.477807419201006667e-02
-1.330832829095784930e-02
7.989735632432992674e-03
2.911966653520536852e-02
5.008501337440263157e-02
7.088932510706547063e-02
9.153615069023657291e-02
1.120290390809552949e-01
1.323713567191779905e-01
1.525172748415326573e-01
1.723055339686878629e-01
1.915583378269538617e-01
2.100978901426409085e-01
2.277463946420590357e-01
2.443260550515180540e-01
2.596590750973308825e-01
2.735674633218343477e-01
2.858464811579235487e-01
2.962376683983114489e-01
3.044761374372835228e-01
3.102970006691183613e-01
3.134353704881003289e-01
3.136263592885146778e-01
3.106050794646368907e-01
3.041084848226001114e-01
2.940237989505689598e-01
2.804974799394708285e-01
2.637016729301775442e-01
2.438085230635547163e-01
2.209901754804719509e-01
1.954187753217992984e-01
1.672664677284045887e-01
1.367087043496877374e-01
1.040984383022969251e-01
7.005236715979923368e-02
3.520859605071746667e-02
2.052301035725956346e-04
-3.431962555311326990e-02
-6.772786579081901959e-02
-9.938138548102182224e-02
-1.286454541997598122e-01
-1.550128273943403023e-01
-1.781397566573512670e-01
-1.976932103651261041e-01
-2.133401568939956583e-01
-2.247475646202914401e-01
-2.315824019203438500e-01
-2.335116371704875071e-01
-2.302151193920796146e-01
-2.217319525987853090e-01
-2.084994289145321034e-01
-1.909755335827802991e-01
-1.696182518469864231e-01
-1.448855689506090005e-01
-1.172354701371056684e-01
-8.712594064993617327e-02
-5.502002178491571804e-02
-2.148861907524102222e-02
1.279398047270696726e-02
4.714933085945574587e-02
8.089898608553319770e-02
1.133645001514673872e-01
1.438674270577858794e-01
1.717293208050169884e-01
1.962910376885939057e-01
2.172169339790702147e-01
2.344394186835377369e-01
2.478989906254734921e-01
2.575361486283548884e-01
2.632913915156590567e-01
2.651052181108632944e-01
2.629181272374447875e-01
2.566957694577068905e-01
2.467418061988287392e-01
2.336017904049444427e-01
2.178265257069778860e-01
1.999668157358534537e-01
1.805734641224949477e-01
1.601972744978268637e-01
1.393890504927733920e-01
1.186904286004887288e-01
9.854268164851143208e-02
7.932516097605013528e-02
6.141630587494917304e-02
4.519455563705254697e-02
3.103834955420392561e-02
1.932612691824653339e-02
1.043632702102514909e-02
4.700411715579777550e-03
2.025676705761148000e-03
2.094362752588674326e-03
4.586642630065584925e-03
9.182689112195330239e-03
1.556267497298202684e-02
2.340677298642912518e-02
3.239515592653985365e-02
4.218653346178835584e-02
5.227828454607519326e-02
6.209440704238933240e-02
7.105852906819187798e-02
7.859427874094415678e-02
8.412528417810727355e-02
8.707517349714311017e-02
8.686757481551343751e-02
8.299140221321088529e-02
7.534696173162182264e-02
6.399438498272277953e-02
4.899415868214629377e-02
3.040676954552501421e-02
8.292704288491825615e-03
-1.728755037332074806e-02
-4.627350772427474279e-02
-7.851688909997500687e-02
-1.134033641689280447e-01
-1.501645481760105483e-01
-1.880319587721750452e-01
-2.262371136083740630e-01
-2.640115303355590193e-01
-3.005867266046817754e-01
-3.351942200666959693e-01
-3.671110780537918394e-01
-3.958186930929603609e-01
-4.208557263067438381e-01
-4.417608416651155334e-01
-4.580727031380471548e-01
-4.693299746955129637e-01
-4.750713203074852231e-01
-4.748354048224167068e-01
-4.683329254075254133e-01
-4.559274832003776812e-01
-4.381375453977729428e-01
-4.154815791965120186e-01
-3.884780517933948962e-01
-3.576454303852222849e-01
-3.235021821687937837e-01
-2.865667904711606262e-01
-2.474084755226571564e-01
-2.067595734991006795e-01
-1.653851357093594210e-01
-1.240502134623019392e-01
-8.351985806679640412e-02
-4.455912083171142957e-02
-7.933053065915351976e-03
2.559357291124230924e-02
5.544223699729919352e-02
8.154319746758431631e-02
1.039127929293243713e-01
1.225673619897462707e-01
1.375232432560764551e-01
1.487967753355414757e-01
1.564042968353684948e-01
1.603627217730161370e-01
1.608387044551867762e-01
1.583477725916002665e-01
1.534550382596877593e-01
1.467256135368801839e-01
1.387246105006089136e-01
1.300171412283049888e-01
1.211683177973994496e-01
1.127422930071176888e-01
1.051751515881667043e-01
9.864752307178381585e-02
9.330972552154792599e-02
8.931207700103722946e-02
8.680489557383053167e-02
8.593849930350620780e-02
8.686320625364293835e-02
8.972708651983868355e-02
9.449851289035182678e-02
1.008379474714321544e-01
1.083756066257380857e-01
1.167417067159272070e-01
1.255664641046584373e-01
1.344800951545892520e-01
1.431128162283791250e-01
1.510963739012065599e-01
1.581432707466373655e-01
1.640852064309642477e-01
1.687634662815890030e-01
1.720193356259135942e-01
1.736940997913401508e-01
1.736290441052705802e-01
1.716654538951068176e-01
1.676496701066516326e-01
1.616162601499246398e-01
1.538396021805785718e-01
1.446096369220900013e-01
1.342163050979353622e-01
1.229495474315915882e-01
1.110993046465347245e-01
9.895551746624431377e-02
8.680687365671080347e-02
7.490755665752302228e-02
6.347375551194722743e-02
5.271970625967525859e-02
4.285964494039928852e-02
3.410780759381171201e-02
2.667843025960514591e-02
2.078574897747109684e-02
1.663558592418784565e-02
1.425629299577407805e-02
1.350723472882586762e-02
1.424105965727753831e-02
1.631041631506321976e-02
1.956795323611693060e-02
2.386631895437307804e-02
2.905816200376576397e-02
3.499511700778445977e-02
4.151200033818946977e-02
4.842978385052054691e-02
5.556902730441892757e-02
6.275029045952740248e-02
6.979413307548720802e-02
7.652111491194113491e-02
8.275179572853041954e-02
8.831516410407458384e-02
9.315240886777986784e-02
9.728448290817925947e-02
1.007340430007207521e-01
1.035237459208535604e-01
1.056762484440258998e-01
1.072142073456865408e-01
1.081602794012840874e-01
1.085363557585726224e-01
1.083560195974569151e-01
1.076277626543231669e-01
1.063600030961725923e-01
1.045611590900067667e-01
1.022396488028267519e-01
9.940389040163451206e-02
9.606230205343088691e-02
9.221464300370613154e-02
8.778314550573873554e-02
8.264918816726785078e-02
7.669378302435325701e-02
6.979794211305878626e-02
6.184267746944360766e-02
5.270900112957122019e-02
4.227792512949979375e-02
3.044432696497079149e-02
1.720646939461900615e-02
2.609311591848850753e-03
-1.330195920369403595e-02
-3.048215575235557750e-02
-4.888609081448391791e-02
-6.846857715043119796e-02
-8.918442752054511757e-02
-1.109590699870937058e-01
-1.335342062604985003e-01
-1.565806709161421395e-01
-1.797691479251490865e-01
-2.027703212586452475e-01
-2.252548748877533091e-01
-2.468934927835981508e-01
-2.673568589173040966e-01
-2.863319720731583029e-01
-3.035917822215463691e-01
-3.189374427213680363e-01
-3.321701235174931988e-01
-3.430909945547893081e-01
-3.515012257781258143e-01
-3.572019871323703910e-01
-3.599944485623916002e-01
-3.597435458465794156e-01
-3.565981083733795742e-01
-3.507859429878026347e-01
-3.425348597619004565e-01
-3.320726687677248989e-01
-3.196271800773304861e-01
-3.054262037627717419e-01
-2.896975499711276214e-01
-2.726789450911129009e-01
-2.546454688184489612e-01
-2.358809945703033151e-01
-2.166693957638488044e-01
-1.972945458162582710e-01
-1.780403181447005601e-01
-1.591905861663474031e-01
-1.410291977807672792e-01
-1.237669366011560079e-01
-1.073814200621493326e-01
-9.180385413241731740e-02
-7.696544478062938843e-02
-6.279739797545458302e-02
-4.923091968556203568e-02
-3.619721587962176912e-02
-2.362746171431195918e-02
-1.143329226003642063e-02
5.266496094775696690e-04
1.240261774785977877e-02
2.434486600873553286e-02
3.650364824572882583e-02
4.902921831246898066e-02
6.207183006257954716e-02
7.578136561884529776e-02
9.021426106699448333e-02
1.052107682718288473e-01
1.205806571665073434e-01
1.361336976841878155e-01
1.516796597580294392e-01
1.670283133211876159e-01
1.819894283068234087e-01
1.963725920357675125e-01
2.099636331884189855e-01
2.225013152436784436e-01
2.337188631949700668e-01
2.433495020357192284e-01
2.511264567593506358e-01
2.567829523592891072e-01
2.600522138289605989e-01
2.606695051093100846e-01
2.585297781166879805e-01
2.537997662526205178e-01
2.466726676657713946e-01
2.373416805048033651e-01
2.260000029183804049e-01
2.128408330551648242e-01
1.980573690638209872e-01
1.818448586422791724e-01
1.645048975314608031e-01
1.464950121810567607e-01
1.282851526608016490e-01
1.103452690404315151e-01
9.314531138968173973e-02
7.715522977828748186e-02
6.284497427598378927e-02
5.067943637044158844e-02
4.093787405311921646e-02
3.366458856480003536e-02
2.888878590780175060e-02
2.663967208444323331e-02
2.694645309704224445e-02
2.983833494791682250e-02
3.534452363938500596e-02
4.348523678606411313e-02
5.403628063998677789e-02
6.650608179729067260e-02
8.038947318788620955e-02
9.518128774168405082e-02
1.103763583885945809e-01
1.254695180585284620e-01
1.399555996813961201e-01
1.533348774351742660e-01
1.652211046273565631e-01
1.753353859604318554e-01
1.834030406540548552e-01
1.891493879278798584e-01
1.922997470015611887e-01
1.925794370947545298e-01
1.897137774271136779e-01
1.834495579655948394e-01
1.738860710251556863e-01
1.614108852468641719e-01
1.464200316900183818e-01
1.293095414139163180e-01
1.104754454778558992e-01
9.031377494113512761e-02
6.922056086305199141e-02
4.759353668563961332e-02
2.585288306298908628e-02
4.434633146551625327e-03
-1.622484670220876446e-02
-3.568919012182819595e-02
-5.352203075084262240e-02
-6.928700222778819140e-02
-8.254773819120089784e-02
-9.290451941108918144e-02
-1.003517772227180416e-01
-1.051238744780678136e-01
-1.074585745853373353e-01
-1.075936409527250837e-01
-1.057668369884298132e-01
-1.022159261006503617e-01
-9.717867169758512280e-02
-9.091253632253126771e-02
-8.384988132479262446e-02
-7.651460306718846360e-02
-6.943139972263093207e-02
-6.312496946403242659e-02
-5.812001046430517043e-02
-5.494122089636135908e-02
-5.411329893311336847e-02
-5.610864466847979848e-02
-6.101283190225031960e-02
-6.873793605089220660e-02
-7.919521153096126254e-02
-9.229591275901349867e-02
-1.079512941516046487e-01
-1.260726101252909737e-01
-1.465711150966279575e-01
-1.692981434436438559e-01
-1.937332883010201012e-01
-2.192137809242682422e-01
-2.450765634326924625e-01
-2.706585779455964458e-01
-2.952967665822843202e-01
-3.183280714620601026e-01
-3.390894347042275880e-01
-3.569660933236745715e-01
-3.715957858399376867e-01
-3.826984976897743751e-01
-3.899942591103695566e-01
-3.932031003389067081e-01
-3.920450516125706386e-01
-3.862401431685447140e-01
-3.755084052440131881e-01
-3.596924517653838915e-01
-3.391765635228418119e-01
-3.144945866538256807e-01
-2.861803722442892162e-01
-2.547677713801854704e-01
-2.207906351474680506e-01
-1.847828146320895648e-01
-1.472781611195280171e-01
-1.088291821433760576e-01
-7.005813617156431139e-02
-3.160357950336759036e-02
5.895931561939599108e-03
4.180184072508277837e-02
7.547559168678713570e-02
1.062786281477784422e-01
1.335724485577007292e-01
1.568617165849209849e-01
1.761046078024657291e-01
1.913488865895290325e-01
2.026423173253041332e-01
2.100326643889838252e-01
2.135676921597645661e-01
2.132951650168379842e-01
2.092630520734347632e-01
2.016427898209383063e-01
1.909382440632627631e-01
1.777086611205370703e-01
1.625132873128892208e-01
1.459113689604480957e-01
1.284621523833420764e-01
1.107248839016995445e-01
9.325852543629972735e-02
7.655294256035094502e-02
6.093927215420455457e-02
4.672644818212262630e-02
3.422340460836717502e-02
2.373907539720004900e-02
1.558239451288334632e-02
1.006229591967899850e-02
7.486332487104396805e-03
7.986895464838661418e-03
1.135176862936659870e-02
1.732851898647191913e-02
2.566471354193822219e-02
3.610791930154788609e-02
4.840570327108539850e-02
6.230563245633280456e-02
7.755459042480250531e-02
9.384700867275508340e-02
1.107886486037639173e-01
1.279767126103811270e-01
1.450084030851589434e-01
1.614809224206499305e-01
1.769914730094065969e-01
1.911372572439807294e-01
2.035181566124602270e-01
2.138707511496241720e-01
2.221307244828238658e-01
2.282494762740541472e-01
2.321784061853104930e-01
2.338689138785875477e-01
2.332723990158807326e-01
2.303402612591850807e-01
2.250280337699196720e-01
2.174407723780994450e-01
2.078715439550383459e-01
1.966253733683433480e-01
1.840072854856219520e-01
1.703223051744802152e-01
1.558754573025269430e-01
1.409717667373679983e-01
1.259153020628573927e-01
1.109844540095530352e-01
9.642970541321638223e-02
8.250013584762250218e-02
6.944482488654468710e-02
5.751285210375778334e-02
4.695329707303619315e-02
3.801523936815520699e-02
3.093950723456684315e-02
2.579677133698599079e-02
2.249778120994871955e-02
2.094708482063634136e-02
2.104923013623949402e-02
2.270876512394126578e-02
2.583023775093096219e-02
3.031819598439478014e-02
3.606986866789840818e-02
4.286354545153603368e-02
5.038088396985096473e-02
5.830074459025702538e-02
6.630198768016914990e-02
7.406347360700235583e-02
8.126406273817132764e-02
8.758261544109013919e-02
9.270336253433897333e-02
9.638068159454604711e-02
9.841816130454494882e-02
9.862040804374094805e-02
9.679202819153687187e-02
9.273762812733821193e-02
8.626181423054379849e-02
7.716919288056178772e-02
6.528453731709937813e-02
5.064760961570513587e-02
3.342816420920780018e-02
1.379776233807650243e-02
-8.072034757228507829e-03
-3.200966583624342832e-02
-5.784356965850090404e-02
-8.540218498354246179e-02
-1.144958270841289760e-01
-1.447752453694368668e-01
-1.758082500023148143e-01
-2.071619420815178358e-01
-2.384034227057987287e-01
-2.690997929739114003e-01
-2.988181539846117563e-01
-3.271256068366524827e-01
-3.536022625800010477e-01
-3.779236914529049418e-01
-3.998079793080729361e-01
-4.189734068358443864e-01
-4.351382547265596479e-01
-4.480208036705570773e-01
-4.573393343581797499e-01
-4.628121274797647455e-01
-4.642063462364480753e-01
-4.615900694632126822e-01
-4.551457885906091683e-01
-4.450562169294705051e-01
-4.315040677906312183e-01
-4.146720544849238355e-01
-3.947428903231837705e-01
-3.718992886162443279e-01
-3.463587751494642264e-01
-3.185195070499036163e-01
-2.888380467067567237e-01
-2.577709859069329257e-01
-2.257749164373425987e-01
-1.933064300848949257e-01
-1.608221186365004773e-01
-1.287785738790686585e-01
-9.759694987019945644e-02
-6.754298370752744030e-02
-3.883981865974125980e-02
-1.171059687377234981e-02
1.362153950344921483e-02
3.693344832499295682e-02
5.800198744392859318e-02
7.660401580804560018e-02
9.259156149667990832e-02
1.060955922096876725e-01
1.173117639113120392e-01
1.264357325657945452e-01
1.336631541373783927e-01
1.391896845903062285e-01
1.432109798888198116e-01
1.459227003259868649e-01
1.475308755864993548e-01
1.482741413961229382e-01
1.483975259146155246e-01
1.481460573017342464e-01
1.477647637172377904e-01
1.474986733208828449e-01
1.475928142724275416e-01
1.482920785663018881e-01
1.497631901989155412e-01
1.519639237744651594e-01
1.548175129444431253e-01
1.582471913603418490e-01
1.621761926736537962e-01
1.665277505358710441e-01
1.712250985984863361e-01
1.761913215160175183e-01
1.813145001550696411e-01
1.864028688682795865e-01
1.912535819753884703e-01
1.956637937961368257e-01
1.994306586502674061e-01
2.023513308575204950e-01
2.042229647376373747e-01
2.048434709452976732e-01
2.041042963095681118e-01
2.020796453544617122e-01
1.988648741447348323e-01
1.945553387451439409e-01
1.892463952204454514e-01
1.830333996353957493e-01
1.760117080547512203e-01
1.682775557653274912e-01
1.599933143811425040e-01
1.514324068640105769e-01
1.428788819076219074e-01
1.346167882056666931e-01
1.269301744518351316e-01
1.201030893398173927e-01
1.144195815633035629e-01
1.101612548777555212e-01
1.074870245788603351e-01
1.063782915157723830e-01
1.068025751755223851e-01
1.087273950451392857e-01
1.121202706116541936e-01
1.169487213620965527e-01
1.231802667834962506e-01
1.307783941569798936e-01
1.395627992110032300e-01
1.491735573422887651e-01
1.592394346156844609e-01
1.693891970960426097e-01
1.792516108482111736e-01
1.884554419370414458e-01
1.966294564273831647e-01
2.034058939052099113e-01
2.085091033242276737e-01
2.117628903171615562e-01
2.129960062138005483e-01
2.120372023439371922e-01
2.087152300373609215e-01
2.028588406238613917e-01
1.942967854332311450e-01
1.828681479738902826e-01
1.686227055421840593e-01
1.518069646400265205e-01
1.326749669133429066e-01
1.114807540080628989e-01
8.847836757011201536e-02
6.392184924541910451e-02
3.806524067991134963e-02
1.116383728052672275e-02
-1.650689818955597410e-02
-4.465522526383369772e-02
-7.298893885858870334e-02
-1.012158338900981391e-01
-1.290437052746424840e-01
-1.561803479285024387e-01
-1.823335567679564839e-01
-2.072229110794281404e-01
-2.307204685043440229e-01
-2.528045497446038681e-01
-2.734556373220269343e-01
-2.926542137584315917e-01
-3.103807615756348781e-01
-3.266157632954600487e-01
-3.413397014397192564e-01
-3.545382452518026639e-01
-3.662518710137927513e-01
-3.765539714379730896e-01
-3.855183878393355634e-01
-3.932189615328756105e-01
-3.997295338335795645e-01
-4.051239460564457495e-01
-4.094760395164651623e-01
-4.128491097589995773e-01
-4.152143770702898529e-01
-4.164955304155675275e-01
-4.166158622730690153e-01
-4.154986651210307302e-01
-4.130672314376885312e-01
-4.092448537012792764e-01
-4.039548243900372704e-01
-3.971183663020754206e-01
-3.886416374495933468e-01
-3.784241332763269572e-01
-3.663653196701195380e-01
-3.523646625188114889e-01
-3.363216277102474283e-01
-3.181356811322684219e-01
-2.977062886727166457e-01
-2.749627660883779967e-01
-2.500167600556175707e-01
-2.230487447696827275e-01
-1.942393217611577683e-01
-1.637690925606249959e-01
-1.318186586986667130e-01
-9.856862170586633276e-02
-6.419958311280526964e-02
-2.892525577778393142e-02
6.870144169377256915e-03
4.274767483867769613e-02
7.826836894981892279e-02
1.129932592225058041e-01
1.464833783764407649e-01
1.782997591313266739e-01
2.080034342068669551e-01
2.351881736114899146e-01
2.595902454429726003e-01
2.809846797242315786e-01
2.991465072746466447e-01
3.138507589135967057e-01
3.248724654604615569e-01
3.319866577346201053e-01
3.349683685308311731e-01
3.336952852457096275e-01
3.284231854120082672e-01
3.194948718436554924e-01
3.072531473545790925e-01
2.920408147587070236e-01
2.742006768699676855e-01
2.540755365022889789e-01
2.320082171437303498e-01
2.083870384552356236e-01
1.837423292020583521e-01
1.586320484251693419e-01
1.336141551655394832e-01
1.092466084641398050e-01
8.608736736194100292e-02
6.469439089991430025e-02
4.562542751600501267e-02
2.932302482026277746e-02
1.592400175411140539e-02
5.515028408345168387e-03
-1.817225126242549837e-03
-5.986088758858476577e-03
-6.904892398708228907e-03
-4.486965954998783923e-03
1.353691777561838450e-03
1.055105822760787904e-02
2.269476381764835848e-02
3.732703592339950416e-02
5.399010192057802915e-02
7.222618918490061879e-02
9.157752509208386127e-02
1.115863370178442338e-01
1.317950896023969976e-01
1.517748676050438561e-01
1.711522925708688914e-01
1.895603602090656925e-01
2.066320662288278764e-01
2.220004063393490046e-01
2.352983762498225551e-01
2.461589716694423391e-01
2.542177268692941694e-01
2.592973679628987060e-01
2.615328277978550831e-01
2.610886504087958637e-01
2.581293798303532228e-01
2.528195600971596679e-01
2.453237352438477070e-01
2.358064493050495147e-01
2.244340440730646646e-01
2.114615936528760898e-01
1.972717068274614238e-01
1.822568721797204194e-01
1.668095782925518300e-01
1.513223137488547421e-01
1.361875671315284642e-01
1.217978270234718607e-01
1.085413730070801108e-01
9.665850211448534512e-02
8.620586622198878057e-02
7.722867129082244819e-02
6.977212328221826798e-02
6.388142815740849301e-02
5.960179187762670860e-02
5.697842040410439068e-02
5.604871898614693926e-02
5.664579717529061309e-02
5.838360945244486233e-02
6.086533311872702190e-02
6.369414547525541204e-02
6.647322382314800604e-02
6.880574546352219434e-02
7.029488769749597799e-02
7.054573980574085912e-02
6.920194757016723264e-02
6.594292331525283823e-02
6.044943236625091587e-02
5.240224004841465000e-02
4.148211168699722506e-02
2.736981260725196430e-02
9.746108134432052150e-03
-1.168816237905262456e-02
-3.691252476896242363e-02
-6.565020680075067672e-02
-9.761722353578340672e-02
-1.325295900353973821e-01
-1.701033213609385586e-01
-2.100544325737528917e-01
-2.520989387351862954e-01
-2.959336097813539679e-01
-3.410085317721053277e-01
-3.866030128118456144e-01
-4.319929435927095662e-01
-4.764542148068320326e-01
-5.192627171463484181e-01
-5.596943413033931281e-01
-5.970249779701014559e-01
-6.305493235395773777e-01
-6.597590484146635958e-01
-6.842633283068044747e-01
-7.036729088707606161e-01
-7.175985357612942872e-01
-7.256509546331655347e-01
-7.274409111411352935e-01
-7.225791509399654977e-01
-7.107342902435436205e-01
-6.920760131623613365e-01
-6.670308939688296412e-01
-6.360275971947149110e-01
-5.994947873717864084e-01
-5.578611290318149507e-01
-5.115552867065695786e-01
-4.610059249278180005e-01
-4.066734605435358141e-01
-3.492475863897088750e-01
-2.895186842954022843e-01
-2.282775682634796688e-01
-1.663150522968024347e-01
-1.044219503982350972e-01
-4.338907657063639789e-02
1.599275518312937017e-02
7.298331801197499580e-02
1.271489967876209271e-01
1.781710869154015109e-01
2.257310864194686240e-01
2.695104933239720890e-01
3.091908056530631166e-01
3.444535214308921400e-01
3.749801386816098425e-01
4.005317959366223590e-01
4.212766279778872303e-01
4.375124417505595886e-01
4.495370995075358422e-01
4.576484635017150637e-01
4.621443959859901085e-01
4.633227592132627137e-01
4.614814154364266230e-01
4.569239432067950801e-01
4.499786164624186569e-01
4.409803765752986493e-01
4.302641650218079761e-01
4.181649232783195558e-01
4.050175928212089715e-01
3.911571151268526947e-01
3.769184302936152697e-01
3.625809169328539916e-01
3.482208403187527779e-01
3.338680652378576141e-01
3.195524564767171505e-01
3.053038788218787047e-01
2.911521970598880404e-01
2.771272759772943628e-01
2.632589745375557566e-01
2.495653475748735584e-01
2.360278757303565511e-01
2.226209774080991632e-01
2.093190710121963782e-01
1.960965749467433739e-01
1.829279076158338846e-01
1.697874874235618670e-01
1.566497967532933799e-01
1.435226968413676474e-01
1.305019964903562091e-01
1.176978190065258723e-01
1.052202876961469968e-01
9.317952586548639005e-02
8.168565682081263546e-02
7.084880386839786937e-02
6.077901642896899048e-02
5.157009043014637584e-02
4.327926411499127823e-02
3.595878334535074217e-02
2.966089398307159009e-02
2.443784189000264284e-02
2.034187292799316538e-02
1.742523295888753765e-02
1.573969964546639844e-02
1.528194918982661576e-02
1.594246659217946060e-02
1.759965038406019477e-02
2.013189909700263680e-02
2.341761126254127134e-02
2.733518541221013898e-02
3.176302007754383538e-02
3.657944987332051312e-02
4.165818826879541525e-02
4.686529313913578854e-02
5.206610264410604927e-02
5.712595494346994762e-02
6.191018819699112274e-02
6.628414056443387992e-02
7.011315020556163624e-02
7.326309677084352767e-02
7.562615110644532734e-02
7.713202239385286152e-02
7.771330054866837367e-02
7.730257548649388522e-02
7.583243712293252781e-02
7.323547537358648940e-02
6.944428015405867960e-02
6.439171301270840697e-02
5.802005208062777086e-02
5.028318489913059797e-02
4.113571524163551346e-02
3.053224688156135069e-02
1.842738359232676260e-02
4.775729147350360471e-03
-1.046811267994912642e-02
-2.734693737673044023e-02
-4.583626727816703106e-02
-6.583992844978525660e-02
-8.725826046955176274e-02
-1.099916029154334174e-01
-1.339402953653973105e-01
-1.590046773974100880e-01
-1.850850885894387288e-01
-2.120754219422855691e-01
-2.397410062717681978e-01
-2.677286859795150464e-01
-2.956808790578713264e-01
-3.232400034991849136e-01
-3.500484772958014634e-01
-3.757487184400685187e-01
-3.999831449243312909e-01
-4.223962666065813609e-01
-4.426655661247218543e-01
-4.604947920535535921e-01
-4.755884216818183630e-01
-4.876509322982608419e-01
-4.963868011916217071e-01
-5.015005056506448566e-01
-5.026965229640724120e-01
-4.997015389526663354e-01
-4.925242537394343145e-01
-4.813673119168228043e-01
-4.664371750305805753e-01
-4.479403046264563981e-01
-4.260831622501983773e-01
-4.010722094475552835e-01
-3.731139077642764423e-01
-3.424324644775100790e-01
-3.094363334270380239e-01
-2.746431420914516863e-01
-2.385719476411597428e-01
-2.017418072465695378e-01
-1.646717780780898588e-01
-1.278809173061288273e-01
-9.188828210109412087e-02
-5.718845269982675283e-02
-2.406583589865052275e-02
7.302175306203029237e-03
3.673903704720216101e-02
6.406820545681546353e-02
8.911313666751041751e-02
1.116972868117553919e-01
1.316441120220185335e-01
1.488176061273710216e-01
1.633721460563176409e-01
1.755887386061798505e-01
1.857489162004608285e-01
1.941342112626640581e-01
2.010261562162930227e-01
2.067062834848507613e-01
2.114561254918409516e-01
2.155436471831616574e-01
2.191552150026101486e-01
2.224468341780597713e-01
2.255744589634731678e-01
2.286940436128140908e-01
2.319615423800446274e-01
2.355329095191280864e-01
2.395640992840272210e-01
2.441624090042584516e-01
2.491883596195436645e-01
2.544244254136223127e-01
2.596530501538649727e-01
2.646566776076409444e-01
2.692177515423207490e-01
2.731187157252748521e-01
2.761420139238727200e-01
2.780896056647868542e-01
2.788471304849665655e-01
2.783226517559930779e-01
2.764242331093332283e-01
2.730599381764541311e-01
2.681378305888226232e-01
2.615659739779053750e-01
2.532524342943485718e-01
2.431793610252623861e-01
2.315977074875877340e-01
2.188193740526420683e-01
2.051562610917429530e-01
1.909202689762080629e-01
1.764232980773546289e-01
1.619772487665010474e-01
1.478940091278699853e-01
1.344624653501331757e-01
1.219007568085411497e-01
1.104134656625883198e-01
1.002051740717693762e-01
9.148046419557873121e-02
8.444391819351110273e-02
7.930011822506077834e-02
7.625340002096259173e-02
7.538536601070000565e-02
7.645655574142340427e-02
7.917565668102777288e-02
8.325135629740942900e-02
8.839234205846469017e-02
9.430730143208765348e-02
1.007049218861759687e-01
1.072938675947860965e-01
1.137778407421290439e-01
1.198494609981324288e-01
1.251998466872183968e-01
1.295201161338102036e-01
1.325013876623322151e-01
1.338347795972083532e-01
1.332114102628594310e-01
1.303238125609755826e-01
1.250269886676211861e-01
1.174869087198714412e-01
1.079046412345781025e-01
9.648125472859203633e-02
8.341781771876521923e-02
6.891539872194807348e-02
5.317506625499279771e-02
3.639854241914028399e-02
1.883388857267154215e-02
8.054186493190451657e-04
-1.735544792015836224e-02
-3.531729170500189086e-02
-5.274869327445291800e-02
-6.931823319775282100e-02
-8.469449204414242205e-02
-9.855013262357847914e-02
-1.107528200049764378e-01
-1.214468014075836821e-01
-1.307973495974608102e-01
-1.389697373406666436e-01
-1.461292374032615582e-01
-1.524411225513060408e-01
-1.580706655508595793e-01
-1.631854704113623322e-01
-1.680328335070924162e-01
-1.729576585324826832e-01
-1.783108096642377349e-01
-1.844431510790613959e-01
-1.917055469536580459e-01
-2.004488614647320643e-01
-2.110239587889870538e-01
-2.237706008565863991e-01
-2.387448855979164009e-01
-2.557025649885097396e-01
-2.743849489505979511e-01
-2.945333474064135704e-01
-3.158890702781902426e-01
-3.381934274881591707e-01
-3.611877289585538886e-01
-3.846024603220660198e-01
-4.079546119253569803e-01
-4.305656992095615587e-01
-4.517500261902441805e-01
-4.708218968829699369e-01
-4.870956153033032532e-01
-4.998854854668093317e-01
-5.085058113890522646e-01
-5.122923251134606781e-01
-5.109151252551911160e-01
-5.043089197808982016e-01
-4.924156533646160128e-01
-4.751772706803796265e-01
-4.525357164022244527e-01
-4.244329352041854575e-01
-3.908108717602968296e-01
-3.516507841899549347e-01
-3.074285106194932227e-01
-2.589577643695978315e-01
-2.070587978053685385e-01
-1.525518632919043160e-01
-9.625721319430487199e-02
-3.899509987766908159e-02
1.841422429290323626e-02
7.515848581758433067e-02
1.305075300144482031e-01
1.837795335089870141e-01
2.342932931823780152e-01
2.813676059157989573e-01
3.243212685904268144e-01
3.624730780874390601e-01
3.951418312880131678e-01
4.217117994478158383e-01
4.421248011052144045e-01
4.566045916150807127e-01
4.653771072599410252e-01
4.686682843223217154e-01
4.667040590847498227e-01
4.597103678297512208e-01
4.479131468398575011e-01
4.315771625704835079e-01
4.112431225142350044e-01
3.875712207598677184e-01
3.612221308082593230e-01
3.328565261602870473e-01
3.031350803168287311e-01
2.727184667787619365e-01
2.422673590469641425e-01
2.124024287971505720e-01
1.835056208578499937e-01
1.558706938381257678e-01
1.297912655161948536e-01
1.055609536702742934e-01
8.347337607858103248e-02
6.382215051933198824e-02
4.690089477074410595e-02
3.294455243446900439e-02
2.189273495484994614e-02
1.359233815666366363e-02
7.890224731179229511e-03
4.633257369664967040e-03
3.668298763389588046e-03
4.842211603622081917e-03
8.001858581630938438e-03
1.297924251391335826e-02
1.954312686509140917e-02
2.744545534663078712e-02
3.643817153067252512e-02
4.627321898935998767e-02
5.670254129483875971e-02
6.747808201924998528e-02
7.835178524574670789e-02
8.908875953789818780e-02
9.950152327216299497e-02
1.094132636786029344e-01
1.186471679872753704e-01
1.270264234282376670e-01
1.343742172315507410e-01
1.405137366272679600e-01
1.452681895508605159e-01
1.484966654457862134e-01
1.501678055319510818e-01
1.502710852207291836e-01
1.487959799234941372e-01
1.457319650516217813e-01
1.410685160164861784e-01
1.347951082294627234e-01
1.269013550321509420e-01
1.174425074213549802e-01
1.066442908949671864e-01
9.475974933394493149e-02
8.204192661924325503e-02
6.874386663181923651e-02
5.511861325262906730e-02
4.141921036262852240e-02
2.789865367004407126e-02
1.479999769332662751e-02
2.344248680767435644e-03
-9.250550068828022887e-03
-1.976635525665271231e-02
-2.898512358389604415e-02
-3.668881175175231490e-02
-4.265937646141226836e-02
-4.668015300387651223e-02
-4.868904028745824064e-02
-4.891775190440128540e-02
-4.763088641927204492e-02
-4.509304239663958214e-02
-4.156881840107029547e-02
-3.732281299713946510e-02
-3.261962474941171308e-02
-2.772481691243111612e-02
-2.297103736532468687e-02
-1.880058355014657678e-02
-1.566588022749781928e-02
-1.401935215797589507e-02
-1.431342410217739669e-02
-1.700052082070468984e-02
-2.253306707415569932e-02
-3.135816678626324183e-02
-4.367283471177985099e-02
-5.932171404696351402e-02
-7.812291381819314040e-02
-9.989454305184886085e-02
-1.244547107743108616e-01
-1.516215260119583019e-01
-1.812130977911732277e-01
-2.130396196212074322e-01
-2.466444369578816298e-01
-2.812461973350067757e-01
-3.160439229773602809e-01
-3.502366361097206671e-01
-3.830233589568654562e-01
-4.136031137435725036e-01
-4.411749226946196645e-01
-4.649463386874677084e-01
-4.843402186201267723e-01
-4.990059009023658509e-01
-5.086034918901675139e-01
-5.127930979395127764e-01
-5.112348254063842079e-01
-5.035887806467630456e-01
-4.895150700166317481e-01
-4.687007654187340666e-01
-4.413589773021419083e-01
-4.081813154878949357e-01
-3.698768207603445601e-01
-3.271545339038418598e-01
-2.807234957027385791e-01
-2.312927469413852410e-01
-1.795713284041334790e-01
-1.262743308083245086e-01
-7.221030503965275571e-02
-1.826127921827147560e-02
3.468873783000669953e-02
8.575573727936991464e-02
1.340557103040057596e-01
1.787046480781017133e-01
2.188185417758463092e-01
2.535558451372753042e-01
2.826042591587037967e-01
3.060106465964051448e-01
3.238287047636321248e-01
3.361121309736371243e-01
3.429146225396732528e-01
3.442898767749932865e-01
3.402915909928495575e-01
3.310147306865540151e-01
3.169753008079897461e-01
2.989354415063564807e-01
2.776603878649699930e-01
2.539153749671451687e-01
2.284656378961970047e-01
2.020764117354402201e-01
1.755129315681900337e-01
1.495123506582566320e-01
1.245746670924681165e-01
1.010807800199661211e-01
7.941069069597372909e-02
5.994440037571602264e-02
4.306191031441630734e-02
2.914322176729855496e-02
1.856833598958695930e-02
1.165272061425592920e-02
8.256883268567438705e-03
8.045712657194448170e-03
1.068333920721731278e-02
1.583389334571572160e-02
2.316150549977002981e-02
3.233030609645970443e-02
4.300442556286510065e-02
5.484375941226771189e-02
6.748312427587799256e-02
8.054813934979626611e-02
9.366440987369761828e-02
1.064575410872564687e-01
1.185531382301435177e-01
1.295768065420421222e-01
1.391541512626224830e-01
1.469705433001788630e-01
1.530099072567913665e-01
1.573492042127327406e-01
1.600654255392088277e-01
1.612355626074253312e-01
1.609366067885886209e-01
1.592455494539043448e-01
1.562393819745790946e-01
1.520237416065918223e-01
1.468252616234216879e-01
1.409025161310473173e-01
1.345140794163253162e-01
1.279185257661128450e-01
1.213744294672678414e-01
1.151403648066464669e-01
1.094749040153011332e-01
1.045932483493254850e-01
1.005555689108101891e-01
9.738741123052307991e-02
9.511432083923532232e-02
9.376184326771630495e-02
9.335552404673408411e-02
9.392090870705915862e-02
9.548351074537519967e-02
9.801733821427160986e-02
1.013402964672880380e-01
1.052408290982655426e-01
1.095073797010449046e-01
1.139283918694671272e-01
1.182923091973739904e-01
1.223875752786055537e-01
1.260026468471275862e-01
1.289319604276832898e-01
1.309853721932214832e-01
1.319751901182528719e-01
1.317137221772930467e-01
1.300132763448553774e-01
1.266861605954510139e-01
1.215446829035924381e-01
1.144014718805581587e-01
1.051332863184293309e-01
9.375812432513308536e-02
8.031281211789886854e-02
6.483417591394768920e-02
4.735904193051077016e-02
2.792423638480956427e-02
6.566585494070409368e-03
-1.667635593680083517e-02
-4.168727130647198464e-02
-6.819825760265496584e-02
-9.592469881893794792e-02
-1.245819789489068796e-01
-1.538854819861499301e-01
-1.835505919242539363e-01
-2.132926927568064013e-01
-2.428268999435445608e-01
-2.718500101812868497e-01
-3.000290788118942231e-01
-3.270284385675241157e-01
-3.525124221803338509e-01
-3.761453623824814185e-01
-3.975915919061237536e-01
-4.165154434834177910e-01
-4.325836349121680025e-01
-4.455732005201207269e-01
-4.554155825670911373e-01
-4.620537403864450887e-01
-4.654306333115499905e-01
-4.654892206757719197e-01
-4.621724618124780637e-01
-4.554233160550344994e-01
-4.451894489146979161e-01
-4.315750012589105733e-01
-4.148732664768655098e-01
-3.953888533473171041e-01
-3.734263706490211776e-01
-3.492904271607312205e-01
-3.232856316612030545e-01
-2.957165929291925011e-01
-2.668881927919845021e-01
-2.371121209898691129e-01
-2.067071819846004743e-01
-1.759925146855304545e-01
-1.452872580020126980e-01
-1.149105508433987399e-01
-8.518153211904266886e-02
-5.641934073829690810e-02
-2.893553635797896373e-02
-2.895435568066484500e-03
2.166780494847853067e-02
4.472578207314670262e-02
6.625009268742876323e-02
8.621233367281644355e-02
1.045841019108001424e-01
1.213369942828708137e-01
1.364474259031690506e-01
1.499655030449877913e-01
1.619988871609026049e-01
1.726567688248965560e-01
1.820483386109517099e-01
1.902827870930494658e-01
1.974693048451732214e-01
2.037170824413043757e-01
2.091302542297301947e-01
2.137505166451239003e-01
2.175774750692571757e-01
2.206099474479629174e-01
2.228467517270739107e-01
2.242867058524241619e-01
2.249286277698450132e-01
2.247713354251709150e-01
2.238131633377448138e-01
2.220475566491486585e-01
2.194651214893780233e-01
2.160564290183409342e-01
2.118120503959449730e-01
2.067225567820980825e-01
2.007785193367081777e-01
1.939705092196826186e-01
1.863013385282110967e-01
1.778763435767714007e-01
1.688519939965696937e-01
1.593851350121360255e-01
1.496326118480013623e-01
1.397512697286962258e-01
1.298979538787510268e-01
1.202295095226965094e-01
1.109025514957202585e-01
1.020720832632745489e-01
9.389242032913647229e-02
8.651787562205792703e-02
8.010276207079070065e-02
7.480139260408669166e-02
7.076808015069802060e-02
6.815713763937625291e-02
6.709358924007574609e-02
6.753034742193197992e-02
6.935765970810203740e-02
7.246568336774394936e-02
7.674457567001476133e-02
8.208449388407250413e-02
8.837559527907452861e-02
9.550803712417839375e-02
1.033527701064846926e-01
1.116855245653001205e-01
1.202525766933665863e-01
1.288001939765381354e-01
1.370746439006692574e-01
1.448221939516138035e-01
1.517891116152262077e-01
1.577216643773604599e-01
1.623983469123030932e-01
1.657327579366905668e-01
1.676738947161932058e-01
1.681707546458584002e-01
1.671723351207339836e-01
1.646276335358664300e-01
1.604856472863030459e-01
1.546953762653267839e-01
1.472495612286288946e-01
1.382961310990849513e-01
1.280174156808632779e-01
1.165957447781323930e-01
1.042134481950608427e-01
9.105285573581700653e-02
7.729629720456920872e-02
6.312609255331547153e-02
4.870983333360756617e-02
3.417079877698114831e-02
1.962396843830815918e-02
5.184321872460984082e-03
-9.033161365687436550e-03
-2.291350172126549456e-02
-3.634171963940091565e-02
-4.920294797798507869e-02
-6.143128087048033148e-02
-7.308616314038179906e-02
-8.424681607313538878e-02
-9.499246095418778513e-02
-1.054023190689848399e-01
-1.155556117029734320e-01
-1.255315601415994964e-01
-1.354093661644721891e-01
-1.452644487745957114e-01
-1.551639539552752689e-01
-1.651739337070982638e-01
-1.753604400306523481e-01
-1.857895249265251736e-01
-1.965272403953043923e-01
-2.076396384375774617e-01
-2.191921940563943683e-01
-2.311886888301788456e-01
-2.435172246364210591e-01
-2.560531723689727923e-01
-2.686719029216859678e-01
-2.812487871884122859e-01
-2.936591960630036136e-01
-3.057785004393118178e-01
-3.174815893012362666e-01
-3.286110965888849877e-01
-3.389576392606040711e-01
-3.483071147725972372e-01
-3.564454205810682619e-01
-3.631584541422211987e-01
-3.682321129122593240e-01
-3.714522943473863581e-01
-3.726062931072622320e-01
-3.715450065952047298e-01
-3.682077682933533325e-01
-3.625404453373550773e-01
-3.544889048628565575e-01
-3.439990140055041445e-01
-3.310166399009445981e-01
-3.154876496848242340e-01
-2.973617218180716892e-01
-2.767135270433612737e-01
-2.537678431189391293e-01
-2.287583349208220374e-01
-2.019186673250257247e-01
-1.734825052075666951e-01
-1.436835134444612305e-01
-1.127553569117254462e-01
-8.093390191018684510e-02
-4.850924100506898151e-02
-1.582776788868661688e-02
1.676150716587282430e-02
4.890957388552230611e-02
8.026742199717437631e-02
1.104860412277418602e-01
1.392164213041374166e-01
1.661154489611331164e-01
1.909525600411581259e-01
2.135982381378240813e-01
2.339265551989690439e-01
2.518115831724309084e-01
2.671273940060480134e-01
2.797480596476581982e-01
2.895476520450999680e-01
2.964121317089570828e-01
3.004074807838377215e-01
3.017393617743248102e-01
3.006170943270745632e-01
2.972499980887438609e-01
2.918473927059892503e-01
2.846185978254670568e-01
2.757729330938341605e-01
2.655235001970694397e-01
2.541296740701981527e-01
2.418818166467567865e-01
2.290708596991437584e-01
2.159877349997579576e-01
2.029233743209975793e-01
1.901687094352613183e-01
1.780146721149478140e-01
1.667388271939898581e-01
1.564847161807761400e-01
1.473185850921334694e-01
1.393057474415012598e-01
1.325115167423185358e-01
1.270012065080241559e-01
1.228401302520579774e-01
1.200936014878584146e-01
1.188077468227387579e-01
1.188693148276155354e-01
1.200861126036251170e-01
1.222653824683922474e-01
1.252143667395418936e-01
1.287403077346994662e-01
1.326504477714899322e-01
1.367520291675378141e-01
1.408524326513201919e-01
1.447599993552715070e-01
1.482834775586313047e-01
1.512316170113728875e-01
1.534131674634684195e-01
1.546368786648913418e-01
1.547115003656138466e-01
1.534457823156088752e-01
1.506806425813880523e-01
1.464445795203937473e-01
1.408338952566434710e-01
1.339449844978307103e-01
1.258742419516489242e-01
1.167180623257914607e-01
1.065728403279521119e-01
9.553497066582383734e-02
8.372750744269835677e-02
7.140467671831912666e-02
5.886098004058459843e-02
4.639092972748937171e-02
3.428903809702837924e-02
2.284981746719605411e-02
1.236778015598646863e-02
3.137438481394957956e-03
-4.593688445358685979e-03
-1.077361382751023527e-02
-1.540119920567552259e-02
-1.847530623143803230e-02
-1.999479655638142228e-02
-1.995853183208923243e-02
-1.836537371014512754e-02
-1.521418981650529689e-02
-1.059168374864805084e-02
-4.893873279492200190e-03
1.415171981106855270e-03
7.871382423293715735e-03
1.401068843721325896e-02
1.936902041300997412e-02
2.348230874082879449e-02
2.588651367995553620e-02
2.615919705506161708e-02
2.400216981272641770e-02
1.914033778038662370e-02
1.129860678547364716e-02
2.018826554232300285e-04
-1.442492878232984332e-02
-3.285692170035092730e-02
-5.536869320614251633e-02
-8.202747013378830498e-02
-1.123733593629498428e-01
-1.458639518064727136e-01
-1.819568383772020015e-01
-2.201096099879829016e-01
-2.597798575516602204e-01
-3.004251719810796528e-01
-3.415027035684092827e-01
-3.823867152733531061e-01
-4.222714565978484824e-01
-4.603275646235993612e-01
-4.957256764323132447e-01
-5.276364291056943046e-01
-5.552304597254489327e-01
-5.776784053732829660e-01
-5.941535266769326640e-01
-6.041031243441979948e-01
-6.074848425421435216e-01
-6.043120177706013951e-01
-5.945979865294082067e-01
-5.783560853183985495e-01
-5.555996506374079047e-01
-5.263420189862697551e-01
-4.906016878753929333e-01
-4.487361336848702531e-01
-4.016458395415313798e-01
-3.502801169018595617e-01
-2.955882772223382693e-01
-2.385196319594512226e-01
-1.800234925696816424e-01
-1.210491705095130266e-01
-6.254392497006106000e-02
-5.363060105763817198e-03
4.976513501198859268e-02
1.021216657267610128e-01
1.509875373821176203e-01
1.956437553216228697e-01
2.353713248888417708e-01
2.694512514273386117e-01
2.971791041356253160e-01
3.183215914822354886e-01
3.332075296770354855e-01
3.421986704149465597e-01
3.456567653908902971e-01
3.439435662997885057e-01
3.374208248365624385e-01
3.264502926961337370e-01
3.114033714586939006e-01
2.928863106227534985e-01
2.717476063429420940e-01
2.488468848530411837e-01
2.250437723868325968e-01
2.011978951780981628e-01
1.781688794606194337e-01
1.568163514681784054e-01
1.379816181197015268e-01
1.221601252949849892e-01
1.095388254651759041e-01
1.002938559530313495e-01
9.460135408130837531e-02
9.263745717276412883e-02
9.457830255015584053e-02
1.006000275362405327e-01
1.108475632292328372e-01
1.249979761024246905e-01
1.423676947905265777e-01
1.622638436085632740e-01
1.839935468715601097e-01
2.068639288945426369e-01
2.301821139925357418e-01
2.532552264805643105e-01
2.753982346367198630e-01
2.960211965204319062e-01
3.145974244286279253e-01
3.306013739321439493e-01
3.435075006018150079e-01
3.527902600084767970e-01
3.579241077229651236e-01
3.583834993161156834e-01
3.537002477592199878e-01
3.439762944653131926e-01
3.296401718436773320e-01
3.111242704650020729e-01
2.888609808999771378e-01
2.632826937192918604e-01
2.348217994936362962e-01
2.039106887936999457e-01
1.710077659648266968e-01
1.367857470317013213e-01
1.020227669968519491e-01
6.749769524409579557e-02
3.398940115725035405e-02
2.276754120132895576e-03
-2.686137648343933648e-02
-5.264612126964918204e-02
-7.437218315555051140e-02
-9.184073582440879790e-02
-1.050661475391130584e-01
-1.140635293819953211e-01
-1.188479924353876838e-01
-1.194346477816221608e-01
-1.158386065030306833e-01
-1.080749796819457931e-01
-9.624764901467253164e-02
-8.097416249986921777e-02
-6.305639841156973624e-02
-4.329647336551345482e-02
-2.249650397744140662e-02
-1.458606863093070416e-03
1.901510136179118682e-02
3.812250408147166425e-02
5.510870109969978614e-02
6.944935898477400116e-02
8.069041544203814365e-02
8.837782510867331354e-02
9.205754262186360837e-02
9.127552261879134932e-02
8.557771973663952370e-02
7.451008861259111882e-02
5.777802838967313614e-02
3.574540052727373518e-02
8.946019746106315118e-03
-2.208629903488978918e-02
-5.681774089677449346e-02
-9.471449092060879593e-02
-1.352427341874530287e-01
-1.778686510191920256e-01
-2.219990548310437628e-01
-2.668332533748518642e-01
-3.115252440075673146e-01
-3.552290240861366577e-01
-3.970985909675097680e-01
-4.362879420086354099e-01
-4.719510745664636797e-01
-5.032421055206277583e-01
-5.294705464237956516e-01
-5.504066294849900842e-01
-5.659055720586705363e-01
-5.758225914993004846e-01
-5.800129051613390763e-01
-5.783317303992471237e-01
-5.706342845674858832e-01
-5.567762871050347950e-01
-5.368142466632470633e-01
-5.113114241677489957e-01
-4.809097899222514183e-01
-4.462513142304670444e-01
-4.079779673961077546e-01
-3.667317197228852077e-01
-3.231545415145118394e-01
-2.778883681627647428e-01
-2.315687619680096287e-01
-1.848175405829083351e-01
-1.382547333121602051e-01
-9.250036946051443110e-02
-4.817447833270338542e-02
-5.897089233459718027e-03
3.371176853248450400e-02
7.003414204055609382e-02
1.026640116731096647e-01
1.315873528897367195e-01
1.568325574858280280e-01
1.784280172567748735e-01
1.964021239979678590e-01
2.107832695047980875e-01
2.215998455726568839e-01
2.288825797360037884e-01
2.328127695878110526e-01
2.338112970759915754e-01
2.323203957166439793e-01
2.287822990258669975e-01
2.236392405197593636e-01
2.173334537144193668e-01
2.103071721259464066e-01
2.030005954797806655e-01
1.957642171541014164e-01
1.888254383089020827e-01
1.824027389017869316e-01
1.767145988903594533e-01
1.719794982322230270e-01
1.684159168849822530e-01
1.662423348062399553e-01
1.656715764984265926e-01
1.667359810866459180e-01
1.692539607060086493e-01
1.730315230733650567e-01
1.778746759055659932e-01
1.835894269194621176e-01
1.899817838319038943e-01
1.968577543597421764e-01
2.040227556518143803e-01
2.112680038238121671e-01
2.183701619140843708e-01
2.251052319708908844e-01
2.312492160424920451e-01
2.365781161771475238e-01
2.408679344231175190e-01
2.438946728286618681e-01
2.454422668109592087e-01
2.454428191367243606e-01
2.439597298957139060e-01
2.410609430795039865e-01
2.368144026796707435e-01
2.312880526877903464e-01
2.245498370954387979e-01
2.166676998941924337e-01
2.077151678091370135e-01
1.978486428901475858e-01
1.872879894484722474e-01
1.762546850132445941e-01
1.649702071135974446e-01
1.536560332786641725e-01
1.425336410375776797e-01
1.318245079194716451e-01
1.217428896590455334e-01
1.124162958876218366e-01
1.039149157152815528e-01
9.630792013214228842e-02
8.966448012832228809e-02
8.405376669393849198e-02
7.954495081910906151e-02
7.620720349395204707e-02
7.409423320217811693e-02
7.310737566371550145e-02
7.306127159427200368e-02
7.376955903089577049e-02
7.504587601063361646e-02
7.670386057053502071e-02
7.855715074764502148e-02
8.041938457901220971e-02
8.209580200194910304e-02
8.332302313655093329e-02
8.380414719959983216e-02
8.324204610524121861e-02
8.133959176761784704e-02
7.779965610087424821e-02
7.232511101915539697e-02
6.461882843660493592e-02
5.440663392282196753e-02
4.157111957200232411e-02
2.606040087729155630e-02
7.822813411403117811e-03
-1.319330725295042583e-02
-3.703962554305706423e-02
-6.376780588620278856e-02
-9.342951270967647659e-02
-1.260151317437922525e-01
-1.611631823012858178e-01
-1.983868294490763184e-01
-2.371990849593152983e-01
-2.771129606041535798e-01
-3.176414681557435671e-01
-3.582976193862346115e-01
-3.985944260677793949e-01
-4.380203899415326951e-01
-4.759452275466597992e-01
-5.117027201904582601e-01
-5.446266414115075172e-01
-5.740507647483841236e-01
-5.993088637396661866e-01
-6.197347119239291491e-01
-6.346620828397533387e-01
-6.435363875298314440e-01
-6.462606198407747637e-01
-6.428549953223636759e-01
-6.333397295859745091e-01
-6.177350382429824815e-01
-5.960611369047644770e-01
-5.683382411826964908e-01
-5.345865815951842404e-01
-4.949856293636218929e-01
-4.502673143733730843e-01
-4.012832941092139283e-01
-3.488852260559218710e-01
-2.939247676982736923e-01
-2.372535765210463388e-01
-1.797233100090167568e-01
-1.221855923097654451e-01
-6.545151466430620957e-02
-1.021287107667845362e-02
4.286038259771685066e-02
9.309829050347984136e-02
1.398308967852106566e-01
1.823882455875076580e-01
2.201003810549726492e-01
2.522979916612526630e-01
2.785589523727536321e-01
2.990805448007127776e-01
3.141555068061161471e-01
3.240765762499506764e-01
3.291364909932021909e-01
3.296279888968629557e-01
3.258438078219159095e-01
3.180773561756451429e-01
3.067408732557113105e-01
2.925010953566000715e-01
2.760576044019069641e-01
2.581099823152182005e-01
2.393578110201306508e-01
2.205006724402349683e-01
2.022381484991218059e-01
1.852679914793031735e-01
1.701054256480958315e-01
1.569303652168327901e-01
1.458867486089283627e-01
1.371185142477944208e-01
1.307696005568421693e-01
1.269839459594847009e-01
1.259054888791355520e-01
1.276748722718191731e-01
1.322242051247190520e-01
1.391559973337837264e-01
1.480436482082838900e-01
1.584605570574905697e-01
1.699801231906740151e-01
1.821757459171052806e-01
1.946208245460552266e-01
2.068901474373816551e-01
2.186188225276779473e-01
2.295241810405121985e-01
2.393294562019805394e-01
2.477578812381768802e-01
2.545326893751989061e-01
2.593771138391383069e-01
2.620143878560923234e-01
2.621747709247288505e-01
2.598097485527870454e-01
2.551313099141911955e-01
2.483663918198240061e-01
2.397419310805752879e-01
2.294848645073312987e-01
2.178221289109778525e-01
2.049806611024034275e-01
1.911898072228770395e-01
1.767361611370072971e-01
1.619646017431621843e-01
1.472226247531494003e-01
1.328577258787726478e-01
1.192174008318414025e-01
1.066491453241606990e-01
9.550045506753601643e-02
8.610725514349226728e-02
7.859168699386431811e-02
7.288768480177854059e-02
6.892275344533027592e-02
6.662439780261308897e-02
6.592012275172298708e-02
6.673743317075575554e-02
6.900383393780318286e-02
7.263217229923379925e-02
7.731984025782012715e-02
8.260032740679346119e-02
8.800301861821258065e-02
9.305729876413681989e-02
9.729255271662351490e-02
1.002381653477310564e-01
1.014235215295181125e-01
1.003902120485344884e-01
9.682510365741864300e-02
9.051042094730132881e-02
8.123005273581301866e-02
6.876788784058396331e-02
5.290781507924435800e-02
3.343372326942417594e-02
1.012950122875444503e-02
-1.717696316147665492e-02
-4.822792464733738349e-02
-8.252271767604146824e-02
-1.195579266933752827e-01
-1.588301361451229798e-01
-1.998359304770704892e-01
-2.420718941350041842e-01
-2.850346115647077738e-01
-3.282044681778715223e-01
-3.709305717532265234e-01
-4.124983436199458620e-01
-4.521927848854951915e-01
-4.892988966573388332e-01
-5.231016800429439950e-01
-5.528861361497738880e-01
-5.779372660852950538e-01
-5.976076011631730189e-01
-6.117072516876214117e-01
-6.202362288935188150e-01
-6.231951585285756545e-01
-6.205846663405034658e-01
-6.124053780770130073e-01
-5.986579194858169251e-01
-5.793429163146246452e-01
-5.545433255605165535e-01
-5.248112338240673580e-01
-4.908646467998127316e-01
-4.534217618321377818e-01
-4.132007762654270611e-01
-3.709198874440662319e-01
-3.272972927124400133e-01
-2.830511894149335128e-01
-2.388650927193656515e-01
-1.952557003553224146e-01
-1.526896173077725571e-01
-1.116334388898073682e-01
-7.255376041451790103e-02
-3.591717719499526451e-02
-2.190284544330595162e-03
2.816032222438474841e-02
5.479015114214053073e-02
7.785144617260814082e-02
9.762275123328195692e-02
1.143826102638419995e-01
1.284095672039688996e-01
1.399821659933425666e-01
1.493789505716436317e-01
1.568784673584759926e-01
1.627821375004440130e-01
1.674701527016261293e-01
1.713396474065244091e-01
1.747877560596411417e-01
1.782116131054786168e-01
1.820083529885387907e-01
1.865751101533230649e-01
1.923089161541479131e-01
1.994896097281620984e-01
2.080546184479478145e-01
2.178791670012474313e-01
2.288384800758017645e-01
2.408077823593531841e-01
2.536622985396428942e-01
2.672772533044126542e-01
2.815277027071884652e-01
2.962265974562925952e-01
3.110323701750895564e-01
3.255798269007481593e-01
3.395037736704369369e-01
3.524390165213246995e-01
3.640203614905802576e-01
3.738826146153717556e-01
3.816611730957105708e-01
3.870931759024165419e-01
3.901321462438276377e-01
3.907593080212392600e-01
3.889558851359460334e-01
3.847031014892436929e-01
3.779821809824273071e-01
3.687743475167908347e-01
3.570619483330688126e-01
3.429368897025975027e-01
3.266909736506005135e-01
3.086372674243833547e-01
2.890888382712548665e-01
2.683587534385194484e-01
2.467600801734834981e-01
2.246058857234538575e-01
2.022087197130790770e-01
1.798489739560455991e-01
1.577565523864700170e-01
1.361569398313062784e-01
1.152756211175089973e-01
9.533808107203167737e-02
7.656980452182871044e-02
5.919627629385348921e-02
4.344038061005472962e-02
2.941380661169901156e-02
1.707766850286784877e-02
6.382376278744106290e-03
-2.721660065488962221e-03
-1.028403053464854722e-02
-1.635432513355150608e-02
-2.098213386701355820e-02
-2.421962990069675276e-02
-2.619923438535466664e-02
-2.714724708295518374e-02
-2.729529809138914187e-02
-2.687501750854681681e-02
-2.611803543231905333e-02
-2.525598196059575251e-02
-2.452048719126842524e-02
-2.414295412117684059e-02
-2.434945339396854536e-02
-2.536066201571829382e-02
-2.739701763407298429e-02
-3.067895789668084738e-02
-3.542692045118855937e-02
-4.186134294524501698e-02
-5.020266302649600831e-02
-6.066276854909302685e-02
-7.329726298936534157e-02
-8.802506024216416591e-02
-1.047604654288170067e-01
-1.234177836706558118e-01
-1.439113200890083100e-01
-1.661553798052037845e-01
-1.900642679405719626e-01
-2.155377072597497445e-01
-2.422631687828245006e-01
-2.697677191470349012e-01
-2.975744677582308206e-01
-3.252065240222601350e-01
-3.521869973449722191e-01
-3.780389971322161147e-01
-4.022856327898398643e-01
-4.244564991489320205e-01
-4.441576788838473844e-01
-4.610451265298798340e-01
-4.747756517222567751e-01
-4.850060640962057246e-01
-4.913931732869534219e-01
-4.935937889297266068e-01
-4.912647206597526850e-01
-4.841047709745178729e-01
-4.722194844398288627e-01
-4.559427070697346096e-01
-4.356108141026349134e-01
-4.115601807769295739e-01
-3.841271823310182798e-01
-3.536481940033029403e-01
-3.204595910321812458e-01
-2.849193365054997762e-01
-2.475589141029151952e-01
-2.089934052167107537e-01
-1.698384278036100259e-01
-1.307095998203368359e-01
-9.222253922361420275e-02
-5.499286397016631134e-02
-1.963619201671673586e-02
1.328461589783602737e-02
4.356136656648681993e-02
7.113201616663608617e-02
9.593497623898300519e-02
1.179086583242270753e-01
1.369914739630677669e-01
1.531218346962041621e-01
1.662381520643361754e-01
1.763332489636054157e-01
1.837076152293807274e-01
1.887697654646959544e-01
1.919283319717798864e-01
1.935919470528618680e-01
1.941692430101704669e-01
1.940688521459354998e-01
1.936994067623858395e-01
1.934278661187973647e-01
1.934222556343938582e-01
1.937913061741186604e-01
1.946437384288332018e-01
1.960882730893978021e-01
1.982336308466743358e-01
2.011885323915234558e-01
2.050616984148058708e-01
2.098979034133262589e-01
2.154837248062868305e-01
2.215405819914513796e-01
2.277898943646064767e-01
2.339530813215387473e-01
2.397515622580349004e-01
2.449067565698813675e-01
2.491400888776603428e-01
2.522149107235903687e-01
2.540378800135975612e-01
2.545462467370618875e-01
2.536772608833636755e-01
2.513681724418827534e-01
2.475562314019993382e-01
2.421786877530934801e-01
2.351728653726535834e-01
2.265550594942458140e-01
2.165706225958450304e-01
2.055062005732000152e-01
1.936484393220610500e-01
1.812839847381773062e-01
1.686994827172982880e-01
1.561815791551737220e-01
1.440168209128625532e-01
1.324567168166819187e-01
1.216662205848603739e-01
1.117971547830036161e-01
1.030013419767178140e-01
9.543060473160883128e-02
8.923676561328269807e-02
8.457164718734525022e-02
8.158644039693574435e-02
8.032672631735546243e-02
8.061503357140367698e-02
8.224556802134458389e-02
8.501253552944189329e-02
8.871014195795970392e-02
9.313259316916183694e-02
9.807409502531233558e-02
1.033286296941417354e-01
1.086688456356636051e-01
1.138287312308075699e-01
1.185381970877491392e-01
1.225271538146635864e-01
1.255255120197261709e-01
1.272631823111123606e-01
1.274700752969974427e-01
1.258774695648739173e-01
1.223000949648782865e-01
1.166828262276247696e-01
1.089818268278904406e-01
9.915326024045108266e-02
8.715328994008331165e-02
7.293807940156336878e-02
5.646379209966758544e-02
3.768908197594000864e-02
1.667746296910042544e-02
-6.366489338709105383e-03
-3.122826835229444015e-02
-5.769336747646119229e-02
-8.554728011601500648e-02
-1.145754996757615551e-01
-1.445635195605065593e-01
-1.752948293277460934e-01
-2.064914924113988581e-01
-2.378041816126722496e-01
-2.688795588543643755e-01
-2.993642860592730104e-01
-3.289050251501960398e-01
-3.571484380499316824e-01
-3.837411866812774353e-01
-4.083324933376203392e-01
-4.306309912266831907e-01
-4.504050161450303680e-01
-4.674255225951549630e-01
-4.814634650795496795e-01
-4.922897981007045010e-01
-4.996754761611195694e-01
-5.033914537632838693e-01
-5.032197085454570562e-01
-4.991415732059462651e-01
-4.913116029907685367e-01
-4.798901174108815004e-01
-4.650374359772429522e-01
-4.469138782008105215e-01
-4.256797635925420042e-01
-4.014954116633948633e-01
-3.745309241255111998e-01
-3.450973983134121292e-01
-3.136117852450154286e-01
-2.804936081900928357e-01
-2.461623904184158385e-01
-2.110376551997559247e-01
-1.755389258038848876e-01
-1.400857255005739654e-01
-1.050878246639232738e-01
-7.084101336112752501e-02
-3.756725868373239630e-02
-5.487284368324449324e-03
2.517818584851011510e-02
5.420842823018484635e-02
8.138271904011337710e-02
1.064803345417093539e-01
1.293018375951376364e-01
1.498522102137439249e-01
1.682503960603854987e-01
1.846165740436798985e-01
1.990709230722445267e-01
2.117336220546971737e-01
2.227248498996551307e-01
2.321647855157363272e-01
2.401744439195521164e-01
2.468815059062076100e-01
2.524168414449590725e-01
2.569113404095819675e-01
2.604958926738511482e-01
2.633013881115420229e-01
2.654587165964296114e-01
2.670987680022888777e-01
2.683357323555540797e-01
2.691724142139776954e-01
2.695660443357146274e-01
2.694737168439193531e-01
2.688525258617466829e-01
2.676595655123512607e-01
2.658519299188876195e-01
2.633867132045107362e-01
2.602266188490972576e-01
2.563658256951829584e-01
2.518094836539725434e-01
2.465627538963231502e-01
2.406307975930909171e-01
2.340187759151331204e-01
2.267318500333059816e-01
2.187751811184664996e-01
2.101752114001003702e-01
2.010592077492787122e-01
1.915842663430109005e-01
1.819074878822443120e-01
1.721859730679273504e-01
1.625768226010077533e-01
1.532371371824332029e-01
1.443240175131522696e-01
1.359765201175037186e-01
1.282613891853905952e-01
1.212272568524155325e-01
1.149227552541763897e-01
1.093965165262720252e-01
1.046971728043002425e-01
1.008733562238590675e-01
9.797369233821506818e-02
9.600054118528628111e-02
9.479930002392172872e-02
9.418211067909931788e-02
9.396111497579806571e-02
9.394845473899660071e-02
9.395627179367355142e-02
9.379670796480726880e-02
9.328191133716312589e-02
9.223031794234759495e-02
9.047846945953823272e-02
8.786614665024318482e-02
8.423313027597120750e-02
7.941920109823058516e-02
7.326413987852975485e-02
6.560772737837700097e-02
5.628994237298601266e-02
4.521810937600345692e-02
3.246473733569221753e-02
1.812719874330859238e-02
2.302866090109878527e-03
-1.491088813264740409e-02
-3.341669143370629147e-02
-5.311717132180970857e-02
-7.391467434105025713e-02
-9.566588947907417317e-02
-1.181317434429463020e-01
-1.410611020315751807e-01
-1.642028310438692351e-01
-1.873057962787371133e-01
-2.101188635350873524e-01
-2.323908986118287667e-01
-2.538710364586873602e-01
-2.743335180966988140e-01
-2.935977720981426398e-01
-3.114879527143338267e-01
-3.278282141965868091e-01
-3.424427107962159655e-01
-3.551555967645365075e-01
-3.657910263528624251e-01
-3.741743750378890288e-01
-3.802041818916869764e-01
-3.838923263960001830e-01
-3.852604303666452568e-01
-3.843301156194379176e-01
-3.811230039701942740e-01
-3.756607172347306012e-01
-3.679648772288627856e-01
-3.580586763455192445e-01
-3.460304326961503585e-01
-3.320554975998973868e-01
-3.163152902640009589e-01
-2.989912298957018155e-01
-2.802647357022405306e-01
-2.603172268908579001e-01
-2.393301226687945538e-01
-2.174847446827302688e-01
-1.949594633537615196e-01
-1.719292415168404697e-01
-1.485688525823911088e-01
-1.250530699607707019e-01
-1.015566670624042933e-01
-7.825441729764931464e-02
-5.532109407692986647e-02
-3.292873453471756306e-02
-1.118662600489689352e-02
9.858591625412860271e-03
3.016299427411217593e-02
4.968265785916017863e-02
6.837365829845967746e-02
8.619207150996727185e-02
1.030939734115881301e-01
1.190375007283748093e-01
1.340176659516343349e-01
1.480613143744202442e-01
1.611963366615057069e-01
1.734506234777026257e-01
1.848520654877867653e-01
1.954285533565678357e-01
2.052079777488238777e-01
2.142168041754407004e-01
2.224611562563104661e-01
2.299319862094473810e-01
2.366198831578374961e-01
2.425154362244859030e-01
2.476092345323810395e-01
2.518918672045259988e-01
2.553539233639111616e-01
2.579851979245319504e-01
2.597662879788550372e-01
2.606718730511347615e-01
2.606765347786006437e-01
2.597548547984833700e-01
2.578814147480154584e-01
2.550307962644247084e-01
2.511775809849460805e-01
2.463017971689374364e-01
2.404353319748005480e-01
2.336387873346171817e-01
2.259730696336936795e-01
2.174990852573154831e-01
2.082777405907915158e-01
1.983699420194049989e-01
1.878365959284666875e-01
1.767460780028025091e-01
1.652258278096095379e-01
1.534313476656908870e-01
1.415183101413395594e-01
1.296423878068148072e-01
1.179592532324097304e-01
1.066245789883840528e-01
9.579403764503011121e-02
8.561610928967040846e-02
7.619167737760246251e-02
6.760228918472882542e-02
5.992943623976804135e-02
5.325461007141618630e-02
4.765930220838882070e-02
4.322500417938496264e-02
4.003320751311728598e-02
3.813593750883287337e-02
3.742114091264719944e-02
3.771998878250798493e-02
3.886359737088018740e-02
4.068308293023087385e-02
4.300956171302261488e-02
4.567414997172428159e-02
4.850796395879722334e-02
5.132637383285784671e-02
5.387070950069548780e-02
5.586055822843200708e-02
5.701550438475376514e-02
5.705513233835164677e-02
5.569902645791485751e-02
5.266677111213061147e-02
4.767795067002092435e-02
4.050206660237587464e-02
3.110716741234298421e-02
1.951065959011044626e-02
5.729949625896402221e-03
-1.021755599011731075e-02
-2.831445076770638947e-02
-4.854332821669482545e-02
-7.088676878022279193e-02
-9.524640979398721341e-02
-1.212513121820703310e-01
-1.484732209817285209e-01
-1.764838812301427196e-01
-2.048550379645722175e-01
-2.331584362221963691e-01
-2.609658210402747702e-01
-2.878489532332473844e-01
-3.133945109165416909e-01
-3.372318134124450140e-01
-3.589977502093477657e-01
-3.783292107955755768e-01
-3.948630846595125865e-01
-4.082362612894919196e-01
-4.180856301738888336e-01
-4.240485163150851666e-01
-4.259047279697088517e-01
-4.237810756284769442e-01
-4.178561906988519925e-01
-4.083087045883073141e-01
-3.953172487043055128e-01
-3.790604544542985344e-01
-3.597169532457750174e-01
-3.374659640608522193e-01
-3.125795370082342650e-01
-2.855230782918787291e-01
-2.567861483707544190e-01
-2.268583077037516216e-01
-1.962291167498434463e-01
-1.653881359679174046e-01
-1.348249258169477993e-01
-1.050278333833293276e-01
-7.637448076011499332e-02
-4.904455076244879086e-02
-2.319720260165147874e-02
1.008404511032290340e-03
2.341311136428608775e-02
4.385775874686009823e-02
6.218318744744355531e-02
7.823294142894632319e-02
9.200963295773623152e-02
1.037606514987279849e-01
1.137542360973758382e-01
1.222586257991656877e-01
1.295420596495563403e-01
1.358727766940297232e-01
1.415190159780479739e-01
1.467476460437379393e-01
1.517695618482942932e-01
1.567213478283980554e-01
1.617344579655435877e-01
1.669403462412390737e-01
1.724704666369784034e-01
1.784562731342706488e-01
1.850292197146086171e-01
1.923149154325110022e-01
2.002644754465409127e-01
2.086288529038787254e-01
2.171479920732445890e-01
2.255618372233828550e-01
2.336103326230141719e-01
2.410334225408823916e-01
2.475710512457087731e-01
2.529654166333331067e-01
2.570097963411230313e-01
2.595481325116941740e-01
2.604265378657523167e-01
2.594911251240087369e-01
2.565880070071745456e-01
2.515632962359553026e-01
2.442631055310679478e-01
2.345476524256722706e-01
2.225268851031853012e-01
2.085249232170192091e-01
1.928728267533311724e-01
1.759016556982369028e-01
1.579424700378981861e-01
1.393263297584272919e-01
1.203842948459883377e-01
1.014493227038348877e-01
8.288119128870641283e-02
6.505955024726328695e-02
4.836451757618509539e-02
3.317621127210013121e-02
1.987474933168331681e-02
8.840249751569828618e-03
4.528305284274836140e-04
-4.934460565722442738e-03
-7.279251587579915750e-03
-6.737716212146693806e-03
-3.469253304335562227e-03
2.366738270947743583e-03
1.061085964878269450e-02
2.110371196427081320e-02
3.368589635248536718e-02
4.817384859698808919e-02
6.415587642143222302e-02
8.109482816687207940e-02
9.845225128160217665e-02
1.156896932139647172e-01
1.322687014122536642e-01
1.476508233248106094e-01
1.612976063999318477e-01
1.726936557528278016e-01
1.815044261786140645e-01
1.874807028606364501e-01
1.903737740243134358e-01
1.899349278950743791e-01
1.859154526983439748e-01
1.780666366595451411e-01
1.661397680041138969e-01
1.499443799761452922e-01
1.296724273185718701e-01
1.056701204225722890e-01
7.828409705574412847e-02
4.786099498561158239e-02
1.474745197978333255e-02
-2.070989419422430977e-02
-5.816440576879777780e-02
-9.724064763247086685e-02
-1.374040545679828251e-01
-1.780653985326180744e-01
-2.186354019306722130e-01
-2.585247871665562469e-01
-2.971442766445673289e-01
-3.339045927691134397e-01
-3.682164579444957009e-01
-3.995394386404317877e-01
-4.275610462707086779e-01
-4.520352338357727096e-01
-4.727159620655719818e-01
-4.893571916901201524e-01
-5.017128834393775882e-01
-5.095369980433442914e-01
-5.125834962399855588e-01
-5.107026754596529772e-01
-5.041251491428362375e-01
-4.931753684190991471e-01
-4.781777844180280512e-01
-4.594568482691727684e-01
-4.373370111021324114e-01
-4.121427240464460295e-01
-3.841984451405252576e-01
-3.538665650674513996e-01
-3.216362668608413466e-01
-2.880231941115183325e-01
-2.535429904103967402e-01
-2.187112993482971390e-01
-1.840437645161371316e-01
-1.500560295047353998e-01
-1.172636406197316572e-01
-8.609543976356043293e-02
-5.673422203938921493e-02
-2.931943561273264720e-02
-3.990528649185753896e-03
1.911305068573157517e-02
3.985185422643018616e-02
5.808643380738343076e-02
7.367770688774107068e-02
8.660172919532471703e-02
9.711297681294257800e-02
1.055071780915168705e-01
1.120800613819425834e-01
1.171273550351363268e-01
1.209447874019980163e-01
1.238280868334402096e-01
1.260728678416976334e-01
1.279572528453560287e-01
1.297231823461342803e-01
1.316081138244450943e-01
1.338495047606955146e-01
1.366848126352988857e-01
1.403514949286611135e-01
1.450870091211974022e-01
1.511272846000776549e-01
1.585718036359725358e-01
1.672777785542131634e-01
1.770775165737691614e-01
1.878033249136133453e-01
1.992875107926952438e-01
2.113623814299957493e-01
2.238602440444624753e-01
2.366124921351574484e-01
2.493976994173338069e-01
2.619137005846188249e-01
2.738515156381703397e-01
2.849021645791788293e-01
2.947566674088041294e-01
3.031060441282356077e-01
3.096413147386354314e-01
3.140569525374614646e-01
3.161863593832177077e-01
3.160461663657885278e-01
3.136655313208296381e-01
3.090736120839903123e-01
3.022995664909335911e-01
2.933725523773018651e-01
2.823217275787643921e-01
2.691813515901548826e-01
2.541360045307472504e-01
2.375415745100664111e-01
2.197632712577295422e-01
2.011663045033071917e-01
1.821158839764254189e-01
1.629772194066521074e-01
1.441155205236133163e-01
1.258923161252956113e-01
1.085866712089640362e-01
9.239638970609753699e-02
7.751583517993010375e-02
6.413937119365065165e-02
5.246136131048673157e-02
4.267616909363314281e-02
3.497815810631185046e-02
2.954779172670446430e-02
2.632200756460767455e-02
2.503025668947955751e-02
2.539535583718355305e-02
2.714012174358249041e-02
2.998737114453220443e-02
3.365992077590185261e-02
3.788058737354793593e-02
4.236787006753361950e-02
4.677982610950826015e-02
5.073002542549387428e-02
5.383100549748975894e-02
5.569530380750808973e-02
5.593545783754461098e-02
5.416400506960883376e-02
4.999348298570804872e-02
4.305978246459174485e-02
3.326440319420909120e-02
2.067745660237996219e-02
5.371743358012270875e-03
-1.257993587003181091e-02
-3.310478041284214967e-02
-5.612998960156412309e-02
-8.158276276727605136e-02
-1.093606891299896411e-01
-1.390842021468750023e-01
-1.702223484676472776e-01
-2.022426399472522229e-01
-2.346125884407294637e-01
-2.667997058030259216e-01
-2.982715038891797787e-01
-3.284954945541398441e-01
-3.569530004696459535e-01
-3.832327898946896738e-01
-4.069739752554004664e-01
-4.278159572637572072e-01
-4.453981366318031654e-01
-4.593599140715247664e-01
-4.693406902949575077e-01
-4.749798660140998052e-01
-4.759779152563545779e-01
-4.724331679792230787e-01
-4.646032944040667800e-01
-4.527463887014890886e-01
-4.371205450420641014e-01
-4.179838575964072156e-01
-3.955944205350805376e-01
-3.702103280287096787e-01
-3.421222736561801980e-01
-3.117997171630375597e-01
-2.797730791357051494e-01
-2.465728319738658136e-01
-2.127294480771142471e-01
-1.787733998451386253e-01
-1.452351596775318665e-01
-1.126451999739830345e-01
-8.148130355511395972e-02
-5.197720962964114122e-02
-2.429605152721714401e-02
1.399044542388372392e-03
2.494495236947957828e-02
4.617854574429264281e-02
6.493669845712633781e-02
8.105628432105840830e-02
9.444564158886958882e-02
1.052931239469487856e-01
1.138556580889851788e-01
1.203901707086399431e-01
1.251535884995963466e-01
1.284028381555207821e-01
1.303948463700915217e-01
1.313865374901564409e-01
1.316233559537028364e-01
1.313126578295569225e-01
1.306539102982486877e-01
1.298465805403086759e-01
1.290901357362665980e-01
1.285840430666531642e-01
1.285277697119981966e-01
1.291207058962831056e-01
1.304975016876769311e-01
1.326104213865069159e-01
1.353798437991150516e-01
1.387261477318362801e-01
1.425697119910138699e-01
1.468309153829812641e-01
1.514301367140833410e-01
1.562877236125307379e-01
1.613145673480422260e-01
1.663988541931003540e-01
1.714254327966631686e-01
1.762791518076748387e-01
1.808448598750934666e-01
1.850074056478636098e-01
1.886516377749425377e-01
1.916627087211310032e-01
1.939711893911478247e-01
1.956009483174581121e-01
1.965873193583319023e-01
1.969656363720353187e-01
1.967712332168362888e-01
1.960394437510026566e-01
1.948056018328008787e-01
1.931051899686302420e-01
1.909866812787267554e-01
1.885214584185620490e-01
1.857832389164431608e-01
1.828457403006845394e-01
1.797826800995925844e-01
1.766677758414821608e-01
1.735747450546596404e-01
1.705767320758830308e-01
1.677143260937661307e-01
1.649786843125856661e-01
1.623568296994029603e-01
1.598357852212867192e-01
1.574025738452985435e-01
1.550442185385071392e-01
1.527477422679739405e-01
1.504995549158271717e-01
1.482617679857946846e-01
1.459646570291062151e-01
1.435363424148694556e-01
1.409049445121854649e-01
1.379985836901627683e-01
1.347453803179018694e-01
1.310734547645120429e-01
1.269110863155458180e-01
1.221911760921080281e-01
1.168518579869492896e-01
1.108315475871810146e-01
1.040686604798983783e-01
9.650161225221490224e-02
8.806881849122358275e-02
7.870869478404007857e-02
6.836113495434353871e-02
5.699876787619784224e-02
4.462627007161287795e-02
3.124965879933383484e-02
1.687495131806912574e-02
1.508164886566520924e-03
-1.484468323646800925e-02
-3.217757579228408549e-02
-5.048065153786043813e-02
-6.967740776646760836e-02
-8.963493334068373120e-02
-1.102185375919877419e-01
-1.312935298519160299e-01
-1.527252194519460038e-01
-1.743789157236153575e-01
-1.961199279984006116e-01
-2.178101868373120420e-01
-2.392647783422835739e-01
-2.602645365768256891e-01
-2.805895129611249428e-01
-3.000197589154272593e-01
-3.183353258599213031e-01
-3.353162652148496958e-01
-3.507426284004053207e-01
-3.644012735020858429e-01
-3.761557797133417980e-01
-3.859181045288174738e-01
-3.936009629248051755e-01
-3.991170698776217440e-01
-4.023791403635665898e-01
-4.032998893589501144e-01
-4.017920318400778346e-01
-3.977851934392121480e-01
-3.913659461501293180e-01
-3.827060056368897234e-01
-3.719779313592440628e-01
-3.593542827769163894e-01
-3.450076193496635080e-01
-3.291105005372042536e-01
-3.118354857992999829e-01
-2.933575422921487208e-01
-2.738702171107841865e-01
-2.535757025749463267e-01
-2.326762390727625807e-01
-2.113740669923004356e-01
-1.898714267216887186e-01
-1.683705586489951944e-01
-1.470737031623481905e-01
-1.261609250186420117e-01
-1.056689561102479025e-01
-8.557753251284710982e-02
-6.586624477556063395e-02
-4.651468344745407490e-02
-2.750243907764737816e-02
-8.809102215206976449e-03
9.585736590747351293e-03
2.770572381308369914e-02
4.559212162427557502e-02
6.329215551799831363e-02
8.085305573196528706e-02
9.832205250393991069e-02
1.157463760716357926e-01
1.331732566728160150e-01
1.506499245451943247e-01
1.681869195358587921e-01
1.856261180403600553e-01
2.027609618644612421e-01
2.193848886134578402e-01
2.352913358926932430e-01
2.502737413074641593e-01
2.641255424631117066e-01
2.766401769698547675e-01
2.876171983453388314e-01
2.968799445169314488e-01
3.042575343983261460e-01
3.095790869031941339e-01
3.126737209452219446e-01
3.133705554380858960e-01
3.114987092954689674e-01
3.068873237570990398e-01
2.994633074393456829e-01
2.894755456582973618e-01
2.772391093446356924e-01
2.630690694290736542e-01
2.472804968422866456e-01
2.301884625149935859e-01
2.121080373778652661e-01
1.933543365480278886e-01
1.742776088670668355e-01
1.553263651228006803e-01
1.369661630148307219e-01
1.196625602428111335e-01
1.038811145063456842e-01
9.008738350508449511e-02
7.874692493863666432e-02
7.032473461150789973e-02
6.512156846032080004e-02
6.304662475399269717e-02
6.395199656662531318e-02
6.768977697232281265e-02
7.411205904519579946e-02
8.307093585934044455e-02
9.441850048887534541e-02
1.080058298053390153e-01
1.235361522250082444e-01
1.404110853892439614e-01
1.579954855228029587e-01
1.756542088504020604e-01
1.927521115967998355e-01
2.086540499867082232e-01
2.227248802448875686e-01
2.343312712686849153e-01
2.429949649875067230e-01
2.485093327782910144e-01
2.506951916141462178e-01
2.493733584681727677e-01
2.443646503134697667e-01
2.354898841231480855e-01
2.225698768702953911e-01
2.054302171858647386e-01
1.841628034055367014e-01
1.592612125536670975e-01
1.312523089663926168e-01
1.006629569799235568e-01
6.802002093038606034e-02
3.385036515400052792e-02
-1.319146013113225990e-03
-3.696256626122806921e-02
-7.258979641423390916e-02
-1.077573960983855272e-01
-1.420250525089050697e-01
-1.749524528409160951e-01
-2.060992842896327559e-01
-2.350252340501821635e-01
-2.612899893177722532e-01
-2.844625364731676598e-01
-3.043788310774715455e-01
-3.211751161925082698e-01
-3.350036266359737169e-01
-3.460165972255104805e-01
-3.543662627788091157e-01
-3.602048581135193217e-01
-3.636846180473183310e-01
-3.649612675338294032e-01
-3.642669325316418849e-01
-3.619080488008863394e-01
-3.581941238959795992e-01
-3.534346653713325015e-01
-3.479391807813676518e-01
-3.420171776804922237e-01
-3.359781636231295443e-01
-3.301213174898750546e-01
-3.245686177967531671e-01
-3.192930322404613497e-01
-3.142628908617461914e-01
-3.094465237013388492e-01
-3.048122607999843581e-01
-3.003284321984147631e-01
-2.959633679373754322e-01
-2.916775528822914687e-01
-2.873237457579196352e-01
-2.826764564887023212e-01
-2.775084348303098469e-01
-2.715924305383925486e-01
-2.647011933686242990e-01
-2.566074730766558787e-01
-2.470840194181596061e-01
-2.359147237470771152e-01
-2.230079366560818732e-01
-2.083499650327994557e-01
-1.919283138393669264e-01
-1.737304880378744976e-01
-1.537439925904642291e-01
-1.319563324592210041e-01
-1.083550126062911012e-01
-8.294832387695683096e-02
-5.593583939375368352e-02
-2.762019702619644690e-02
1.694967163293759072e-03
3.170601711237730491e-02
6.210931675863218260e-02
9.260123003971898470e-02
1.228781208932159252e-01
1.526341380678388759e-01
1.815464739367973479e-01
2.092844859765006227e-01
2.355174893813065662e-01
2.599147993456480954e-01
2.821457310638872951e-01
3.018795997304530854e-01
3.187857205397135463e-01
3.325693829059905848e-01
3.431665834559978201e-01
3.506044049895786774e-01
3.549101533272206455e-01
3.561111342894324183e-01
3.542346536967113657e-01
3.493080173695560786e-01
3.413585311284740298e-01
3.304604170830105492e-01
3.169412698181268140e-01
3.012138305016630602e-01
2.836909035911451271e-01
2.647852935440505595e-01
2.449098048179088882e-01
2.244772418701948824e-01
2.039004091584399880e-01
1.835785697515593673e-01
1.638492051280386330e-01
1.450321870296441273e-01
1.274473858962678618e-01
1.114146721677504448e-01
9.725391628398014077e-02
8.528498868480230422e-02
7.582775967032412412e-02
6.911594135189727539e-02
6.505068732037841417e-02
6.345292506136898658e-02
6.414358206047848787e-02
6.694358580331521980e-02
7.167386377548229381e-02
7.815534346259384035e-02
8.620894101611889515e-02
9.561094401486283645e-02
1.059917510132606933e-01
1.169519976358452673e-01
1.280923195071194121e-01
1.390133522516169839e-01
1.493157314938410030e-01
1.586000928583243264e-01
1.664671782535900590e-01
1.725977056733098980e-01
1.768944522322414836e-01
1.792984232313251658e-01
1.797506239714914411e-01
1.781920597536752471e-01
1.745637358788129090e-01
1.688066576478335357e-01
1.608621371983895987e-01
1.507579698872227869e-01
1.387266765952854808e-01
1.250303999542308198e-01
1.099312825957481365e-01
9.369146715148657378e-02
7.657309625314034918e-02
5.883831253235438652e-02
4.074892586590439514e-02
2.251961396665591586e-02
4.269568008468782594e-03
-1.389356360519189426e-02
-3.186213247080726951e-02
-4.952849018491112254e-02
-6.678498834398649553e-02
-8.352397854456539150e-02
-9.963873352034802178e-02
-1.150996833298767452e-01
-1.300114956423107371e-01
-1.444922846359920632e-01
-1.586601644892204899e-01
-1.726332493803368340e-01
-1.865296534876420553e-01
-2.004674909894765267e-01
-2.145637645923876013e-01
-2.288745128721657029e-01
-2.433644321963706336e-01
-2.579907187487832099e-01
-2.727105687131424760e-01
-2.874811782732290544e-01
-3.022597436127818504e-01
-3.170034609155819583e-01
-3.316669837606922577e-01
-3.461071376239076569e-01
-3.600542502839070291e-01
-3.732302540026309901e-01
-3.853570810419814641e-01
-3.961566636638964023e-01
-4.053509341302813374e-01
-4.126618247030696685e-01
-4.178138847508742204e-01
-4.206058356266810794e-01
-4.209192835821000123e-01
-4.186402012996405242e-01
-4.136545614618153399e-01
-4.058483367511264150e-01
-3.951074998500943014e-01
-3.813180234412124614e-01
-3.643745011929000466e-01
-3.443580896475402775e-01
-3.215302205553450254e-01
-2.961596886557444908e-01
-2.685152886882372081e-01
-2.388658153922460503e-01
-2.074800635072759913e-01
-1.746268277727441864e-01
-1.405783602309994551e-01
-1.056656122261837583e-01
-7.026857380990247925e-02
-3.476874061228063528e-02
4.523917364553931009e-04
3.501332760618092177e-02
6.853257136667056937e-02
1.006286273877752269e-01
1.309299727798801660e-01
1.592007178743539697e-01
1.853028429972249924e-01
2.091004955629452988e-01
2.304578229860375638e-01
2.492389726809607353e-01
2.653080920622301608e-01
2.785293285443120048e-01
2.887833044651986758e-01
2.961330372802330468e-01
3.007550255151066887e-01
3.028274792765630052e-01
3.025286086713553924e-01
3.000366238062343038e-01
2.955297347879463077e-01
2.891861517232475753e-01
2.811923081679527092e-01
2.718096761767234693e-01
2.613398838655102141e-01
2.500849393378646868e-01
2.383468506973080991e-01
2.264276260473943037e-01
2.146292734916427358e-01
2.032538011336068040e-01
1.925902741582981026e-01
1.828294833342493098e-01
1.741171267768742981e-01
1.665986665030523284e-01
1.604195645296386530e-01
1.557252828735084804e-01
1.526612835515216982e-01
1.513730285805486575e-01
1.519716497586982573e-01
1.543498295023433831e-01
1.583146188826088929e-01
1.636728680659285118e-01
1.702314272187501754e-01
1.777971465075032231e-01
1.861768760986390880e-01
1.951774661585850001e-01
2.045861107611353091e-01
2.140846581602652288e-01
2.233198134006861846e-01
2.319382571661852133e-01
2.395866701405737764e-01
2.459117330076415753e-01
2.505601264511967408e-01
2.531785311550320827e-01
2.534607654972491630e-01
2.513140961523774308e-01
2.467061768145061285e-01
2.396046649467131195e-01
2.299772180120603360e-01
2.177914934736332742e-01
2.030151487944860111e-01
1.856158416619746454e-01
1.656397386109916270e-01
1.434337736276830033e-01
1.194168945754645605e-01
9.400804931781747698e-02
6.762618571815337543e-02
4.069025163995665384e-02
1.361919494663643704e-02
-1.316804448953967643e-02
-3.928093598949677911e-02
-6.442113176259578466e-02
-8.830894847579917606e-02
-1.106647027959992702e-01
-1.312087113901553304e-01
-1.496612909251642254e-01
-1.657427580679793899e-01
-1.791736344001134129e-01
-1.898205409381334696e-01
-1.979528228466474193e-01
-2.039086229980179854e-01
-2.080260842645877406e-01
-2.106433495187136351e-01
-2.120985616327431544e-01
-2.127298634790292797e-01
-2.128754521564256152e-01
-2.128882710266393197e-01
-2.131559250415804296e-01
-2.140709947002316094e-01
-2.160260605015726920e-01
-2.194137029445889508e-01
-2.246265025282567218e-01
-2.320570397515651639e-01
-2.420961885315887074e-01
-2.548994182299743616e-01
-2.701485702083463170e-01
-2.874687025292767539e-01
-3.064848732552927224e-01
-3.268221404489718429e-01
-3.481055621728367799e-01
-3.699601964894685957e-01
-3.920096292941829264e-01
-4.137566835947928401e-01
-4.344954982280657685e-01
-4.534994889218929570e-01
-4.700420714041095849e-01
-4.833966614026008468e-01
-4.928366746452107483e-01
-4.976355268598138260e-01
-4.970724556805860006e-01
-4.907405753131990345e-01
-4.787001573373519392e-01
-4.610494793022644755e-01
-4.378868187571985926e-01
-4.093104532513580640e-01
-3.754186603340203821e-01
-3.363097175543742212e-01
-2.920913766368031239e-01
-2.432306040562004223e-01
-1.906558051636056406e-01
-1.353257070902962600e-01
-7.819903696770197365e-02
-2.023452192709368491e-02
3.760911090009511071e-02
9.437313438259448128e-02
1.491050416599788986e-01
2.010263707676746558e-01
2.495518818027346319e-01
2.941064037078429116e-01
3.341147654255514077e-01
3.690017958985305491e-01
3.981923240693463484e-01
4.211111788806545242e-01
4.372075298771662122e-01
4.464513032028662454e-01
4.493123549489199675e-01
4.462807143029322576e-01
4.378464104525086609e-01
4.244994725852392348e-01
4.067299298887437908e-01
3.850278115505988419e-01
3.598930033354170166e-01
3.319910119378151614e-01
3.021248031024840186e-01
2.711015053735933433e-01
2.397282472953984334e-01
2.088121574120671564e-01
1.791603642678537556e-01
1.515799964069296513e-01
1.268501553662133574e-01
1.053723918639434265e-01
8.727762141427930498e-02
7.269086142847025478e-02
6.173712931781039082e-02
5.454144249356007723e-02
5.122881836700343694e-02
5.192427434941065956e-02
5.671747129732207515e-02
6.531011559810195877e-02
7.716415460911280055e-02
9.173798739400090829e-02
1.084900130163755222e-01
1.268786305398769410e-01
1.463622390281503205e-01
1.663992375447979066e-01
1.864561519419835056e-01
2.060730409033584565e-01
2.248290451386890654e-01
2.423036666026343322e-01
2.580764072499043826e-01
2.717267690351627962e-01
2.828342539131140643e-01
2.909783638384284554e-01
2.957865310796342628e-01
2.972471908567858034e-01
2.955132677853135048e-01
2.907385217241398867e-01
2.830767125321778099e-01
2.726816000683586205e-01
2.597069441915875743e-01
2.443065047608025953e-01
2.266573637844624955e-01
2.070838520413132988e-01
1.859676090504897850e-01
1.636904030680697286e-01
1.406340023500690650e-01
1.171801751525670676e-01
9.371068973157839488e-02
7.060731434318290312e-02
4.821179640301426206e-02
2.665302365266208895e-02
5.989393317490709912e-03
-1.372074285613233968e-02
-3.241903312189753361e-02
-5.004712573344016757e-02
-6.654666894444755121e-02
-8.185931100855825537e-02
-9.597322935888763507e-02
-1.090857136373974967e-01
-1.214527734109893675e-01
-1.333304213065669153e-01
-1.449746699510682246e-01
-1.566415319713970744e-01
-1.685870199944915493e-01
-1.810671464799497032e-01
-1.943014507810134628e-01
-2.083707882055105820e-01
-2.233230569467791193e-01
-2.392061551981174983e-01
-2.560679811528663308e-01
-2.739564330043198215e-01
-2.929194089458233563e-01
-3.130047791680394820e-01
-3.341701906170337910e-01
-3.560826910818026825e-01
-3.783509341889410571e-01
-4.005835735649803109e-01
-4.223892628365188973e-01
-4.433766556300888784e-01
-4.631544055722851549e-01
-4.813311798308821388e-01
-4.975248040470297006e-01
-5.113781670460348927e-01
-5.225384062957412201e-01
-5.306526592639595474e-01
-5.353680634185242759e-01
-5.363317562272554850e-01
-5.331908751579778061e-01
-5.255931388775786361e-01
-5.133388394336239058e-01
-4.965843713617147936e-01
-4.755368417749038512e-01
-4.504033577862975868e-01
-4.213910265089360063e-01
-3.887069550559374420e-01
-3.525582505403319633e-01
-3.131528843778692561e-01
-2.708149685032785747e-01
-2.261006784383328139e-01
-1.795937826679150362e-01
-1.318780496770401989e-01
-8.353724795059225272e-02
-3.515514597358571081e-02
1.268448776909991693e-02
5.939882998217127508e-02
1.044810033565797269e-01
1.475544839560876120e-01
1.882555802528655953e-01
2.262206007189613288e-01
2.610858538265397044e-01
2.924876480476585883e-01
3.200622918544677731e-01
3.434496686198962312e-01
3.624791288760493835e-01
3.772601451920847282e-01
3.879247695003065211e-01
3.946050537329856001e-01
3.974330498224155073e-01
3.965408097008764621e-01
3.920603853006534578e-01
3.841271632986853479e-01
3.730011381312825502e-01
3.591013226097854449e-01
3.428570749512040994e-01
3.246977533725921017e-01
3.050527160909515256e-01
2.843513213233395120e-01
2.630229272867583568e-01
2.414952495351276873e-01
2.201506235833026182e-01
1.993213330325764865e-01
1.793370816328021533e-01
1.605275731338942080e-01
1.432225112857088423e-01
1.277515998381568707e-01
1.144445425411004802e-01
1.036215233452939533e-01
9.540135852782793968e-02
8.971080852451529530e-02
8.646897764729133407e-02
8.559497020810380441e-02
8.700789051889601389e-02
9.062684289160827245e-02
9.637093163818966080e-02
1.041492591078847507e-01
1.137045918113430698e-01
1.246425464786812820e-01
1.365646432872246463e-01
1.490724024142667803e-01
1.617673440371354965e-01
1.742509883331229692e-01
1.861248554795567611e-01
1.969989968738500297e-01
2.065972976097320557e-01
2.147247022110435610e-01
2.211878937321958283e-01
2.257935552275796010e-01
2.283483697516007771e-01
2.286590203586562620e-01
2.265321901031459584e-01
2.218013332550996530e-01
2.145910499748469036e-01
2.052046659892352576e-01
1.939481019792426153e-01
1.811272786258770751e-01
1.670481166101116521e-01
1.520165366129597739e-01
1.363384593153900148e-01
1.203201906918203168e-01
1.042714936763806666e-01
8.850395600687743780e-02
7.332918189273618381e-02
5.905877554342464641e-02
4.600434116836882303e-02
3.447748297703523424e-02
2.478980517885365220e-02
1.720215998980134664e-02
1.159621393930931887e-02
7.682065002396709641e-03
5.168966618438519678e-03
3.766172226813857549e-03
3.182935266904288185e-03
3.128509178088420550e-03
3.312147399746112608e-03
3.421271726582852946e-03
3.006536513415647427e-03
1.565747243072346251e-03
-1.403404178811129555e-03
-6.403225846605242744e-03
-1.393602585467013100e-02
-2.450411229738136409e-02
-3.860979326909153020e-02
-5.666335868842165002e-02
-7.858939574203149814e-02
-1.041528236025149878e-01
-1.331184657619094436e-01
-1.652511457123300165e-01
-2.003156869458067035e-01
-2.380769129544628715e-01
-2.782996472303180813e-01
-3.206520827048953137e-01
-3.643713905166302558e-01
-4.085746098084184208e-01
-4.523787745608124355e-01
-4.949009187544884947e-01
-5.352580763700027777e-01
-5.725672813880260392e-01
-6.059455684375331108e-01
-6.346040563495815023e-01
-6.581089330667392323e-01
-6.761101341401636322e-01
-6.882575951209538578e-01
-6.942012515602504763e-01
-6.935910390091698519e-01
-6.860768930188342329e-01
-6.713088211893343260e-01
-6.491479665074983973e-01
-6.201305036902284851e-01
-5.849272267306251383e-01
-5.442089296218771688e-01
-4.986464063570683614e-01
-4.489104509294031820e-01
-3.956718573319513155e-01
-3.396014693987176036e-01
-2.814021438093966543e-01
-2.218637123262962030e-01
-1.617906369966053970e-01
-1.019873798676831089e-01
-4.325840298671825013e-02
1.359183159893218029e-02
6.775886184207496887e-02
1.184389967248937747e-01
1.650240418953852206e-01
2.073588765082986507e-01
2.453523903745746804e-01
2.789134733050400161e-01
3.079510151106239491e-01
3.323739056021655092e-01
3.520910345905796657e-01
3.670125087447715373e-01
3.772077731261873623e-01
3.830624622488643105e-01
3.849994960824862922e-01
3.834417945967238950e-01
3.788122777612474845e-01
3.715338655457398609e-01
3.620294779198633961e-01
3.507217285929529194e-01
3.380091227584753888e-01
3.242490646670120880e-01
3.097949476076309328e-01
2.950001648694411394e-01
2.802181097415093469e-01
2.658021755129435504e-01
2.521057554728119432e-01
2.394799379967647579e-01
2.281557072008024434e-01
2.181876537023508811e-01
2.096162813870580399e-01
2.024820941405980623e-01
1.968255958486229695e-01
1.926872903968028794e-01
1.901076816707940875e-01
1.891242930679609691e-01
1.896648786936596109e-01
1.915180288033909439e-01
1.944633703066968866e-01
1.982805301131126963e-01
2.027491351321831781e-01
2.076488122734412856e-01
2.127591884464334338e-01
2.178599343170849467e-01
2.227319141345290854e-01
2.271573000323424685e-01
2.309183308207097829e-01
2.337972453098051684e-01
2.355762823098120906e-01
2.360376806309067987e-01
2.349636790832696498e-01
2.321441155578793936e-01
2.275277574676660697e-01
2.212139654799633037e-01
2.133080305720364001e-01
2.039152437211697588e-01
1.931408959046245766e-01
1.810902780996898609e-01
1.678686812836223952e-01
1.535882660974948466e-01
1.384742678425087414e-01
1.228445460979370463e-01
1.070196889344612323e-01
9.132028442280704095e-02
7.606692063365638745e-02
6.158018563773381970e-02
4.818066750572302936e-02
3.617603458787455040e-02
2.570319469461823658e-02
1.677826243689972685e-02
9.414803125470161405e-03
3.626382071105105354e-03
-5.734354154398602077e-04
-3.171084023393389018e-03
-4.152998441995681134e-03
-3.530002905589024742e-03
-1.575820466894861660e-03
1.275521867350692951e-03
4.587714057046332616e-03
7.924446062081313968e-03
1.084940784235480238e-02
1.292628935775686286e-02
1.371878056818498504e-02
1.280154008131367815e-02
9.846816295229432470e-03
4.578019833129054472e-03
-3.280987807649515808e-03
-1.400634512975007517e-02
-2.787419063584228862e-02
-4.516066282856123770e-02
-6.614190021058591329e-02
-9.103096063086810186e-02
-1.195733827886744927e-01
-1.513046467577521814e-01
-1.857592306791409076e-01
-2.224716126937874572e-01
-2.609762709427383420e-01
-3.008076835669366567e-01
-3.415003287074314109e-01
-3.825534212981733795e-01
-4.232469788384123355e-01
-4.627769240803840667e-01
-5.003390070202273776e-01
-5.351289776539753795e-01
-5.663425859777597715e-01
-5.931755819876229907e-01
-6.148237156796869662e-01
-6.305737203193286788e-01
-6.401889256157295982e-01
-6.435881880580756054e-01
-6.406904505091053359e-01
-6.314146558315414381e-01
-6.156797468881269886e-01
-5.934046665415708688e-01
-5.645083576546343629e-01
-5.290557799949747730e-01
-4.877583205390865206e-01
-4.415061922798801386e-01
-3.911896144569733114e-01
-3.376988063098484982e-01
-2.819239870781324875e-01
-2.247553760012994672e-01
-1.670831920755166955e-01
-1.097729268968667959e-01
-5.359744921475328994e-02
6.920549503224293630e-04
5.234439957770131713e-02
1.006083986468793157e-01
1.447328661372093705e-01
1.839666160281687723e-01
2.175585467863623279e-01
2.449834881588675017e-01
2.664332870980903323e-01
2.822417023559298244e-01
2.927424926842201458e-01
2.982694168348443142e-01
2.991562335596493760e-01
2.957367016105076907e-01
2.883447563133940683e-01
2.774221551423248222e-01
2.637014856608677071e-01
2.479638796548366830e-01
2.309904689100914510e-01
2.135623852124430844e-01
1.964607603477529496e-01
1.804667261018325641e-01
1.663605914848939604e-01
1.547210663077170922e-01
1.456629281682995103e-01
1.392359303767904954e-01
1.354898262433588130e-01
1.344743690781600165e-01
1.362393121913589855e-01
1.408344088931163807e-01
1.483078989793389368e-01
1.585148436162888697e-01
1.709295953645069144e-01
1.849819844373365996e-01
2.001018410480819298e-01
2.157189954100904306e-01
2.312632777366635528e-01
2.461645182411493771e-01
2.598542498413565216e-01
2.718953450549440598e-01
2.820730807448889044e-01
2.901942487560333350e-01
2.960656409331946515e-01
2.994940491212099709e-01
3.002862651649028658e-01
2.982490809091032924e-01
2.931935184122549387e-01
2.851473484880807652e-01
2.744545648994760612e-01
2.614841805058880642e-01
2.466052081667968743e-01
2.301866607416434007e-01
2.125975510899120735e-01
1.942068920710404711e-01
1.753825563259554521e-01
1.564510229051190304e-01
1.376866366092528438e-01
1.193604179866598614e-01
1.017433875856978975e-01
8.510656595467258612e-02
6.972097364193974300e-02
5.585763119580944291e-02
4.378111578637700063e-02
3.358244456444881010e-02
2.516369304703225396e-02
1.841741009471120627e-02
1.323614456808841489e-02
9.512445327748197954e-03
7.138861234291971058e-03
6.007941148308271195e-03
6.009713925543724855e-03
6.982095045953151669e-03
8.713941624711063483e-03
1.099220247344834256e-02
1.360382640378587915e-02
1.633576222735499961e-02
1.897495875577748237e-02
2.130836480068376559e-02
2.312538760157956119e-02
2.425548730028315170e-02
2.456071842873153166e-02
2.390408236076202453e-02
2.214858047021295295e-02
1.915721413091908687e-02
1.479298471672163551e-02
8.918893601451816089e-03
1.403988783653609129e-03
-7.803516288991729777e-03
-1.869977788237886518e-02
-3.127979711427270049e-02
-4.553857510240483242e-02
-6.147111296454493834e-02
-7.907241181841967448e-02
-9.833747278180382523e-02
-1.192466420649154202e-01
-1.416236914393297353e-01
-1.651975609196802974e-01
-1.896958659591249097e-01
-2.148462220107527632e-01
-2.403762445277235482e-01
-2.660135489631252348e-01
-2.914857507701182349e-01
-3.165132835061053029e-01
-3.407532160925462739e-01
-3.638296251665489311e-01
-3.853663035809483661e-01
-4.049870441885141670e-01
-4.223156398420764290e-01
-4.369758833944117349e-01
-4.485915676983429634e-01
-4.568184025047870023e-01
-4.615467549571483641e-01
-4.627716875627763127e-01
-4.604887465011684444e-01
-4.546934779518259084e-01
-4.453814280942358650e-01
-4.325481431079110095e-01
-4.161891691723282882e-01
-3.963445909547793633e-01
-3.733292007285902159e-01
-3.475624267506427501e-01
-3.194639025727230575e-01
-2.894532617466905045e-01
-2.579501378243183041e-01
-2.253741643574693754e-01
-1.921449748979222605e-01
-1.586643859713232629e-01
-1.252415909988853215e-01
-9.215577950382325412e-02
-5.968612560241126630e-02
-2.811180341102570424e-02
2.288012954059226445e-03
3.123414937648005818e-02
5.844743173995059493e-02
8.371210872881995613e-02
1.070911018523226232e-01
1.287238492173026216e-01
1.487497910678623469e-01
1.673083676480426885e-01
1.845390192019402686e-01
2.005811859735985303e-01
2.155743081221325186e-01
2.296515418387599372e-01
2.429226808708046526e-01
2.554920908416768999e-01
2.674641373747594919e-01
2.789431860934714624e-01
2.900336026211967067e-01
3.008397525813566453e-01
3.114659714097163246e-01
3.219427000347048207e-01
3.320675926245644227e-01
3.415925786452809199e-01
3.502695875628139000e-01
3.578505488431455994e-01
3.640873919522387148e-01
3.687320463560723738e-01
3.715364822385822663e-01
3.722763321251760793e-01
3.707905940990028348e-01
3.669287613761920142e-01
3.605403271728810921e-01
3.514747847051888918e-01
3.395816271892626581e-01
3.247103478412145527e-01
3.067110710080709346e-01
2.855834358541224915e-01
2.616687380518731842e-01
2.353557786417779241e-01
2.070333586643604562e-01
1.770902791600672543e-01
1.459153411694269487e-01
1.138973457328846806e-01
8.142540718532176314e-02
4.892762901907410367e-02
1.690842571239592473e-02
-1.411893795319629774e-02
-4.364119719608394732e-02
-7.114508723474877172e-02
-9.611734328757837176e-02
-1.180447005730433929e-01
-1.364165829881915926e-01
-1.509256750976684103e-01
-1.616065382240767789e-01
-1.685265174216903361e-01
-1.717529577447529654e-01
-1.713532042475249817e-01
-1.673946019842613708e-01
-1.599444960092160084e-01
-1.490740133405349388e-01
-1.350448525201687899e-01
-1.183949028443483098e-01
-9.968370197453124693e-02
-7.947078757222492129e-02
-5.831569729888363973e-02
-3.677796881601747003e-02
-1.541713978507752714e-02
5.210411928335378917e-03
2.466139101474063011e-02
4.263399393703615203e-02
5.883534841568849316e-02
7.297258217110247358e-02
8.475282292373442772e-02
9.388319839399628108e-02
1.000708363023345981e-01
1.030330621217592224e-01
1.027584671578480879e-01
9.952902559478626898e-02
9.364134129891432679e-02
8.539201813659147433e-02
7.507765997415383197e-02
6.299487067796549766e-02
4.944025411435770678e-02
3.471185555730915695e-02
1.913719579908468305e-02
3.071362533023425101e-03
-1.312949739977153918e-02
-2.910923715814928148e-02
-4.451170990100916658e-02
-5.898076878720248661e-02
-7.216026697562538672e-02
-8.370977858955686024e-02
-9.354240212273445820e-02
-1.017761997617521175e-01
-1.085351046704643441e-01
-1.139430500127018853e-01
-1.181239689523163605e-01
-1.212017946531409596e-01
-1.233004602790244153e-01
-1.245522435900272562e-01
-1.251976478604208687e-01
-1.255527245931122859e-01
-1.259350685754334620e-01
-1.266622745947179052e-01
-1.280519374383002340e-01
-1.304216518935112923e-01
-1.340890127476874749e-01
-1.393459494757357531e-01
-1.462125927436518369e-01
-1.545455589936102214e-01
-1.641992251827510407e-01
-1.750279682681878390e-01
-1.868861652070636370e-01
-1.996281929564894531e-01
-2.131084284736114443e-01
-2.271549178262128044e-01
-2.413653307532280801e-01
-2.552182070741847442e-01
-2.681910867234309492e-01
-2.797615096352777941e-01
-2.894070157440704616e-01
-2.966051449841249354e-01
-3.008334372897799036e-01
-3.016077408587695130e-01
-2.987233012113405528e-01
-2.920991477984604123e-01
-2.816548636965945374e-01
-2.673100319822327986e-01
-2.489842357318295951e-01
-2.265970580218859276e-01
-2.000680819288447876e-01
-1.693947667597668072e-01
-1.350511847046856895e-01
-9.769164734539731443e-02
-5.797080369754910312e-02
-1.654330277689719519e-02
2.593620640091690022e-02
6.881307482013304666e-02
1.114326534651119971e-01
1.531465112178209131e-01
1.933382962685474826e-01
2.314019721654638206e-01
2.667315073423849880e-01
2.987208702330221843e-01
3.267640292711823102e-01
3.502549528905868348e-01
3.685876095250301132e-01
3.812814047699625286e-01
3.884027715467985864e-01
3.901672224565331248e-01
3.867902733662373915e-01
3.784874401429834112e-01
3.654742386538288867e-01
3.479661847658592766e-01
3.261787960165886124e-01
3.004204284033367145e-01
2.713420148907418339e-01
2.396734879939815821e-01
2.061447802281471398e-01
1.714858241084220025e-01
1.364265521498933542e-01
1.016968968677468277e-01
6.802675554898254817e-02
3.606686047909402060e-02
6.220386983506326350e-03
-2.115774759636718239e-02
-4.571262591919433849e-02
-6.708933064356947806e-02
-8.493294442815135792e-02
-9.888854993154405637e-02
