BVP Green Neck Signal
2.436807366901102417e-03
-4.029160554165195883e-03
-1.088343944758103643e-02
-1.803967038681847726e-02
-2.541149444534958335e-02
-3.291255269664640493e-02
-4.045648621418100610e-02
-4.795693607142545445e-02
-5.532754334185178979e-02
-6.248194909893207971e-02
-6.933379441613839178e-02
-7.579672036694276582e-02
-8.178436802481729717e-02
-8.721037846323401177e-02
-9.198839275566497720e-02
-9.603205197558224715e-02
-9.925499615967850464e-02
-1.015698414247503678e-01
-1.028862615591896040e-01
-1.031134050923439988e-01
-1.021604205535612819e-01
-9.993645647218929451e-02
-9.635066137757580806e-02
-9.131218379906858029e-02
-8.473035101223597154e-02
-7.657459452240089615e-02
-6.696146249971486608e-02
-5.602959628291954985e-02
-4.391763721075657434e-02
-3.076422662196756294e-02
-1.670800585529407661e-02
-1.887616249477891417e-03
1.355802940102175495e-02
2.944628578846982675e-02
4.550297762624050391e-02
6.144243051464257088e-02
7.697897005398460224e-02
9.182692184457540152e-02
1.057006114867236751e-01
1.183143645807381572e-01
1.293832460361622749e-01
1.386907988977031103e-01
1.461435498932907029e-01
1.516608521141071253e-01
1.551620586513343392e-01
1.565665225961543616e-01
1.557935970397492653e-01
1.527626350733010396e-01
1.473951849602754827e-01
1.397435210145197004e-01
1.300619789805365911e-01
1.186222104854473547e-01
1.056958671563734686e-01
9.155460062043625780e-02
7.647006250475701927e-02
6.071390443645709178e-02
4.455802597594926695e-02
2.828455331711191359e-02
1.218924809641855171e-02
-3.431180618688542058e-03
-1.828002376076659150e-02
-3.206057226237331303e-02
-4.447611705606628607e-02
-5.522994907440306744e-02
-6.403052290557370574e-02
-7.074175057196617489e-02
-7.540661631582024071e-02
-7.807802062104338137e-02
-7.880886397154293621e-02
-7.765204685122632788e-02
-7.466046974400096514e-02
-6.988703313377424287e-02
-6.339004166786289807e-02
-5.535118683178671950e-02
-4.607504409611584695e-02
-3.587149252367347052e-02
-2.505041117728278380e-02
-1.392167911976696995e-02
-2.795175413949229498e-03
8.019220877347240511e-03
1.821627820114103680e-02
2.757358423451295587e-02
3.594003786858551708e-02
4.316686774029239448e-02
4.910530248656724828e-02
5.360657074434375946e-02
5.652190115055560904e-02
5.770252234213642251e-02
5.701251533474049893e-02
5.449869022797597384e-02
5.034377793612881957e-02
4.473374233745232298e-02
3.785454731019999297e-02
2.989215673262512335e-02
2.103253448298110506e-02
1.146164443952130303e-02
1.368450192110915939e-03
-9.023475846483103649e-03
-1.946835715965486088e-02
-2.972005270122930407e-02
-3.953242142503139711e-02
-4.865932228488609179e-02
-5.685461423461841968e-02
-6.387215622805311743e-02
-6.948295598399602258e-02
-7.362069897252032646e-02
-7.630888289336511254e-02
-7.757194861805583042e-02
-7.743433701811806846e-02
-7.592048896507731792e-02
-7.305484533045923656e-02
-6.886184698578924623e-02
-6.338373741653594018e-02
-5.680302523309881113e-02
-4.936865654216873733e-02
-4.132997542104213662e-02
-3.293632594701605132e-02
-2.443705219738683335e-02
-1.608149824945140013e-02
-8.119008180506641359e-03
-7.871447242301355361e-04
5.754212154892516216e-03
1.137663814488933979e-02
1.595179798808896154e-02
1.935135642682045062e-02
2.144697820341251795e-02
2.211032806019414335e-02
2.121307073949416436e-02
1.866332175430638132e-02
1.457143334488266058e-02
9.117496068864654538e-03
2.481665844347054166e-03
-5.155901410574920476e-03
-1.361504977780666689e-02
-2.271562333925288349e-02
-3.227746617681905017e-02
-4.210805852192504861e-02
-5.195695731145499874e-02
-6.155677129374964585e-02
-7.064010710134951965e-02
-7.893957136679462250e-02
-8.618777072262490124e-02
-9.211731180138084396e-02
-9.646080123696516850e-02
-9.899566963752803872e-02
-9.967696735593979673e-02
-9.850373455320057814e-02
-9.547501139031043527e-02
-9.058983802826936493e-02
-8.384725462807761376e-02
-7.524630135073499815e-02
-6.478602821218645835e-02
-5.252281800258486177e-02
-3.870538451978347561e-02
-2.362272695207970688e-02
-7.563844487769685876e-03
9.182263684849069352e-03
2.632659837748051873e-02
4.358016040182709216e-02
6.065396639609772766e-02
7.727353406426946958e-02
9.320567319518266447e-02
1.082244945378328105e-01
1.221041088412139902e-01
1.346186268543216324e-01
1.455421593261499169e-01
1.546488170056941336e-01
1.617129833791368654e-01
1.665964351476786898e-01
1.693729660252963065e-01
1.701478969172385003e-01
1.690265487287536672e-01
1.661142423650904532e-01
1.615162987314973653e-01
1.553380387332231050e-01
1.476850834932117995e-01
1.387097551640938398e-01
1.286612734342656716e-01
1.178009075217527207e-01
1.063899266445794550e-01
9.468960002077135563e-02
8.296119686835291829e-02
7.146598640534938818e-02
6.046448375352769800e-02
5.014923931197511064e-02
4.059177541470129769e-02
3.185112678078579757e-02
2.398632812930897792e-02
1.705641417935044313e-02
1.112041964999048622e-02
6.237379260308805254e-03
2.464861345503474403e-03
-2.249612036566463191e-04
-1.990811630613113260e-03
-3.002503353467279000e-03
-3.429849790320558568e-03
-3.442664359274295004e-03
-3.210760478429853897e-03
-2.903951565888613848e-03
-2.691195634465249828e-03
-2.706828592154309626e-03
-3.039403061233140503e-03
-3.774329243257344702e-03
-4.997017339782505382e-03
-6.792877552364209176e-03
-9.247320082558041845e-03
-1.244575513191943303e-02
-1.646998905568026333e-02
-2.129510044488770043e-02
-2.677423003932570891e-02
-3.275385577822874372e-02
-3.908045560083210634e-02
-4.560050744637023090e-02
-5.216048925407790193e-02
-5.860687896318983459e-02
-6.478623297772771739e-02
-7.054687320880409507e-02
-7.573886557680314935e-02
-8.021235016713079702e-02
-8.381746706519276058e-02
-8.640435635639528988e-02
-8.782315812614405193e-02
-8.792401245984500513e-02
-8.656492570701179723e-02
-8.374224144630579292e-02
-7.957044625142561944e-02
-7.416782256103260362e-02
-6.765265281378812778e-02
-6.014321944835386569e-02
-5.175780490339051965e-02
-4.261469161755973567e-02
-3.283757138596539449e-02
-2.262611532200727721e-02
-1.223604592626262484e-02
-1.924393500499134262e-03
8.051811653515936543e-03
1.743553923401532438e-02
2.596975893923140696e-02
3.339744046739771821e-02
3.947260801652348328e-02
4.407539094845207284e-02
4.716614992168648157e-02
4.870653305486487283e-02
4.865818846662491037e-02
4.698276427560445223e-02
4.364190860044157849e-02
3.859726955977382801e-02
3.182913324772965180e-02
2.349271369458572067e-02
1.383898076545980217e-02
3.119882121169972530e-03
-8.412634577467135305e-03
-2.050662166963347979e-02
-3.291013149451146869e-02
-4.537121639128295636e-02
-5.764102407689690455e-02
-6.949484335703788596e-02
-8.071929846689820942e-02
-9.110107913092153897e-02
-1.004268750735511639e-01
-1.084833760192315671e-01
-1.150572716924059408e-01
-1.199352518175180321e-01
-1.229338709479347730e-01
-1.240646785763732246e-01
-1.234174811314931869e-01
-1.210822957324799720e-01
-1.171491394985189061e-01
-1.117080295487955927e-01
-1.048489830024948444e-01
-9.666201697880226484e-02
-8.725369655767806210e-02
-7.682152333229681773e-02
-6.559407175705507520e-02
-5.379994317541199333e-02
-4.166773893082632851e-02
-2.942606036675735406e-02
-1.730350882666274390e-02
-5.528685654001767869e-03
5.695509432642639237e-03
1.628545531356043186e-02
2.619210771228480325e-02
3.536642597500160023e-02
4.375936944789533822e-02
5.132189747715099060e-02
5.800496940895323583e-02
6.375954459690699738e-02
6.856737262085987883e-02
7.253107206502507065e-02
7.578291641257542399e-02
7.845517914668366510e-02
8.068013375052286718e-02
8.259005370726578421e-02
8.431721250008522572e-02
8.599388044162487033e-02
8.773639996190812917e-02
8.960817540185452013e-02
9.166162707518336894e-02
9.394917529561377934e-02
9.652324037686524361e-02
9.943624263265692098e-02
1.027406023767081095e-01
1.064886905192282546e-01
1.106907893593766928e-01
1.152384189580281798e-01
1.200023015838315582e-01
1.248531595054358651e-01
1.296617149914899014e-01
1.342986903106432317e-01
1.386348077315445737e-01
1.425407918089315329e-01
1.458880658378418627e-01
1.485497332718382635e-01
1.503991449507190992e-01
1.513096517142824560e-01
1.511546044023263924e-01
1.498073538546492167e-01
1.471412509110489597e-01
1.430300461570507276e-01
1.374075651038582369e-01
1.303312028801174027e-01
1.218735641073131759e-01
1.121072534069293553e-01
1.011048754004509054e-01
8.893903470936240230e-02
7.568233595514903267e-02
6.140798879747889905e-02
4.624228116897019514e-02
3.040522058063047789e-02
1.412638090756522177e-02
-2.364663975122244591e-03
-1.883834019232642418e-02
-3.506507386894254508e-02
-5.081529112986583885e-02
-6.585996994793913428e-02
-8.000152220151145188e-02
-9.309014177374701215e-02
-1.049800248312941775e-01
-1.155253675408009911e-01
-1.245803660689167452e-01
-1.319992165822893859e-01
-1.376361152475673311e-01
-1.413479249369777035e-01
-1.430974363250535897e-01
-1.429863657359925488e-01
-1.411258482824098992e-01
-1.376270190769212365e-01
-1.326010132321423229e-01
-1.261589658606883380e-01
-1.184120120751749328e-01
-1.094734695760784943e-01
-9.952024637372072768e-02
-8.880131100853035087e-02
-7.756951696081146319e-02
-6.607771771086773382e-02
-5.457876673900283193e-02
-4.332551752552094015e-02
-3.257082355072470070e-02
-2.256416361110072377e-02
-1.348017878191386937e-02
-5.420185038986427908e-03
1.517573761781043119e-03
7.234853764486891617e-03
1.163341111322984019e-02
1.461500195210861490e-02
1.608138242522189759e-02
1.594239444553338658e-02
1.424821978550635214e-02
1.116791535792622907e-02
6.874293786254449638e-03
1.540167693951851550e-03
-4.661650295520190605e-03
-1.155834755870043494e-02
-1.897711147212734553e-02
-2.674345342532257266e-02
-3.465962699476063391e-02
-4.251086925411724782e-02
-5.008202788014702589e-02
-5.715795054960431942e-02
-6.352348493924435402e-02
-6.896347872582143934e-02
-7.326277958609021812e-02
-7.621915718739430412e-02
-7.777613748756943834e-02
-7.796920656362249513e-02
-7.683529252560157563e-02
-7.441132348355478099e-02
-7.073422754753039277e-02
-6.584093282757617904e-02
-5.976836743374037975e-02
-5.256737060982641374e-02
-4.441796349433005386e-02
-3.557028083126799467e-02
-2.627515327825981697e-02
-1.678341149292473383e-02
-7.345886132881986053e-03
1.786592144248803915e-03
1.036319268084922446e-02
1.814461976229057860e-02
2.498063016853130022e-02
3.076243214112601293e-02
3.538146476088890879e-02
3.872916710863323619e-02
4.069697826517307271e-02
4.117633731132172570e-02
4.005868332789296049e-02
3.726922931837388375e-02
3.295155453563032577e-02
2.733609530150668890e-02
2.065351007248165602e-02
1.313445730503173814e-02
5.009595455635952946e-03
-3.490417019228671605e-03
-1.213492166308526368e-02
-2.068752667343107601e-02
-2.888063359980555869e-02
-3.643607784744697098e-02
-4.307568640137010574e-02
-4.852128624659228506e-02
-5.249470436812868346e-02
-5.471776775099602974e-02
-5.491230338021042823e-02
-5.285463011175826897e-02
-4.857158442721568048e-02
-4.216194943886757140e-02
-3.372451450967643705e-02
-2.335806900260401289e-02
-1.116140228061492622e-02
2.766696293330247157e-03
1.832743731436484169e-02
3.537002597712528285e-02
5.354142504965711535e-02
7.243944156774438647e-02
9.166188256717593130e-02
1.108065550837407653e-01
1.294712661532227138e-01
1.472538228114123049e-01
1.637520423368746258e-01
1.786085168014028557e-01
1.916132770175672795e-01
2.025866576118294515e-01
2.113489932106549785e-01
2.177206184405062195e-01
2.215218679278478098e-01
2.225730762991435518e-01
2.206947129538219532e-01
2.158142283709724996e-01
2.081582118973556439e-01
1.980051367278068408e-01
1.856334760571585196e-01
1.713217030802469398e-01
1.553482909919052524e-01
1.379917129869659698e-01
1.195305044270399963e-01
1.002613424138071724e-01
8.052414150964187778e-02
6.066511987134119710e-02
4.103049565570222879e-02
2.196648701952727892e-02
3.819312119611832645e-03
-1.306481088724205722e-02
-2.834042577489475842e-02
-4.177275701359704774e-02
-5.335272687109900158e-02
-6.309875333728234836e-02
-7.102925440202821628e-02
-7.716264805521567960e-02
-8.151735228672632450e-02
-8.411178508643980811e-02
-8.496535212952727179e-02
-8.418182609378199732e-02
-8.201268668002510698e-02
-7.872432869990499127e-02
-7.458314696507098440e-02
-6.985553628717157404e-02
-6.480789147785503967e-02
-5.970660734877102083e-02
-5.481693001315059155e-02
-5.034009184348249566e-02
-4.638082769171424091e-02
-4.303588193037251319e-02
-4.040199893198534453e-02
-3.857592306907979551e-02
-3.765439871418324591e-02
-3.773417023982325591e-02
-3.890907342286459292e-02
-4.115953700241613278e-02
-4.431847564680743701e-02
-4.820892583977594292e-02
-5.265392406505800538e-02
-5.747650680639102005e-02
-6.249971054751246591e-02
-6.754657177215853125e-02
-7.244055044309691271e-02
-7.701724626539671603e-02
-8.112590359053634126e-02
-8.461649251897494783e-02
-8.733898315117072375e-02
-8.914334558758300886e-02
-8.987954992867028259e-02
-8.939756627489166274e-02
-8.755339673072873308e-02
-8.433489330002616469e-02
-7.985804203261320788e-02
-7.424411762127297587e-02
-6.761439475878756877e-02
-6.009014813793868426e-02
-5.179265245151001840e-02
-4.284318239228336600e-02
-3.336649075034832379e-02
-2.354691294560003201e-02
-1.361884194374649026e-02
-3.818225652784601291e-03
5.618988019291394978e-03
1.445685116448712157e-02
2.245941587480586310e-02
2.939073424225386449e-02
3.502395441925838793e-02
3.925694064372253766e-02
4.207805371745210188e-02
4.347768514389371841e-02
4.344622642649473288e-02
4.197406906870204679e-02
3.905160457396300577e-02
3.466922444572415052e-02
2.883078985038941763e-02
2.169039868776332161e-02
1.349614419952675434e-02
4.497559621473344940e-03
-5.055821810606302841e-03
-1.491446686091832743e-02
-2.482884229367140691e-02
-3.454941487307422454e-02
-4.383243756794936996e-02
-5.248732824156342180e-02
-6.035211463171888391e-02
-6.726510039276520359e-02
-7.306458917905150896e-02
-7.758888464492535997e-02
-8.067629044473600963e-02
-8.216511023283212811e-02
-8.191893805115933735e-02
-7.999464645223962334e-02
-7.653829158530063570e-02
-7.169640804020413483e-02
-6.561553040681147864e-02
-5.844219327498557937e-02
-5.032293123458715656e-02
-4.140427887547952490e-02
-3.183927749878835700e-02
-2.182262783921297411e-02
-1.156545345483218912e-02
-1.278917755810948624e-03
8.825815847685814647e-03
1.853758394549046007e-02
2.764522312743883728e-02
3.593756998336349040e-02
4.323440453211772894e-02
4.952233023173947812e-02
5.484391959343497269e-02
5.924178608816441094e-02
6.275854318688628419e-02
6.543680436056027727e-02
6.731918308014578356e-02
6.844829281660173848e-02
6.888735058254001620e-02
6.879340628440751282e-02
6.835020749961710773e-02
6.774150370280772326e-02
6.715104436861847603e-02
6.676257897168827449e-02
6.675985698665613810e-02
6.732662782238420240e-02
6.861187848004086931e-02
7.063067262043763728e-02
7.336582773314206940e-02
7.680016130772203409e-02
8.091649083374446993e-02
8.569763380077762005e-02
9.112640769838818711e-02
9.718561888910816349e-02
1.038154566498056541e-01
1.108170722154286220e-01
1.179633088468324265e-01
1.250270098048724965e-01
1.317810183504023736e-01
1.379981777442780555e-01
1.434513312473532087e-01
1.479133627437542176e-01
1.511872608545759833e-01
1.531594318645686237e-01
1.537306116055225658e-01
1.528015359092275427e-01
1.502729406074737872e-01
1.460455615320507272e-01
1.400201345147491783e-01
1.320976869437330836e-01
1.222605544540820155e-01
1.106831463763917611e-01
9.756759826589764262e-02
8.311604567783942299e-02
6.753062416745335417e-02
5.101346928997528563e-02
3.376671660064554936e-02
1.599265961154900523e-02
-2.084217861998470187e-03
-2.019457188709264384e-02
-3.806364946928479653e-02
-5.541669761412144901e-02
-7.197896332715535139e-02
-8.747569361393325860e-02
-1.016321354800063942e-01
-1.141745287070354553e-01
-1.249117101831171001e-01
-1.337959046192671309e-01
-1.407936596522219863e-01
-1.458715229187164120e-01
-1.489960420554873044e-01
-1.501337646992699504e-01
-1.492512384868008024e-01
-1.463168321425945551e-01
-1.413982215997143244e-01
-1.347115407911758933e-01
-1.264850758388754159e-01
-1.169471128647074226e-01
-1.063259379905659718e-01
-9.484983733834789765e-02
-8.274709702994732796e-02
-7.024597563907200581e-02
-5.757367725880871423e-02
-4.495604561884795902e-02
-3.261883447733224251e-02
-2.078779759240067387e-02
-9.688688722192568756e-03
4.527383751498281414e-04
9.410729941488043399e-03
1.696335868128506438e-02
2.299663740967588729e-02
2.751691141532166401e-02
3.053684010282949751e-02
3.206908287680784730e-02
3.212629914186432289e-02
3.072114830260707155e-02
2.786628976364365767e-02
2.357892000959507101e-02
1.797399585739456462e-02
1.126070643164454703e-02
3.652072033189100904e-03
-4.638887037130192542e-03
-1.339915047846896093e-02
-2.241569798998502630e-02
-3.147550927083631045e-02
-4.036725876731940554e-02
-4.890827785899144742e-02
-5.693977703879572749e-02
-6.430369600687128873e-02
-7.084197446335692427e-02
-7.639655210838972033e-02
-8.080936864210852555e-02
-8.392236376465184167e-02
-8.558744427157302659e-02
-8.579154712940254002e-02
-8.461878245541633314e-02
-8.215539820937359239e-02
-7.848764235103303233e-02
-7.370176284015442225e-02
-6.788400763649601877e-02
-6.112062469981795199e-02
-5.350529190396757784e-02
-4.521363578481475687e-02
-3.647212535465599315e-02
-2.750799039066112103e-02
-1.854846066999986387e-02
-9.820765969844366672e-03
-1.552136067363639807e-03
6.030199260270301814e-03
1.270973979708560700e-02
1.836753331762195837e-02
2.293667455949105830e-02
2.635074578929477718e-02
2.854332927363356642e-02
2.944800727910885235e-02
2.899836207232158944e-02
2.712797591987293686e-02
2.379426569628420238e-02
1.913496805914518054e-02
1.337029943448424241e-02
6.720902229964718227e-03
-5.925811467482446429e-04
-8.349508287991257854e-03
-1.632923678610108745e-02
-2.431112423341235534e-02
-3.207252056026281550e-02
-3.937804661154860331e-02
-4.598734997272177494e-02
-5.166006679205800700e-02
-5.615583321783147730e-02
-5.923428539831813999e-02
-6.065505948179261697e-02
-6.017779161653045994e-02
-5.760361485256737524e-02
-5.295525641331130795e-02
-4.632910929659696253e-02
-3.782161586176251145e-02
-2.752921846814849680e-02
-1.554835947509213348e-02
-1.975481241934571620e-03
1.309297387198616984e-02
2.952058563952310657e-02
4.699057333456116425e-02
6.513531656666106395e-02
8.358719203644844609e-02
1.019785764445538256e-01
1.199418464916076621e-01
1.371093788782356271e-01
1.531135504291530336e-01
1.676206254750459146e-01
1.804262014614844423e-01
1.913567255410317802e-01
2.002386448662480944e-01
2.068984065896967706e-01
2.111624578639402505e-01
2.128572458415400048e-01
2.118092438299193081e-01
2.079332481269105526e-01
2.014295508156780379e-01
1.925560226072169090e-01
1.815705342125248090e-01
1.687309563425958281e-01
1.542951597084284421e-01
1.385210150210176017e-01
1.216664240106919842e-01
1.040107896171027779e-01
8.589255509161286550e-02
6.766020828632912654e-02
4.966223705336322847e-02
3.224712924482049659e-02
1.576337271281249078e-02
5.594553094460802400e-04
-1.301649240669017563e-02
-2.471164321308160286e-02
-3.449632082627947238e-02
-4.237274289886439060e-02
-4.834312708341964582e-02
-5.240969103252783590e-02
-5.457465239877060115e-02
-5.484022883473069210e-02
-5.320928378722128427e-02
-4.977246207730298688e-02
-4.479634099355743471e-02
-3.856849302180254124e-02
-3.137649064785490161e-02
-2.350790635753078131e-02
-1.525031263664859346e-02
-6.891281971023906217e-03
1.282206936873674487e-03
9.031307750988844599e-03
1.620002698331397817e-02
2.264055779518948236e-02
2.820509334795816628e-02
3.274582680296074522e-02
3.611495132153942633e-02
3.816466006503602126e-02
3.874930814304454463e-02
3.783864126787317428e-02
3.557347601973047391e-02
3.210847107720499194e-02
2.759828511888432617e-02
2.219757682335745871e-02
1.606100486921220247e-02
9.343227935036096249e-03
2.199195547133285002e-03
-5.205211610168423986e-03
-1.269012641016104004e-02
-2.007476816151143248e-02
-2.717835617288642813e-02
-3.382010975295096644e-02
-3.981924821037192974e-02
-4.499499085381594710e-02
-4.917058081973736672e-02
-5.228096847105184741e-02
-5.438462187803057291e-02
-5.554640251682012309e-02
-5.583117186356670314e-02
-5.530379139441654601e-02
-5.402912258551581526e-02
-5.207202691301096587e-02
-4.950053347940915061e-02
-4.644995743218499618e-02
-4.311994403094594752e-02
-3.971271460103170670e-02
-3.643049046778309985e-02
-3.347549295654006496e-02
-3.104994339264266837e-02
-2.935606310143158357e-02
-2.859082704392309701e-02
-2.886363957926453214e-02
-3.021153081606633636e-02
-3.266935842045219640e-02
-3.627198005854513629e-02
-4.105425339646875948e-02
-4.705103610034712391e-02
-5.429718583630258055e-02
-6.281767149248881910e-02
-7.250508276131754914e-02
-8.315752960182025422e-02
-9.457108443572398437e-02
-1.065418196847614657e-01
-1.188658077706634675e-01
-1.313391211151609117e-01
-1.437578321399868020e-01
-1.559185384583273992e-01
-1.676235660566418317e-01
-1.786787651766724994e-01
-1.888900375532310272e-01
-1.980632849211304836e-01
-2.060044090151793295e-01
-2.125193115701908553e-01
-2.174138943209766861e-01
-2.205106685798103594e-01
-2.217815671614184192e-01
-2.212775674264242654e-01
-2.190503656055926007e-01
-2.151516579296879061e-01
-2.096331406294746069e-01
-2.025465099357156296e-01
-1.939434620791780084e-01
-1.838900914712402745e-01
-1.725603275674337522e-01
-1.601769945000063311e-01
-1.469631593550446980e-01
-1.331418892186330971e-01
-1.189362511768632530e-01
-1.045693123158194793e-01
-9.026413972158853216e-02
-7.623058102441844508e-02
-6.259548315197165091e-02
-4.945355422267673495e-02
-3.689943239622897608e-02
-2.502775583232620671e-02
-1.393316269066619678e-02
-3.710291130945020562e-03
5.546220687135893467e-03
1.377879976543541773e-02
2.112592309512988098e-02
2.779064586099000422e-02
3.397606274313035024e-02
3.988526842166224828e-02
4.572135757670031664e-02
5.168742488835807725e-02
5.798656503674898266e-02
6.482972356923261126e-02
7.246293331893959022e-02
8.114202542626702819e-02
9.112283147481586854e-02
1.026611830481870408e-01
1.160129117299840695e-01
1.314338491038031520e-01
1.491798262600263769e-01
1.694280005649651810e-01
1.920580719041503071e-01
2.168794515572468329e-01
2.437015508039247491e-01
2.723337809238396412e-01
3.025855531966610834e-01
3.342662789020541259e-01
3.671853353038631584e-01
4.010502376669889957e-01
4.352422753514977316e-01
4.690775653687416780e-01
5.018722247300675399e-01
5.329423704468220224e-01
5.616041195303567157e-01
5.871735889920076668e-01
6.089670157914810478e-01
6.263785426263575040e-01
6.390143059387107805e-01
6.465161621356271260e-01
6.485259676241890148e-01
6.446855788114835839e-01
6.346368521045961941e-01
6.180216439106119841e-01
5.944829341416313362e-01
5.639505791990512273e-01
5.270202421509192492e-01
4.843818044655570088e-01
4.367251476112863351e-01
3.847401530564189542e-01
3.291167022692952360e-01
2.705446767182279610e-01
2.097147134488371034e-01
1.474168708678218198e-01
8.463875620343935813e-02
2.239130854687068975e-02
-3.831453301067001826e-02
-9.646782937800192637e-02
-1.510576414639330511e-01
-2.010730301772716000e-01
-2.455080271898203714e-01
-2.837493642647049286e-01
-3.158540556111933406e-01
-3.419446274294462573e-01
-3.621436059196242452e-01
-3.765735172818901466e-01
-3.853568877163995321e-01
-3.886162434233161878e-01
-3.864815209763297621e-01
-3.794698532485645814e-01
-3.686676485515673618e-01
-3.552068458366067771e-01
-3.402193840549457837e-01
-3.248372021578490587e-01
-3.101922390965813348e-01
-2.974164338224051796e-01
-2.876324390720201851e-01
-2.816201721818801240e-01
-2.797246132301142718e-01
-2.822626869795809568e-01
-2.895513181931403390e-01
-3.019074316336480268e-01
-3.196479520639634586e-01
-3.430898042469449072e-01
-3.725240183629847657e-01
-4.075340777820676830e-01
-4.469274835313286065e-01
-4.894721183648130802e-01
-5.339358650365877423e-01
-5.790866063007119591e-01
-6.236922249112459848e-01
-6.665206036222569574e-01
-7.063433707994676292e-01
-7.420105979254791873e-01
-7.724467432982995430e-01
-7.965791988503260201e-01
-8.133353565139582741e-01
-8.216426082215875226e-01
-8.204283459056150862e-01
-8.086199614984380668e-01
-7.852037353116464447e-01
-7.501363065537913766e-01
-7.041697298350857448e-01
-6.480795253906830311e-01
-5.826412134557421574e-01
-5.086303142654216014e-01
-4.268223480548654636e-01
-3.379928350592616426e-01
-2.429584877074104921e-01
-1.430809330683524838e-01
-4.010749710917786703e-02
6.420634202978521554e-02
1.681051062082269953e-01
2.698333172857820816e-01
3.676354971221411083e-01
4.597561675769757383e-01
5.445054172382188806e-01
6.209005789158137389e-01
6.883904580162643061e-01
7.464300142385631442e-01
7.944742072816886047e-01
8.319779968446187057e-01
8.583963426263351293e-01
8.731842043258063457e-01
8.759120844285024354e-01
8.671790421508680513e-01
8.481236031483844195e-01
8.198890545596598800e-01
7.836186835233194259e-01
7.404557771779729514e-01
6.915436226622349025e-01
6.380255071147200585e-01
5.810474153525074792e-01
5.217753339852886363e-01
4.613842396934138557e-01
4.010491521062630738e-01
3.419450908532165601e-01
2.852470755636448141e-01
2.321301258669481449e-01
1.837692613924966079e-01
1.412035802329787149e-01
1.046270481554742310e-01
7.390931261448682732e-02
4.891935371357647444e-02
2.952615155631587579e-02
1.559868624626394029e-02
7.005937886984505217e-03
3.616886582041510187e-03
5.209937533345246861e-03
1.108895777747089841e-02
2.040293374437355048e-02
3.230076570062111185e-02
4.593135391278145574e-02
6.044359864742510080e-02
7.498640017111464495e-02
8.870865875042049931e-02
1.008468619038927760e-01
1.110252767993502310e-01
1.189754517878308382e-01
1.244289389746289221e-01
1.271172904650432756e-01
1.267720583643712207e-01
1.231247947779098295e-01
1.159070531418594369e-01
1.049853099414153196e-01
9.073140994229518530e-02
7.363549822702727954e-02
5.418771987813988944e-02
3.287821997815733310e-02
1.019714360961552699e-02
-1.336536414496092284e-02
-3.731916656742814697e-02
-6.119645552829032498e-02
-8.460027491290059154e-02
-1.071476895478696012e-01
-1.284557642597960458e-01
-1.481415638752907049e-01
-1.658221532209603888e-01
-1.811145971234117691e-01
-1.936361921748269432e-01
-2.031455230474574214e-01
-2.097821808096894669e-01
-2.137493362169919642e-01
-2.152501600248338809e-01
-2.144878229886836851e-01
-2.116654958640106776e-01
-2.069863494062836873e-01
-2.006537152188300477e-01
-1.929102731658491054e-01
-1.840892235221465723e-01
-1.745364490300590210e-01
-1.645978324319184727e-01
-1.546192564700583916e-01
-1.449466038868122697e-01
-1.359257574245119615e-01
-1.279016735962381912e-01
-1.211012726925533994e-01
-1.155189520705676709e-01
-1.111219302956531485e-01
-1.078774259331813645e-01
-1.057526575485255721e-01
-1.047148437070571370e-01
-1.047312029741481465e-01
-1.057678691573078616e-01
-1.077074293210174283e-01
-1.102910681374595497e-01
-1.132463002756866899e-01
-1.163006404047526032e-01
-1.191816031937106835e-01
-1.216167033116142965e-01
-1.233334554275170442e-01
-1.240610889657576682e-01
-1.236165633456263874e-01
-1.219447548412817967e-01
-1.190006519046361982e-01
-1.147392429876010200e-01
-1.091155165420900214e-01
-1.020844610200148939e-01
-9.360106487328795355e-02
-8.362394432827463531e-02
-7.224322111497442911e-02
-5.971453292610455488e-02
-4.630406033706514768e-02
-3.227798392325822996e-02
-1.790248426008581029e-02
-3.443741922947387082e-03
1.083206251274984946e-02
2.465980571232424812e-02
3.780280054632081943e-02
5.005529257539702293e-02
6.121308500652930529e-02
7.107198104668825678e-02
7.942778390285057388e-02
8.607629678199078815e-02
9.081332289108352829e-02
9.344287654392015308e-02
9.393852701563898400e-02
9.243332241600075994e-02
8.906650436471928722e-02
8.397731448150810851e-02
7.730499438608075258e-02
6.918878569814923551e-02
5.976793003742997268e-02
4.918693480106037241e-02
3.767597084515302008e-02
2.553485429309311147e-02
1.306542030917599330e-02
5.695040577037126586e-04
-1.165105929702835337e-02
-2.329443459072260900e-02
-3.405878665908150527e-02
-4.365143736105166206e-02
-5.189941720814131298e-02
-5.871378856755843367e-02
-6.400735419465206077e-02
-6.769291684477125870e-02
-6.968327927326523064e-02
-6.989124423548233322e-02
-6.822961448677210272e-02
-6.462718976775297386e-02
-5.918342233724434298e-02
-5.210100273272512406e-02
-4.358405860976216628e-02
-3.383671762391857185e-02
-2.306310743075859829e-02
-1.146735568584651525e-02
7.464099552534318727e-04
1.337382725303176527e-02
2.620846750724836749e-02
3.904282744376644243e-02
5.166939458745624381e-02
6.388065646318802360e-02
7.546910059583401831e-02
8.622721451026035822e-02
9.594748573133937697e-02
1.044428019354589621e-01
1.116757942633861828e-01
1.176758097775412598e-01
1.224725017700010743e-01
1.260955235328457547e-01
1.285745283581543053e-01
1.299391695380057166e-01
1.302191003644788403e-01
1.294578128516474524e-01
1.277840122734081596e-01
1.253588115381940593e-01
1.223433865067751619e-01
1.188989130399206451e-01
1.151865669984016571e-01
1.113675242429875423e-01
1.076029606344481443e-01
1.040380815243347606e-01
1.007352125320947062e-01
9.772987671573002411e-02
9.505758361905040921e-02
9.275384278586383535e-02
9.085416375997890093e-02
8.939405608520423208e-02
8.840902930534824677e-02
8.790913791978978431e-02
8.779279344292553744e-02
8.792780857109409876e-02
8.818199519330763292e-02
8.842316519857830459e-02
8.851913047591811190e-02
8.833770291433924726e-02
8.774669452081350352e-02
8.662200219638324650e-02
8.486952307516613947e-02
8.240211125083464483e-02
7.913262081706042006e-02
7.497390586751534469e-02
6.983882049587131213e-02
6.364021879579899454e-02
5.629097357568617344e-02
4.774870945020863455e-02
3.811174991502161435e-02
2.750599833634045921e-02
1.605735808037842688e-02
3.891732513354979796e-03
-8.864974998516496341e-03
-2.208686108902062697e-02
-3.564798119098547269e-02
-4.939877795803464255e-02
-6.312659071000646660e-02
-7.660833005609611612e-02
-8.962090660550610377e-02
-1.019412309674364858e-01
-1.133462137510874018e-01
-1.236127655656606011e-01
-1.325180100694348106e-01
-1.398890423184283027e-01
-1.456669076663019424e-01
-1.498084578923472576e-01
-1.522705447758559427e-01
-1.530100200961185819e-01
-1.519837356324272026e-01
-1.491485431640732218e-01
-1.444619677857243711e-01
-1.379646744449034845e-01
-1.298597034325415789e-01
-1.203688779114755608e-01
-1.097140210445434055e-01
-9.811695599458304662e-02
-8.579950592443015556e-02
-7.298349399692710682e-02
-5.989082362916388347e-02
-4.674942592439218503e-02
-3.379734805933656827e-02
-2.127360450185760907e-02
-9.417209719822574113e-03
1.532821818908077817e-03
1.133747564647160505e-02
1.975773729500525031e-02
2.655670750857783494e-02
3.160347140944332056e-02
3.492036842214393810e-02
3.654171213273031682e-02
3.650181612725199309e-02
3.483499399175854494e-02
3.157555931229882873e-02
2.675782567492356392e-02
2.041888414280232725e-02
1.269472664515516706e-02
3.844805046099697594e-03
-5.863663628015717416e-03
-1.616346235083744240e-02
-2.678737409601698524e-02
-3.746818183720421191e-02
-4.793866854804897104e-02
-5.793341996849786513e-02
-6.723475663117510492e-02
-7.567650189961032392e-02
-8.309503687520816695e-02
-8.932674265937330660e-02
-9.420800035351109547e-02
-9.757519105902445755e-02
-9.926469587731903688e-02
-9.912047923131105109e-02
-9.714091721208306662e-02
-9.346843935300951089e-02
-8.825098373204547098e-02
-8.163648842714418818e-02
-7.377289151625940344e-02
-6.480813107734485767e-02
-5.489014518835430567e-02
-4.417049209662946008e-02
-3.285887598178892366e-02
-2.121188756721650859e-02
-9.487453118291045220e-03
2.056501099608653432e-03
1.316204882110568603e-02
2.357126378081722193e-02
3.302621971336650031e-02
4.127973212969270056e-02
4.822339623483656856e-02
5.384542127734717742e-02
5.813597687134734737e-02
6.108523263096292399e-02
6.268335817031869817e-02
6.292052310353948852e-02
6.178689704474969735e-02
5.928769219937880808e-02
5.558682995572571117e-02
5.094343911885391984e-02
4.561794158739773675e-02
3.987075925999042370e-02
3.396231403526837889e-02
2.815302781186491271e-02
2.270332248841433476e-02
1.786625583533876446e-02
1.383068991190260742e-02
1.075239015788428953e-02
8.786847211708742958e-03
8.089551711801694356e-03
8.815994296588872126e-03
1.112166560449600293e-02
1.516205627394969120e-02
2.106077392263102505e-02
2.870973000077256879e-02
3.789851072163834267e-02
4.841625135956954817e-02
6.005208718890960029e-02
7.259515348399554757e-02
8.583458551917055868e-02
9.955951856877590100e-02
1.135469513336137826e-01
1.274998728553301264e-01
1.410933778023069907e-01
1.540025097634004358e-01
1.659023123274641354e-01
1.764678290833518182e-01
1.853741036199184899e-01
1.922961795260146600e-01
1.969514359061184106e-01
1.992748747365141737e-01
1.992712296336573707e-01
1.969452659561679586e-01
1.923017490626671988e-01
1.853454443117755202e-01
1.760811170621134347e-01
1.645135326723014546e-01
1.506991363387325811e-01
1.349189131692411503e-01
1.175148158618411903e-01
9.882879828989230009e-02
7.920281432675420341e-02
5.897881784578655473e-02
3.849876272034542801e-02
1.810460242820929183e-02
-1.880926742103206789e-03
-2.120573174966490504e-02
-3.963394816334206427e-02
-5.692971155200386713e-02
-7.285715748451040974e-02
-8.718042152973110026e-02
-9.966363925653219658e-02
-1.100709828811790580e-01
-1.182454767343763674e-01
-1.242757783689554113e-01
-1.282982391174740389e-01
-1.304492103124883506e-01
-1.308650432865545721e-01
-1.296820893722285262e-01
-1.270366999020668686e-01
-1.230652806369755131e-01
-1.179336082466632823e-01
-1.118852462829000305e-01
-1.051764895395548571e-01
-9.806363281050049785e-02
-9.080297088960614937e-02
-8.365079857074210479e-02
-7.686341064777876819e-02
-7.069680287052633461e-02
-6.533966738395623197e-02
-6.082856787463997161e-02
-5.717917599238540871e-02
-5.440716338700138377e-02
-5.252820170829672342e-02
-5.155796260608019876e-02
-5.151211773016102502e-02
-5.240580069391904960e-02
-5.418974465821159436e-02
-5.668998330607979974e-02
-5.971827545251806590e-02
-6.308637991251918320e-02
-6.660605550107748241e-02
-7.008906103318683634e-02
-7.334715532384110392e-02
-7.619264929328947722e-02
-7.847830348966965130e-02
-8.012419374024302987e-02
-8.105676201693434724e-02
-8.120245029166836548e-02
-8.048770053636959687e-02
-7.883895472296306717e-02
-7.618265482337349681e-02
-7.244704406501675797e-02
-6.764877351126268035e-02
-6.193127558459111948e-02
-5.544777271354446591e-02
-4.835148732666207094e-02
-4.079564185248424346e-02
-3.293345871955129234e-02
-2.491816035640354379e-02
-1.690292157811839474e-02
-9.039251538166766242e-03
-1.476597125609804308e-03
5.635722840519620178e-03
1.214838954118863112e-02
1.791208415736531001e-02
2.277748787001469821e-02
2.659528186010503767e-02
2.922014100000677739e-02
3.061085522936248318e-02
3.083763373355851573e-02
2.997614233070443335e-02
2.810204683891000949e-02
2.529101307628486839e-02
2.161870686093862737e-02
1.716079401098007107e-02
1.199622931373700747e-02
6.270010574345126486e-03
1.882468101104925635e-04
-6.040652216429352392e-03
-1.220827674273794114e-02
-1.810621700627550179e-02
-2.352606324450561351e-02
-2.825940569489071227e-02
-3.210235077818830718e-02
-3.492262683796300282e-02
-3.664524263305868335e-02
-3.719680983806893104e-02
-3.650394012758673146e-02
-3.449324517620505626e-02
-3.109133665851690834e-02
-2.622482624911421853e-02
-1.983044297790609659e-02
-1.197410205192726493e-02
-2.810910220454754076e-03
7.502253084566992691e-03
1.880850843119561897e-02
3.095097638748266211e-02
4.377277752148557577e-02
5.711703240125992620e-02
7.082410248087642191e-02
8.470555734720230934e-02
9.855583981160599694e-02
1.121691657929140967e-01
1.253397512099508893e-01
1.378618119815404885e-01
1.495295640265091319e-01
1.601372232636768256e-01
1.694915145143407187e-01
1.775070751236642042e-01
1.841537010644106465e-01
1.894016322215536785e-01
1.932211084800644074e-01
1.955823697249168269e-01
1.964556558410838205e-01
1.958112067135383272e-01
1.936349729984431778e-01
1.900259397914239035e-01
1.851325747107329389e-01
1.791035545849198329e-01
1.720875562425343841e-01
1.642332565121262800e-01
1.556893322222435982e-01
1.466044602014391351e-01
1.371240154673202816e-01
1.273734327302954161e-01
1.174706986476807963e-01
1.075337870388862471e-01
9.768067172332695058e-02
8.802932652041277339e-02
7.869772524955533088e-02
6.980384173016625227e-02
6.144258743568617454e-02
5.359144441154260752e-02
4.619061305867608325e-02
3.918027852106882591e-02
3.250062594270300420e-02
2.609184046755973554e-02
1.989410723962344724e-02
1.384761140287519426e-02
7.883301628091598373e-03
1.892371323580942536e-03
-4.244679856082278317e-03
-1.064735240119670662e-02
-1.743514680206422959e-02
-2.472756354898564962e-02
-3.264410313226176474e-02
-4.130426515296412027e-02
-5.079577046879411861e-02
-6.109060879402491984e-02
-7.213443228703471377e-02
-8.387289310620167637e-02
-9.625164340990396972e-02
-1.092163353565221567e-01
-1.227126211044297782e-01
-1.366861330531023988e-01
-1.510440908898250389e-01
-1.655751518841510617e-01
-1.800451703553137828e-01
-1.942200006225387188e-01
-2.078654970050590745e-01
-2.207475138221055844e-01
-2.326319053929089553e-01
-2.432845789629493882e-01
-2.524983729054559589e-01
-2.601368114686302691e-01
-2.660748760588386164e-01
-2.701875480824473263e-01
-2.723498089458229465e-01
-2.724366400553309142e-01
-2.703230228173381655e-01
-2.658843544373797885e-01
-2.590858922157843192e-01
-2.500942298693992760e-01
-2.391033349559903154e-01
-2.263071750333178478e-01
-2.118997176591442544e-01
-1.960749303912315555e-01
-1.790267807873419659e-01
-1.609495190277119570e-01
-1.420702016462365436e-01
-1.226788652357953396e-01
-1.030726808948686790e-01
-8.354881972193674289e-02
-6.440445281547639567e-02
-4.593675127397474356e-02
-2.844288619590848791e-02
-1.221854914480054177e-02
2.546335131264474815e-03
1.583637986183255783e-02
2.765252332258848547e-02
3.799570378922421943e-02
4.686685953742927846e-02
5.426692884289315011e-02
6.019684998130622744e-02
6.465996279602533037e-02
6.777509105882539853e-02
6.982529993884212249e-02
7.110618845896733708e-02
7.191335564209296038e-02
7.254240051111056353e-02
7.328892208891214788e-02
7.444851939838950661e-02
7.631455415697199762e-02
7.910348387172470852e-02
8.293732933406011698e-02
8.793232110287445280e-02
9.420468973706358495e-02
1.018706657955233408e-01
1.110464798371496309e-01
1.218483624208403088e-01
1.343843658794654228e-01
1.485526067227618541e-01
1.640283660259014009e-01
1.804761638395246948e-01
1.975605202142753924e-01
2.149459552007879914e-01
2.322969888497060931e-01
2.492781412116702455e-01
2.655525953439114017e-01
2.807570568072524919e-01
2.945039303499038530e-01
3.064047200679784755e-01
3.160709300575865743e-01
3.231140644148383090e-01
3.271456272358443385e-01
3.277771226167131013e-01
3.246376084304665732e-01
3.176310301888832788e-01
3.068793778620807489e-01
2.925106349562328623e-01
2.746527849775214358e-01
2.534338114321208479e-01
2.289816978262078084e-01
2.014244276659589994e-01
1.709095614660147699e-01
1.378317268484287039e-01
1.027547174688146492e-01
6.624561963008319954e-02
2.887151963514491756e-02
-8.800496213089592512e-03
-4.620334161171638088e-02
-8.276993025781151370e-02
-1.179458440026310145e-01
-1.513074172057207178e-01
-1.825081081604232880e-01
-2.112023714700403121e-01
-2.370446617378583198e-01
-2.596894335671793286e-01
-2.787911415612999710e-01
-2.940042403235170188e-01
-3.050244300147316179e-01
-3.118995462579314260e-01
-3.148558723089250888e-01
-3.141210828145194478e-01
-3.099228524215212888e-01
-3.024888557767357322e-01
-2.920467675269725061e-01
-2.788242623190372305e-01
-2.630646327727020894e-01
-2.451224216728697947e-01
-2.254004458466913607e-01
-2.043017177845274368e-01
-1.822292499767280138e-01
-1.595860549136466355e-01
-1.367751450856367346e-01
-1.141995329830477607e-01
-9.222580647289341238e-02
-7.100269813369684824e-02
-5.059829944882239527e-02
-3.108057126850452892e-02
-1.251747444297774889e-02
5.023030177526521638e-03
2.147298174276752666e-02
3.676441940251400087e-02
5.085859653812013770e-02
6.386411486874424281e-02
7.593592631215524691e-02
8.722899976141161582e-02
9.789830410957826856e-02
1.080988082497178759e-01
1.179854810748931782e-01
1.277132914781685391e-01
1.374020899459961753e-01
1.470219860850172366e-01
1.565031866427630813e-01
1.657758980052765063e-01
1.747703265586018906e-01
1.834166786887786449e-01
1.916451607818512592e-01
1.993859778995267229e-01
2.065334531531704820e-01
2.128524528926190318e-01
2.180786582360877690e-01
2.219477503017956987e-01
2.241954102079604660e-01
2.245573190727998547e-01
2.227691580145310102e-01
2.185666446474114066e-01
2.117498498375401106e-01
2.023156537367659658e-01
1.902984299206589014e-01
1.757325519647887635e-01
1.586523934447222062e-01
1.390923279360351539e-01
1.170867290142947742e-01
9.267018763366265122e-02
6.598174315483912311e-02
3.743212539366097547e-02
7.475674771707772198e-03
-2.343326828945607385e-02
-5.484036336826117464e-02
-8.629127004313819072e-02
-1.173316478925231915e-01
-1.475072965941004732e-01
-1.763931101032587545e-01
-2.036286000746557467e-01
-2.288619757502204088e-01
-2.517414463718857243e-01
-2.719152211815726305e-01
-2.890315094212144720e-01
-3.027385203327403462e-01
-3.126859684225500313e-01
-3.186930880998306570e-01
-3.209017696922022989e-01
-3.194900729362750713e-01
-3.146360575686567573e-01
-3.065177833259608575e-01
-2.953133099447965981e-01
-2.812006971617737605e-01
-2.643594425068115927e-01
-2.450693596910053507e-01
-2.237744183091040784e-01
-2.009337726597659468e-01
-1.770065770416492656e-01
-1.524519857534123723e-01
-1.277291530937048336e-01
-1.032972333612025423e-01
-7.961320404479722834e-02
-5.703146783611405535e-02
-3.576175000971179574e-02
-1.600286505038688717e-02
2.046372557064298631e-03
1.818714832784534829e-02
3.222064777715984152e-02
4.394805642021143433e-02
5.317587832793851943e-02
5.989027522297242501e-02
6.429622084610457644e-02
6.661193391387720819e-02
6.705563314282972365e-02
6.584553724950158171e-02
6.319986495043213026e-02
5.933683496216081432e-02
5.447638067732164802e-02
4.888178079538176013e-02
4.286194830506606657e-02
3.672796904775912918e-02
3.079092886485204628e-02
2.536191359772932072e-02
2.075200908777765849e-02
1.727230117638373780e-02
1.522655194555494647e-02
1.477547084429462441e-02
1.594954393298278830e-02
1.877450646489660022e-02
2.327609369331319622e-02
2.948004087151225375e-02
3.741208325276650093e-02
4.709795609035501152e-02
5.855243294041610758e-02
7.162077610822979723e-02
8.601489074040818972e-02
1.014430817957254621e-01
1.176136542329558887e-01
1.342349130108737021e-01
1.510151630882532181e-01
1.676627094238686277e-01
1.838867224209210505e-01
1.994071680975740557e-01
2.139513429701842551e-01
2.272466832571434503e-01
2.390206251768433043e-01
2.490006049476756744e-01
2.569140587880323068e-01
2.624884229163048643e-01
2.654712226664572849e-01
2.658150757357732319e-01
2.635925547987882367e-01
2.588777431547127916e-01
2.517447241027555571e-01
2.422675809421253879e-01
2.305203969720312773e-01
2.165772554916821357e-01
2.005311758804494693e-01
1.826351754564377594e-01
1.632226556545921803e-01
1.426276248759253407e-01
1.211840915214421888e-01
9.922606399217062667e-02
7.708755068911585240e-02
5.510256001329051634e-02
3.359248414754992945e-02
1.278973851961396485e-02
-7.111531253462644031e-03
-2.591732813875785232e-02
-4.343365510334962210e-02
-5.946651511431591541e-02
-7.382191113873466659e-02
-8.630584614368794205e-02
-9.675993456280644611e-02
-1.052367324168848733e-01
-1.118661746355205655e-01
-1.167783137616269368e-01
-1.201032023381173319e-01
-1.219708929079051790e-01
-1.225114380139038645e-01
-1.218548901990268163e-01
-1.201414179525664844e-01
-1.175617300848036950e-01
-1.143222871322600726e-01
-1.106295547689094272e-01
-1.066899986687263463e-01
-1.027100845056854034e-01
-9.889627795376119967e-02
-9.545504468692828093e-02
-9.255958841101265266e-02
-9.024261436255333335e-02
-8.849973737642213845e-02
-8.732657207706254199e-02
-8.671873308891914212e-02
-8.667183503643512144e-02
-8.718149254405431481e-02
-8.824331892064866956e-02
-8.982522326147954206e-02
-9.179609251760799393e-02
-9.400269887203858976e-02
-9.629181450777594964e-02
-9.851021160782469366e-02
-1.005046623551894697e-01
-1.021219389328753141e-01
-1.032088294993745575e-01
-1.036377639304654069e-01
-1.033588737051117229e-01
-1.023369525663760798e-01
-1.005367942573210244e-01
-9.792319252100906146e-02
-9.446094110050275161e-02
-9.011483373886461368e-02
-8.484976938125841917e-02
-7.867844333797804901e-02
-7.173676695967273753e-02
-6.418023787492713184e-02
-5.616435371232790519e-02
-4.784461210046170310e-02
-3.937651066791519883e-02
-3.091554704327506911e-02
-2.261718533347866975e-02
-1.463019567214482106e-02
-7.088610773797063280e-03
-1.244995709196914345e-04
6.130069003995639899e-03
1.154302601846485948e-02
1.598230254000130093e-02
1.931582963611830697e-02
2.141218652380175516e-02
2.221079877990036339e-02
2.178478684759862713e-02
2.022210129717346566e-02
1.761069269890180866e-02
1.403851162306057540e-02
9.593508639924964304e-03
4.363634319775087402e-03
-1.562517763600581450e-03
-8.052556023720399553e-03
-1.490301854544923837e-02
-2.190394201006690134e-02
-2.884536309885321961e-02
-3.551731849308800704e-02
-4.170984487405107743e-02
-4.721297892302223076e-02
-5.181800038738233749e-02
-5.537359914168463182e-02
-5.780877144696672243e-02
-5.905849819952178892e-02
-5.905776029564302476e-02
-5.774153863162365119e-02
-5.504481410375684780e-02
-5.090256760833578031e-02
-4.525273717736696955e-02
-3.813143761937667908e-02
-2.969337983138910578e-02
-2.010036147055570266e-02
-9.514180194019091277e-03
1.903366341075332126e-03
1.399048047758216437e-02
2.658536455835601095e-02
3.952572165080933675e-02
5.263682467649385965e-02
6.573096647833348571e-02
7.861983057263530195e-02
9.111510047570635373e-02
1.030284597038578082e-01
1.141715917733882174e-01
1.243561802006089984e-01
1.333987236294026935e-01
1.412084926809870356e-01
1.477785221900618229e-01
1.531048546724271542e-01
1.571835326438830449e-01
1.600105986202295660e-01
1.615820951172666220e-01
1.618940646507942005e-01
1.609476835855367938e-01
1.588225299739052798e-01
1.556593562264354247e-01
1.516005365081586898e-01
1.467884449841067307e-01
1.413654558193110922e-01
1.354739431788032078e-01
1.292562812276147610e-01
1.228518173859979717e-01
1.163625789252185211e-01
1.098654618406190719e-01
1.034368932798716417e-01
9.715330039065063483e-02
9.109111032063044178e-02
8.532675021748538369e-02
7.993664722888986496e-02
7.498803672634615780e-02
7.045533113490534682e-02
6.625910970542460421e-02
6.231929100950732436e-02
5.855579361875559719e-02
5.488853610477552325e-02
5.123743703916915082e-02
4.752241499353991594e-02
4.366394836201498153e-02
3.958719696278729938e-02
3.521965237502588941e-02
3.048882322024754413e-02
2.532221811996904909e-02
1.964734569570717251e-02
1.339171456897637544e-02
6.482833361297847888e-03
-1.134878449232384554e-03
-9.398916895963704485e-03
-1.819643558838719005e-02
-2.741440106130035859e-02
-3.693977984950072568e-02
-4.665953848778582602e-02
-5.646064351095313183e-02
-6.623006145380021248e-02
-7.584710628107514674e-02
-8.514619832489141171e-02
-9.394543822646549136e-02
-1.020629033922178380e-01
-1.093166712285688763e-01
-1.155248191419390863e-01
-1.205054245387488926e-01
-1.240765648254188308e-01
-1.260857235511017027e-01
-1.265259145891315939e-01
-1.254350907821096817e-01
-1.228512179555351497e-01
-1.188122619349102904e-01
-1.133561885457348845e-01
-1.065209636135093368e-01
-9.834455296373406652e-02
-8.890226526732475376e-02
-7.842566995585949219e-02
-6.718720269754978325e-02
-5.545929929324106000e-02
-4.351439554377881103e-02
-3.162492725000431992e-02
-2.006333021277160317e-02
-9.102038956638098394e-03
1.007842261473304926e-03
1.009073986788737790e-02
1.798779055914762059e-02
2.454013103179752964e-02
2.958889798238060684e-02
3.297522810744035748e-02
3.454025810352027992e-02
3.412517637074275606e-02
3.164696507127044700e-02
2.725018367516196527e-02
2.112192773019616263e-02
1.344929278415187349e-02
4.419374384807932266e-03
-5.780731920056812745e-03
-1.696393058266354101e-02
-2.894306524134565919e-02
-4.150482075414184402e-02
-5.436904835095740518e-02
-6.724507867547097062e-02
-7.984224237134736335e-02
-9.186987008226528417e-02
-1.030372924518988126e-01
-1.130538401239220836e-01
-1.216292654251594219e-01
-1.285543459797770516e-01
-1.337966897198260285e-01
-1.373472307547012050e-01
-1.391969031937971835e-01
-1.393366411465083721e-01
-1.377573787222294566e-01
-1.344500500303554835e-01
-1.294063673104238477e-01
-1.227006280348837547e-01
-1.145616487872232192e-01
-1.052352062317244569e-01
-9.496707703266976663e-02
-8.400303785434130865e-02
-7.258886536102129861e-02
-6.097033621699200767e-02
-4.939254814802937488e-02
-3.805543911256444034e-02
-2.708628002029035697e-02
-1.660576810116677279e-02
-6.734600585153315000e-03
2.406525297790393109e-03
1.069691231770470916e-02
1.801586324463001418e-02
2.424510651680976056e-02
2.937618992271915849e-02
3.355301192585451175e-02
3.693068969015489422e-02
3.966434037956390046e-02
4.190908115802349787e-02
4.382002918947565384e-02
4.555230163786233577e-02
4.726080839470964134e-02
4.909369506691045604e-02
5.119100285883650125e-02
5.369229493088964467e-02
5.673713444347290580e-02
6.046508455698601514e-02
6.501570843183175630e-02
7.052856922841201082e-02
7.713782077514880209e-02
8.484496957715377541e-02
9.351413319171825167e-02
1.030030711525221770e-01
1.131695429932455393e-01
1.238713082475682709e-01
1.349661264491703316e-01
1.463117571317357479e-01
1.577629841060105842e-01
1.691180348381018661e-01
1.801244877974280678e-01
1.905281317092816784e-01
2.000747552989551592e-01
2.085101472917409160e-01
2.155800964129314656e-01
2.210303913878192139e-01
2.246154854364969533e-01
2.262205127367408752e-01
2.258317376289427081e-01
2.234380567706559795e-01
2.190283668194331901e-01
2.125915644328270071e-01
2.041165462683899590e-01
1.935922089836746018e-01
1.810208226320953739e-01
1.665676574559021572e-01
1.505068369691541785e-01
1.331144722246244139e-01
1.146666742751048518e-01
9.543955417336896785e-02
7.570922297219620511e-02
5.575179172436603436e-02
3.584212516107457280e-02
1.624263804388635310e-02
-2.791414402815970558e-03
-2.100486255870297886e-02
-3.814253680344520392e-02
-5.394926751671326459e-02
-6.816988507818241838e-02
-8.054921986751306662e-02
-9.085384341075415648e-02
-9.903026601384491701e-02
-1.051138518481031792e-01
-1.091405933784316551e-01
-1.111464830697331541e-01
-1.111675133869102911e-01
-1.092396767948658337e-01
-1.053989657585025497e-01
-9.970296060756746181e-02
-9.235849538556595295e-02
-8.363547411465065140e-02
-7.380402494683321879e-02
-6.313427603412530287e-02
-5.189635552853862077e-02
-4.036039158208484801e-02
-2.879651234677566354e-02
-1.746775986631995611e-02
-6.596004756418548387e-03
3.611713851936062831e-03
1.294837657115934307e-02
2.120696401367782799e-02
2.818045679191430106e-02
3.366183551829151493e-02
3.744408080523227433e-02
3.935859814803395473e-02
3.942516448454114197e-02
3.772118824587319952e-02
3.432409252536923472e-02
2.931130041636839656e-02
2.276023501220722847e-02
1.474831940622953370e-02
5.352976691772407328e-03
-5.318692930553555950e-03
-1.703656701755279848e-02
-2.953865020874023653e-02
-4.256294709182702196e-02
-5.584746225452430490e-02
-6.913020028454318344e-02
-8.214916576959484240e-02
-9.464236540493349559e-02
-1.063762609521711200e-01
-1.172171371002092982e-01
-1.270531560816704764e-01
-1.357724801291771144e-01
-1.432632714753517000e-01
-1.494136923528166794e-01
-1.541119049941945818e-01
-1.572461216532883288e-01
-1.587717352891611644e-01
-1.588440134420399386e-01
-1.576552268469365581e-01
-1.553976462388632629e-01
-1.522635423528319321e-01
-1.484451859238545002e-01
-1.441348476869429018e-01
-1.395248031079397988e-01
-1.348092566510173673e-01
-1.301872972782024129e-01
-1.258587753609017035e-01
-1.220235412705219374e-01
-1.188814453784689112e-01
-1.166323380561516687e-01
-1.154760696749756871e-01
-1.156119229265677451e-01
-1.171341553204019031e-01
-1.199098113734542448e-01
-1.237762650690028138e-01
-1.285708903903256539e-01
-1.341310613207007951e-01
-1.402941518434063783e-01
-1.468975359417227511e-01
-1.537780167487199368e-01
-1.607135470518766263e-01
-1.673729065119214376e-01
-1.734130180836689905e-01
-1.784908047219341265e-01
-1.822631893815314097e-01
-1.843870950172755430e-01
-1.845194445839812292e-01
-1.823193178303957607e-01
-1.775859213483135246e-01
-1.703420569253177863e-01
-1.606305281336920798e-01
-1.484941385457210217e-01
-1.339756917336892561e-01
-1.171179912698815245e-01
-9.796384072658245734e-02
-7.655975834809991554e-02
-5.311715405805306212e-02
-2.807430438623129479e-02
-1.885992453959427738e-03
2.499299861744734563e-02
5.210788570664495745e-02
7.900388569231804603e-02
1.052262154531418137e-01
1.303239714018169237e-01
1.539707183643008459e-01
1.759879310323266555e-01
1.962056957234787069e-01
2.144540987553413824e-01
2.305632264454990088e-01
2.443631651115404646e-01
2.556840010710403344e-01
2.643672252625766661e-01
2.705298128159643878e-01
2.745717493006641918e-01
2.769059304996226989e-01
2.779452521957868072e-01
2.781026101721032484e-01
2.777909002115188652e-01
2.774230180969803894e-01
2.774076261101389163e-01
2.780740084720420002e-01
2.796809416306702545e-01
2.824847504030612577e-01
2.867417596062529217e-01
2.927082940572828251e-01
3.006406785731887688e-01
3.107952379710083868e-01
3.234004979864635865e-01
3.382708788322746907e-01
3.549029655669740935e-01
3.727852217716697281e-01
3.914061110274498212e-01
4.102540969154217509e-01
4.288176430166868447e-01
4.465852129123463188e-01
4.630408248923018055e-01
4.776149367413488056e-01
4.897025349251684090e-01
4.986979721631568108e-01
5.039956011747097619e-01
5.049897746792230135e-01
5.010748453960919280e-01
4.916451660447133665e-01
4.761507742480268757e-01
4.545919736813572865e-01
4.272828351952172032e-01
3.945410834735255112e-01
3.566844432002010956e-01
3.140306390591630081e-01
2.668973957343299674e-01
2.156024379096019572e-01
1.605134366769620236e-01
1.024072036808551522e-01
4.226084314842144807e-02
-1.894717114997105517e-02
-8.023836544395436532e-02
-1.406342659631604486e-01
-1.991563989372213683e-01
-2.548262905957690561e-01
-3.067202727411194041e-01
-3.542898544817987272e-01
-3.971436843292490138e-01
-4.348909443459579860e-01
-4.671408165944603841e-01
-4.935024831372744059e-01
-5.135851260369186377e-01
-5.269979273559113331e-01
-5.334740738352624634e-01
-5.334603317850081794e-01
-5.276582017837727623e-01
-5.167695008657789968e-01
-5.014960460652442276e-01
-4.825396544164027302e-01
-4.606021429534728484e-01
-4.363853287106778667e-01
-4.106136234342799840e-01
-3.841211623007473319e-01
-3.577753399497333175e-01
-3.324435584248961462e-01
-3.089932197698940231e-01
-2.882917260283850425e-01
-2.712064792440221916e-01
-2.586048814604759993e-01
-2.511879729740301159e-01
-2.489736133298201259e-01
-2.518043159330096703e-01
-2.595225940736836656e-01
-2.719709610419271950e-01
-2.889919301278252584e-01
-3.104280146214626335e-01
-3.361217117767627549e-01
-3.657379083476809956e-01
-3.983242055975718121e-01
-4.327941875732807531e-01
-4.680614383216878949e-01
-5.030395418896621562e-01
-5.366420823240721782e-01
-5.677826436717872127e-01
-5.953748893080512694e-01
-6.184303796758439109e-01
-6.362492810884599059e-01
-6.481846817787347836e-01
-6.535896699795042952e-01
-6.518173339235996400e-01
-6.422207618438593446e-01
-6.241530419731182722e-01
-5.969681451295855146e-01
-5.603615842878865161e-01
-5.148860055183245299e-01
-4.612263649823391543e-01
-4.000676188413698764e-01
-3.320947232568562391e-01
-2.579926343902102515e-01
-1.784463084029244972e-01
-9.414161797504241869e-02
-5.927800452467463233e-03
8.499555328781831232e-02
1.773835632202385437e-01
2.699913493192169223e-01
3.615740315591771670e-01
4.508867299145428720e-01
5.366845643597375481e-01
6.177251918024075916e-01
6.930204116281190041e-01
7.620494732475644462e-01
8.243418571932416006e-01
8.794270439976201725e-01
9.268345141931704223e-01
9.660937483123616110e-01
9.967342268876638878e-01
1.018291091687269390e+00
1.030658839904729396e+00
1.034300591156007476e+00
1.029729762779208579e+00
1.017459772112444316e+00
9.980040364938224107e-01
9.718759732614502544e-01
9.395889997534364602e-01
9.016582576200663501e-01
8.586739472229163450e-01
8.113286881712234999e-01
7.603224627360145593e-01
7.063552531883172669e-01
6.501270417991382722e-01
5.923378108395447317e-01
5.336875425805447382e-01
4.748708098983929760e-01
4.164115448576716227e-01
3.586325568521721019e-01
3.018450978400284979e-01
2.463604197793749229e-01
1.924897746283456001e-01
1.405444143450745864e-01
9.083559088769604939e-02
4.366775294517351302e-02
-8.165467216947087936e-04
-4.263972132279067462e-02
-8.183160141354262063e-02
-1.184220175493788663e-01
-1.524408002857276789e-01
-1.839177801780171873e-01
-2.128827877816758529e-01
-2.393682036418641745e-01
-2.634535801430341606e-01
-2.852600287043293159e-01
-3.049100825232547995e-01
-3.225262747973396404e-01
-3.382311387241044853e-01
-3.521472075010702585e-01
-3.643970143257577177e-01
-3.751005378609311158e-01
-3.843401705765699949e-01
-3.921696934958179837e-01
-3.986421700439982119e-01
-4.038106636464341426e-01
-4.077282377284501269e-01
-4.104479557153666858e-01
-4.120228810325087809e-01
-4.125018967480943988e-01
-4.118840921844789116e-01
-4.101358539498529687e-01
-4.072229970539615884e-01
-4.031113365065498999e-01
-3.977666873173628104e-01
-3.911548644961454491e-01
-3.832416830526398366e-01
-3.739958521489989418e-01
-3.634143732506628921e-01
-3.515102440399188177e-01
-3.382966435627107193e-01
-3.237867508649827641e-01
-3.079937449926790083e-01
-2.909308049917433969e-01
-2.726111099081200972e-01
-2.530599733570855769e-01
-2.324010941159460331e-01
-2.108059192678503613e-01
-1.884462114478532291e-01
-1.654937332910164094e-01
-1.421202474324016474e-01
-1.184975165070707021e-01
-9.479730315008540187e-02
-7.119439583020163720e-02
-4.788409281011266061e-02
-2.507020678190130872e-02
-2.956578034775951720e-03
1.825295314206239888e-02
3.835454645939023743e-02
5.714436162800694274e-02
7.441855835870410385e-02
8.999600038900351651e-02
1.038249498110233315e-01
1.158994433389129997e-01
1.262135706495528531e-01
1.347614214198234184e-01
1.415370853266049445e-01
1.465346520467793456e-01
1.497482112572234847e-01
1.511976221305328105e-01
1.510267066402196101e-01
1.494165151494717958e-01
1.465481052222523950e-01
1.426025344225244351e-01
1.377608603142509713e-01
1.322041404613950588e-01
1.261134324279197527e-01
1.196589801913525430e-01
1.129670358646613082e-01
1.061526660820142354e-01
9.933093747561319575e-02
9.261691667766004665e-02
8.612567032035671477e-02
7.997226503590501578e-02
7.427176367805318757e-02
6.910443907863808577e-02
6.443077362727447910e-02
6.018548644943486070e-02
5.630329667059043308e-02
5.271892341621640943e-02
4.936708581178385347e-02
4.618250298276528609e-02
4.309989523424932745e-02
4.005532417650606303e-02
3.698876965545977447e-02
3.384092316500321440e-02
3.055247619902917711e-02
2.706412025143041175e-02
2.331654681609831442e-02
1.925044738692829188e-02
1.480662917322899189e-02
9.968445968725207079e-03
4.825076956395321637e-03
-5.181225802060392301e-04
-5.955797357524255514e-03
-1.138259209200470461e-02
-1.669315150009276216e-02
-2.178212029823381468e-02
-2.654412693278537100e-02
-3.087100411200264724e-02
-3.464864082230315057e-02
-3.776216549347358176e-02
-4.009670655530064853e-02
-4.153739243757105515e-02
-4.196935157007149197e-02
-4.127771238258867714e-02
-3.934833775089677244e-02
-3.613861096638505688e-02
-3.173634708606917765e-02
-2.624322863117788118e-02
-1.976093812294594729e-02
-1.239115808260246414e-02
-4.235571031378298872e-03
4.604140509495686581e-03
1.402555737866909881e-02
2.388056473186864204e-02
3.394934479885790279e-02
4.400580844821204429e-02
5.382386654850622454e-02
6.317742996831889057e-02
7.184040957621846968e-02
7.958671624078356155e-02
8.619194118646546221e-02
9.150341675787489193e-02
9.546556195533098532e-02
9.802969113540445367e-02
9.914711865466593887e-02
9.876915886968615221e-02
9.684712613703572170e-02
9.333233481328381820e-02
8.817963213131796429e-02
8.145345554363091212e-02
7.334635492861349415e-02
6.405814582371022192e-02
5.378864376636571798e-02
4.273766429402449385e-02
3.110502294413110616e-02
1.909053525413011501e-02
6.894111520178861433e-03
-5.282116285640844205e-03
-1.723377080037194475e-02
-2.875637515917322737e-02
-3.964545249721633524e-02
-4.969652594966861292e-02
-5.870511865169739107e-02
-6.646675373847003854e-02
-7.278276347580026062e-02
-7.756051050415808945e-02
-8.080001017497580318e-02
-8.250439617264827830e-02
-8.267680218157015537e-02
-8.132036188613621375e-02
-7.843820897074164911e-02
-7.403347711978135182e-02
-6.811562083580793847e-02
-6.078595957021847018e-02
-5.221516811370156830e-02
-4.257562836383931015e-02
-3.203972221821378696e-02
-2.077983157440706566e-02
-8.968338329996990849e-03
3.222375617425936312e-03
1.561990016097330840e-02
2.805149300149303512e-02
4.034419548240718301e-02
5.232504524841814775e-02
6.382107994422830943e-02
7.465933721454010019e-02
8.466685470405589664e-02
9.367067005747807540e-02
1.015062229098600416e-01
1.080902088355746304e-01
1.133848761266903205e-01
1.173529757598326950e-01
1.199572587116247008e-01
1.211604759586894092e-01
1.209253784776497670e-01
1.192147172451288178e-01
1.160040653615335843e-01
1.113718953713913190e-01
1.054461875032389750e-01
9.835523803748397187e-02
9.022734325454162541e-02
8.119079943481972983e-02
7.137390285872843854e-02
6.090494980667794656e-02
4.991533965408102846e-02
3.855729862566251165e-02
2.699162250049679662e-02
1.537913354707358751e-02
3.880654033882599725e-03
-7.342993770590399566e-03
-1.813098759784765451e-02
-2.832250517940352111e-02
-3.777517324410605004e-02
-4.645076038655583661e-02
-5.434754145125415825e-02
-6.146383053974784072e-02
-6.779794175358379305e-02
-7.334818919430889650e-02
-7.811288696347003235e-02
-8.209034916261404025e-02
-8.529636678790222803e-02
-8.783001171955488739e-02
-8.981513526632527167e-02
-9.137559286905382050e-02
-9.263523996858097354e-02
-9.371793200574711491e-02
-9.474752442139264264e-02
-9.584787265635801023e-02
-9.712127872181855470e-02
-9.858318065036721090e-02
-1.002271366907182271e-01
-1.020467050912429036e-01
-1.040354441003142200e-01
-1.061869119663046146e-01
-1.084946669375865258e-01
-1.109522628705347930e-01
-1.135192395170683960e-01
-1.160391040384083222e-01
-1.183306428999083559e-01
-1.202126425669223092e-01
-1.215038895048043688e-01
-1.220231701789073614e-01
-1.215892710545857097e-01
-1.200210095292333495e-01
-1.171696942061071361e-01
-1.129806842309851733e-01
-1.074162577820032410e-01
-1.004386930372970915e-01
-9.201026817500254640e-02
-8.209326137325538564e-02
-7.064995081019141698e-02
-5.764284715873899123e-02
-4.311577143926212385e-02
-2.731299074739030122e-02
-1.050911203247421530e-02
7.021257756135412462e-03
2.500351166908788142e-02
4.316304275703244930e-02
6.122524407061843976e-02
7.891554992190276396e-02
9.596623366487318230e-02
1.121239823647320194e-01
1.271373087643344335e-01
1.407547256065531105e-01
1.527247456342548937e-01
1.627958815903064460e-01
1.707166462175745691e-01
1.762368899193818561e-01
1.792331333481411160e-01
1.798109457108468534e-01
1.780999899213693838e-01
1.742299288935770796e-01
1.683304255413430039e-01
1.605311427785363898e-01
1.509617435190274415e-01
1.397530720498712242e-01
1.271076064708865361e-01
1.133392915280611590e-01
9.877171142855525887e-02
8.372845037952901526e-02
6.853309258814262173e-02
5.350922226155625794e-02
3.898042360692506592e-02
2.526789251414471305e-02
1.259279863548351530e-02
1.042060342050858592e-03
-9.306823685624434489e-03
-1.837635476701353701e-02
-2.608903422158764807e-02
-3.236736336881791687e-02
-3.713384352817554468e-02
-4.031504370487738742e-02
-4.196162767171215946e-02
-4.226814416630601812e-02
-4.143719483736263420e-02
-3.967138133358477647e-02
-3.717330530367522756e-02
-3.414556839633677010e-02
-3.079077226027221101e-02
-2.731009144935432967e-02
-2.387173211707013451e-02
-2.061085113674905253e-02
-1.766116211090476215e-02
-1.515637864205405388e-02
-1.323021433271047084e-02
-1.201638278538868024e-02
-1.164859760260332500e-02
-1.225370497864436067e-02
-1.383486597053230557e-02
-1.628804292721728122e-02
-1.950564924258259281e-02
-2.338009831051155937e-02
-2.780380352488748263e-02
-3.266917827959546494e-02
-3.786863596851534897e-02
-4.329236225002899840e-02
-4.879855943458481782e-02
-5.422148176301529177e-02
-5.939480508594316421e-02
-6.415220525399119300e-02
-6.832735811778214985e-02
-7.175393952793875096e-02
-7.426562533508379582e-02
-7.570361693607996489e-02
-7.599673286922054016e-02
-7.513038191979502789e-02
-7.309091888101088008e-02
-6.986469854607552099e-02
-6.543807570819648589e-02
-5.979740516058119904e-02
-5.292904169643714019e-02
-4.483025689785065382e-02
-3.560277224731367429e-02
-2.540636873720199598e-02
-1.440145074425942806e-02
-2.748422645219000121e-03
9.392311183182787057e-03
2.186034636420943963e-02
3.449527852112445336e-02
4.713277735946193314e-02
5.957732708143925748e-02
7.161853751452401662e-02
8.304592680895728218e-02
9.364901311498016745e-02
1.032173145828369221e-01
1.115403493627618176e-01
1.184076356049995199e-01
1.236252243795415567e-01
1.271090415375195071e-01
1.288198221910633046e-01
1.287184334177706724e-01
1.267657422952392365e-01
1.229226159010667341e-01
1.171499213128507633e-01
1.094085256081859386e-01
9.969657697322273360e-02
8.822065980729855428e-02
7.525976137291895407e-02
6.109294113365118517e-02
4.599925855306244427e-02
3.025777309471996621e-02
1.414754422219097023e-02
-2.052368600957307082e-03
-1.805418294225497045e-02
-3.352894042678748743e-02
-4.813554463311961462e-02
-6.153289740983867995e-02
-7.337990060552643246e-02
-8.333545606876457956e-02
-9.105846564813487032e-02
-9.620783119223637325e-02
-9.851320127697148210e-02
-9.798668028951218467e-02
-9.471085404445242495e-02
-8.876830835638620243e-02
-8.024162903990395002e-02
-6.921340190960574568e-02
-5.576621278008297988e-02
-3.998265912712725689e-02
-2.202209172072594132e-02
-2.303264360014678838e-03
1.870032277881857746e-02
4.051516951958586410e-02
6.266777568609922799e-02
8.468464110217072127e-02
1.060922655916198137e-01
1.264172049514679652e-01
1.452404612174992282e-01
1.622992076370269876e-01
1.773584434027138668e-01
1.901831677072223781e-01
2.005383797432151727e-01
2.081890787033548462e-01
2.129002637803039111e-01
2.144373299859637094e-01
2.126974808222639735e-01
2.078999725515685848e-01
2.003123303427047086e-01
1.902020793644949581e-01
1.778367447857631678e-01
1.634838517753330611e-01
1.474109255020284170e-01
1.298855050929693389e-01
1.111773626083601418e-01
9.156093540990500879e-02
7.131124577439290624e-02
5.070331597860545936e-02
3.001216829934637634e-02
9.512825013397360405e-03
-1.051969160245264101e-02
-2.981162281832879998e-02
-4.820560414398311622e-02
-6.575295459651571417e-02
-8.252671083984686184e-02
-9.859990953789678214e-02
-1.140455873545857257e-01
-1.289367809538391196e-01
-1.433465269995667091e-01
-1.573479394934150788e-01
-1.710187173978529873e-01
-1.844436347468189352e-01
-1.977080705020950457e-01
-2.108974036254634976e-01
-2.240970130787063863e-01
-2.373922778236059183e-01
-2.508685768219441337e-01
-2.646084371911718858e-01
-2.785772003093833216e-01
-2.925842183530156793e-01
-3.064280313857314364e-01
-3.199071794711880745e-01
-3.328202026730431862e-01
-3.449656410549541419e-01
-3.561420346805785342e-01
-3.661479599382762573e-01
-3.747830832089885655e-01
-3.818483243872952682e-01
-3.871446725971300906e-01
-3.904731169624214293e-01
-3.916346466071037868e-01
-3.904302506551095009e-01
-3.866609182303706871e-01
-3.801337645832738588e-01
-3.707953663806800026e-01
-3.587309666451574675e-01
-3.440317755119457477e-01
-3.267890031162845044e-01
-3.070938595934058490e-01
-2.850375550785635426e-01
-2.607112997069903626e-01
-2.342090241291236719e-01
-2.056730106770025823e-01
-1.752871065852281141e-01
-1.432365125070220735e-01
-1.097064290956061283e-01
-7.488205700420214050e-02
-3.894859688603186099e-02
-2.091249394316993873e-03
3.550744515134433843e-02
7.370267788608464432e-02
1.123776597142229633e-01
1.514162654564184807e-01
1.907023699333305622e-01
2.301198479656184348e-01
2.695525743739414226e-01
3.088844239789588220e-01
3.479921406910087001e-01
3.866703825960398078e-01
4.246612317553134508e-01
4.617059109917517890e-01
4.975456431283173386e-01
5.319216509879591825e-01
5.645751573936266254e-01
5.952473851682686945e-01
6.236732151807176106e-01
6.495274952596385987e-01
6.724519862072481091e-01
6.920881032916113007e-01
7.080772617807979952e-01
7.200608769428615830e-01
7.276803640458737732e-01
7.305771383578991696e-01
7.284287572147605250e-01
7.211969579816798204e-01
7.089778476219131820e-01
6.918683322293301963e-01
6.699653178978006718e-01
6.433657107211945281e-01
6.121664167933815737e-01
5.764643422082179613e-01
5.364116254068856948e-01
4.925238755863061146e-01
4.454636179114029315e-01
3.958937893559243970e-01
3.444773268936183186e-01
2.918771674982326703e-01
2.387562481435153150e-01
1.857775058032142546e-01
1.335738103573440305e-01
8.261153235729720712e-02
3.329973232520577753e-02
-1.395258208963938429e-02
-5.873640323792916895e-02
-1.006427234703543144e-01
-1.392625351376057252e-01
-1.741868305903742364e-01
-2.051191748480665766e-01
-2.322895291709540233e-01
-2.560815901360842251e-01
-2.768790728681927438e-01
-2.950656924919934365e-01
-3.110251641322228089e-01
-3.251412029136093174e-01
-3.377975239613711933e-01
-3.493871780543164607e-01
-3.603401400623658657e-01
-3.710955124174334374e-01
-3.820923975514334825e-01
-3.937698978962801410e-01
-4.065671158838875532e-01
-4.209231539461754101e-01
-4.372770858416686335e-01
-4.559061022150853737e-01
-4.765453424459014098e-01
-4.988166229670414897e-01
-5.223417602114301950e-01
-5.467425706119923845e-01
-5.716408706016522512e-01
-5.966584766133348205e-01
-6.214171240189363399e-01
-6.454653617617387429e-01
-6.681437181548133264e-01
-6.887560114487161211e-01
-7.066060598939951642e-01
-7.209976817411977157e-01
-7.312346952408717016e-01
-7.366209186435644929e-01
-7.364608191957575656e-01
-7.302648511336309323e-01
-7.180423079870102976e-01
-6.998765150313394079e-01
-6.758507975420818825e-01
-6.460484807946831332e-01
-6.105528900645941226e-01
-5.694473506272654806e-01
-5.228165446708572528e-01
-4.709547718105547842e-01
-4.145905015635266144e-01
-3.545060833829545288e-01
-2.914838667220207014e-01
-2.263062010339072505e-01
-1.597554357717724249e-01
-9.261392038884591615e-02
-2.566293678120470934e-02
4.041192870166959716e-02
1.050952100134329853e-01
1.678889563171092336e-01
2.282952167757220929e-01
2.858160405522954250e-01
3.399534768098527726e-01
3.902095747114180946e-01
4.360900910376755979e-01
4.773157400363426950e-01
5.139361778508404477e-01
5.460288666312561601e-01
5.736712685276766921e-01
5.969408456901891258e-01
6.159150602688806542e-01
6.306713744138380262e-01
6.412888115085054741e-01
6.479093476560136011e-01
6.507580686419600635e-01
6.500657506409543984e-01
6.460631698276101398e-01
6.389811023765386011e-01
6.290503244623515400e-01
6.165016122596602699e-01
6.015664021626212499e-01
5.844956190052371658e-01
5.655624169938162638e-01
5.450411617182103763e-01
5.232062187682711141e-01
5.003319537338416501e-01
4.766927322047899707e-01
4.525629197709596929e-01
4.282174864331955155e-01
4.039449622806742246e-01
3.800472505122934885e-01
3.568268213399620192e-01
3.345861449755882511e-01
3.136276916310807850e-01
2.942539315183482773e-01
2.767673348492933894e-01
2.614570166706392529e-01
2.483778443474193853e-01
2.373849602030813633e-01
2.283271109905918306e-01
2.210530434629172924e-01
2.154115043730243928e-01
2.112512404738796645e-01
2.084209985184497238e-01
2.067489753340202852e-01
2.057754238222161414e-01
2.048285259426491089e-01
2.032315346888378116e-01
2.003077030543014558e-01
1.953802840325590540e-01
1.877725306171298125e-01
1.768076958015328271e-01
1.618345710260714054e-01
1.424926227259616651e-01
1.186059426009795498e-01
9.000157143191349352e-02
5.650654999953935720e-02
1.794791908466947944e-02
-2.584728053191858235e-02
-7.505200806943622405e-02
-1.297619858364260637e-01
-1.893495669808628878e-01
-2.527918060149510482e-01
-3.190617436581941191e-01
-3.871324206300955639e-01
-4.559768776501588738e-01
-5.245681554379117983e-01
-5.918792947128090898e-01
-6.568759752679862451e-01
-7.184665851121925240e-01
-7.755326577956876966e-01
-8.269555728488551249e-01
-8.716167098020770609e-01
-9.083974481857366445e-01
-9.361791675302166826e-01
-9.538432473658998711e-01
-9.604172038400736744e-01
-9.558808446307215378e-01
-9.405954768340626382e-01
-9.149234242458160749e-01
-8.792270106617001701e-01
-8.338685598774329133e-01
-7.792103956887332927e-01
-7.156148418913197418e-01
-6.435782601287988181e-01
-5.643321856807212988e-01
-4.793589024558174705e-01
-3.901409078484648907e-01
-2.981606992531369849e-01
-2.049007740642122821e-01
-1.118436296761003701e-01
-2.047176348321085373e-02
6.783434194869830680e-02
1.521667521376716681e-01
2.317542610735308373e-01
3.058256765586451209e-01
3.736098063953838255e-01
4.343354583861365747e-01
4.872314403332295152e-01
5.315265601101939463e-01
5.666718491644825439e-01
5.929890548719894960e-01
6.110131515610333075e-01
6.212791135599331493e-01
6.243219151970073044e-01
6.206765308005747217e-01
6.108779346989541281e-01
5.954611052431844076e-01
5.749806639020020871e-01
5.500563970654284152e-01
5.213215865279400285e-01
4.894095140840138969e-01
4.549534615281264349e-01
4.185867106547545013e-01
3.809425432583746218e-01
3.426540682332329113e-01
3.042091863325708245e-01
2.656868063724112661e-01
2.270943516415551700e-01
1.884392454288449370e-01
1.497289110230816678e-01
1.109707717130801324e-01
7.217225078765522606e-02
3.334090625226739102e-02
-5.474910347962136034e-03
-4.412893121407718278e-02
-8.246049985699611951e-02
-1.203089597876373373e-01
-1.575136545169322499e-01
-1.939139275557727471e-01
-2.293491224150905616e-01
-2.636575192454609362e-01
-2.965186819946555863e-01
-3.272862728263497001e-01
-3.552739227971030145e-01
-3.797952629634750443e-01
-4.001639243820255265e-01
-4.156935381093140314e-01
-4.256977352019025718e-01
-4.294926438529957369e-01
-4.266122881265314026e-01
-4.169747752079905889e-01
-4.005373328114571474e-01
-3.772571886510148187e-01
-3.470915704407473434e-01
-3.099977058947386288e-01
-2.659328227270723044e-01
-2.148627695284942019e-01
-1.572422952413685682e-01
-9.426807639429050922e-02
-2.719879200783421186e-02
4.270687889749276434e-02
1.141902573011614186e-01
1.859926641826426252e-01
2.568554205214074182e-01
3.255221932801395379e-01
3.908294901869310833e-01
4.517353802383507477e-01
5.072061536456234920e-01
5.562081006199909305e-01
5.977075113726428857e-01
6.306706761148235252e-01
6.540638850577579211e-01
6.668803096271296305e-01
6.688937701715298445e-01
6.607612715952086990e-01
6.431873050980221329e-01
6.168763618798265291e-01
5.825329331404783817e-01
5.408615100798337405e-01
4.925665838977309474e-01
4.383666544579191138e-01
3.792899830314544474e-01
3.166678360008513549e-01
2.518441369472940727e-01
1.861628094519665877e-01
1.209677770960534277e-01
5.760296346073855156e-02
-2.587707872793752056e-03
-5.829820334688137762e-02
-1.088784019279037674e-01
-1.542328644946986127e-01
-1.942836173134624700e-01
-2.289526866503729385e-01
-2.581620987716075066e-01
-2.818338799433439124e-01
-2.998900564317596995e-01
-3.122860693717393610e-01
-3.194399436540073522e-01
-3.221075928422754142e-01
-3.210526324423369493e-01
-3.170386779599873583e-01
-3.108293449010212650e-01
-3.031882487712329599e-01
-2.948790050764169557e-01
-2.866278747790775294e-01
-2.787407173615398248e-01
-2.712585981984970696e-01
-2.642184496363701451e-01
-2.576572040215800996e-01
-2.516117937005478145e-01
-2.461191510196924226e-01
-2.412162083254386913e-01
-2.369092897083809601e-01
-2.329210873729031794e-01
-2.288206146694172771e-01
-2.241753683103435701e-01
-2.185528450081024310e-01
-2.115205414751142876e-01
-2.026459544237994292e-01
-1.914965805665783116e-01
-1.776999863176512429e-01
-1.613465503010156898e-01
-1.427417016605390943e-01
-1.221920582787724835e-01
-1.000042380382667739e-01
-7.648485882157290972e-02
-5.194053851124184884e-02
-2.667789498982455626e-02
-1.037081396573736984e-03
2.442535043099127237e-02
4.906692797873786482e-02
7.224496126838314547e-02
9.331676032167086909e-02
1.116396351603358428e-01
1.265708958061128875e-01
1.374678522807367964e-01
1.437946577709245943e-01
1.455959027311814757e-01
1.431123461730988700e-01
1.365849008302887357e-01
1.262544794363632539e-01
1.123619947249288875e-01
9.514835942960769843e-02
7.485448628400744042e-02
5.180568639332601422e-02
2.671454795417549030e-02
4.046746216271011887e-04
-2.630032067352547701e-02
-5.257682500048853347e-02
-7.760122542846838167e-02
-1.005499090266713941e-01
-1.205992629843505443e-01
-1.370486641119797178e-01
-1.496748829719534712e-01
-1.583705045548303714e-01
-1.630281138511688876e-01
-1.635402958515274896e-01
-1.597996355464647023e-01
-1.516987179265390506e-01
-1.391301671650632676e-01
-1.221533312575132785e-01
-1.013755445333941463e-01
-7.751655872124788016e-02
-5.129612554959479820e-02
-2.343399674696193535e-02
5.350075958123663017e-03
3.433634083713496543e-02
6.280513446630414665e-02
9.010592114172052969e-02
1.157811082120058094e-01
1.394065034462430297e-01
1.605579146135151514e-01
1.788111494829110748e-01
1.937420158235007572e-01
2.049263214043741954e-01
2.119406308907973713e-01
2.145803779165885161e-01
2.131617055182610243e-01
2.080765207687665375e-01
1.997167307410566139e-01
1.884742425080830619e-01
1.747409631427974119e-01
1.589087997181453937e-01
1.413698844585302705e-01
1.225488364177759748e-01
1.029364065091128988e-01
8.303138561109799087e-02
6.333256460228815776e-02
4.433873436124032008e-02
2.654868576651132905e-02
1.046120969665814346e-02
-3.427214620052918340e-03
-1.481652402396347115e-02
-2.374995156568988561e-02
-3.030532059772556366e-02
-3.456045447255944036e-02
-3.659317654268041953e-02
-3.648131016057741538e-02
-3.430267867873933174e-02
-3.013711295483428518e-02
-2.417583043607557033e-02
-1.677767851231404261e-02
-8.315353262034558268e-03
8.384492362813814048e-04
1.031103290414232300e-02
1.972970166306657613e-02
2.872175943456932098e-02
3.691788264858134050e-02
4.407975704196273603e-02
5.013919800471577926e-02
5.503938533949141731e-02
5.872349884894052796e-02
6.113471833571409997e-02
6.221622360246316374e-02
6.191119445183787540e-02
6.016774128251536902e-02
5.707486269077338692e-02
5.287965178604843441e-02
4.783758786613609426e-02
4.220415022883203249e-02
3.623481817193183185e-02
3.018507099323114104e-02
2.431038799052556709e-02
1.886278994561523328e-02
1.401891721039496067e-02
9.882273691155286227e-03
6.553353703553414789e-03
4.132651563246539025e-03
2.720661585891860287e-03
2.417878087146583393e-03
3.324795382667896683e-03
5.532276279428288701e-03
8.966617871696301589e-03
1.341608611685289089e-02
1.866467386427897793e-02
2.449637396334971781e-02
3.069517926344578554e-02
3.704508261394612312e-02
4.333007686422968296e-02
4.933464230613070212e-02
5.484992652136756741e-02
5.967190701585915746e-02
6.359666925072883503e-02
6.642029868709994900e-02
6.793888078609612580e-02
6.794850100883956245e-02
6.624524481645441276e-02
6.264199318521547488e-02
5.713853991679682109e-02
4.985142440649727169e-02
4.089896620362917790e-02
3.039948485750489440e-02
1.847129991743674815e-02
5.232730932737118118e-03
-9.197902547287006500e-03
-2.468879379896688625e-02
-4.098447527527279699e-02
-5.776304691500806776e-02
-7.470197167887029921e-02
-9.147871252755704341e-02
-1.077707324217659079e-01
-1.232554943221944449e-01
-1.376104611895402896e-01
-1.505283364971529425e-01
-1.618180617736988958e-01
-1.713421200657214705e-01
-1.789632794926531711e-01
-1.845443081739369107e-01
-1.879479742290120214e-01
-1.890370457773177248e-01
-1.876742909382933533e-01
-1.837596402444190147e-01
-1.774304927969372891e-01
-1.689176941702945356e-01
-1.584523142977742605e-01
-1.462654231126553628e-01
-1.325880905482300642e-01
-1.176513865377777773e-01
-1.016863810145820363e-01
-8.493642473703183482e-02
-6.771095099013009488e-02
-5.034152304947291101e-02
-3.315972010684312132e-02
-1.649712135402360211e-02
-6.853059827972574070e-04
1.394414681505802209e-02
2.705965784774885460e-02
3.837480703775422719e-02
4.780845126936637823e-02
5.533774457600235119e-02
6.093984496344923008e-02
6.459191043749409888e-02
6.627109900392408326e-02
6.595456866852625333e-02
6.361947756085864492e-02
5.929959373510894360e-02
5.324636781029797039e-02
4.576356579487245169e-02
3.715495369727286890e-02
2.772429752594156305e-02
1.777536328932088905e-02
7.611916995853167112e-03
-2.462280030059761822e-03
-1.216095196349176698e-02
-2.125476368048248577e-02
-2.952595117962288421e-02
-3.675675045950627107e-02
-4.272939751871840386e-02
-4.722612835585301982e-02
-5.002917896950107024e-02
-5.092090284428896219e-02
-4.976955015919634628e-02
-4.668095210560244124e-02
-4.180167307528433185e-02
-3.527827746001908904e-02
-2.725732965158380455e-02
-1.788539404175202088e-02
-7.309035022307531007e-03
4.325050353900262816e-03
1.683349934644456924e-02
2.994648743494109783e-02
4.338173391572058835e-02
5.685695808511379012e-02
7.008987923945145249e-02
8.279821667506427618e-02
9.469968968828304523e-02
1.055125468089634921e-01
1.150288935890086822e-01
1.231898876041156443e-01
1.299546214881274753e-01
1.352821878748838025e-01
1.391316793982240452e-01
1.414621886919878169e-01
1.422328083900146478e-01
1.414036233058354741e-01
1.390168350859398716e-01
1.352569581489263262e-01
1.303226916213272857e-01
1.244127346296806380e-01
1.177257863005192473e-01
1.104605457603775320e-01
1.028157121357898413e-01
9.498944534027256581e-02
8.715062751901091198e-02
7.942444527548440936e-02
7.193251672241557371e-02
6.479645997252699019e-02
5.813789313853891250e-02
5.207843433317867199e-02
4.673970166916632807e-02
4.224084105504041786e-02
3.860671490368379477e-02
3.574075260346688820e-02
3.353837219771634709e-02
3.189499172975874403e-02
3.070602924292069671e-02
2.986690278052879857e-02
2.927303038590967424e-02
2.881935475163460020e-02
2.838745239951768334e-02
2.784402349678104932e-02
2.705498973776074290e-02
2.588627281679078268e-02
2.420379442820668955e-02
2.187347626634544503e-02
1.876124002553887851e-02
1.473745405067553374e-02
9.768024934504003845e-03
3.910799351055984155e-03
-2.772649340907575033e-03
-1.022074778260795812e-02
-1.837192261528648729e-02
-2.716460048016234793e-02
-3.653720801847876176e-02
-4.642409520305709747e-02
-5.669085721637723285e-02
-6.714589148258177931e-02
-7.759585473109792408e-02
-8.784740369138240024e-02
-9.770719509286275584e-02
-1.069818856649948774e-01
-1.154781321372076591e-01
-1.230074967565038951e-01
-1.294478409686537490e-01
-1.347246588571070491e-01
-1.387644882825500581e-01
-1.414938671056726327e-01
-1.428393331871699312e-01
-1.427274243877315052e-01
-1.410846785680484050e-01
-1.378492414511793551e-01
-1.330870026381887894e-01
-1.269429733998554966e-01
-1.195633433174425331e-01
-1.110943019722257230e-01
-1.016820389454839157e-01
-9.147274381847550484e-02
-8.061260617248670879e-02
-6.925097049609092725e-02
-5.756580364657779003e-02
-4.575031789912338553e-02
-3.399786749770156158e-02
-2.250180668625280725e-02
-1.145548970875048984e-02
-1.052270809136118465e-03
8.514495768624945338e-03
1.706599408621221892e-02
2.453317520143638575e-02
3.089711071433625181e-02
3.613912910229520603e-02
4.024055884268014360e-02
4.318272841287122688e-02
4.494696629023862966e-02
4.551460095215917323e-02
4.488526933948611131e-02
4.317446219174890520e-02
4.054285328778001185e-02
3.715121919004583939e-02
3.316033646100524646e-02
2.873098166312744797e-02
2.402393135886982459e-02
1.919996211070261125e-02
1.441633094841153311e-02
9.811536363957712101e-03
5.517852282603074796e-03
1.667548533126461197e-03
-1.607105055694545495e-03
-4.173838655089190386e-03
-5.900382436278535023e-03
-6.654466570489634206e-03
-6.332114509967514196e-03
-4.956754874845599457e-03
-2.587661940863845815e-03
7.158880563657562743e-04
4.894618881223214077e-03
9.889254298099113202e-03
1.564051807137539080e-02
2.208913388469287836e-02
2.915618677514828297e-02
3.668795058692560229e-02
4.451288802528390043e-02
5.245946179546054355e-02
6.035613460271518904e-02
6.803136915228510939e-02
7.531362814942955952e-02
8.203138078837740599e-02
8.803447923493576410e-02
9.324176622162121120e-02
9.758597211429313745e-02
1.009998272788198148e-01
1.034160620810586489e-01
1.047674068868752473e-01
1.049865920621298604e-01
1.040064113873945262e-01
1.018030405534387228e-01
9.847156229208449407e-02
9.412725010390307623e-02
8.888537748946859218e-02
8.286121794934366014e-02
7.617004498410676061e-02
6.892713209431843013e-02
6.124777695982362713e-02
5.325367025863800285e-02
4.508144530734832511e-02
3.686986686198634455e-02
2.875769967860703283e-02
2.088370851324222038e-02
1.338665812194120286e-02
6.405313260752198631e-03
7.806577279684950854e-05
-5.507051557971565439e-03
-1.036276198477283257e-02
-1.451378779154804260e-02
-1.798485126225112321e-02
-2.080067468082512014e-02
-2.298598033122205980e-02
-2.456549049738683196e-02
-2.556440716958084322e-02
-2.604661709162543401e-02
-2.614248456892670144e-02
-2.598892823053291015e-02
-2.572286670549228660e-02
-2.548121862285260969e-02
-2.540090261166220650e-02
-2.561883730096911269e-02
-2.627100648271488148e-02
-2.744371103234911555e-02
-2.914971758682037214e-02
-3.139585658846216765e-02
-3.418895847961303525e-02
-3.753585370260428822e-02
-4.144337269977603488e-02
-4.591834591345800298e-02
-5.096540641929132864e-02
-5.650690206917409475e-02
-6.236006972862222220e-02
-6.833529779466861187e-02
-7.424297466436283188e-02
-7.989348873474157176e-02
-8.509722840284231204e-02
-8.966458206571348288e-02
-9.340730441912462045e-02
-9.617495997974810640e-02
-9.785885228516418011e-02
-9.835243942045457377e-02
-9.754917947069804973e-02
-9.534253052097281522e-02
-9.162595065636147673e-02
-8.629289796193807816e-02
-7.924417452379120541e-02
-7.053613926672630541e-02
-6.037363140570146947e-02
-4.896741788516530136e-02
-3.652826564953583210e-02
-2.326694164326490941e-02
-9.394212810767951782e-03
4.879153903501206799e-03
1.933989587962707188e-02
3.373320094307483141e-02
4.776997387317627464e-02
6.116009393189994481e-02
7.361344038117564881e-02
8.483989248296965047e-02
9.454932949921483754e-02
1.024516306918735742e-01
1.082708128173305862e-01
1.119196983468453976e-01
1.134456382996350682e-01
1.128988733059266419e-01
1.103296439959430830e-01
1.057881909999131981e-01
9.932475494805526051e-02
9.098957647060326726e-02
8.084848329403518385e-02
6.913693679001188530e-02
5.619458637196723949e-02
4.236259646932577505e-02
2.798213151147423486e-02
1.339435592783915809e-02
-1.059565852193758428e-03
-1.503846939920757547e-02
-2.821334226385010038e-02
-4.036426244575096189e-02
-5.132891840735750999e-02
-6.094551943856664489e-02
-6.905227482924615467e-02
-7.548739386928879358e-02
-8.008908584856691548e-02
-8.269556005696833412e-02
-8.317555059210017532e-02
-8.162594643689798091e-02
-7.824690566273588554e-02
-7.323909548623275256e-02
-6.680318312399573244e-02
-5.913983579264796286e-02
-5.044972070879284731e-02
-4.093350508905674312e-02
-3.079499297180650005e-02
-2.025764512010551702e-02
-9.552519948072388592e-03
1.089307775116858581e-03
1.143676328028638695e-02
2.125877179828240815e-02
3.032425855992265315e-02
3.840214879605152731e-02
4.529474527985591359e-02
5.098055951767754834e-02
5.549603898111005185e-02
5.887766591958140672e-02
6.116192258250831293e-02
6.238529121931558896e-02
6.258425407942280749e-02
6.179529341225245553e-02
6.007597390808733229e-02
5.757790516814147164e-02
5.447891024754590583e-02
5.095681332990693868e-02
4.718943859882157588e-02
4.335461023789700941e-02
3.963015243072985638e-02
3.619388919273307248e-02
3.319928489111668990e-02
3.070787513481329500e-02
2.875951374555870202e-02
2.739405454508242466e-02
2.665135135511865691e-02
2.657125799739863334e-02
2.719362829365472647e-02
2.855830334989438099e-02
3.066792667699214103e-02
3.340623197262682087e-02
3.663324253344549253e-02
4.020898165609380903e-02
4.399347263722523660e-02
4.784673877348291637e-02
5.162880336152071703e-02
5.519969711046543437e-02
5.842420383446064736e-02
6.118001791160507241e-02
6.334700488730594936e-02
6.480503030696363465e-02
6.543395971598356398e-02
6.511365865976767586e-02
6.372399268372064274e-02
6.114503865003882710e-02
5.731036730690604319e-02
5.227748340355829748e-02
4.612139469663863178e-02
3.891710894277423949e-02
3.073963389861121207e-02
2.166397732077388408e-02
1.176514696590369620e-02
1.118469451570723496e-03
-1.015904116587813821e-02
-2.186768125999254825e-02
-3.379800124671868133e-02
-4.574055154196926543e-02
-5.748588256169082089e-02
-6.882454472179634630e-02
-7.954708843823149467e-02
-8.944455739663542682e-02
-9.834676600166375460e-02
-1.061495929029616925e-01
-1.127553596360778565e-01
-1.180663877365745879e-01
-1.219849987399973107e-01
-1.244135141819044804e-01
-1.252542555978457262e-01
-1.244113677201224150e-01
-1.218838564672260760e-01
-1.178099655927586920e-01
-1.123390491887018144e-01
-1.056204613470236725e-01
-9.780355615970375005e-02
-8.903768771872462573e-02
-7.947221011604979624e-02
-6.925725834411664006e-02
-5.857168495580733492e-02
-4.763072568918390315e-02
-3.665195726120952513e-02
-2.585295638887834604e-02
-1.545129978915373015e-02
-5.664564179022316473e-03
3.289673724531034030e-03
1.119739743670779969e-02
1.794156354135359455e-02
2.351130737663669271e-02
2.790117039833126672e-02
3.110569406222563754e-02
3.311941982409734309e-02
3.393688913973132160e-02
3.355264346490852145e-02
3.196609614413585543e-02
2.927840291698960429e-02
2.568704327715091648e-02
2.139328386114363809e-02
1.659839130550264108e-02
1.150363224675003682e-02
6.310273321421838721e-03
1.219581166039603037e-03
-3.569878415739612294e-03
-7.903929542674121428e-03
-1.166472362244478679e-02
-1.473548003238953422e-02
-1.699941814983801924e-02
-1.833975735212214561e-02
-1.863971701657642435e-02
-1.778251652053312523e-02
-1.566193455573424570e-02
-1.231110371240858384e-02
-7.861629983554899170e-03
-2.447192298230735190e-03
3.798530414520261481e-03
1.074185922564313903e-02
1.824911520608097498e-02
2.618661942679309518e-02
3.441729913310191680e-02
4.276755475203840307e-02
5.104154005220187806e-02
5.904309302232133017e-02
6.657605165110287715e-02
7.344425392727446655e-02
7.945153783954374271e-02
8.440174137663658538e-02
8.811328435333962150e-02
9.053412095523150072e-02
9.168002823525538136e-02
9.156737826765409816e-02
9.021254312667201236e-02
8.763189488655556691e-02
8.384180562154555649e-02
7.885864740589187960e-02
7.271599908714361515e-02
6.557476184345936709e-02
5.765296322730109613e-02
4.916890154626729625e-02
4.034087510795807130e-02
3.138718221995448476e-02
2.252612118986265302e-02
1.397599032526362223e-02
5.946027374880867231e-03
-1.410757035285894329e-03
-7.962890594258045796e-03
-1.357894480769213444e-02
-1.812749118123035963e-02
-2.147710122051795303e-02
-2.349634643120689786e-02
-2.405379831894169720e-02
-2.305374252459321469e-02
-2.058722146273379155e-02
-1.680611948726120491e-02
-1.186235415040847244e-02
-5.907843004396347297e-03
9.054963985390598186e-04
8.425746506179653331e-03
1.650098976629300190e-02
2.496384343340750725e-02
3.357858364993147882e-02
4.209061500188411575e-02
5.024534144978888561e-02
5.778816695414580595e-02
6.446449547547700165e-02
7.001973097428461357e-02
7.419927790062601225e-02
7.679423047523033230e-02
7.776649805497924672e-02
7.711790054977969711e-02
7.485025786954319083e-02
7.096538992417586456e-02
6.546511662359255634e-02
5.835125787769485095e-02
4.962565686646978891e-02
3.935090058570661631e-02
2.778196956472285192e-02
1.521184498381797714e-02
1.933508023315903476e-03
-1.176006013645743663e-02
-2.557587831520558713e-02
-3.922096533259322726e-02
-5.240238070561542560e-02
-6.485168607227785598e-02
-7.636639776152366610e-02
-8.675501686619703501e-02
-9.582604447917314472e-02
-1.033879816932996715e-01
-1.092493296014477866e-01
-1.132185892964717722e-01
-1.151046910222123520e-01
-1.148206623930016074e-01
-1.125185844181690459e-01
-1.083839641566263640e-01
-1.026023086672942092e-01
-9.535912500907929579e-02
-8.683992024090674000e-02
-7.723020142167937030e-02
-6.671575541053713365e-02
-5.551780043850262913e-02
-4.392723185187120960e-02
-3.224307238465545788e-02
-2.076434477084289007e-02
-9.790071744453716571e-03
3.807239605235334529e-04
9.449019610070521352e-03
1.711720164502281150e-02
2.319564281346973497e-02
2.767717366990767730e-02
3.057222515638168686e-02
3.189122821494132926e-02
3.164461378763842869e-02
2.984281281652326895e-02
2.649625624364320906e-02
2.161740523732863864e-02
1.532215700543757692e-02
7.876975675442279834e-03
-4.397996911095769512e-04
-9.349830032648161898e-03
-1.857477628762788449e-02
-2.783629939448415899e-02
-3.685606029165229558e-02
-4.535747084897470693e-02
-5.312718659705256696e-02
-6.003133226298579261e-02
-6.594108176020357925e-02
-7.072760900215312174e-02
-7.426208790226662693e-02
-7.641569237398791736e-02
-7.705959633075293302e-02
-7.607014422920875540e-02
-7.346231454587058562e-02
-6.940164444519358877e-02
-6.406123166005843472e-02
-5.761417392335893561e-02
-5.023356896797229187e-02
-4.209251452679527161e-02
-3.336410833270266052e-02
-2.422146756014691496e-02
-1.483810971467066503e-02
-5.387928227634567607e-03
3.955168915164756702e-03
1.301727372795065396e-02
2.162447822492045632e-02
2.960287442029646207e-02
3.677855432827753512e-02
4.298559231152913884e-02
4.818758758580631019e-02
5.245327158090618003e-02
5.585441286990279475e-02
5.846278002588115030e-02
6.035014162191876252e-02
6.158826623109518728e-02
6.224892242649233964e-02
6.240722773631685039e-02
6.218197687063550805e-02
6.172257377006007406e-02
6.117905373969666216e-02
6.070145208465267672e-02
6.043980411003421760e-02
6.054414512094827283e-02
6.116451042250177494e-02
6.244023992853509064e-02
6.439682935149428078e-02
6.699101891243726403e-02
7.017859640867010751e-02
7.391534963750703846e-02
7.815706639625247254e-02
8.285953448222217743e-02
8.797854169271918101e-02
9.345937148330166200e-02
9.915496773106519113e-02
1.048703394956449902e-01
1.104100879010883191e-01
1.155788140714266998e-01
1.201811191307066429e-01
1.240216042029609750e-01
1.269048704122343607e-01
1.286466654541066901e-01
1.291443922614764206e-01
1.283317701453597082e-01
1.261426837685595270e-01
1.225110177938801836e-01
1.173706568841299258e-01
1.106554857021056354e-01
1.022993889106210419e-01
9.226412490909703668e-02
8.068275396789897913e-02
6.775336733706920078e-02
5.367418112231898963e-02
3.864341142932140039e-02
2.285927436379068048e-02
6.519986031397461204e-03
-1.017623746215411129e-02
-2.702228385008269979e-02
-4.376496155917410091e-02
-6.013620481179081378e-02
-7.586794048003026036e-02
-9.069209543594440592e-02
-1.043405965516284589e-01
-1.165453706991373684e-01
-1.270383447505626373e-01
-1.355898391465632791e-01
-1.421382477030717351e-01
-1.466679431568080894e-01
-1.491632993869023704e-01
-1.496086902724945433e-01
-1.479884896927204652e-01
-1.442870715267142445e-01
-1.384888105188671059e-01
-1.306332515751378598e-01
-1.209642735278231712e-01
-1.097730505746239843e-01
-9.735075691326161573e-02
-8.398856674146076839e-02
-6.997765425691720997e-02
-5.560919365736541331e-02
-4.117435598336791069e-02
-2.695692306447094663e-02
-1.321748802404779793e-02
-2.121071503778989426e-04
1.180316326829708093e-02
2.257226694370017758e-02
3.183914758758653318e-02
3.934774891168776878e-02
4.484217293010882288e-02
4.815614995872587178e-02
4.936250322192245465e-02
4.857349283968634412e-02
4.590137893200464669e-02
4.145842161885962551e-02
3.535688102024361901e-02
2.770901725613398800e-02
1.862735503952595711e-02
8.285966018406811309e-03
-3.000978971382812360e-03
-1.489991430932761235e-02
-2.707727437494494155e-02
-3.919949354771824768e-02
-5.093300620716520455e-02
-6.194424673276986704e-02
-7.190025622598597566e-02
-8.054252540707272645e-02
-8.775769796564492076e-02
-9.344917326584102624e-02
-9.752035067180382655e-02
-9.987462954768423773e-02
-1.004154092576241553e-01
-9.904608916576948530e-02
-9.567175149075915486e-02
-9.032324388780864355e-02
-8.324212632274635704e-02
-7.469006264379124405e-02
-6.492871669918424959e-02
-5.421975233714045050e-02
-4.282483340589558762e-02
-3.100562375368732040e-02
-1.902346147554815833e-02
-7.123430101838039777e-03
4.472852061723571818e-03
1.554559581093028359e-02
2.587501194160770138e-02
3.524131124955122429e-02
4.342470453058405733e-02
5.020540258050461280e-02
5.536799241785067549e-02
5.885233752119013728e-02
6.079181776471717646e-02
6.133195362148248508e-02
6.061826556453309145e-02
5.879627406691591285e-02
5.601149960168136377e-02
5.240946264187343329e-02
4.813776972247207908e-02
4.339909139354619638e-02
3.845541176734441902e-02
3.357165240019847896e-02
2.901273484842962699e-02
2.504358066837225269e-02
2.192911141634891134e-02
1.993424864869194554e-02
1.931623767477901737e-02
2.017645610568342268e-02
2.247110723817959121e-02
2.615086018601022258e-02
3.116638406292647837e-02
3.746834798267210942e-02
4.500742105898725143e-02
5.373427240562853036e-02
6.359064571397868293e-02
7.437529196511823149e-02
8.577184786893429780e-02
9.746068273447303087e-02
1.091221658707480502e-01
1.204366665868058794e-01
1.310845541916606793e-01
1.407461979943575026e-01
1.491097217130717689e-01
1.559631976711109425e-01
1.611641638157700618e-01
1.645715617986473200e-01
1.660443332713530395e-01
1.654414198854907703e-01
1.626217632926650891e-01
1.574443051444856245e-01
1.497894005697700814e-01
1.397628335417655521e-01
1.276053918086267336e-01
1.135596876527440041e-01
9.786833335654500365e-02
8.077394120241511433e-02
6.251912347278622273e-02
4.334649245004014440e-02
2.350507933540144437e-02
3.299754529270528241e-03
-1.693587267973938396e-02
-3.686795586017907467e-02
-5.616264858055591835e-02
-7.448610440937912525e-02
-9.150447691519673910e-02
-1.068839196665068852e-01
-1.203162651286327628e-01
-1.316795827014907161e-01
-1.409340460211382096e-01
-1.480401875842228265e-01
-1.529585398874153124e-01
-1.556496354273693983e-01
-1.560740067007496679e-01
-1.541921862042140157e-01
-1.499981880188749894e-01
-1.436898032839160622e-01
-1.355414887248571898e-01
-1.258278397835061457e-01
-1.148234519016956418e-01
-1.028029205212293851e-01
-9.004084108394351527e-02
-7.681180903163907503e-02
-6.338702593753473002e-02
-5.002028055226501180e-02
-3.695979241842550778e-02
-2.445377859606520654e-02
-1.275045614519696238e-02
-2.098042125867833133e-03
7.255246401906695342e-03
1.506119237808292710e-02
2.111970926076069122e-02
2.543943627132679020e-02
2.808558022736058063e-02
2.912334896613264987e-02
2.861795032491817881e-02
2.663459214099066913e-02
2.323848225162712319e-02
1.849482929329269998e-02
1.250525471504247352e-02
5.504984555204023473e-03
-2.240120347468947670e-03
-1.046419915424345523e-02
-1.890139102636406374e-02
-2.728583512509876255e-02
-3.535167061169745828e-02
-4.283305344428217643e-02
-4.949954317451303598e-02
-5.523078238979044208e-02
-5.992774752599135113e-02
-6.349141501897802298e-02
-6.582276130462436092e-02
-6.682276281879596935e-02
-6.639239599736310171e-02
-6.443277387593468464e-02
-6.091785288360396233e-02
-5.601416295901766318e-02
-4.991969105035555521e-02
-4.283242410578190495e-02
-3.495034907347958908e-02
-2.647145290161034489e-02
-1.759372253835900582e-02
-8.515142805009541516e-03
5.667762613199506597e-04
9.455595907593938171e-03
1.795502420720895831e-02
2.586876923356266206e-02
3.300053906006943094e-02
3.915404176012246551e-02
4.413298540713361806e-02
4.774189561575824248e-02
4.988255186830024834e-02
5.064472423918651989e-02
5.013965790489133267e-02
4.847859804188858757e-02
4.577278982664911844e-02
4.213347843564703432e-02
3.767190904535906715e-02
3.250006569353812436e-02
2.678379810959048701e-02
2.077844702096176208e-02
1.474779784714706603e-02
8.955636007624624348e-03
3.665746921889238667e-03
-8.580839905797960770e-04
-4.352071310291548423e-03
-6.554525757454720755e-03
-7.306217324915716127e-03
-6.594604142236981312e-03
-4.418444876481101777e-03
-7.764981947147669115e-04
4.332477236003611128e-03
1.090972274860315533e-02
1.895647967602963682e-02
2.847008394807050771e-02
3.931172964191942398e-02
5.117432958070837479e-02
6.374037265852920686e-02
7.669234776950084598e-02
8.971274380770627443e-02
1.024840496672651258e-01
1.146887542422605488e-01
1.260111677635800120e-01
1.361829355774318018e-01
1.449862762080993683e-01
1.522058780181380910e-01
1.576264293701259145e-01
1.610326186266246851e-01
1.622091341502018835e-01
1.609406643034268225e-01
1.570223742060092575e-01
1.504592202306365700e-01
1.414499666121013521e-01
1.302006513697716861e-01
1.169173125230441729e-01
1.018059880912808024e-01
8.507271609387127842e-02
6.692353455020996766e-02
4.757071175667565432e-02
2.732507170584110023e-02
6.576129917952356491e-03
-1.428440384637301094e-02
-3.486481982657624323e-02
-5.477340826204001034e-02
-7.361845939220422463e-02
-9.100826345645400550e-02
-1.065644022958206066e-01
-1.200777779048536054e-01
-1.314559986636267552e-01
-1.406089828555695809e-01
-1.474466487640825330e-01
-1.518789146725887385e-01
-1.538156988644953926e-01
-1.531669196232185448e-01
-1.498650891017525577e-01
-1.440779733663329343e-01
-1.361130427274942489e-01
-1.262796090157408679e-01
-1.148869840615933668e-01
-1.022444796955769147e-01
-8.866140774818905002e-02
-7.444708004996435091e-02
-5.990997657627109008e-02
-4.535141594463361348e-02
-3.106906259847199217e-02
-1.736055175725896224e-02
-4.523518640427773990e-03
7.144401532558714019e-03
1.734557354224090797e-02
2.578236216918062401e-02
3.219080416782442444e-02
3.654871257766280357e-02
3.893955531634260558e-02
3.944724327788357021e-02
3.815568735630119057e-02
3.514879844560997446e-02
3.051048743983043876e-02
2.432466523297233119e-02
1.670063713224769625e-02
7.900773489600025276e-03
-1.755486003642339581e-03
-1.194860448921345082e-02
-2.235904510887526744e-02
-3.266727100436077336e-02
-4.255374531743209843e-02
-5.169893118982299418e-02
-5.981002152173449382e-02
-6.673005422039177126e-02
-7.234511586955770512e-02
-7.654131028968280681e-02
-7.920474130122147349e-02
-8.022151272463341753e-02
-7.947772838037313325e-02
-7.685949208889543416e-02
-7.230658241107193462e-02
-6.598936858582327147e-02
-5.814013017486696633e-02
-4.899114751718942895e-02
-3.877470095179347265e-02
-2.772307081768487017e-02
-1.606853745384550711e-02
-4.043381248458787804e-03
8.118458566462510850e-03
2.017701291776648198e-02
3.189094306895237652e-02
4.301891028348589496e-02
5.331957582486494818e-02
6.255160095655723507e-02
7.047364694205800195e-02
7.684441255879592703e-02
8.149409520715567012e-02
8.447316970511883905e-02
8.587439597301248229e-02
8.579053393116993498e-02
8.431434349992263100e-02
8.153858459959982541e-02
7.755601715053676848e-02
7.245949610533557184e-02
6.638967631074550735e-02
5.961244697268495984e-02
5.241395652907973601e-02
4.508035341785683603e-02
3.789778607692745327e-02
3.115240294422316064e-02
2.513035245765599807e-02
2.011746001125958028e-02
1.633029488085987330e-02
1.383052653105478098e-02
1.265880640583834198e-02
1.285578594921040450e-02
1.446211660516694142e-02
1.751844981770782003e-02
2.206543703082624111e-02
2.814278496402960669e-02
3.568120364666493849e-02
4.440251542924238126e-02
5.400492902794247485e-02
6.418665315897152668e-02
7.464589653850796369e-02
8.508086788275930068e-02
9.518977590791066756e-02
1.046711968241047647e-01
1.132498498189023484e-01
1.206935230280319904e-01
1.267740240418584741e-01
1.312631604507276950e-01
1.339327398450002593e-01
1.345545698150268366e-01
1.329004579511625928e-01
1.287456650410376269e-01
1.220308308410139042e-01
1.129314074702260084e-01
1.016407240761536823e-01
8.835210980625168853e-02
7.325889380800958139e-02
5.655440522887671129e-02
3.843197321634748975e-02
1.908742075602500726e-02
-1.198006363347384889e-03
-2.203833710539960036e-02
-4.304119580911702769e-02
-6.381420681348463908e-02
-8.396499445753172197e-02
-1.031011830802297524e-01
-1.208303970206057315e-01
-1.367656954216222298e-01
-1.506592205146134456e-01
-1.624105025880046849e-01
-1.719261694796490880e-01
-1.791128490273695140e-01
-1.838771690690126359e-01
-1.861257574424088623e-01
-1.857652419853955961e-01
-1.827124708151442456e-01
-1.770861335993374475e-01
-1.691898657558713603e-01
-1.593341357243591438e-01
-1.478294119443890609e-01
-1.349861628555795168e-01
-1.211148568975144446e-01
-1.065259625098155943e-01
-9.152947732254911040e-02
-7.642804477271999963e-02
-6.151848444169077945e-02
-4.709745640080527374e-02
-3.346162072144868993e-02
-2.090763747496663175e-02
-9.732166732741643830e-03
-2.318685661228218897e-04
7.314020506978080247e-03
1.284564125521030567e-02
1.645309177435861497e-02
1.822937668636522013e-02
1.826750061317545387e-02
1.666046817673196012e-02
1.350128399897523868e-02
8.882952701852506183e-03
2.911595288530533562e-03
-4.171584490208553320e-03
-1.204583928078355876e-02
-2.038939936108939005e-02
-2.888049500904370584e-02
-3.719735650254631099e-02
-4.501821411949749607e-02
-5.202129813781419809e-02
-5.790170748715277316e-02
-6.249825883228943280e-02
-6.572247357825349023e-02
-6.748643641532836579e-02
-6.770223203379051313e-02
-6.628194512391903659e-02
-6.313766037599492786e-02
-5.818146248029254508e-02
-5.135663077427590761e-02
-4.282820788909404153e-02
-3.285729509553933503e-02
-2.170537969696985717e-02
-9.633948996713891794e-03
3.095509701867484031e-03
1.622150909544824160e-02
2.948256188066581199e-02
4.262204220416233869e-02
5.541234426891943066e-02
6.763658490994749195e-02
7.907789811462757890e-02
8.951941787030726072e-02
9.874427816436508187e-02
1.065356129841517757e-01
1.126765563170420842e-01
1.169990670971448182e-01
1.195808966445736088e-01
1.205769704368373219e-01
1.201422415791804921e-01
1.184316631768450312e-01
1.156001883350765425e-01
1.118027701591140510e-01
1.071943617542059496e-01
1.019506700771497382e-01
9.633572793506413323e-02
9.063706104736576896e-02
8.514219532844019556e-02
8.013865669265737846e-02
7.591397105440189641e-02
7.275566432804554673e-02
7.095126003870626252e-02
7.072684175025996389e-02
7.208724114388570525e-02
7.498750383158664379e-02
7.938267542537190413e-02
8.522780153724027197e-02
9.247792777920503526e-02
1.010880997632609968e-01
1.110133238113763243e-01
1.221406358172875545e-01
1.341495821064655480e-01
1.466802561515209435e-01
1.593727514250296295e-01
1.718671613996032299e-01
1.838035795478177581e-01
1.948220993422836722e-01
2.045629095311982948e-01
2.127114633939784227e-01
2.190707445856328872e-01
2.234625655235890906e-01
2.257087386252600025e-01
2.256310763080646709e-01
2.230513909894212832e-01
2.177914950867519683e-01
2.096737993902869357e-01
1.986440017213180476e-01
1.849211376464297563e-01
1.687609601875410259e-01
1.504192223665282713e-01
1.301516772053171178e-01
1.082140777257781517e-01
8.486217694982495230e-02
6.035200342947320828e-02
3.497042964939142684e-02
9.062934351507546948e-03
-1.701844782036809889e-02
-4.292168222235161201e-02
-6.829473421063267380e-02
-9.278556914132836397e-02
-1.160421523706263447e-01
-1.377141293724321314e-01
-1.575678046477071714e-01
-1.755600608992260447e-01
-1.916653705207092828e-01
-2.058582059059259894e-01
-2.181130394486021640e-01
-2.284043435425013868e-01
-2.367065905813552085e-01
-2.429965665144535047e-01
-2.473596369663641215e-01
-2.500340609548485360e-01
-2.512696005290511736e-01
-2.513160177381206228e-01
-2.504230746312048894e-01
-2.488405332574530615e-01
-2.468181556660109799e-01
-2.446042667694036665e-01
-2.423988140796576596e-01
-2.403429210352258094e-01
-2.385741595339993526e-01
-2.372301014738745772e-01
-2.364483187527437191e-01
-2.363663832685020394e-01
-2.371218669190427175e-01
-2.388469783065025887e-01
-2.415387612708214671e-01
-2.450521894350996543e-01
-2.492354909607668312e-01
-2.539368940092632809e-01
-2.590046267420170190e-01
-2.642869173204697164e-01
-2.696319939060521920e-01
-2.748865545994497728e-01
-2.798674933146256261e-01
-2.843646170107579918e-01
-2.881667475900268616e-01
-2.910627069546006251e-01
-2.928413170066570537e-01
-2.932913996483674790e-01
-2.922017767819060086e-01
-2.893684411953644231e-01
-2.846979980815525502e-01
-2.781839300747737664e-01
-2.698220567213966969e-01
-2.596081975677709819e-01
-2.475381721602730456e-01
-2.336078000452472270e-01
-2.178129007690753072e-01
-2.001556669616673112e-01
-1.807176049362629044e-01
-1.596339874681969584e-01
-1.370411076554722829e-01
-1.130752585960298345e-01
-8.787273338785828170e-02
-6.156982512894978998e-02
-3.430282691723995914e-02
-6.204533530584196294e-03
2.262789719760497156e-02
5.211811564361339133e-02
8.219003288561645137e-02
1.127675600017049029e-01
1.437746080700556539e-01
1.751350881687805672e-01
2.067729113759904924e-01
2.386112940458731124e-01
2.705675947082196720e-01
3.025562339550298407e-01
3.344916103376045502e-01
3.662881224073356035e-01
3.978601687155241540e-01
4.291221478135615053e-01
4.599884582527495880e-01
4.903565435138333428e-01
5.200045081097093291e-01
5.486592182488141400e-01
5.760473429279354685e-01
6.018955511437810157e-01
6.259305118931347556e-01
6.478788941727090522e-01
6.674673669792819952e-01
6.844228328143908691e-01
6.984735746552905855e-01
7.093483809579719246e-01
7.167760409368917340e-01
7.204853438064822146e-01
7.202050787811865584e-01
7.156640350754457369e-01
7.065910019037077161e-01
6.927685856766361283e-01
6.742477597862698291e-01
6.511629839748799276e-01
6.236487445732765700e-01
5.918395279121975161e-01
5.558698203224380352e-01
5.158741081348053870e-01
4.719868776800200671e-01
4.244051505430239124e-01
3.735896010453775840e-01
3.200703751080908321e-01
2.643776190074355603e-01
2.070414790198387700e-01
1.485921014215671465e-01
8.955963248905156326e-02
3.047421782485656636e-02
-2.814752217483931784e-02
-8.583721944455825759e-02
-1.421372619115454927e-01
-1.965900375028845626e-01
-2.487379341458161031e-01
-2.981233397674294960e-01
-3.442886422949583691e-01
-3.867762879703317558e-01
-4.252206161466709489e-01
-4.595339169985255268e-01
-4.896808299958138599e-01
-5.156259946083793233e-01
-5.373340503060773932e-01
-5.547696365588081768e-01
-5.678973928364163815e-01
-5.766821508659876194e-01
-5.811751312813557835e-01
-5.816498606024397278e-01
-5.784151339486370835e-01
-5.717797464393410412e-01
-5.620524931939512303e-01
-5.495421693318758294e-01
-5.345575699724951502e-01
-5.174075334800501969e-01
-4.984094671182070502e-01
-4.778996103838625276e-01
-4.562167071378080974e-01
-4.336995012408943473e-01
-4.106867365539098036e-01
-3.875171569377072744e-01
-3.645295062530740648e-01
-3.420618371674111757e-01
-3.203770971820296687e-01
-2.995967446355415897e-01
-2.798265762184911631e-01
-2.611723886213648260e-01
-2.437399785347036385e-01
-2.276351426489974239e-01
-2.129636776547836619e-01
-1.998300088798314611e-01
-1.882455964482357691e-01
-1.780713006646217067e-01
-1.691542358747133157e-01
-1.613415164242311406e-01
-1.544802566588793225e-01
-1.484175709243832075e-01
-1.430005735664494904e-01
-1.380760662148772799e-01
-1.334764655400143274e-01
-1.290140995594922513e-01
-1.244998028011175123e-01
-1.197444097927061746e-01
-1.145587550620749129e-01
-1.087536731370291609e-01
-1.021399985453903259e-01
-9.453117354030927955e-02
-8.582691903172044723e-02
-7.603100839362385288e-02
-6.515341663038776154e-02
-5.320411874635104510e-02
-4.019308974588504946e-02
-2.613030463332563502e-02
-1.102573841303602746e-02
5.107002646183491507e-03
2.216418126088342752e-02
3.994809522141982983e-02
5.825664385432362258e-02
7.688772648607451743e-02
9.563924244320461121e-02
1.143090910521930431e-01
1.326951716395719238e-01
1.505961485604988270e-01
1.678253855869452082e-01
1.842094969653165493e-01
1.995755712035911789e-01
2.137506968097800386e-01
2.265619622918521592e-01
2.378364561578148462e-01
2.474012669156411826e-01
2.550912013722698157e-01
2.608586424939904336e-01
2.647475632988472438e-01
2.668043560373162260e-01
2.670754129598789106e-01
2.656071263170166064e-01
2.624458883592121761e-01
2.576380913369420989e-01
2.512387538511540730e-01
2.434090124606200223e-01
2.343813443189162182e-01
2.243895518138887546e-01
2.136674373334105370e-01
2.024488032653252445e-01
1.909674519974993434e-01
1.794571859178000217e-01
1.681486274890510169e-01
1.572403565520457680e-01
1.469124010901290134e-01
1.373445625843772167e-01
1.287166425158388083e-01
1.212084423655878790e-01
1.149997636146757457e-01
1.102704077441730157e-01
1.071799309463394162e-01
1.057189411902851317e-01
1.057940406682513490e-01
1.073112216147475428e-01
1.101764762642809120e-01
1.142957968513649003e-01
1.195751756105030705e-01
1.259206047762121972e-01
1.332207260253444325e-01
1.412432667352546967e-01
1.497044965552083995e-01
1.583204956032886745e-01
1.668073439975973071e-01
1.748811218562119352e-01
1.822579092972334835e-01
1.886537864387412833e-01
1.938030220974021889e-01
1.975463829193913889e-01
1.997632794252975907e-01
2.003331764274140225e-01
1.991355387380377429e-01
1.960498311694638673e-01
1.909555185339930350e-01
1.837320656439141164e-01
1.743043710015264314e-01
1.628217577900411550e-01
1.495027220321789307e-01
1.345657792424601595e-01
1.182294449354450161e-01
1.007122346256496409e-01
8.223266382763788629e-02
6.300924805592277023e-02
4.326853366331566420e-02
2.327060887226910582e-02
3.284317522426332368e-03
-1.642149652145572306e-02
-3.557798939467629595e-02
-5.391631723247965191e-02
-7.116763617016309829e-02
-8.706310592883077792e-02
-1.013912356889415112e-01
-1.141432305058657365e-01
-1.253550550928347607e-01
-1.350626741631031913e-01
-1.433020524298958820e-01
-1.501091546064632076e-01
-1.555199454060342268e-01
-1.595704171800445825e-01
-1.623363649501501915e-01
-1.640128755979485820e-01
-1.648172901172710869e-01
-1.649669495019528420e-01
-1.646791947458269845e-01
-1.641713668427280115e-01
-1.636608067864891713e-01
-1.633647308315909208e-01
-1.634472750945294151e-01
-1.639372029368559858e-01
-1.648420096834149751e-01
-1.661691906590486989e-01
-1.679262411886027206e-01
-1.701206565969181073e-01
-1.727599322088416434e-01
-1.758512391762132587e-01
-1.793399327431888512e-01
-1.830366963591175400e-01
-1.867344844274329563e-01
-1.902262513515790843e-01
-1.933049515349898051e-01
-1.957635393811082147e-01
-1.973949692933696931e-01
-1.979927173462057988e-01
-1.974053034650509464e-01
-1.955840600128158913e-01
-1.924915802480547944e-01
-1.880904574293256470e-01
-1.823432848151764207e-01
-1.752126556641697142e-01
-1.666611632348496130e-01
-1.566529949463469629e-01
-1.452578747411812365e-01
-1.327150615736392980e-01
-1.192791167728438906e-01
-1.052046016679444168e-01
-9.074607758809200009e-02
-7.615810586240671920e-02
-6.169524782004966179e-02
-4.761146613034156205e-02
-3.413372695616019581e-02
-2.145160657308342253e-02
-9.751934552981527185e-03
7.784595323096759473e-04
9.952746110922951542e-03
1.758409561101892393e-02
2.348567846073798190e-02
2.747541292898185439e-02
2.952563313397019856e-02
2.979337820211033425e-02
2.844655391843997974e-02
2.565306606799823072e-02
2.158082043581847562e-02
1.639772280694367854e-02
1.027167896640382959e-02
3.372922168820258540e-03
-4.071412307513217095e-03
-1.177534934286782187e-02
-1.945019864813628957e-02
-2.680726993422782520e-02
-3.355787291203052303e-02
-3.941331729245226012e-02
-4.408491278638329569e-02
-4.729185093484558622e-02
-4.890271817001055898e-02
-4.891967270836625192e-02
-4.734957753597182628e-02
-4.419929563889085644e-02
-3.947569000317968646e-02
-3.318562361490587365e-02
-2.533595946012128300e-02
-1.594360679496243868e-02
-5.176620035295089600e-03
6.680172096902118987e-03
1.933891253530718030e-02
3.251174421356348154e-02
4.591081006535090159e-02
5.924825302432117080e-02
7.223621602412620690e-02
8.459306231061471115e-02
9.611279602632702423e-02
1.066398509857303945e-01
1.160195778157955410e-01
1.240973271435213687e-01
1.307184495958820802e-01
1.357282957998726391e-01
1.389722163824716472e-01
1.403154479934606291e-01
1.398214458559425555e-01
1.376674606545575663e-01
1.340320965536271336e-01
1.290939577174810282e-01
1.230316483104368919e-01
1.160237724968278816e-01
1.082489344409686832e-01
9.989086549266006088e-02
9.117564429471844423e-02
8.235022445442520544e-02
7.366170620623561927e-02
6.535718978458632256e-02
5.768377542393797464e-02
5.088856335872865566e-02
4.521865382341686002e-02
4.089926697646961706e-02
3.800464871645344023e-02
3.654536083405213187e-02
3.653174084442108172e-02
3.797412626271363945e-02
4.088285460408364047e-02
4.526826338368082625e-02
5.114069011666474984e-02
5.848697584858583709e-02
6.715770627536070403e-02
7.695447184796093409e-02
8.767879868103371777e-02
9.913221288919722707e-02
1.111162405871009701e-01
1.234324078893613702e-01
1.358822409106291706e-01
1.482701561622859487e-01
1.604147130322294279e-01
1.721387898476494926e-01
1.832652660061119820e-01
1.936170209052149871e-01
2.030169339425262343e-01
2.112878845156413721e-01
2.182527520221310968e-01
2.237630418737487081e-01
2.277887018094230109e-01
2.303303083458430600e-01
2.313884380421092624e-01
2.309636674573169735e-01
2.290565731505623537e-01
2.256677316809449219e-01
2.207977218410534237e-01
2.144760734795215784e-01
2.068336898883050834e-01
1.980236498823051416e-01
1.881990322763996693e-01
1.775129158854850953e-01
1.661183795244602079e-01
1.541685020081992874e-01
1.418163571738960127e-01
1.292084472545075302e-01
1.164717585866974492e-01
1.037296713863141706e-01
9.110556586924235811e-02
7.872282225133063471e-02
6.670482074846310894e-02
5.517494157648929198e-02
4.425643683013170959e-02
3.402086539313745051e-02
2.440912564540224580e-02
1.534178806883594766e-02
6.739423145321803664e-03
-1.477398643231776429e-03
-9.388106814940325520e-03
-1.707213088789641744e-02
-2.460910491642071679e-02
-3.211622110136130859e-02
-3.979178366063973460e-02
-4.784466735489774358e-02
-5.648374694475452595e-02
-6.591789719085318355e-02
-7.635599285381093615e-02
-8.800690869427343910e-02
-1.010789240740367217e-01
-1.157192902255116673e-01
-1.319622385408128762e-01
-1.498297519396868116e-01
-1.693438133418460056e-01
-1.905264056669981887e-01
-2.133995118348969156e-01
-2.379851147652330690e-01
-2.643030219863269359e-01
-2.922323645368894440e-01
-3.214281774498720656e-01
-3.515254941280225309e-01
-3.821593479741723920e-01
-4.129647723910674362e-01
-4.435768007815401592e-01
-4.736304665483574983e-01
-5.027597119119819880e-01
-5.305502320252518667e-01
-5.565214509222925487e-01
-5.801879824032630806e-01
-6.010644402682517873e-01
-6.186654383174104987e-01
-6.325055903508361999e-01
-6.420995101686708395e-01
-6.469680797999077804e-01
-6.468326058430119430e-01
-6.416521757466012721e-01
-6.313996849245662180e-01
-6.160480287907750263e-01
-5.955701027591322472e-01
-5.699388022434922485e-01
-5.391270226577741242e-01
-5.031205369056668264e-01
-4.622152482152344088e-01
-4.170251428642409719e-01
-3.681786754851552046e-01
-3.163043007104560100e-01
-2.620304731725106029e-01
-2.059856475038363832e-01
-1.487982783367942929e-01
-9.109751962960434268e-02
-3.352560229071242792e-02
2.326364612827947626e-02
7.861599615182694734e-02
1.318772183042268009e-01
1.823930831099297434e-01
2.295093610932714412e-01
2.725718227785974279e-01
3.109532622523757395e-01
3.444280317263740399e-01
3.730781806504240850e-01
3.969935917565601269e-01
4.162641477768911913e-01
4.309797314434650195e-01
4.412302254883773700e-01
4.471055126436915828e-01
4.487204948952834838e-01
4.464908346534753880e-01
4.410310458274531165e-01
4.329591795982141722e-01
4.228932871467747656e-01
4.114514196541256830e-01
3.992516283012880751e-01
3.869119642692496752e-01
3.750261852094195492e-01
3.639485038124659066e-01
3.538967734006214783e-01
3.450872678097557378e-01
3.377362608757196738e-01
3.320600264343869235e-01
3.282748383216130272e-01
3.265969703732666818e-01
3.271974430100225706e-01
3.298773410379575721e-01
3.342569627327671711e-01
3.399553785482858914e-01
3.465916589383620794e-01
3.537848743568322574e-01
3.611540952575313934e-01
3.683183920943101652e-01
3.749102322687571931e-01
3.806536120204119800e-01
3.853107956140948143e-01
3.886441760573465798e-01
3.904161463576971691e-01
3.903890995226830807e-01
3.883254285598368161e-01
3.839875264766963725e-01
3.771909825482067102e-01
3.680569128976889370e-01
3.568153028336211174e-01
3.436962710244221286e-01
3.289299361384764864e-01
3.127464168442081194e-01
2.953758318099971025e-01
2.770482997042711948e-01
2.579860134875211486e-01
2.383727503997465635e-01
2.183806646722133149e-01
1.981819080189601845e-01
1.779486321540829641e-01
1.578529887916201857e-01
1.380671296456674191e-01
1.187632064302638762e-01
1.000581097441240047e-01
8.184222097825527564e-02
6.394789442883887232e-02
