BVP Green Neck Signal
2.146655224469242156e-03
-5.521182431106694960e-02
-9.922925520002560951e-02
-8.623208315604799501e-02
9.777910670064945270e-03
1.261800548585192971e-01
1.491635653585799692e-01
5.060047407168189598e-02
-6.065511984823442754e-02
-6.714898150203667260e-02
1.233641073877206860e-02
5.737194384712998585e-02
7.876210639546694925e-03
-6.585600616486718406e-02
-6.805492878251222233e-02
-7.157560078821265798e-03
2.072662043617680763e-02
-3.307991499032342242e-02
-9.674010731197084378e-02
-6.574338330563180011e-02
5.842564887480428820e-02
1.603735069836629834e-01
1.492482186580359471e-01
6.320968191708699335e-02
3.320959234185970593e-03
-3.043357316360292570e-03
-1.484732201072659977e-02
-6.200059968242693093e-02
-8.780294120606675634e-02
-3.921903294227119946e-02
3.525986192634966016e-02
3.663274730964233977e-02
-4.834419290897586791e-02
-1.208376296957789225e-01
-9.601740050151645611e-02
-5.249443666963813510e-03
6.343634898968135427e-02
8.559877608655976078e-02
1.057326003432311617e-01
1.416096194235894334e-01
1.438160723400410679e-01
6.528379599145495149e-02
-6.111851409969475818e-02
-1.404051657323714952e-01
-1.139442700350649790e-01
-2.782801044032718121e-02
1.593124903291632741e-02
-2.219285959615225831e-02
-7.466864702346232008e-02
-5.822671532280985357e-02
1.180836521208466702e-02
3.943915373322190443e-02
-1.330642376219337911e-02
-5.515769433634707536e-02
1.788383880534209422e-02
1.624344744021143927e-01
2.207930595013538055e-01
1.225682076360435774e-01
-2.524299762871281064e-02
-8.518646542336712202e-02
-5.674817130102450397e-02
-3.859369878780801594e-02
-7.053290167346777662e-02
-8.896314122369200494e-02
-3.908350239525720110e-02
3.139049150746296007e-02
3.265645058181369104e-02
-3.736203830411231885e-02
-8.254978382682694182e-02
-4.025304521021181442e-02
3.641547314925815820e-02
6.819060310885168008e-02
6.702510373114700659e-02
9.646222320815327211e-02
1.471315009154038345e-01
1.333753403005397131e-01
1.992390949521967089e-02
-1.109948114425049898e-01
-1.478584737289702911e-01
-7.560275784941072885e-02
1.339864307189296208e-02
2.566935777479883649e-02
-3.562325167954032146e-02
-8.501150325658529683e-02
-5.907041615639335025e-02
7.591702740366534224e-03
2.626629676270610461e-02
-2.579718691194238939e-02
-6.031377375316505224e-02
1.343649408694705047e-02
1.525837000080442485e-01
2.116884839354776227e-01
1.235696993499936364e-01
-1.096150242937233080e-02
-5.406023978938891833e-02
-1.377528856427234511e-03
3.842925650379148267e-02
4.849154582428096688e-03
-4.766786944079431931e-02
-5.119228520190450410e-02
-2.919564144911865680e-02
-5.760309144349323035e-02
-1.479232153258750737e-01
-2.186867907682653323e-01
-1.922957485412913614e-01
-8.845023348488655068e-02
6.061634036229331807e-03
5.793815126876126348e-02
1.485333274179091445e-01
3.644037782253802815e-01
6.060763166835406723e-01
5.991099914682604943e-01
2.242967203417852162e-01
-2.332217885211928521e-01
-3.881300550037005137e-01
-2.914934413198783658e-01
-3.583835859471714569e-01
-6.863613064819594767e-01
-8.004452876893651814e-01
-3.039624467600789415e-01
4.868076869798923512e-01
8.747481745329306335e-01
6.265234091116130832e-01
1.769191599348933774e-01
3.272655898811770419e-03
8.885807617890718879e-02
1.158152495039957014e-01
-3.574663926056736302e-02
-1.924299941312955786e-01
-2.022586524912364514e-01
-1.300461554742359249e-01
-1.056417867967097551e-01
-1.242216298300443250e-01
-8.820702225216871251e-02
1.797396537055127516e-02
9.204870087098349085e-02
5.515717933585599642e-02
-3.800025749681582021e-02
-6.761357493072100988e-02
3.627537884194783051e-03
9.743967946722853490e-02
1.298824077111213615e-01
1.069953237588825296e-01
8.809654607587133479e-02
8.747740865182199177e-02
5.663923927439718647e-02
-3.407160900373642359e-02
-1.312122329063570569e-01
-1.460887536386294705e-01
-6.417308945324808056e-02
2.402342003259327549e-02
2.294155278274714535e-02
-5.359271799456526847e-02
-9.972251516799940374e-02
-5.079106464992465958e-02
3.587285137180051819e-02
6.087398962623186138e-02
2.113508926684541309e-02
1.587376682223832700e-02
1.012038114371739267e-01
1.924828226067807901e-01
1.638721165025927018e-01
1.838486049047550683e-02
-1.095734233186743539e-01
-1.239845199980050133e-01
-7.213100890294703305e-02
-5.238270858356394027e-02
-7.566458249004444359e-02
-7.421997825324359865e-02
-2.053590840353564442e-02
2.784234923111090707e-02
1.452423353044736062e-02
-3.026121086364795196e-02
-2.439779812269913042e-02
6.095048267965567229e-02
1.622834493597754002e-01
1.952218229545601147e-01
1.450462806831275542e-01
6.882333082046705741e-02
1.341118593696263503e-02
-4.131081405347019481e-02
-1.357424892558922180e-01
-2.421380734550207803e-01
-2.672461947563938289e-01
-1.659220665996130606e-01
-1.738472871355324981e-02
6.290653037627541577e-02
7.513396249934230220e-02
1.278923108164471412e-01
2.566990403401424592e-01
3.266689926387537635e-01
1.906086949488353943e-01
-9.377998579561712400e-02
-2.973795124452482397e-01
-2.763294496500300346e-01
-1.115320296387528054e-01
3.760200309746520447e-02
1.276296516685573590e-01
1.988381051548575029e-01
2.187613347967596600e-01
9.609109434795677640e-02
-1.418046116889858654e-01
-3.107938962758462487e-01
-2.702041893696094377e-01
-8.852342857276816745e-02
4.928376682081888477e-02
5.663059607001363904e-02
1.583822596089469112e-02
5.127232967238291167e-02
1.731552451385451885e-01
2.633624601612228888e-01
2.126055014909032925e-01
5.078113633124795717e-02
-8.806705088828786776e-02
-1.220526043690051410e-01
-9.568743551211185416e-02
-8.848364796907855212e-02
-1.034241142369240751e-01
-8.598413650115389883e-02
-2.458571060858160198e-02
2.070207727502988357e-02
9.085462749306881178e-05
-5.051290070778160363e-02
-4.814653641046987009e-02
3.294739021783069793e-02
1.283850644749187364e-01
1.613708944577685322e-01
1.267430432459754619e-01
7.814574717305972085e-02
4.633007440059015020e-02
4.857726957589885569e-03
-6.774795397905747363e-02
-1.245612519954298753e-01
-9.850179380776283300e-02
-9.823138312918509168e-03
3.396566343941238159e-02
-2.736660888765435687e-02
-1.202693274146412611e-01
-1.311946774617896438e-01
-5.336104894394674142e-02
2.175264149220451290e-02
4.622767685755237860e-02
7.348837923567706765e-02
1.512596776832738632e-01
2.224174927016235870e-01
1.891780496497796893e-01
4.966005913541435973e-02
-8.345172777166136313e-02
-1.048021024537332396e-01
-2.767150014425600810e-02
3.734322018840650209e-02
4.943030373702760744e-03
-9.439950894123286251e-02
-1.572974642655469713e-01
-1.405427535811616946e-01
-1.157563237143741791e-01
-1.522152517630773472e-01
-1.835935049243734019e-01
-8.520509118450007857e-02
1.193084893020999321e-01
2.601610286929058047e-01
2.770587517545763379e-01
3.152326024572722485e-01
4.521163850967869768e-01
4.875390715951016252e-01
2.028679692742665353e-01
-2.645433236795953769e-01
-5.284328937456667097e-01
-4.350519305657988278e-01
-2.588069556901621548e-01
-3.351122386052495239e-01
-5.930265953421766101e-01
-6.021985441497156311e-01
-1.128511902782305815e-01
5.961015344956964723e-01
1.012004762128778879e+00
9.164648134133230872e-01
5.002656538794467700e-01
6.628736458671098675e-02
-2.254347572231786279e-01
-3.691017713307170323e-01
-4.125971607006865827e-01
-3.810399373937283229e-01
-2.685391631126721745e-01
-9.099624380052818984e-02
7.604258661264180763e-02
1.495970302596078272e-01
1.257877855527776423e-01
7.425462050331910202e-02
4.313307961213132258e-02
1.526234283911566056e-02
-2.583271727213570096e-02
-4.029416406418794699e-02
1.058067619954802460e-02
8.351086351303167732e-02
9.036108847388163445e-02
1.266271324608167839e-02
-6.977772579717973767e-02
-7.217872711305829692e-02
7.094208717866212072e-03
9.570750767838180628e-02
1.183313234097856659e-01
5.878278346481633637e-02
-2.972906511200100813e-02
-8.258783309380898774e-02
-9.614097346539539346e-02
-1.111079439549576414e-01
-1.205426130246458061e-01
-6.018402745199007836e-02
7.477213782535406528e-02
1.746758882501978638e-01
1.433558558693612539e-01
3.017640239861017412e-02
-3.939368462784369196e-02
-2.934091627221461010e-02
-1.208225234951483887e-02
-4.025108581940972652e-02
-7.516162855059511927e-02
-5.108969162477947079e-02
3.702029930089629356e-02
1.191051167342848938e-01
1.081374878294571046e-01
-3.232239654385651601e-03
-9.649563533422061967e-02
-4.122299414444885457e-02
1.239175849528913742e-01
2.141205929095785776e-01
1.336253564576470598e-01
-2.480367165425753292e-02
-1.529885001198244832e-01
-2.594945524355163902e-01
-3.621283521185594823e-01
-3.840566554313439851e-01
-2.495474333348905449e-01
1.206638399552424287e-02
3.215561311486562768e-01
6.030071750329085711e-01
7.302554726656996786e-01
5.699179104538928398e-01
1.798177040874980870e-01
-1.761834126445905868e-01
-3.380423797122594221e-01
-4.365305910141253354e-01
-6.188800605051233417e-01
-7.372009460318926788e-01
-5.341557596260992913e-01
-4.479631461706373025e-02
4.208046302229865865e-01
6.373051756659854350e-01
6.082712576968946072e-01
4.402392700791755153e-01
2.694751229418634320e-01
2.073669048976904405e-01
1.720828272511948920e-01
-8.967144896569882728e-02
-6.064428899377221072e-01
-9.559491250271129337e-01
-7.087532566198836426e-01
-1.636826831221104353e-02
5.309624762440544599e-01
5.962910572441653123e-01
3.469082732783163592e-01
3.981230772380845578e-02
-2.561722330009973958e-01
-4.293710592751025512e-01
-2.333666773405674300e-01
2.983139351663954275e-01
6.621528005996534239e-01
4.663236470579246173e-01
-2.777546530407764072e-02
-3.055540688975003083e-01
-2.924575532967878533e-01
-2.402945302858602861e-01
-1.890781457596363846e-01
-2.295225292954860066e-02
1.380325625293779557e-01
7.356699517300570312e-02
-1.207056325424528259e-01
-1.403859846810432410e-01
5.910824539404421069e-02
2.107297171328351704e-01
1.452968935353105284e-01
3.817243836299775636e-05
-3.208024239286744878e-02
3.346601171921888968e-02
6.085230774666337134e-02
2.129160751222563056e-02
3.827261016971869861e-03
4.534783328089581761e-02
6.501099420238219684e-02
-1.350460491178547343e-02
-1.407383307779527248e-01
-1.875278412267680772e-01
-1.003602345338587415e-01
2.728934686660746886e-02
6.337322626756038135e-02
-2.067658183330746847e-03
-5.121151174721296634e-02
1.865323678584353533e-03
1.027825988155887521e-01
1.415225326489882862e-01
9.742758122079313299e-02
4.365721762005392997e-02
2.872689457906336605e-02
1.663893825508426169e-02
-4.101616367827084358e-02
-1.187052229226403799e-01
-1.405194530229584571e-01
-7.796389337126979902e-02
1.007918636251592046e-02
4.520503314856868377e-02
1.845043050114269362e-02
-6.952585031075795424e-03
2.168872462286744116e-02
8.128002219130246730e-02
1.039105720795282101e-01
6.239399357329880602e-02
1.234703487240719749e-03
-2.561856743789096488e-02
-2.627496435041533698e-02
-4.913609640624955893e-02
-9.208188527113188304e-02
-8.340261242720023449e-02
1.074551691221080005e-02
1.045734654358220356e-01
8.769454979106240666e-02
-1.883299018815489875e-02
-8.325725827190130768e-02
-3.975950276783720566e-02
3.879781128813576674e-02
6.145836243833457252e-02
3.596657972831813349e-02
2.813893796723592952e-02
5.445918421993401620e-02
6.143172938311613346e-02
3.472727773812768742e-03
-8.688312767922391766e-02
-1.251973385472876510e-01
-7.379920090492439466e-02
7.370765613916769460e-03
3.265113154348271013e-02
-1.145528187121506048e-03
-1.744359560186990385e-02
2.843858811034383552e-02
8.518560497251696784e-02
7.742795344594205487e-02
1.248775342726412760e-02
-2.431831937396774709e-02
1.648658236151905390e-02
7.383191371844917417e-02
5.007655001342228157e-02
-5.096365084122039812e-02
-1.152056842865245845e-01
-6.966033581948120890e-02
1.468179903449344167e-02
2.324273271846144170e-02
-4.221937421054162282e-02
-7.703317049948643636e-02
-2.934438028192637785e-02
3.922200869869310602e-02
6.207002686512621409e-02
6.119342831159674950e-02
8.904412004608466824e-02
1.270535057460629724e-01
1.006903696917471058e-01
-1.190889441777110216e-02
-1.276145709431917852e-01
-1.389541752392161045e-01
-4.263506412924781414e-02
4.392700418231794413e-02
2.019484750266488035e-02
-6.983177666111239912e-02
-9.720581202408797028e-02
-2.363025745129971114e-02
5.313993695533256179e-02
4.993511453870503464e-02
1.916679272211952931e-02
5.742270976736955218e-02
1.436424141611695182e-01
1.550801176817487859e-01
3.815129111211621599e-02
-1.099411911028646133e-01
-1.540380550591327058e-01
-7.599615216684574293e-02
1.495750817481988557e-02
1.835956162151597751e-02
-4.251994631179564776e-02
-6.509358642380644322e-02
-1.059107432573233934e-02
4.668256832443785226e-02
3.386850706076641876e-02
-6.209692419186198936e-03
2.401776463785161228e-02
1.204763467599519883e-01
1.591498894024575006e-01
5.875562097008796975e-02
-9.709809863480116376e-02
-1.527379929336266373e-01
-7.116892256047845089e-02
2.687811140567395937e-02
2.308363560784046711e-02
-5.267501947570106535e-02
-7.706357686313107525e-02
-4.720928717796810808e-03
7.606392573275401470e-02
7.296496718484021815e-02
2.073156137021641907e-02
2.615686231983204921e-02
1.015214428066953251e-01
1.302803363104041989e-01
2.709698128394634128e-02
-1.296889007061376442e-01
-1.849684824342642808e-01
-1.006877994161737705e-01
2.391994394441733767e-03
6.940613006709655392e-03
-5.385696964349248606e-02
-5.733127270570807787e-02
3.094069785236095924e-02
1.127815042731357825e-01
1.068015310612949326e-01
7.069829146590439484e-02
1.097689437815754926e-01
2.029392081446420582e-01
2.112642200302684015e-01
6.648154756285765132e-02
-1.313964056794089397e-01
-2.411977437738926089e-01
-2.458437343805341957e-01
-2.381799144627159970e-01
-2.723779225476938293e-01
-2.915573825947209707e-01
-2.121003682432828219e-01
-2.635199570722717224e-02
2.141229873308334031e-01
4.653498568232615762e-01
6.695180064396503150e-01
7.054505944952299545e-01
4.708933501388691267e-01
3.243553380196251973e-02
-3.832445539483618768e-01
-5.759351936072617528e-01
-5.213816450286223869e-01
-3.481499676947709121e-01
-2.041094196159288776e-01
-1.401532502226454091e-01
-9.821300648519441789e-02
-3.118262650787813079e-03
1.407159444541652427e-01
2.504551270276687003e-01
2.552923322109322268e-01
1.758223365782774494e-01
1.090947670340832315e-01
1.268897569579763018e-01
1.890848726466042851e-01
1.828523049112470988e-01
6.243787842615881184e-02
-8.672667102700228059e-02
-1.595260264723691035e-01
-1.636776739310764617e-01
-1.754593639742915157e-01
-1.982367133863222330e-01
-1.603053584583793989e-01
-5.313264112898840458e-02
2.570830472811736975e-02
6.528637706544059699e-03
-4.603748722165305202e-02
-2.203835490225328556e-02
7.630171084354066269e-02
1.392702616215865385e-01
1.060463834374516107e-01
4.405384958501671472e-02
5.167421573892914261e-02
1.364261251811020037e-01
2.180329816078950822e-01
2.207555336361703424e-01
1.427775067989735247e-01
4.562354744270360335e-02
-2.331225380921968585e-02
-9.772330443542097400e-02
-2.559001611641961160e-01
-4.921471987375439228e-01
-6.457514188814105216e-01
-5.217103071445255980e-01
-1.229193074877210495e-01
2.881568605247828430e-01
4.478379468394643181e-01
3.831440683418091409e-01
3.262417177066926355e-01
3.692347731298871727e-01
3.830150614099465667e-01
2.755604392824096971e-01
1.183183656254107735e-01
-2.594914184481960165e-02
-2.049105420767581842e-01
-4.299205124898211605e-01
-5.713111049381853768e-01
-4.945437137483415513e-01
-2.372290715784913795e-01
1.681056669144083068e-02
1.281598629864924566e-01
1.310029301022540005e-01
1.533911992365469268e-01
2.286353935003549998e-01
2.526526001014309242e-01
1.560509522878113231e-01
3.125573911129565091e-02
4.193245532974631401e-03
4.761037079111635900e-02
3.774923929227366054e-02
-4.360591886292983915e-02
-9.325024999477103671e-02
-5.945111551171971404e-02
-1.270527063174844724e-03
2.692368868773513044e-02
2.204055430078292674e-02
-3.679192317871551182e-02
-1.617939393141866189e-01
-2.562035429323299418e-01
-1.892287632534053188e-01
1.349858339455485209e-02
1.834268795834450017e-01
2.173871629431797792e-01
1.602816842212500259e-01
9.025114086193150587e-02
3.181606115454863742e-02
-1.180310821047244121e-02
-2.424698377988051060e-02
4.036480583931374017e-03
4.777113837584049533e-02
3.979206406766020582e-02
-7.705331208831871226e-02
-2.292529955834195221e-01
-2.083160794583724384e-01
5.817576789011428412e-02
2.920968564420715619e-01
1.739954438096945055e-01
-1.560562383904778860e-01
-2.330550389652765175e-01
6.001972093964189764e-02
3.111203476958083192e-01
1.857427665061543165e-01
-1.210598651933699060e-01
-2.402402071055073363e-01
-1.717346369123256000e-01
-1.870852755665143308e-01
-3.232254570244418868e-01
-2.832139831555991472e-01
1.304980897034170861e-01
6.938002373993429339e-01
9.632700228672427256e-01
7.139142184694998727e-01
1.185743199294301414e-01
-4.522270465683520535e-01
-7.380361292358466052e-01
-7.132570111655812672e-01
-5.036618152394534143e-01
-2.514161942967308438e-01
-3.608397837813314551e-02
1.337878848076082816e-01
2.717131815418321605e-01
3.644081386244060750e-01
3.907337214769002753e-01
3.643163198833876404e-01
3.055156541949643478e-01
1.905682665883053906e-01
-5.766892935195989250e-03
-2.315142058356703947e-01
-3.942988622133438148e-01
-4.628164597698616878e-01
-4.453676998181231306e-01
-2.868768461284375015e-01
6.965121009497428350e-02
4.786866305856408710e-01
6.137840242075430774e-01
3.251801856586051809e-01
-1.276708291021992625e-01
-3.476880354816548335e-01
-2.386919141127215038e-01
-2.753040988784126800e-02
9.877114692661491391e-02
1.832480057686113883e-01
2.856471569604477900e-01
2.731740625287543134e-01
-4.416903441008469128e-03
-4.141269340041248137e-01
-6.075946636645263021e-01
-4.091047033572812741e-01
-1.087381829390484181e-02
2.568727953231592642e-01
2.705912225307438024e-01
1.801108310504908327e-01
1.769326973032274430e-01
2.706263194948878570e-01
3.182365715614809965e-01
2.209593915567282518e-01
2.310585826415502073e-02
-1.742642082331363751e-01
-3.204346851764259818e-01
-4.036019803945359308e-01
-3.993520517517750723e-01
-3.033312218537179139e-01
-1.788644615973966623e-01
-7.749324358213911801e-02
6.801847165679116014e-02
3.422618413407435001e-01
6.338747839162292008e-01
6.851395586079193079e-01
4.047377325427914951e-01
-9.081540483279960246e-03
-3.022249605632180147e-01
-3.923262943572977668e-01
-3.366669149976591058e-01
-2.160688187628448109e-01
-1.062992441130988369e-01
-5.926306309646985765e-02
-5.303979744929545465e-02
-2.099450432771428690e-02
4.429404178095094208e-02
8.068683828483518006e-02
6.881653308240842648e-02
7.772450469083880265e-02
1.527435183572350974e-01
2.186550083795482102e-01
1.647069194758317701e-01
4.438314767698275237e-03
-1.195575034842477624e-01
-1.059975169808851092e-01
-1.625077331657495336e-02
1.637524860736768936e-02
-3.729954823249372747e-02
-8.644756395172491226e-02
-7.481875169547429205e-02
-6.076958630616075691e-02
-9.985616252922202563e-02
-1.275089309739125820e-01
-4.157607269542703404e-02
1.364864770049388221e-01
2.635974150990964548e-01
2.340103968863140316e-01
8.710089226184193623e-02
-4.450639165776238554e-02
-6.972232299648391252e-02
-2.164331887307757371e-02
-8.096576522852717145e-03
-7.714274077185784284e-02
-1.552068958459786319e-01
-1.418402575387390230e-01
-3.660240429732963124e-02
7.015433904795431719e-02
1.132742344035651272e-01
1.079754244723564877e-01
9.188479814733961637e-02
6.613375089931329553e-02
1.769163090184558071e-02
-3.466784144436971943e-02
-5.202924673096877978e-02
-2.675432394885152512e-02
-9.419763464190195230e-04
-2.585632668484343435e-02
-1.001208245512829054e-01
-1.494284477512369813e-01
-9.007926792641417213e-02
6.662974460890359885e-02
1.983459084650460447e-01
1.977518146729198567e-01
9.446129424779717287e-02
4.692872153595383650e-03
-2.091378138360711417e-02
-3.592365109555070019e-02
-8.506535203819164115e-02
-1.221255691757689027e-01
-8.065334475424036642e-02
1.064314957263911773e-02
4.590042374347045456e-02
-1.169803258714525659e-02
-5.890506009120563546e-02
1.499642805604571236e-02
1.561545026305714567e-01
1.936019879283822909e-01
6.648565492080131534e-02
-8.673446719316459108e-02
-1.093745811790361316e-01
-2.197988678827664938e-02
3.015721549384644748e-02
-2.164915834898603966e-02
-9.774536209066385373e-02
-9.419956063726785123e-02
-1.786877881975073787e-02
3.352108484198736832e-02
8.722974231173335341e-03
-2.109535943789271964e-02
4.219809999136995421e-02
1.703952016850583673e-01
2.179118111688260473e-01
1.069210715121884508e-01
-6.201980810729878363e-02
-1.346942435012779271e-01
-8.954082103648462743e-02
-3.558344023381210947e-02
-4.948427217997137390e-02
-8.481268550034924691e-02
-5.896508010604963740e-02
1.864076112357808054e-02
5.351526059149040032e-02
-7.594680212049229225e-04
-6.231422426071946824e-02
-1.575171428731872783e-02
1.255145548808959677e-01
2.124728975116978169e-01
1.432924730636936095e-01
-4.434729767623980107e-03
-8.027548661710218192e-02
-5.383104171614375155e-02
-2.280195538156596161e-02
-5.050372361196568682e-02
-8.434717202947968062e-02
-5.574827112093169029e-02
6.243710085955030825e-03
1.315752067363653785e-02
-5.222154136641383310e-02
-9.630701550446026105e-02
-2.728702241716248270e-02
1.200839628465750902e-01
2.119022532398246450e-01
1.683673728533003344e-01
4.968863349559156373e-02
-3.229684233032135976e-02
-4.963548267516858931e-02
-5.893713528164008092e-02
-8.947648547840664213e-02
-9.759633205230471009e-02
-4.711276749487745136e-02
1.938430120983634583e-02
2.875781978204717745e-02
-2.548600717640602323e-02
-6.872295133584833959e-02
-2.955107486032431188e-02
7.605800952508813551e-02
1.556139690263995956e-01
1.400776360611443450e-01
6.033493322356117683e-02
8.820116076681361154e-04
-1.114192923204032973e-02
-2.545020466351791480e-02
-7.290484221268725418e-02
-1.072436050836790833e-01
-7.556651103298481220e-02
-6.788447000506275114e-03
1.813020634294454023e-02
-2.642466260279311904e-02
-7.337925168955368449e-02
-4.349639449894675963e-02
5.942565093804547810e-02
1.518949648074709446e-01
1.626132587204262570e-01
1.031123801208599922e-01
3.803872654299839812e-02
-1.736252436979242048e-03
-4.500931716839686597e-02
-1.082416904599154822e-01
-1.400253605900927956e-01
-8.668169810082602955e-02
9.502583158191583307e-03
4.569682215737233544e-02
-3.740515712194786031e-03
-5.195319341508259497e-02
-2.359983420416144131e-02
4.836130594767139995e-02
8.756467764042837054e-02
8.332152177032357832e-02
8.123567109590128232e-02
9.346975938073996681e-02
7.465769146936090950e-02
-8.444731520551407994e-03
-1.162752483502099976e-01
-1.654489386082256541e-01
-1.169549824438771701e-01
-2.354271362693795624e-02
2.442475507655641684e-02
-1.694797144519946848e-04
-3.280321929927252494e-02
-1.969502269593418915e-03
7.496444307306759924e-02
1.148359489493733093e-01
9.230313439383835972e-02
8.893447278136210055e-02
1.634276046186396436e-01
2.033355226065444166e-01
1.871372593068150111e-02
-3.620239682067089571e-01
-5.991036317200598704e-01
-3.919329314859503199e-01
1.152018261525546566e-01
4.563242043195595010e-01
3.919670263631473972e-01
1.437197795683342605e-01
1.721040095923485544e-02
6.630534962765246426e-03
-6.763133132562644534e-02
-1.982821971815886819e-01
-1.996308394049949864e-01
-2.157280873546978464e-02
1.518296856772487491e-01
1.472886027097131678e-01
1.066400759048613880e-02
-8.390127810507061468e-02
-5.351389846400439465e-02
2.609139443064358369e-02
4.222512908411715782e-02
-1.775022598719070560e-02
-6.555077438908052390e-02
-3.330111065589987790e-02
3.473214150971101755e-02
4.347814424586917553e-02
-1.116969451231444865e-02
-2.526702200515733646e-02
5.846336250884397873e-02
1.441996282184468958e-01
1.021352208904599962e-01
-4.387439207979645234e-02
-1.352302083952603984e-01
-8.375861055013865408e-02
2.179925280991212508e-02
4.418474738947118091e-02
-2.630577765518115826e-02
-7.959445424876984698e-02
-4.505739710788272956e-02
2.510042685202978907e-02
4.923570990199572367e-02
3.374805517920547587e-02
4.393716413514798386e-02
8.744550675188610123e-02
9.416988438624079860e-02
2.006813177185752181e-02
-8.013067012688551705e-02
-1.124428466013874112e-01
-5.425996834072514124e-02
2.132487397889977834e-02
3.151406650986404018e-02
-2.430938215172766606e-02
-7.136253522417966566e-02
-4.819720023313620039e-02
3.165953241476827246e-02
1.058631388301679438e-01
1.299110673918243419e-01
1.088322393579865127e-01
7.109921812451983070e-02
2.333469503467717684e-02
-5.089897197940464885e-02
-1.404965392370119970e-01
-1.870971870696305772e-01
-1.493880137328287006e-01
-6.604623549204904909e-02
-1.268134615423355607e-02
-2.242186084418635889e-03
3.152890425974295280e-02
1.385486751658941140e-01
2.663842881097339688e-01
3.001245838297513790e-01
1.901714607224385123e-01
1.111326856553197448e-02
-1.245135293634291734e-01
-1.825342103341940081e-01
-2.062221962511585072e-01
-2.226417237341193345e-01
-1.978643373122200844e-01
-9.674463012761506941e-02
4.162595545457038054e-02
1.234359524851854489e-01
1.061516967159847058e-01
5.810596916741731649e-02
7.636449402345278636e-02
1.552074346805338845e-01
1.876184894582305362e-01
1.100607302033344143e-01
-1.017835743973748500e-02
-6.876281421492769219e-02
-5.966214241014603653e-02
-6.237670975529670953e-02
-1.151675571306199908e-01
-1.589875082889701807e-01
-1.205746592599776096e-01
-1.459092465851196188e-02
6.981420974307277205e-02
7.652144962762905123e-02
4.169709436418723297e-02
3.198089821708571118e-02
5.460041431565294118e-02
6.273634174981895795e-02
3.587515737974234648e-02
1.174641986446852207e-02
2.463654481062521953e-02
4.162997637302918302e-02
-3.118255304367313369e-03
-1.078460245987694355e-01
-1.746818241769146351e-01
-1.161940371295668850e-01
2.787076899181624087e-02
1.278684630460512894e-01
1.195567138261179885e-01
7.052736954367699873e-02
6.934722426355556524e-02
9.795218483847022151e-02
6.525563569355206928e-02
-5.489985394273191183e-02
-1.762677215058213454e-01
-1.985401768931863709e-01
-1.171877728740677305e-01
-1.647382082871258827e-02
3.247066547496681860e-02
4.217499538565828293e-02
6.567783386693065717e-02
1.055825811007840981e-01
1.108560145405284025e-01
6.658284447262369232e-02
3.086804566174587358e-02
4.948324015793085368e-02
7.514847683336702000e-02
2.392138845821832269e-02
-9.965539274319197560e-02
-1.877731588418707354e-01
-1.599572853720201970e-01
-6.693627453998780841e-02
-1.869840301297289245e-02
-3.224693881570844106e-02
-1.684958915121500048e-02
8.196103285041099473e-02
1.900205300063822489e-01
1.950731379326079429e-01
9.083978161258424167e-02
-1.733918089422119627e-02
-4.257492550608171084e-02
-1.026373557172661002e-02
-5.418944724654876227e-03
-5.562740570791432221e-02
-1.025245680533781595e-01
-8.536477318597510133e-02
-1.968347198483419089e-02
2.333895300564517092e-02
3.336101985077024028e-03
-4.242393528560695765e-02
-4.548709226865329386e-02
1.159988702169167593e-02
7.799086555105388952e-02
1.008822148316250583e-01
8.639511062335515634e-02
7.423217867913699253e-02
6.641661507516276319e-02
2.250426821730494228e-02
-6.135717220387017917e-02
-1.137726646985948581e-01
-7.287504620274727618e-02
1.616904615170651136e-02
4.590721923057566184e-02
-1.431000753650513505e-02
-7.979511182087072052e-02
-6.691143594458710819e-02
-1.685897365816234079e-03
2.294898052105175459e-02
-2.247749488072962876e-02
-5.816955007672857531e-02
3.592495509024597449e-03
1.330729932102913127e-01
2.021876594409611205e-01
1.404853357268136260e-01
2.270140588165931936e-02
-3.803973092179318422e-02
-3.675829772436799842e-02
-5.172932357397525688e-02
-1.027764024192640707e-01
-1.164262104897409583e-01
-4.422125417520981344e-02
4.901993158668391942e-02
5.941185427811315062e-02
-1.923050011114896610e-02
-8.347192917026945158e-02
-5.435275488759377938e-02
2.027899839462760090e-02
3.832589503597415292e-02
-4.541703830631866473e-03
-2.294563689870268448e-03
1.029652318495476587e-01
2.146151189475772325e-01
1.921630452597194449e-01
3.451109905427144492e-02
-1.146552268550281167e-01
-1.394456278927740100e-01
-7.219260777658854933e-02
-2.657461356267426869e-02
-5.171328069985337006e-02
-8.823539630506695153e-02
-6.305789569107193848e-02
7.755195568929573041e-03
4.086490841722267148e-02
1.573235058624357623e-03
-4.297580515986903354e-02
-8.472622982825184917e-03
9.360827261481653727e-02
1.642574302083206206e-01
1.377331513973327481e-01
5.736959517433377204e-02
7.014269197080365975e-03
-3.138591884262600679e-03
-3.147080759528559507e-02
-9.360401695926255650e-02
-1.223978231917150911e-01
-6.687306795197982268e-02
1.990550569999181493e-02
4.038954062970456088e-02
-2.035236072879885796e-02
-7.458258178283748430e-02
-4.609420338079660284e-02
3.069558555196499200e-02
5.779338818674973483e-02
1.068218002335620184e-02
-1.921426779667563881e-02
4.914013413411145309e-02
1.561614541356552976e-01
1.647030860002314245e-01
4.473293279144845841e-02
-8.145857957799117199e-02
-9.852526018474687397e-02
-3.558224637244254696e-02
-3.193798034300446027e-03
-3.837248584519210165e-02
-7.124988662325974775e-02
-3.996914248800702979e-02
1.772608612138878645e-02
2.180211752156896790e-02
-3.234599154546313748e-02
-6.721271741193193816e-02
-3.156396928986442141e-02
3.873718300693935329e-02
8.417770509554027558e-02
9.692645014582219887e-02
1.024969157825094263e-01
1.006265566542780959e-01
6.231684034008391077e-02
-1.993062491274747230e-02
-1.003173797358897917e-01
-1.125857975581317227e-01
-4.492169332470957038e-02
2.864556129908380974e-02
2.233767314388067013e-02
-5.361719648987919862e-02
-9.680671695303826041e-02
-4.099194325888530499e-02
5.435133909913563571e-02
7.639651791098786560e-02
3.278039137658696461e-03
-6.416734172449350959e-02
-2.474252951778522017e-02
9.518528759191433042e-02
1.664473337908961570e-01
1.106869221764198857e-01
-6.525218287221617314e-03
-6.416813501852992874e-02
-3.773281408411834764e-02
-9.713964949406083543e-03
-3.581394969630068842e-02
-6.715865480526489462e-02
-3.641930167035344751e-02
2.935083941138487071e-02
4.088808265030322020e-02
-2.421634189991019384e-02
-8.651674301044379178e-02
-7.250451231670014540e-02
-6.283583635747044122e-03
3.953690566837204934e-02
4.798073581690532469e-02
6.517766752649815920e-02
1.145351884567199774e-01
1.475460455973569285e-01
9.926184534960025285e-02
-1.974027768923686602e-02
-1.129222813571344325e-01
-1.009088224677567452e-01
-2.188321929117919076e-02
1.093281054011002382e-02
-4.567772697492244321e-02
-1.106920275727775183e-01
-9.251043187129848189e-02
-1.330238516489537157e-02
2.896222414441820825e-02
6.094845957682486909e-03
3.584704228494061101e-03
9.138335235490670228e-02
2.015872984774319809e-01
2.001517418937413528e-01
6.588531359918009533e-02
-7.478485935651350835e-02
-1.064649896814196389e-01
-5.478031699468514926e-02
-2.488293446328163419e-02
-5.769757388062867615e-02
-9.510761197721040450e-02
-7.234827137557342525e-02
-3.772828496122624959e-03
3.680838883739832867e-02
7.872241325305482512e-03
-4.497079515269002820e-02
-3.658443405339985993e-02
5.562455185925115758e-02
1.537377223023986272e-01
1.635911243672105164e-01
8.756654004013145198e-02
1.410295086751618340e-02
-8.995168043570010014e-03
-2.997046025078570555e-02
-8.911831724839856805e-02
-1.277706093436716261e-01
-7.425262161752228807e-02
2.337607842659030280e-02
4.471868064194835929e-02
-3.006776408895782057e-02
-8.607683525610834718e-02
-3.794046906139184744e-02
4.832968438840999637e-02
5.639417279188606996e-02
-4.274493408198371674e-03
-8.594741234534356705e-03
9.701944349217334063e-02
2.023444285629116823e-01
1.706813598046005298e-01
1.326174805698946899e-02
-1.259417940951189641e-01
-1.370357736124271364e-01
-5.856848002512273638e-02
-2.131064528121544635e-02
-8.610230665802662275e-02
-1.612825621555331324e-01
-1.153294518118230111e-01
4.656274480137976429e-02
1.803737423339383528e-01
1.799260665123313119e-01
9.080675283475113380e-02
2.679199953623178851e-02
2.517223454388769696e-02
2.569121827284848517e-02
-2.572858860859549360e-02
-9.583816183541378486e-02
-1.081612791042079053e-01
-4.762253467461532302e-02
2.036763432728392817e-02
4.045341923043712512e-02
3.234105009275935888e-02
3.854368536920176752e-02
4.622344763315183042e-02
1.249406918262086288e-02
-4.812938713379241729e-02
-6.561815672001276856e-02
-1.853691204274566032e-02
2.373026769712064180e-02
1.676720488773218980e-03
-4.016362094502577695e-02
-1.685352545357089379e-02
6.807330759746590965e-02
1.201685165420129792e-01
7.592823027881985543e-02
-2.114225776852265634e-02
-7.486765629171036884e-02
-4.197387088734363947e-02
2.562193626144290692e-02
4.139725322376800604e-02
-1.377039821992390167e-02
-6.490012645596095198e-02
-3.731744609607261925e-02
3.669209397361119368e-02
4.803268534237459947e-02
-4.006699668552365229e-02
-1.189137240004764368e-01
-6.090562868259883494e-02
1.000711111351332977e-01
1.881785812120238821e-01
1.067503997554491296e-01
-3.216188658424794233e-02
-5.869575105261640169e-02
2.616063693033357507e-02
6.416009551440059189e-02
-2.881366904200769255e-02
-1.462735049647406749e-01
-1.438325630170603497e-01
-3.153523802431385664e-02
5.278634619667851163e-02
3.027809135573833813e-02
-2.435669220710997770e-02
8.249359984345099733e-03
1.241865326679314346e-01
1.885351516803282224e-01
1.094828048190586572e-01
-3.291380809784343053e-02
-8.738873775790780007e-02
-2.986523535531774090e-02
1.638046248929271240e-02
-3.849775751151834208e-02
-1.291796752660761549e-01
-1.349889744026864513e-01
-4.828809771388958144e-02
2.081035061670124739e-02
-4.130815734295187509e-04
-4.593521551766106131e-02
-5.558788850931373378e-04
1.350143443627685735e-01
2.300020666718761708e-01
1.928644056158069775e-01
9.153634543447147776e-02
4.747877202656616141e-02
6.159301328287621752e-02
3.523547190728435613e-02
-6.610008656692191453e-02
-1.829455773518409156e-01
-2.885492272552270809e-01
-4.085142833832112741e-01
-4.793925368375990259e-01
-3.347512695827540852e-01
7.237739536312355615e-02
5.364706505801879466e-01
7.874227703793224009e-01
7.277568845758675131e-01
4.079994998868195499e-01
-8.011163400631025888e-02
-5.171537378662961482e-01
-5.437631636355483300e-01
-7.517132504512115398e-02
3.618095874013014801e-01
1.556107218788076452e-01
-5.099851641079540254e-01
-8.056982939510740627e-01
-3.920626634103660524e-01
1.356989712691977490e-01
1.828375818539270670e-01
3.019076324782894380e-02
3.185015092258691172e-01
9.429933951134763515e-01
1.059671917925063322e+00
2.743739828789650281e-01
-6.929922154769815323e-01
-8.857019025533779955e-01
-3.149226182154306608e-01
1.843387148494683991e-01
1.098507702625027976e-01
-2.316157984551798221e-01
-3.699207527950826857e-01
-2.681825241170267549e-01
-1.317671767819064699e-01
-2.863506341094103087e-03
2.158327559480406888e-01
4.988892443689927347e-01
6.495270942614113086e-01
5.030351581231075064e-01
1.206471600770589597e-01
-2.397683371118847773e-01
-3.698685627959627520e-01
-3.103333878668086965e-01
-2.453988775030850333e-01
-2.341549431274874971e-01
-1.686796832178692473e-01
1.689606467720160526e-03
1.539818665083261540e-01
1.618697504256906561e-01
7.311829814529925697e-02
2.828610376061772499e-02
6.139250449947662031e-02
7.857089165379922691e-02
2.883968237553431388e-02
-2.784622868759922994e-04
8.298324426165572254e-02
2.034977233273734532e-01
1.834452774816158760e-01
-2.201034633909714280e-02
-2.488151427561214879e-01
-3.185795691525923345e-01
-2.301545400801113250e-01
-1.056665005174282357e-01
-1.412936504507120508e-02
7.190115727425154535e-02
1.698193869954365276e-01
2.172892936331463631e-01
1.447245932988626138e-01
-6.117765861265406918e-03
-8.756047773863030736e-02
-6.810813551773046287e-03
1.390482718629958703e-01
1.490554079745718408e-01
-3.741477483711474344e-02
-2.349880969386986540e-01
-2.178685860964727217e-01
-1.017003875595597420e-02
1.319223160781156645e-01
5.601614520552489901e-02
-8.992434362235020295e-02
-8.342623415618273530e-02
6.050194805255382918e-02
1.415424908188687159e-01
7.389401349261112695e-02
-2.272250328164060473e-02
-2.716842804487739141e-02
2.451714815906477427e-02
2.816972454986465743e-02
-3.046869009424631528e-02
-7.090805667350098818e-02
-3.714419856973431161e-02
2.958823078140292856e-02
4.476185126491057792e-02
-1.159483566316893768e-02
-6.434043825717673803e-02
-3.320275744886887898e-02
6.502687360024869689e-02
1.343188518596902525e-01
1.135317297077778759e-01
3.800459066778971717e-02
-2.069613293137215551e-02
-4.415068526631626272e-02
-6.926875367232174230e-02
-1.143901671120630542e-01
-1.392706319989504282e-01
-9.647596413720956054e-02
-5.195607203510355793e-03
5.606144543652148010e-02
4.018395176340460589e-02
-2.930718021269974622e-03
2.222348506901001761e-02
1.339444311231230422e-01
2.313557707273096176e-01
2.080940262879978353e-01
8.879270139257434968e-02
-4.581589397167771388e-03
-2.123255851187856938e-02
-3.530936875302644745e-02
-1.037223745701463945e-01
-1.753596716788644316e-01
-2.142569148611873642e-01
-2.858099781754770974e-01
-3.812237422005762544e-01
-2.961111412752641114e-01
8.113560508772217628e-02
4.646934686270026149e-01
4.606107613079453156e-01
1.287070978278401501e-01
-4.920791567234793912e-02
2.077837573761048273e-01
6.296019393666739683e-01
7.195175993326531350e-01
2.739054201034742397e-01
-4.531497854459419217e-01
-9.957041066936885843e-01
-1.049919747290849026e+00
-6.664163816686744513e-01
-1.353084781033871975e-01
2.779439836877012904e-01
4.741611320445421329e-01
4.719825226118866124e-01
3.338261079798520714e-01
1.628724239368554150e-01
7.247706968508833836e-02
8.175457709365414882e-02
8.650774295497844213e-02
-7.654249584813522383e-03
-1.579473116969792867e-01
-2.361759779032786832e-01
-1.733088465848326432e-01
-1.053520550890032006e-02
1.622429264713480257e-01
2.734685597088203912e-01
2.842822669107266664e-01
1.688150789057243362e-01
-8.910898422206396663e-02
-4.340521539565349585e-01
-6.684396891411622521e-01
-5.618451141854486908e-01
-1.391313771793519227e-01
2.558685759216523525e-01
3.474223236200436049e-01
2.607210734383725859e-01
2.752144412446287935e-01
3.751744095159393333e-01
3.062256483500886972e-01
3.841243274322531792e-02
-1.108542755116665862e-01
6.148914701837349811e-02
2.699279668870663840e-01
8.052624108847224182e-02
-4.602393294186298278e-01
-8.204805251164256630e-01
-6.197132782746946900e-01
-4.845387866430921758e-02
3.810363045393075354e-01
3.584505332492600727e-01
3.123345978288856115e-02
-1.888886960706043228e-01
-5.674506860426741656e-02
2.833674120028712440e-01
5.054700824168406603e-01
4.425987946114550708e-01
1.730435659781756619e-01
-1.173788817099214038e-01
-2.605836334441861135e-01
-1.905144354073877999e-01
-3.753453409891410048e-02
-7.696261871798491805e-02
-4.124143919035540562e-01
-7.278909535137619846e-01
-5.674258713513470331e-01
8.548420021030551930e-02
7.167238997666839362e-01
8.626097169905607709e-01
5.902756757245298802e-01
2.876835449120380139e-01
1.565166350756333757e-01
7.382728949907126081e-02
-1.398210503103979874e-01
-4.628680635055577031e-01
-6.813977892791857061e-01
-6.122894063042415569e-01
-3.251725535701568415e-01
-9.824868335863083668e-02
-7.943355950467374804e-02
-6.990171758605394359e-02
2.018816751431906087e-01
6.543323439693239374e-01
9.100027177655575228e-01
7.587411511936212882e-01
3.496603092588868589e-01
-7.549269601149181941e-02
-4.115664426134460485e-01
-6.133640505286229727e-01
-6.074127291674372708e-01
-3.976418374166187375e-01
-1.450952986949721746e-01
-2.636181360273136612e-02
-3.804265977308193131e-02
-1.347148449977774234e-02
1.545158795096421844e-01
3.577687124569656762e-01
3.935645403655986807e-01
2.234508326911995579e-01
2.588060946070431731e-02
-3.461353447843206615e-02
1.060939698652753598e-03
-1.120522668092795507e-02
-1.005713335648074636e-01
-1.612340358255398565e-01
-1.236010820932415960e-01
-4.981580072355584060e-02
-3.230444278500798488e-02
-5.824138837654393303e-02
-3.220216164465044412e-02
7.793467224986751207e-02
1.768350401915000092e-01
1.565923682192804089e-01
3.934069132138683089e-02
-5.143019646557818458e-02
-5.164659925577714389e-02
-2.424241412072919780e-02
-5.113919027721106764e-02
-1.155987847111596828e-01
-1.302780672446000043e-01
-5.267672194057298335e-02
6.448345557480308909e-02
1.328477542354101482e-01
1.181448192063102309e-01
6.589592014708826884e-02
4.154158000794496569e-02
5.419033286577882441e-02
5.746730436331489583e-02
2.710120407754685809e-02
2.496666430648118978e-03
2.092391749678078686e-02
3.972763802921196880e-02
-1.712402839358924747e-02
-1.355336738676838071e-01
-2.023664320097310343e-01
-1.547552637979103807e-01
-8.112415017345596391e-02
-1.074176995098169302e-01
-2.120404963701505163e-01
-2.370581762415199245e-01
-9.100736404232846744e-02
1.379916496249843916e-01
3.063134506389780798e-01
3.854662181493246353e-01
4.498027063867564013e-01
5.356719873967317191e-01
5.849969388978656371e-01
5.238949736960796244e-01
3.408024623115925578e-01
7.252457228661339517e-02
-2.512231632867137354e-01
-6.227380474280321820e-01
-1.017307472937002855e+00
-1.350677623092194857e+00
-1.497147737080878116e+00
-1.376576804941213261e+00
-1.020582975266175696e+00
-5.183798094813621971e-01
1.037741698311113459e-01
8.843313942619063228e-01
