BVP Green Neck Signal
2.106502667126065875e-03
-2.223058954857008978e-03
-7.772898954978096908e-03
-1.441648133452895671e-02
-2.195638576280273258e-02
-3.014279631027547840e-02
-3.869647171943278036e-02
-4.733329915030108637e-02
-5.578892349876531098e-02
-6.386089130603632424e-02
-7.134622314505902063e-02
-7.811412000738499062e-02
-8.408460593004894734e-02
-8.922052787718898204e-02
-9.351486901034999910e-02
-9.697550261689347195e-02
-9.961001821425324865e-02
-1.014139032432821858e-01
-1.023546784203099025e-01
-1.023732623153688626e-01
-1.013833080239934792e-01
-9.927755648071230621e-02
-9.593848205202067103e-02
-9.125174519005117835e-02
-8.511481931954636981e-02
-7.743640075509237997e-02
-6.822203930388442972e-02
-5.750859168691351692e-02
-4.538887487436972512e-02
-3.200928021051187983e-02
-1.756314947056165227e-02
-2.281074569642581925e-03
1.358857670569901983e-02
2.979795322469620464e-02
4.604411915543853151e-02
6.204662424378758895e-02
7.753270984616780770e-02
9.224200485478385725e-02
1.059294999340748000e-01
1.183673041328391212e-01
1.293472493162069192e-01
1.386818978375519706e-01
1.461985603640032216e-01
1.517506510973561651e-01
1.552184447578680848e-01
1.565134293853052416e-01
1.555830470400154653e-01
1.524152918360075493e-01
1.470394308167371211e-01
1.395310349673241357e-01
1.300239314217096487e-01
1.186949093698470153e-01
1.057650936335769037e-01
9.149458456167895715e-02
7.617540915489928732e-02
6.012325111161061914e-02
4.367591330115656173e-02
2.717512051765246656e-02
1.094158681543372022e-02
-4.708017703465591439e-03
-1.947625711064780718e-02
-3.309023609956641271e-02
-4.530581900967865089e-02
-5.591104611397178931e-02
-6.470532816739672788e-02
-7.153943323568565105e-02
-7.634624981617887940e-02
-7.908354649522683633e-02
-7.975614587822536794e-02
-7.841510263266800174e-02
-7.515566540728187139e-02
-7.011414758973948114e-02
-6.344537390517415720e-02
-5.535214596309984830e-02
-4.608784684845852742e-02
-3.591698893639470175e-02
-2.512200663228644423e-02
-1.399613626848192870e-02
-2.836023208878742010e-03
8.065715282674586206e-03
1.841103428576055037e-02
2.793754948052040027e-02
3.642158370597728401e-02
4.366174364807860059e-02
4.949182320776543409e-02
5.378288965422423767e-02
5.644423898889450175e-02
5.742353253129795637e-02
5.666907617390633950e-02
5.420027432450293114e-02
5.010730535194008600e-02
4.451005339787680870e-02
3.756686333845787179e-02
2.946802442519661294e-02
2.042827247221197517e-02
1.067897043912792270e-02
4.360278521881770855e-04
-1.007057661387859501e-02
-2.058065392331616394e-02
-3.083715441040305733e-02
-4.058958369222676749e-02
-4.960189934146647800e-02
-5.766011217262986821e-02
-6.457904982726245247e-02
-7.020465067453943164e-02
-7.444570823470940402e-02
-7.722603551101717145e-02
-7.850150532814274829e-02
-7.826497286026894151e-02
-7.654696319274087446e-02
-7.341545327108306429e-02
-6.897461606889303265e-02
-6.336500076702061834e-02
-5.675183691011238818e-02
-4.932890313666560278e-02
-4.131148126413290017e-02
-3.292982909382254769e-02
-2.442286440084800656e-02
-1.603174292858083189e-02
-7.993560992452627273e-03
-5.754585705750082936e-04
6.068436316715133255e-03
1.175107019939416672e-02
1.630066074455754910e-02
1.957223161373218209e-02
2.145301826349811300e-02
2.186691594988610793e-02
2.077760692532608020e-02
1.814563317069818257e-02
1.408755823946833581e-02
8.688637320853835611e-03
2.063945131362337430e-03
-5.639939362005845502e-03
-1.424624040425943351e-02
-2.355011355251003871e-02
-3.332173679005098754e-02
-4.329476399683274829e-02
-5.320741809122907229e-02
-6.279558447468701343e-02
-7.179801351751098626e-02
-7.996186115551678908e-02
-8.704774626380018532e-02
-9.283437610313623189e-02
-9.711730530696970065e-02
-9.966334203520306467e-02
-1.004024060462123114e-01
-9.923717459168721056e-02
-9.610911087519505291e-02
-9.100073310711803698e-02
-8.393677982998697107e-02
-7.498414993990504263e-02
-6.424353921941863832e-02
-5.182777372211547218e-02
-3.796903354080680831e-02
-2.288400165802785546e-02
-6.815314539820928677e-03
9.972978171547306273e-03
2.720036452414827458e-02
4.457527814829168739e-02
6.179706383148426269e-02
7.855666707148178940e-02
9.458337003593279835e-02
1.096074371011801912e-01
1.233804832913110577e-01
1.356809131804510848e-01
1.463185282162890455e-01
1.551382062182173893e-01
1.620122272963967491e-01
1.668467506194940275e-01
1.696397106936175236e-01
1.703982489323722926e-01
1.691694384746938729e-01
1.660392803873046996e-01
1.611307899164522994e-01
1.546010645370304581e-01
1.466444792413957587e-01
1.374862154181294982e-01
1.273408999407987796e-01
1.164461520446844200e-01
1.050443748997378496e-01
9.337726918101178775e-02
8.168075685905283601e-02
7.018026839596332167e-02
5.912034704622620013e-02
4.871586468780463725e-02
3.906883548612415102e-02
3.030490034905096441e-02
2.251737606922786517e-02
1.576581637204088615e-02
1.007585526064303134e-02
5.440273617716483677e-03
1.855678552308369107e-03
-7.349700694831251373e-04
-2.475621370055797969e-03
-3.489259854601537304e-03
-3.916906057580469419e-03
-3.912946270082991174e-03
-3.640048883663701568e-03
-3.263759196069327632e-03
-2.942856163674242766e-03
-2.832596638423412385e-03
-3.079206017289341530e-03
-3.806467360281373755e-03
-5.115939599655420708e-03
-7.083830137795935414e-03
-9.758775849496343843e-03
-1.316052187875153302e-02
-1.730060291160732608e-02
-2.213845542813744002e-02
-2.758562561999747254e-02
-3.354102467766472556e-02
-3.987862350602781186e-02
-4.645150201512265181e-02
-5.309668176778375992e-02
-5.964049941810822125e-02
-6.592105271772434605e-02
-7.176588321195850884e-02
-7.698728278318350826e-02
-8.141111808501394487e-02
-8.487637847598888952e-02
-8.724166739580897778e-02
-8.839125926122745613e-02
-8.824027958802922733e-02
-8.674689446098994561e-02
-8.391747091746605547e-02
-7.976726098907183093e-02
-7.434062341209630997e-02
-6.771355394193787069e-02
-5.999474271277885351e-02
-5.132583780501202148e-02
-4.188044739519980464e-02
-3.189394463024292081e-02
-2.159557906691054671e-02
-1.120932312240387717e-02
-9.708738559140775957e-04
8.884460782464995848e-03
1.812591189209225226e-02
2.653107214920555346e-02
3.388969044687795140e-02
3.993195301782229839e-02
4.453855022219552207e-02
4.759550974322381695e-02
4.900440137559566173e-02
4.870387777299074739e-02
4.667178338953407307e-02
4.292592548104440242e-02
3.752353132239966832e-02
3.047895522415488417e-02
2.201094815775321220e-02
1.230221279208807382e-02
1.545911141626155321e-03
-1.004214045246017324e-02
-2.222640241764152480e-02
-3.475524798360193901e-02
-4.736556255755960260e-02
-5.980925040586793084e-02
-7.176847863238315639e-02
-8.298840428009082726e-02
-9.323924251325810264e-02
-1.023162497224273798e-01
-1.100418018791592123e-01
-1.162666826223261868e-01
-1.208710539051033456e-01
-1.237139323738624258e-01
-1.247659112952317489e-01
-1.240211738276223580e-01
-1.215140461006011807e-01
-1.173172360603453729e-01
-1.115377093146804333e-01
-1.043115060474913564e-01
-9.579605902902656178e-02
-8.610993840542381650e-02
-7.549377936458029348e-02
-6.415799306815778147e-02
-5.231965792386455982e-02
-4.019665683959748603e-02
-2.800176627238236404e-02
-1.593690748505136381e-02
-4.186176754361605953e-03
7.100983849461445577e-03
1.776831192327741824e-02
2.769930671170165240e-02
3.680571137758883310e-02
4.502848672078040015e-02
5.233785226910740024e-02
5.873245546415511997e-02
6.423802571869466349e-02
6.890299117135251228e-02
7.279637547995776448e-02
7.601033154412158155e-02
7.865269470405018837e-02
8.084252790929864763e-02
8.270542347997247856e-02
8.436874143153723360e-02
8.596574769868133015e-02
8.763184891929307052e-02
8.943546796001178301e-02
9.146594032011995390e-02
9.379607207806692215e-02
9.647938168403147330e-02
9.954810206885757184e-02
1.030120175065942778e-01
1.068794063834744429e-01
1.111453868657405614e-01
1.156883305405179557e-01
1.204233312849938287e-01
1.252477028815793536e-01
1.300433284609825435e-01
1.346796050569734338e-01
1.390169387129892020e-01
1.429267519898071992e-01
1.462790482806224923e-01
1.488942561625875294e-01
1.506296054810256080e-01
1.513521232016920848e-01
1.509421563588291826e-01
1.492966175665711159e-01
1.463319074049345137e-01
1.419791802156087079e-01
1.362004562971494415e-01
1.289974754720732419e-01
1.203856402203689197e-01
1.104069228720637313e-01
9.912995424216176910e-02
8.664942933060811037e-02
7.308482729803107703e-02
5.856367927530976153e-02
4.324731455973665484e-02
2.733772152617645196e-02
1.103403987282371330e-02
-5.453168929852623276e-03
-2.190551866286146593e-02
-3.810063033534194510e-02
-5.381616473085807512e-02
-6.881879096897747239e-02
-8.290531569691167446e-02
-9.589616738625707237e-02
-1.076113156453269715e-01
-1.178899827618934831e-01
-1.265942908897998154e-01
-1.336123208138352281e-01
-1.388604924613338620e-01
-1.422389872304948844e-01
-1.437501946918241513e-01
-1.434462672965585994e-01
-1.413722485854095046e-01
-1.376030434115982359e-01
-1.322433536923079134e-01
-1.254268113556518127e-01
-1.173141242069616619e-01
-1.080693789641992836e-01
-9.792253503017345206e-02
-8.710861120628325682e-02
-7.585428310071846980e-02
-6.438990858155473063e-02
-5.294662625863421485e-02
-4.175353344547374362e-02
-3.103461299631748993e-02
-2.105968977402604761e-02
-1.201490768776672727e-02
-4.047551934332359672e-03
2.703633948401273305e-03
8.130566474851625564e-03
1.215640559617715138e-02
1.473502279903331560e-02
1.584979547678231834e-02
1.540908809259404315e-02
1.351280727004360201e-02
1.028047121506131707e-02
5.832398554149527403e-03
3.175893800954404309e-04
-6.090417417837950750e-03
-1.319867714060833121e-02
-2.080063269938130233e-02
-2.875939218135575154e-02
-3.679540594438830692e-02
-4.466584604613575010e-02
-5.215165026977914425e-02
-5.904470401752862779e-02
-6.515205578676708242e-02
-7.029996373805118270e-02
-7.433781084203686107e-02
-7.716400125623033845e-02
-7.864630727538206301e-02
-7.872405906044833979e-02
-7.738074864639366002e-02
-7.463859312176697458e-02
-7.055630450652544683e-02
-6.522596233742292138e-02
-5.876942294519953841e-02
-5.134104432256306194e-02
-4.307393545261969242e-02
-3.416783461128286570e-02
-2.484704666217542671e-02
-1.535145127767517485e-02
-5.928294336606869733e-03
3.176251957011967230e-03
1.172517143175555616e-02
1.947624745419226922e-02
2.628306203142736705e-02
3.196615520220835727e-02
3.637072162358002958e-02
3.937291056738537187e-02
4.088542785851910499e-02
4.086218134799311091e-02
3.930104933672062817e-02
3.624672673815330926e-02
3.180424277673361833e-02
2.610203346193622556e-02
1.930606700141793836e-02
1.161700968119540843e-02
3.266621675684201233e-03
-5.486703657456104208e-03
-1.435611449522751319e-02
-2.299887106263366274e-02
-3.117521839506812859e-02
-3.859137273563353898e-02
-4.496259223882131256e-02
-5.002124364849579868e-02
-5.352436067243718232e-02
-5.526044306356331370e-02
-5.503664389344167795e-02
-5.265859836157076729e-02
-4.814322221321869211e-02
-4.146377954634738322e-02
-3.264408931202288089e-02
-2.176025614987734530e-02
-8.940946046201844397e-03
5.634029455434902064e-03
2.175367103384678868e-02
3.917593350142543202e-02
5.752809808097350541e-02
7.646975015300808143e-02
9.564083182996241383e-02
1.146689821913096374e-01
1.331771820668168627e-01
1.507917318777286519e-01
1.671504027594472863e-01
1.819052480029593466e-01
1.947418637259939189e-01
2.053877009890282268e-01
2.136156455395844256e-01
2.192491925362582694e-01
2.221661775811877571e-01
2.223010535153670253e-01
2.196385954401069152e-01
2.142210883599688642e-01
2.061682559710439067e-01
1.956410982862656078e-01
1.828501433032407864e-01
1.680503335640589901e-01
1.515348498090977047e-01
1.336279708452000337e-01
1.146897152339978188e-01
9.508744476605927864e-02
7.516748868267342232e-02
5.528929969786262888e-02
3.579981327391922041e-02
1.702566601053118536e-02
-7.336902423849128718e-04
-1.721189468269776826e-02
-3.214500947832495820e-02
-4.534590764036940114e-02
-5.672167310842639310e-02
-6.618777630624111952e-02
-7.370832317377182252e-02
-7.929564233871297385e-02
-8.300843237265471963e-02
-8.494850579205841246e-02
-8.523118528220166579e-02
-8.403800303205773148e-02
-8.159686064420403062e-02
-7.813280332453498289e-02
-7.388425819207158907e-02
-6.909657142203508295e-02
-6.401559088160227451e-02
-5.888133998998567459e-02
-5.393414705431932160e-02
-4.938178484346643360e-02
-4.539985451422193230e-02
-4.214254367014643593e-02
-3.973135889480403776e-02
-3.825272029063651880e-02
-3.775675672800305610e-02
-3.825724078997699840e-02
-3.976405095248956162e-02
-4.220708989035498043e-02
-4.547690877013319671e-02
-4.945097966205711654e-02
-5.398173409414751267e-02
-5.890141837350357928e-02
-6.402753733505112121e-02
-6.916869613542757367e-02
-7.414949690645838976e-02
-7.877522528210686992e-02
-8.285052742914551793e-02
-8.619708391674768544e-02
-8.865381677763833901e-02
-9.008268840614008788e-02
-9.037387341926919615e-02
-8.944996861135497135e-02
-8.728859850900656803e-02
-8.388787340594618114e-02
-7.926616592881802204e-02
-7.347586856584502335e-02
-6.660061640958735152e-02
-5.875529083389349760e-02
-5.008531180014084289e-02
-4.076484524597386722e-02
-3.106112785647882624e-02
-2.115003667513848384e-02
-1.123866076294724285e-02
-1.549385810393508287e-03
7.697632589072904430e-03
1.628941856219174797e-02
2.402462213575414646e-02
3.071759953618775907e-02
3.608612313998039306e-02
4.010698760633520793e-02
4.269345053904792520e-02
4.377503533190018475e-02
4.331591002036700583e-02
4.131779265131045598e-02
3.782144921700710677e-02
3.290654585402691401e-02
2.660202389786631150e-02
1.917929502557938135e-02
1.082316702217602476e-02
1.731276636045437798e-03
-7.882983429916237683e-03
-1.779280334708978339e-02
-2.776084929910221238e-02
-3.754319771696328772e-02
-4.687880233082525328e-02
-5.551231063488117762e-02
-6.323071472010834138e-02
-6.984791672917015082e-02
-7.520789671531140363e-02
-7.918646150864692979e-02
-8.169192602345955179e-02
-8.265919369246407800e-02
-8.198211475758021560e-02
-7.974639774550300320e-02
-7.600804813256632764e-02
-7.085909588090312516e-02
-6.442473291970921001e-02
-5.685919982393482924e-02
-4.834055883518893759e-02
-3.905452525456453577e-02
-2.915449807609923200e-02
-1.892719597825410355e-02
-8.591070734693766892e-03
1.642890827168104993e-03
1.157627289205690260e-02
2.102786481483248995e-02
2.983787466506076722e-02
3.787585623206216751e-02
4.504208079622200323e-02
5.123987081227607265e-02
5.643022359916141650e-02
6.061026999070028010e-02
6.381194474151963281e-02
6.609942322121971359e-02
6.756555730132926540e-02
6.832940301581433284e-02
6.852508940957366401e-02
6.829616906452593006e-02
6.780733536533622985e-02
6.722929642472603995e-02
6.673254675111633949e-02
6.648116348669287634e-02
6.662686040313178792e-02
6.731929474528594581e-02
6.868330742699660374e-02
7.076218384120135096e-02
7.360720659127677201e-02
7.723853852803345965e-02
8.164371795346564431e-02
8.677733855669021723e-02
9.256192948053691694e-02
9.892063346136559243e-02
1.057358540702546118e-01
1.127879815858498919e-01
1.198900034150783001e-01
1.268401721274599603e-01
1.334271730482291529e-01
1.394357923315948100e-01
1.446529524451239390e-01
1.488947812681809257e-01
1.519771892579661887e-01
1.536966809534977829e-01
1.539003552804726893e-01
1.524636670822392959e-01
1.492940863780265193e-01
1.443339684167715409e-01
1.375625886617318772e-01
1.289901947107897628e-01
1.186756493442626681e-01
1.067213153718069435e-01
9.325642355477314904e-02
7.844320804417516391e-02
6.247391617192988439e-02
4.556702337375676676e-02
2.796273059035979738e-02
9.904514134322379287e-03
-8.334905900725976535e-03
-2.646833626948716378e-02
-4.422009973308881764e-02
-6.132033627882248206e-02
-7.751022566715834450e-02
-9.254692856650534316e-02
-1.062082002512287765e-01
-1.182776847434776485e-01
-1.285969063421076031e-01
-1.370444047919449904e-01
-1.435202463026679087e-01
-1.479604176852090114e-01
-1.503378546552134321e-01
-1.506625244691023602e-01
-1.489806047982694670e-01
-1.453280131211213966e-01
-1.398484505785847209e-01
-1.327142711888018856e-01
-1.241010758556122112e-01
-1.142074097438244007e-01
-1.032513025861704625e-01
-9.146632578663195512e-02
-7.909715555068443094e-02
-6.638612029173225626e-02
-5.359838803571345678e-02
-4.098521609683455913e-02
-2.878292186997251367e-02
-1.721365881189712566e-02
-6.482535721769039708e-03
3.224755181578453384e-03
1.174403556521148514e-02
1.886279470620049956e-02
2.451215252123381885e-02
2.863885550275802744e-02
3.120612122278417291e-02
3.221050706421326598e-02
3.168016099867880520e-02
2.967208543030446302e-02
2.626884184117797214e-02
2.146076674146471172e-02
1.546024391129852647e-02
8.450008070590760839e-03
6.138032706501711164e-04
-7.849114239446860694e-03
-1.672896241036123111e-02
-2.581096256385681867e-02
-3.488106518933875577e-02
-4.381173862178414785e-02
-5.233231570692681994e-02
-6.024007168521611222e-02
-6.735603212046793742e-02
-7.352047808319291111e-02
-7.859575913726854490e-02
-8.246882071934961977e-02
-8.505346384827068562e-02
-8.631977823745232148e-02
-8.619618687253158273e-02
-8.468858916716161256e-02
-8.183890694873639793e-02
-7.772165735774101691e-02
-7.244066325306286469e-02
-6.612518435721959076e-02
-5.892705197639776238e-02
-5.103529997249710293e-02
-4.257908957645766684e-02
-3.375965423931261145e-02
-2.479158698647864270e-02
-1.589628049908313467e-02
-7.294894456538936547e-03
7.986287739240468218e-04
8.178880096470024161e-03
1.463030912630945007e-02
2.005984637055686567e-02
2.433524920744579295e-02
2.735029790934833879e-02
2.902868089937585619e-02
2.932728658013543030e-02
2.823864095032760715e-02
2.578863163629322927e-02
2.202599760444570731e-02
1.707700793453930527e-02
1.108397336581740979e-02
4.221665807616448857e-03
-3.306694748561247055e-03
-1.127425569616507389e-02
-1.943595969496601794e-02
-2.752397648033174174e-02
-3.525792765350095614e-02
-4.242203853577954098e-02
-4.875591780611260306e-02
-5.400801947963537741e-02
-5.794332886122301879e-02
-6.035076257579698178e-02
-6.104986681449403596e-02
-5.987206775706657713e-02
-5.668515353652391758e-02
-5.150847458345932800e-02
-4.433229079223334479e-02
-3.519142407081747581e-02
-2.416659616172819533e-02
-1.138457646290572112e-02
2.983070930038278154e-03
1.874261539917483274e-02
3.565815578525122903e-02
5.339785534323202021e-02
7.164603560559006101e-02
9.006835954949782286e-02
1.083191180472003468e-01
1.260489240416061418e-01
1.429126616792698312e-01
1.585818345286959252e-01
1.727501002248814921e-01
1.851247454534915016e-01
1.954506342150849896e-01
2.035121720392239208e-01
2.091392642241359512e-01
2.122122255717276695e-01
2.126653783964050359e-01
2.104982021806543480e-01
2.057675836325014440e-01
1.985626975659515736e-01
1.890297436475187332e-01
1.773616725903197355e-01
1.637946971646537797e-01
1.486039608904504428e-01
1.320982213894900670e-01
1.146599852192303065e-01
9.665033640756907907e-02
7.837999828475097908e-02
6.019781337958705209e-02
4.244243187638415543e-02
2.543555945351848660e-02
9.476148945183596531e-03
-5.164614229054693278e-03
-1.816356310315960301e-02
-2.933273824647179145e-02
-3.859260178691546750e-02
-4.585337403680816298e-02
-5.107541753532102852e-02
-5.426825958566165731e-02
-5.548790318665132448e-02
-5.483276375091237359e-02
-5.236047669612305805e-02
-4.826409858733343022e-02
-4.280162214181427310e-02
-3.621524496864012704e-02
-2.876685291910350412e-02
-2.073024466257949658e-02
-1.238295713999733316e-02
-3.998067289112946371e-03
4.194405142896946020e-03
1.194422713124773487e-02
1.901333431929234583e-02
2.520144364523758604e-02
3.033910990859609025e-02
3.429164075683214380e-02
3.696201585409665535e-02
3.829268520896395717e-02
3.825786816539678697e-02
3.688846953541906337e-02
3.424750032398447830e-02
3.042867896630355520e-02
2.555598347367027748e-02
1.977920187020781526e-02
1.326883902495431568e-02
6.210562980281100418e-03
-1.214652611922849724e-03
-8.806771214316284901e-03
-1.636111099873533217e-02
-2.368008994485256910e-02
-3.057771386067554414e-02
-3.688599737059514855e-02
-4.246079758066573229e-02
-4.718666719821174027e-02
-5.102527946475728798e-02
-5.391220975581609287e-02
-5.581178766995153334e-02
-5.672079720442654155e-02
-5.666585677096590973e-02
-5.570545896304566341e-02
-5.393131311707553138e-02
-5.146832339036230136e-02
-4.865312743989547162e-02
-4.552933321004026118e-02
-4.224717404758598222e-02
-3.897164923919962942e-02
-3.586874080694220368e-02
-3.310529810188100885e-02
-3.084955815993264960e-02
-2.927120445017995093e-02
-2.891166156881759541e-02
-2.958920289871160708e-02
-3.138600731960432266e-02
-3.435691815050291587e-02
-3.852587383355689926e-02
-4.388906203627857688e-02
-5.041982779814816601e-02
-5.809193172636874236e-02
-6.720939689424897112e-02
-7.733049746527936863e-02
-8.830763467211043272e-02
-9.996816343358486123e-02
-1.121183841087201039e-01
-1.245490788944424027e-01
-1.370423010278789266e-01
-1.493958779592964581e-01
-1.615255303251474650e-01
-1.730752698017478108e-01
-1.838332952644286256e-01
-1.936022970915765862e-01
-2.022017920391728785e-01
-2.094697773934688922e-01
-2.152641141357261589e-01
-2.194442085722587421e-01
-2.218176993491081106e-01
-2.224158464937782409e-01
-2.212242395477808932e-01
-2.182649539569482267e-01
-2.135935111364651584e-01
-2.072940312965927123e-01
-1.994733075656637267e-01
-1.902063659037984966e-01
-1.794883343073422066e-01
-1.676396994692901377e-01
-1.548578774305266748e-01
-1.413548043711655433e-01
-1.273504344514918285e-01
-1.130652388058226293e-01
-9.871226420666825985e-02
-8.444802117920263695e-02
-7.036494793252609514e-02
-5.672514205234455154e-02
-4.368663863712955731e-02
-3.138376710573837630e-02
-1.992115941521198363e-02
-9.367918186585454804e-03
2.474271226873712634e-04
8.996415900321561021e-03
1.702264545955092800e-02
2.431566386155966514e-02
3.097634136415853418e-02
3.713425298391662827e-02
4.295046512294894286e-02
4.862040510574566765e-02
5.437552290247475717e-02
6.062030620540618392e-02
6.777070011652790160e-02
7.591242605246953379e-02
8.528269623346323991e-02
9.609833996501292164e-02
1.085550857018251769e-01
1.228286717470162964e-01
1.390761147683045595e-01
1.576316465650337284e-01
1.786965348546076804e-01
2.020827039708389117e-01
2.277225212791880171e-01
2.554735906905429843e-01
2.851198910039344780e-01
3.163761727742298580e-01
3.488946877023567095e-01
3.823658847899069624e-01
4.163484422994295220e-01
4.502466218283791566e-01
4.834931413145545642e-01
5.154825631867299141e-01
5.455799367520164367e-01
5.731309424509355432e-01
5.974740116567539561e-01
6.178190137583340347e-01
6.335309622098281856e-01
6.441502077954354144e-01
6.492178918225940398e-01
6.483649901575120333e-01
6.413178423804418715e-01
6.279004380325163837e-01
6.080350645589900349e-01
5.814719556046225035e-01
5.483757615008152397e-01
5.091896402384901155e-01
4.643780234112304672e-01
4.145393088402223869e-01
3.603888412883365922e-01
3.027369077425619004e-01
2.424638403186792635e-01
1.803114373050190844e-01
1.172576001400886109e-01
5.437368577746164860e-02
-7.319165771755340930e-03
-6.681950945067063885e-02
-1.231753742177799510e-01
-1.755138935002196199e-01
-2.230691085679845920e-01
-2.652077243038477583e-01
-3.014946955029977893e-01
-3.315976225586470538e-01
-3.553364545777325523e-01
-3.726986978026559094e-01
-3.838434199090708376e-01
-3.891001657038570816e-01
-3.889623623276222686e-01
-3.840120238760634241e-01
-3.751106732413874156e-01
-3.631641826241366888e-01
-3.491414944905842921e-01
-3.340645372558826431e-01
-3.189803170103739927e-01
-3.049316097548488425e-01
-2.929266943173907123e-01
-2.839173922195564748e-01
-2.787666800561137692e-01
-2.781884693761309535e-01
-2.827407996284794778e-01
-2.928072468025857966e-01
-3.085831531093413682e-01
-3.300672698764965385e-01
-3.570587269109630202e-01
-3.892166959122076997e-01
-4.259061274963629740e-01
-4.663427787470200148e-01
-5.095787301419980597e-01
-5.545219155850621418e-01
-5.999631318378412237e-01
-6.446069713715908422e-01
-6.871058743820211978e-01
-7.260963212783539955e-01
-7.602222558510732808e-01
-7.882039565529813663e-01
-8.088577513811647801e-01
-8.211274532199892562e-01
-8.241123540574922801e-01
-8.170914321512233736e-01
-7.995419477386710438e-01
-7.711101679092154937e-01
-7.317283062627766288e-01
-6.815792485061072936e-01
-6.210919866202955220e-01
-5.509313969255801302e-01
-4.719813681861852461e-01
-3.853224587659391798e-01
-2.922138049143133132e-01
-1.940467748560714967e-01
-9.223519039162177136e-02
1.161029682695487869e-02
1.158181073522622367e-01
2.186987754173232712e-01
3.185887608858279929e-01
4.138927965339351256e-01
5.030844263275302541e-01
5.847589430974655667e-01
6.579523671138306495e-01
7.216487164474719718e-01
7.750180601486030829e-01
8.174390909325370824e-01
8.485169850471102615e-01
8.680946778359001081e-01
8.762042248822929924e-01
8.731312652258946816e-01
8.596191017216181507e-01
8.363849733546631082e-01
8.043026378891672268e-01
7.643840624833657671e-01
7.177590659839941933e-01
6.656521609448591281e-01
6.093453689953097774e-01
5.501919329842829276e-01
4.895650074476310953e-01
4.287538795263816094e-01
3.689788224536165173e-01
3.113662115962811394e-01
2.569274377352908645e-01
2.065417157758255295e-01
1.609962739249362340e-01
1.208876923166632145e-01
8.652142270318453898e-02
5.814381577377350507e-02
3.584093740397555072e-02
1.954059401349270836e-02
9.018366401031575885e-03
3.908055054637050649e-03
3.784429418498657348e-03
8.019399249950520323e-03
1.581362602447040910e-02
2.643120653089010147e-02
3.910919086739619854e-02
5.307544506685960700e-02
6.756555114616931423e-02
8.183923747695176498e-02
9.523539126738857219e-02
1.070667055115998439e-01
1.167120905856376539e-01
1.237080117244718364e-01
1.276986816341400544e-01
1.284386693214392972e-01
1.257920088412657067e-01
1.197285480022581977e-01
1.103860557114325902e-01
9.786182855349422061e-02
8.233546217752275853e-02
6.414864071720326189e-02
4.371738660427301748e-02
2.151369667541832773e-02
-1.953507826375003743e-03
-2.615688959557598697e-02
-5.038344821484509739e-02
-7.427831544172598666e-02
-9.749990304471298219e-02
-1.195796051386712466e-01
-1.400811415306706387e-01
-1.586184052128044308e-01
-1.748707937560990966e-01
-1.885944288219900400e-01
-1.993872046768863648e-01
-2.074067452177507653e-01
-2.128058942294932254e-01
-2.156436984221798137e-01
-2.160287740612959473e-01
-2.141209495041909161e-01
-2.101313333839209818e-01
-2.043195290535972930e-01
-1.968983407997136059e-01
-1.883050366713756862e-01
-1.789333550434384912e-01
-1.691311158698655948e-01
-1.592311292871383954e-01
-1.495428958326967817e-01
-1.403458577849422406e-01
-1.318840184406583627e-01
-1.245506740405932650e-01
-1.182993591443830955e-01
-1.131784668343078365e-01
-1.092611179055228421e-01
-1.065794685321895807e-01
-1.051190621036048878e-01
-1.048156197555016461e-01
-1.055552519262621669e-01
-1.075223510164120128e-01
-1.101025998915603488e-01
-1.129882321751247837e-01
-1.159520147857163175e-01
-1.187740605559749751e-01
-1.212408110780152370e-01
-1.231445672154179299e-01
-1.242848880141849827e-01
-1.247395634859960606e-01
-1.239981977559941467e-01
-1.218756340205151556e-01
-1.182697987225398567e-01
-1.131288804495933914e-01
-1.064491832248478792e-01
-9.827188152729067483e-02
-8.867941915418305066e-02
-7.789935414417163695e-02
-6.595864031881909506e-02
-5.303120745431233463e-02
-3.932636822064568966e-02
-2.507968527805145079e-02
-1.054758551917619504e-02
3.998574405631926884e-03
1.827801737092290407e-02
3.196585601287488254e-02
4.482455638591567593e-02
5.660164731130981619e-02
6.706754586167720800e-02
7.602074898305234696e-02
8.329198218134194198e-02
8.874736877717466499e-02
9.228536192663476523e-02
9.379967299724988050e-02
9.334097031684672474e-02
9.093926151096480559e-02
8.666479462287562940e-02
8.062782612299149165e-02
7.297741667737614457e-02
6.389900868630279951e-02
5.360585444136233696e-02
4.233363271755684332e-02
3.038720328728762576e-02
1.804161629290981783e-02
5.575122092598481030e-03
-6.735363100568153918e-03
-1.861831081227525303e-02
-2.981147768756729766e-02
-4.004944148916412400e-02
-4.904683894788394033e-02
-5.666562028689902525e-02
-6.274137119217138014e-02
-6.714503146543351897e-02
-6.978521738035239896e-02
-7.060914612623002407e-02
-6.960223558974505675e-02
-6.674503901807984918e-02
-6.202966067581802689e-02
-5.567935931814799178e-02
-4.782705196043791906e-02
-3.863107503305611423e-02
-2.827260271274932221e-02
-1.695238266267307808e-02
-4.886580831743838477e-03
7.737707718213041042e-03
2.071371200917107233e-02
3.371315376608803593e-02
4.650969525895721352e-02
5.889323739613572944e-02
7.067253498245754106e-02
8.167715065169924016e-02
9.175910180448737519e-02
1.008124029671285254e-01
1.087317422884854362e-01
1.154104641720882923e-01
1.208128175971359269e-01
1.249365668030440052e-01
1.278105271501600582e-01
1.294911857271174305e-01
1.300587853094321289e-01
1.296292690459137642e-01
1.283067134263555231e-01
1.261937979656298225e-01
1.234322783107988930e-01
1.201722458307215580e-01
1.165668593409711212e-01
1.127671471614229565e-01
1.089171499692818401e-01
1.051906512369534669e-01
1.016924435917624936e-01
9.847256908818122212e-02
9.560682220882525673e-02
9.315098206669462921e-02
9.113904804007477711e-02
8.958232200163158965e-02
8.846939157253513875e-02
8.781728132842321621e-02
8.755665263620944494e-02
8.756560720898419470e-02
8.774431966665438565e-02
8.797905473651410069e-02
8.814551592362210308e-02
8.811265554207985129e-02
8.774682202757765059e-02
8.692908812520735995e-02
8.553486879658589448e-02
8.343634181953768492e-02
8.052224442954369898e-02
7.669591057237937215e-02
7.187893143380061356e-02
6.601434036933817584e-02
5.906918298778227050e-02
5.100012239571762723e-02
4.185733788879413692e-02
3.170996612734768710e-02
2.063381628438528195e-02
8.729449676503251224e-03
-3.878777135596511803e-03
-1.704443643310388223e-02
-3.060153644111504589e-02
-4.440551466252845580e-02
-5.823322218602548783e-02
-7.186187668153275199e-02
-8.507734212065244661e-02
-9.766554342332026128e-02
-1.094171237148538062e-01
-1.201321354990107504e-01
-1.296246550523317553e-01
-1.377219111353489012e-01
-1.442910368449199510e-01
-1.492130175750448484e-01
-1.523936505588575074e-01
-1.537690326496864712e-01
-1.533082265229400720e-01
-1.510151186027921810e-01
-1.469293166172525311e-01
-1.411082757854015546e-01
-1.336895320738293591e-01
-1.248168604535420251e-01
-1.146571259992805736e-01
-1.034019640866239986e-01
-9.126531984585775636e-02
-7.848042551879608197e-02
-6.529603862297490846e-02
-5.201989204276508127e-02
-3.888088965957812310e-02
-2.612884796035901819e-02
-1.400727144261791103e-02
-2.745408577310782475e-03
7.445405502316289684e-03
1.637479156843944100e-02
2.387601755558478242e-02
2.967478080538449303e-02
3.379338901694348835e-02
3.617602562718441606e-02
3.680225190508499417e-02
3.568981763808782431e-02
3.289375382493687355e-02
2.850420840803656944e-02
2.263774249313673173e-02
1.532260566010477769e-02
6.872808972380579917e-03
-2.498533666871226040e-03
-1.256003258565039499e-02
-2.306633931644043109e-02
-3.376293286673712202e-02
-4.439143894113927596e-02
-5.470097347724444531e-02
-6.447786993094140051e-02
-7.342931425515314414e-02
-8.134036435005416454e-02
-8.802330393527199592e-02
-9.332036030732798748e-02
-9.710546481425086363e-02
-9.928536938113988186e-02
-9.979800944332099799e-02
-9.859090348023004380e-02
-9.568078438371400984e-02
-9.112836433673757175e-02
-8.503543387579086399e-02
-7.754064399140717101e-02
-6.881398927230866769e-02
-5.905052195481278604e-02
-4.845875046826489396e-02
-3.723308371936111250e-02
-2.562074057076425826e-02
-1.387448526083502089e-02
-2.250583348162471086e-03
8.998948566828344348e-03
1.963429559481620623e-02
2.943549029208759188e-02
3.821278571703923266e-02
4.582262980359627647e-02
5.213297914896349722e-02
5.704749694925660697e-02
6.050676663490544421e-02
6.249063528194245126e-02
6.301972415291674789e-02
6.215589890965458192e-02
6.001617103619630300e-02
5.675494897645891323e-02
5.251520477790212055e-02
4.749664548030183703e-02
4.192312694505116732e-02
3.603668664814948380e-02
3.009122200678219367e-02
2.434597272969526299e-02
1.909748673864865992e-02
1.460443334818988664e-02
1.103333232936793903e-02
8.591697179748360863e-03
7.461157365775194367e-03
7.791157285754890180e-03
9.693632842830634047e-03
1.323895233290519474e-02
1.850000914043569908e-02
2.545213421128467851e-02
3.396388699608241662e-02
4.391954515500218204e-02
5.516258724550369974e-02
6.749774678342561340e-02
8.069420163389573464e-02
9.449001644801140187e-02
1.086185256420478251e-01
1.227647828061344121e-01
1.365881394559273210e-01
1.497671006970794083e-01
1.619861470387129743e-01
1.729430205329523240e-01
1.823556713453884648e-01
1.899687923767126585e-01
1.955474094533815321e-01
1.989117027928613002e-01
1.999320307626041293e-01
1.985169966617521820e-01
1.946251604343689767e-01
1.882665852075472712e-01
1.795030077137858282e-01
1.684465982019185126e-01
1.552482448304472462e-01
1.401179632493253224e-01
1.233054736637981402e-01
1.050881498038161999e-01
8.577006099242874548e-02
6.567512585770311773e-02
4.513988058781975843e-02
2.450597771203324310e-02
4.140350960777827195e-03
-1.564992131098730602e-02
-3.456950607707905132e-02
-5.233441954432286464e-02
-6.869124911610445527e-02
-8.342292591065508800e-02
-9.635332122684106548e-02
-1.073505154116311811e-01
-1.162869647692358344e-01
-1.231662996494411327e-01
-1.280128282407983487e-01
-1.308781068846939788e-01
-1.318541761108596444e-01
-1.310712982569948726e-01
-1.286947063993597873e-01
-1.249202391567579423e-01
-1.199763866005189861e-01
-1.141104624472722706e-01
-1.075665822970845592e-01
-1.005892328559477439e-01
-9.341765285561653975e-02
-8.628106702899568381e-02
-7.939453216272046587e-02
-7.295516835015528057e-02
-6.722336283467013340e-02
-6.228345827554045144e-02
-5.822880343815280135e-02
-5.512739874081613867e-02
-5.301121386050235834e-02
-5.187758418738154520e-02
-5.169191249788679388e-02
-5.239126749624503643e-02
-5.400464095901713613e-02
-5.632053256016250620e-02
-5.918595190103805720e-02
-6.243730817151221801e-02
-6.589928771408624930e-02
-6.939128071398634190e-02
-7.273411954682519609e-02
-7.575669458594792849e-02
-7.838435778220630146e-02
-8.040442963865532255e-02
-8.168508825164358389e-02
-8.211599720533793723e-02
-8.161190828632852723e-02
-8.011575890290502377e-02
-7.760104970911195499e-02
-7.407547871965808328e-02
-6.961275311657262599e-02
-6.424616631160970370e-02
-5.806607423903958204e-02
-5.118692295006446041e-02
-4.374396689549565898e-02
-3.588954232279972789e-02
-2.778900031731790926e-02
-1.962231128884459747e-02
-1.159665724852369621e-02
-3.837539397080791479e-03
3.482127782013717896e-03
1.019681340404661983e-02
1.615429371780794168e-02
2.122124766904829110e-02
2.528808339427197210e-02
2.826117217037592971e-02
3.007002983390835021e-02
3.076041926430030798e-02
3.033284087109039059e-02
2.881137419050524770e-02
2.624604680203085350e-02
2.271484430806158805e-02
1.832471531637116027e-02
1.320989518334860814e-02
7.557511073538180149e-03
1.563163126124637869e-03
-4.594554572188425806e-03
-1.073515616126049718e-02
-1.667757086636911454e-02
-2.224086098419889371e-02
-2.724499983862064753e-02
-3.147885585804483660e-02
-3.470394854001681434e-02
-3.684239370289360549e-02
-3.777738350251341054e-02
-3.741887929425737058e-02
-3.570402691478083423e-02
-3.259622661858099096e-02
-2.808332984140491859e-02
-2.211065297783803771e-02
-1.465027529094846577e-02
-5.887066339354138367e-03
4.075240231574086235e-03
1.510838995712633637e-02
2.706237032817066651e-02
3.976915806828246885e-02
5.304725438966410855e-02
6.676425624257799341e-02
8.074628971800365540e-02
9.470494866651867072e-02
1.084319079838820671e-01
1.217244984018230614e-01
1.343888752511849805e-01
1.462431080505640357e-01
1.571202601377790220e-01
1.668914110446012289e-01
1.754220456937383710e-01
1.825810348068132027e-01
1.882885746294071794e-01
1.924926710294160015e-01
1.951686754825145420e-01
1.963181113727708316e-01
1.959670332312822560e-01
1.941603107316609289e-01
1.909553591592891841e-01
1.864453215848242973e-01
1.807453646992210616e-01
1.739880131318444767e-01
1.663186867524230339e-01
1.578908813507888531e-01
1.488613241337272131e-01
1.393828815031049051e-01
1.295891495369739244e-01
1.196256422081666548e-01
1.096348820627206649e-01
9.974883018511898625e-02
9.008427313342702580e-02
8.073856081240894655e-02
7.178611675070586950e-02
6.325471805876438369e-02
5.515552939566217838e-02
4.750414942321430634e-02
4.029289914720018961e-02
3.349549028232833014e-02
2.706577483862764727e-02
2.093680636395919836e-02
1.502078053109138882e-02
9.123380938938630350e-03
3.149095556333639072e-03
-2.982013940689305902e-03
-9.374394322846320293e-03
-1.612684871120952795e-02
-2.333175122850105615e-02
-3.107488629782186734e-02
-3.943523481819216636e-02
-4.862218917403169499e-02
-5.862050711124490443e-02
-6.940723014461287754e-02
-8.096512131013650082e-02
-9.324798568569735158e-02
-1.061821884364093638e-01
-1.196694352420667878e-01
-1.335902687560782676e-01
-1.478935340513979346e-01
-1.623715530888260317e-01
-1.768246389287249920e-01
-1.910507297684896633e-01
-2.048346596271192199e-01
-2.179525880170177787e-01
-2.301769557796551346e-01
-2.412818717698749782e-01
-2.509918151015211873e-01
-2.591497512009939275e-01
-2.655855381784280045e-01
-2.701484588118964747e-01
-2.727161625414024626e-01
-2.731963112299295449e-01
-2.715272806322488464e-01
-2.676783875681497671e-01
-2.614883754234936242e-01
-2.531255318663014342e-01
-2.426963134623436602e-01
-2.303434128345922538e-01
-2.162477813389371006e-01
-2.006224327474049884e-01
-1.837049695924668213e-01
-1.657478256362472924e-01
-1.468910956481462859e-01
-1.274941755183260916e-01
-1.078547690008835463e-01
-8.827450335756917288e-02
-6.904983745911619231e-02
-5.046243679831182577e-02
-3.276970932743108328e-02
-1.619773254536632096e-02
-9.245630380175355080e-04
1.294169966356926819e-02
2.529212326036084021e-02
3.605787697175932838e-02
4.521376752953639583e-02
5.278077053202868268e-02
5.882709692613698194e-02
6.345325367382836923e-02
6.675930021447984419e-02
6.904880279802450005e-02
7.055343113790162046e-02
7.152570089323032065e-02
7.223277085767740302e-02
7.294960990659656030e-02
7.395148992714507818e-02
7.548160203651126110e-02
7.772221782746226160e-02
8.101257388269088311e-02
8.555998531677283525e-02
9.153149698533760703e-02
9.904740334127114243e-02
1.081756350970224101e-01
1.189272554610003585e-01
1.312215711756095082e-01
1.448805988272648948e-01
1.598357352621372629e-01
1.758824450712164478e-01
1.927666016333300369e-01
2.101880107714150514e-01
2.278047981671583178e-01
2.452389052054270158e-01
2.620482098769537083e-01
2.777488244320006072e-01
2.919857184610669121e-01
3.043500897928737570e-01
3.144526784573307698e-01
3.219326752457661311e-01
3.264656954217988738e-01
3.277709090097356004e-01
3.256074239468921272e-01
3.197810292101945784e-01
3.101967559923035633e-01
2.968219523404317384e-01
2.796986913480805637e-01
2.589445044002763874e-01
2.347513605226469457e-01
2.073828811007994433e-01
1.772268957275703050e-01
1.446854629648203217e-01
1.101149514089840020e-01
7.398866303278762990e-02
3.681406669086211697e-02
-8.770055792846833016e-04
-3.853812058561719572e-02
-7.561797571473687085e-02
-1.114412345874782884e-01
-1.454824640498109112e-01
-1.773974782220257562e-01
-2.067539408564923742e-01
-2.331687118085876975e-01
-2.563153494725764481e-01
-2.759294216151055301e-01
-2.918116103698389363e-01
-3.036898608225651053e-01
-3.115410326451540923e-01
-3.155032744868271899e-01
-3.156677233758835022e-01
-3.121867817140671075e-01
-3.052700778406147175e-01
-2.951787492899200505e-01
-2.822180111842393924e-01
-2.666569143973703260e-01
-2.489051083772358952e-01
-2.293997609069502175e-01
-2.085331023181160592e-01
-1.866907153093985139e-01
-1.642438407810619949e-01
-1.415424876680563271e-01
-1.189092333343479552e-01
-9.664419277167410338e-02
-7.500041427517088743e-02
-5.417916117994749786e-02
-3.433760119651681209e-02
-1.558473843599196725e-02
2.017469052437543924e-03
1.845128176439238266e-02
3.373885135731366502e-02
4.789853247693472843e-02
6.104437260341512989e-02
7.330158519787281779e-02
8.479525560233204529e-02
9.565709495965508957e-02
1.060182671924694980e-01
1.160023084916724651e-01
1.257182759560914742e-01
1.352261327352425324e-01
1.446190257600235285e-01
1.539361113070973897e-01
1.631710213872924475e-01
1.722786462518549333e-01
1.811752614045329668e-01
1.897401277106282314e-01
1.978184316975102053e-01
2.051619504510874548e-01
2.116311961637799555e-01
2.170142002094720413e-01
2.210729401232917057e-01
2.235634273380392445e-01
2.242444555089987412e-01
2.228863095124105909e-01
2.192791852408220166e-01
2.130696177556256343e-01
2.042975731394078287e-01
1.928921872219377109e-01
1.788112512340879201e-01
1.620632499236472346e-01
1.427110875072970797e-01
1.208736942831842992e-01
9.672551048372593496e-02
7.023963144895378763e-02
4.197916352412662394e-02
1.229880998676553296e-02
-1.841639660370764098e-02
-4.975063761802468731e-02
-8.126471650530799062e-02
-1.125048813159231914e-01
-1.430193804274226266e-01
-1.725247420552398769e-01
-2.003912161956103999e-01
-2.261873303804851909e-01
-2.495163852848878983e-01
-2.700248340818597326e-01
-2.874097461349574556e-01
-3.014252631391156068e-01
-3.118858418499033114e-01
-3.186695339342396349e-01
-3.217552291027238609e-01
-3.211556705816513424e-01
-3.169469544592041776e-01
-3.092677383881787256e-01
-2.983169271621255447e-01
-2.843496363668966964e-01
-2.676437275886885403e-01
-2.484485357484356727e-01
-2.273237966239871621e-01
-2.046837930834989328e-01
-1.809523689312074468e-01
-1.565561789292780892e-01
-1.319179520441633446e-01
-1.074494388685709179e-01
-8.350433343526833530e-02
-6.036530021335231866e-02
-3.853443703100498802e-02
-1.831498984829010163e-02
4.036354427424749050e-05
1.633193262835580181e-02
3.041424035431873618e-02
4.219638502069293640e-02
5.166867141652198292e-02
5.888657705372313950e-02
6.383638931668055017e-02
6.662527358997125115e-02
6.740643374678671751e-02
6.637477879485356724e-02
6.376191489777008337e-02
5.983053446301515865e-02
5.487807746110944657e-02
4.923138265696776206e-02
4.318658078838435999e-02
3.705131730618531349e-02
3.112618283873671773e-02
2.569978621241554573e-02
2.104437033080773511e-02
1.741169904000436364e-02
1.502837962648028401e-02
1.411650404410220994e-02
1.484440558054352620e-02
1.732212258499379182e-02
2.161251489133799580e-02
2.773223964762627433e-02
3.565388025236345543e-02
4.530869965385418696e-02
5.657165425067559733e-02
6.932903629502605580e-02
8.343128894856542688e-02
9.865340582614116893e-02
1.147348490694662521e-01
1.313873187156806566e-01
1.483032063238875764e-01
1.651640673515822610e-01
1.816089087569880689e-01
1.973544320453725354e-01
2.121389230838527651e-01
2.256603008641600849e-01
2.376306362938886974e-01
2.477841994242258594e-01
2.558850606301862896e-01
2.617337100219507828e-01
2.651448677919517327e-01
2.660249498063468887e-01
2.643340395808629339e-01
2.600547771410111619e-01
2.532157463374484219e-01
2.438910930010259048e-01
2.321992146498393639e-01
2.183004971364788660e-01
2.024325633756613729e-01
1.847918609113357036e-01
1.656153083825632200e-01
1.451954685599890771e-01
1.238460772506460306e-01
1.018932881799277657e-01
7.966696227846579992e-02
5.749251882516943912e-02
3.579070399879414471e-02
1.475368991858628902e-02
-5.404832260283470163e-03
-2.443589995883602498e-02
-4.211629835219468654e-02
-5.825553268281766922e-02
-7.270162034810222218e-02
-8.534509899860748261e-02
-9.601893299287814210e-02
-1.048104382971896953e-01
-1.117835949415810354e-01
-1.169960022801818239e-01
-1.205357183457832770e-01
-1.225199566397934398e-01
-1.230930390644259659e-01
-1.224232741816357467e-01
-1.206821052266641159e-01
-1.181019082285102301e-01
-1.148943006397158823e-01
-1.112623946034589639e-01
-1.074016819603418743e-01
-1.034960953619624424e-01
-9.971472510317909432e-02
-9.620900752805655598e-02
-9.318343657660319024e-02
-9.068616885060763744e-02
-8.877721442388118722e-02
-8.749722175940592706e-02
-8.685772466442509554e-02
-8.684251295141076632e-02
-8.741006122295957859e-02
-8.849672703328818890e-02
-9.011764214581750865e-02
-9.208840312322670585e-02
-9.427617289322740013e-02
-9.654300574633756238e-02
-9.874444291525652506e-02
-1.007350010543426322e-01
-1.023738168612908089e-01
-1.035300822932530701e-01
-1.041580993240555225e-01
-1.040982032066097851e-01
-1.032599457898492334e-01
-1.015731672225205079e-01
-9.899040573621950556e-02
-9.548930537350983072e-02
-9.107443465613677958e-02
-8.578137403881069822e-02
-7.972271200437806848e-02
-7.292700814895750061e-02
-6.549763833373939415e-02
-5.755841816293744140e-02
-4.925017652709604704e-02
-4.072701755787797029e-02
-3.215242560648764319e-02
-2.370639673265801869e-02
-1.562155579998100209e-02
-7.963777700169418980e-03
-8.914494319959562554e-04
5.444315973415990960e-03
1.090563847970180134e-02
1.537351304895553765e-02
1.875259455709995388e-02
2.095430945138244960e-02
2.188938287740149757e-02
2.166776355542992041e-02
2.030596591828869729e-02
1.784198851458836110e-02
1.433777857285459256e-02
9.881324363669979904e-03
4.587678884902035743e-03
-1.415425346238393094e-03
-7.965843102391812272e-03
-1.481860063933196532e-02
-2.178725962272458697e-02
-2.868492755621326190e-02
-3.532599662048568206e-02
-4.152743571465555839e-02
-4.711017735020540942e-02
-5.188917609748198989e-02
-5.566789405631319271e-02
-5.832433039462150970e-02
-5.974200061376841453e-02
-5.983130619567725295e-02
-5.853088115424098098e-02
-5.580786808607873101e-02
-5.165732670023961970e-02
-4.606967853535854501e-02
-3.906881418609783885e-02
-3.079318164662272345e-02
-2.134776753071149571e-02
-1.085938733437408904e-02
5.250885115423735081e-04
1.264107574837428083e-02
2.530931106135986611e-02
3.836424876518382959e-02
5.160472710773746086e-02
6.478924332065100211e-02
7.772332763351379181e-02
9.022236326231587722e-02
1.021137873420714937e-01
1.132388470134430974e-01
1.234541949570189256e-01
1.326459396299470017e-01
1.406926272015025514e-01
1.474909705577573393e-01
1.529846924466884694e-01
1.571453298958372380e-01
1.599712733110831009e-01
1.614861118926405603e-01
1.617365014863093864e-01
1.608181483562673431e-01
1.588028869819503308e-01
1.557609412546033800e-01
1.518048947346307409e-01
1.470591329004644343e-01
1.416563810835961834e-01
1.357342902006866692e-01
1.294321130833643030e-01
1.229503200208360431e-01
1.163968484769926648e-01
1.098403626782473025e-01
1.033803021700329117e-01
9.710150158296990131e-02
9.107240176794324793e-02
8.534408021150620416e-02
7.995002875645508544e-02
7.497465535133664150e-02
7.038350854716789173e-02
6.611082037562322766e-02
6.210927018009840261e-02
5.831640901854853731e-02
5.465701117489119021e-02
5.104604870674991912e-02
4.739218821040008106e-02
4.362999897233799801e-02
3.965056175533310245e-02
3.534978135524399767e-02
3.064205030504639840e-02
2.545285263611251833e-02
1.972198126289643333e-02
1.340638210887039675e-02
6.482562102858479419e-03
-1.064577608872587476e-03
-9.203653947042181663e-03
-1.788433867766884428e-02
-2.703644570678691642e-02
-3.656674342229228325e-02
-4.636045322176873817e-02
-5.628353763844891333e-02
-6.618570402423862298e-02
-7.592195709738817910e-02
-8.531038372478526310e-02
-9.416721896372323708e-02
-1.023105568158934747e-01
-1.095627727838598964e-01
-1.157561861836231693e-01
-1.207386331679183439e-01
-1.243786769413934706e-01
-1.265848879575514063e-01
-1.272822277172966088e-01
-1.264164163218878256e-01
-1.239640371720945461e-01
-1.199350898563613377e-01
-1.143757952805359440e-01
-1.073704674537875187e-01
-9.904203698163907554e-02
-8.960701524827101305e-02
-7.922784488285501692e-02
-6.810937866953239994e-02
-5.647646836232345785e-02
-4.456863148753077708e-02
-3.263698744225280307e-02
-2.094097017039384806e-02
-9.745736438720431147e-03
5.600623753082485147e-04
9.835615188516734150e-03
1.786435131168790866e-02
2.445734542069468928e-02
2.945750990872118488e-02
3.274241979087996746e-02
3.422590755321602840e-02
3.384840829504537352e-02
3.147229593069936215e-02
2.726861970476099004e-02
2.132065563014369849e-02
1.375090350081178622e-02
4.719295433533539016e-03
-5.579804733544288520e-03
-1.692190509680744498e-02
-2.907023489365966051e-02
-4.181457171689127728e-02
-5.478107749795995546e-02
-6.768433664786244197e-02
-8.024501450090607002e-02
-9.219460040848571902e-02
-1.032796339646317452e-01
-1.132657416260514083e-01
-1.219444810149536151e-01
-1.291216078122349453e-01
-1.346255831892154975e-01
-1.383541845443408969e-01
-1.402508217668396173e-01
-1.403034678115705203e-01
-1.385420040425027755e-01
-1.350344825861895803e-01
-1.298781980211357601e-01
-1.231788284176677378e-01
-1.151043707270109628e-01
-1.058485994115994783e-01
-9.562792452753345052e-02
-8.467422444710251406e-02
-7.322711193652002570e-02
-6.152606239805960553e-02
-4.980416365218039154e-02
-3.827275742369951050e-02
-2.712377302248299496e-02
-1.653373874763847465e-02
-6.652371234671036748e-03
2.401118852631488245e-03
1.054074869529001736e-02
1.771544047117129886e-02
2.390301361505546562e-02
2.911589144836574522e-02
3.342013036558707378e-02
3.690482277715927129e-02
3.968796775086096823e-02
4.191177228979588859e-02
4.373717377154175828e-02
4.533782860410310450e-02
4.690635490339711833e-02
4.861785131500170193e-02
5.062649117158009304e-02
5.309744154798444471e-02
5.618107121370979895e-02
6.000732365997610979e-02
6.468080869532133459e-02
7.027680034757700922e-02
7.688839790895674042e-02
8.451704522870422120e-02
9.307232436772813755e-02
1.024828537253931748e-01
1.126438135697694909e-01
1.234188854384564299e-01
1.346434029329378612e-01
1.461285853852245242e-01
1.577341466957027649e-01
1.692252561661971300e-01
1.803025986162463679e-01
1.907152652852642238e-01
2.002139592564325388e-01
2.085577133734599631e-01
2.155207245223597634e-01
2.208989893886415257e-01
2.245638611629615922e-01
2.263648956802624124e-01
2.261542228205008775e-01
2.238447970061952230e-01
2.193872294488315722e-01
2.127725502256494761e-01
2.040341867201917736e-01
1.932488778270543828e-01
1.805683512360386767e-01
1.661514734807444660e-01
1.501719943506154287e-01
1.328433878745795826e-01
1.144036800158129141e-01
9.511224192261666377e-02
7.524633809460407052e-02
5.509717845466277630e-02
3.503231753476754307e-02
1.532173155772595732e-02
-3.771927336453643597e-03
-2.197726255655957014e-02
-3.904108892548634191e-02
-5.473206645813862709e-02
-6.884346523175778609e-02
-8.119532763418271792e-02
-9.152155904409429998e-02
-9.979064699724510268e-02
-1.059646430547528245e-01
-1.100131659447211585e-01
-1.119440077352505530e-01
-1.118028921670131126e-01
-1.096720841473548813e-01
-1.056679495932211499e-01
-9.985421191846791111e-02
-9.248957006496465183e-02
-8.379644337465289028e-02
-7.400024870409153965e-02
-6.334206162450702060e-02
-5.207579694445378660e-02
-4.046505500502124014e-02
-2.877935491927589851e-02
-1.732563276162493032e-02
-6.357524510564186229e-03
3.883924473885232674e-03
1.317615605061310535e-02
2.131992938544777921e-02
2.814056826308821563e-02
3.348845972691524148e-02
3.723936556514954171e-02
3.915609894883521902e-02
3.928583609712658908e-02
3.762127384489660081e-02
3.419074300872397554e-02
2.906002819198911721e-02
2.232883826757963569e-02
1.412618465907658494e-02
4.600895057376453226e-03
-6.228539311422870081e-03
-1.802895711508638657e-02
-3.056932499591085567e-02
-4.360300479517585648e-02
-5.687461128221724116e-02
-7.012773732680983862e-02
-8.311304411418118931e-02
-9.561207325885621999e-02
-1.075746881819545364e-01
-1.186449824508107737e-01
-1.286311984454842072e-01
-1.373678682946156970e-01
-1.447219426743292514e-01
-1.505990521175095687e-01
-1.549492125460551761e-01
-1.578129124334003985e-01
-1.594541062413304955e-01
-1.597160545648462493e-01
-1.586907156632554050e-01
-1.565016023382704013e-01
-1.533023809872956500e-01
-1.492758293443961215e-01
-1.446325999910400839e-01
-1.396779518178498380e-01
-1.348747048421700123e-01
-1.302069647485423476e-01
-1.258942875694367136e-01
-1.221420476698945462e-01
-1.191345923981534105e-01
-1.170297677784557233e-01
-1.159548688711847658e-01
-1.160518378382654481e-01
-1.174559097808559466e-01
-1.200372781707905318e-01
-1.237534986485966243e-01
-1.285182132877318861e-01
-1.341992629190744968e-01
-1.406180435648639593e-01
-1.475507574897808594e-01
-1.546959107433762415e-01
-1.616886291475356230e-01
-1.682821217278340498e-01
-1.741689608104234621e-01
-1.790446994909851153e-01
-1.826131118523607322e-01
-1.845903255426319112e-01
-1.847086534959366810e-01
-1.826050869696167200e-01
-1.779611118386836832e-01
-1.708024122257770228e-01
-1.610558819820892829e-01
-1.487131007785445769e-01
-1.338301055775344139e-01
-1.165240660414467444e-01
-9.696757257094378024e-02
-7.526359350864096631e-02
-5.162559894315134346e-02
-2.652373522319018823e-02
-3.390925142531800093e-04
2.651626098445577714e-02
5.361155120516312989e-02
8.051099567975122939e-02
1.067882457303365451e-01
1.321137547212470342e-01
1.561368291669761044e-01
1.784527113949859467e-01
1.987675909763546300e-01
2.168476207882972795e-01
2.325285318270269297e-01
2.457234568220330317e-01
2.564282301688590171e-01
2.648121607923456522e-01
2.710505138470019615e-01
2.752960806000411820e-01
2.778122329770699173e-01
2.789127519503810659e-01
2.789562651930716508e-01
2.783397129548824123e-01
2.774899383761189608e-01
2.770421921020531086e-01
2.774184718054334975e-01
2.788983013162790736e-01
2.818024374043936464e-01
2.863876520996890829e-01
2.928407454351087957e-01
3.012758348869374880e-01
3.117337327945740033e-01
3.244222455731801680e-01
3.391388188471798903e-01
3.555403328980392130e-01
3.732852646850979839e-01
3.919433283835342952e-01
4.110064474286743708e-01
4.299034573998741227e-01
4.480176754325740918e-01
4.647986168354749648e-01
4.795193176750602304e-01
4.914975961310193986e-01
5.001137707340211902e-01
5.047925655314132731e-01
5.050154139467043501e-01
5.003314905914452160e-01
4.903682136106122802e-01
4.746384661433535324e-01
4.530411038494084885e-01
4.256065070255484195e-01
3.924705825411891613e-01
3.539057462110389296e-01
3.103075992768145608e-01
2.621771631949907921e-01
2.101013276428293219e-01
1.543161192377994484e-01
9.578004934480256749e-02
3.540649895799418551e-02
-2.587732903000289700e-02
-8.710549648165546999e-02
-1.473054964654616772e-01
-2.055320794278832353e-01
-2.608996067419757647e-01
-3.130009383609545504e-01
-3.608849930548316265e-01
-4.038502237363356118e-01
-4.413126889628814498e-01
-4.727999121000022731e-01
-4.979691322882873750e-01
-5.166233056240046029e-01
-5.287228720625262168e-01
-5.345821523091829341e-01
-5.343704140060261398e-01
-5.284621828168408753e-01
-5.173490780962624047e-01
-5.016289158819596805e-01
-4.819949123424150383e-01
-4.592228277694176408e-01
-4.341551511054794754e-01
-4.076867479586404053e-01
-3.807569414316328005e-01
-3.542830097259879185e-01
-3.291585079798963198e-01
-3.062305188347552720e-01
-2.862776390033466845e-01
-2.699894211313257353e-01
-2.579421523948369210e-01
-2.505245802932248855e-01
-2.481008417141922218e-01
-2.508815417823558880e-01
-2.589384526139363318e-01
-2.721964692514933781e-01
-2.904281013910716691e-01
-3.132516501849597068e-01
-3.401239152638894092e-01
-3.702745706546608506e-01
-4.029347801658655914e-01
-4.372426802290109160e-01
-4.722684887558336597e-01
-5.070294146614152675e-01
-5.405049136324583392e-01
-5.716532362778936616e-01
-5.994125785206272372e-01
-6.226543242305493386e-01
-6.404455268563303827e-01
-6.519328245875218864e-01
-6.563776951605954091e-01
-6.531691424676931979e-01
-6.418324618528780112e-01
-6.220350867535073824e-01
-5.935766514637336178e-01
-5.563338685282129825e-01
-5.104464234396554057e-01
-4.562394590828803276e-01
-3.942098536858409386e-01
-3.250109239049385756e-01
-2.494328510650493658e-01
-1.683805354159362833e-01
-8.287229142880396526e-02
6.082122908665610339e-03
9.742705360036479911e-02
1.899725348624119181e-01
2.824995698818654200e-01
3.737900159821071489e-01
4.626563542476508362e-01
5.479694107638931611e-01
6.286165412479610692e-01
7.036907825582501275e-01
7.724815113316580995e-01
8.342580758915644212e-01
8.884048471522352219e-01
9.344320935908130288e-01
9.719840402110309086e-01
1.000843224432390821e+00
1.020874008362433250e+00
1.032143842353147933e+00
1.034912717542617155e+00
1.029480594771614133e+00
1.016245001080850363e+00
9.956873749966835829e-01
9.683585500849796190e-01
9.348639159679242860e-01
8.958690493077219319e-01
8.519945874438603628e-01
8.039047814472661813e-01
7.523144234341162528e-01
6.979387840223291173e-01
6.414769794317275453e-01
5.835966486662792496e-01
5.249212078196729969e-01
4.661131003647918103e-01
4.075700901090044681e-01
3.496672831061271025e-01
2.928312644711975055e-01
2.374474257518301712e-01
1.838533280217822252e-01
1.323328854631659890e-01
8.311260089789963834e-02
3.645283487409612527e-02
-7.646890502006509216e-03
-4.918248228900513191e-02
-8.811016625469078600e-02
-1.244103376957867851e-01
-1.580876897015749960e-01
-1.891715505573856038e-01
-2.177156315430754940e-01
-2.437366845030531082e-01
-2.674101870602960673e-01
-2.888758998850384785e-01
-3.082415567685696245e-01
-3.256138127708177454e-01
-3.410978856569541473e-01
-3.547974348866705374e-01
-3.668142240819193267e-01
-3.771491203415395788e-01
-3.860201759468312455e-01
-3.935494994288893933e-01
-3.998017131255593992e-01
-4.048234472233169234e-01
-4.086469799212292253e-01
-4.112937953054746076e-01
-4.127773752505277116e-01
-4.128992154635604539e-01
-4.119195076419640555e-01
-4.098841304664361251e-01
-4.067616139365111128e-01
-4.025027188370873255e-01
-3.970496076417661113e-01
-3.903445908589821545e-01
-3.823372244850861135e-01
-3.727613940800150738e-01
-3.618917696650480464e-01
-3.497532455451706768e-01
-3.363316279646219042e-01
-3.216157452138163064e-01
-3.056055369475217942e-01
-2.883195204856747740e-01
-2.698005134869900234e-01
-2.500810291273847241e-01
-2.293165839082135782e-01
-2.076330057384078442e-01
-1.851727977066746356e-01
-1.620955671760148376e-01
-1.385756526425121760e-01
-1.147998260725775765e-01
-9.096681070127676794e-02
-6.754409476060706241e-02
-4.437549957576014670e-02
-2.167197999443681855e-02
3.409626536607849971e-04
2.143509123775292832e-02
4.139158509121768775e-02
6.001167590370273114e-02
7.709156129534661117e-02
9.214237118617260580e-02
1.056207087054244209e-01
1.174489930385029246e-01
1.275521096463230197e-01
1.358687517498435582e-01
1.423631309720586324e-01
1.470345911482470180e-01
1.498708822446123134e-01
1.507290878604294060e-01
1.501729728756276971e-01
1.483381560887485628e-01
1.453553517468433587e-01
1.413547775372825388e-01
1.364714862649296645e-01
1.308497357564728514e-01
1.246100626437374320e-01
1.178561777310929148e-01
1.109500845263462904e-01
1.040412910579785188e-01
9.725305203790129971e-02
9.068339922118921759e-02
8.440760873605883396e-02
7.848121666882351688e-02
7.294472397128885788e-02
6.783838137115573430e-02
6.316821042117258533e-02
5.891813967920345174e-02
5.505338242904383311e-02
5.152230660186247341e-02
4.825906615141256628e-02
4.518699485036814512e-02
4.225248821860024678e-02
3.938128815544424816e-02
3.640676955944015247e-02
3.325818754762214363e-02
2.988142394834040344e-02
2.623837146594731537e-02
2.230566071591923161e-02
1.807346165486956729e-02
1.358703793527523372e-02
8.841532418165152715e-03
3.775839227618629692e-03
-1.541113369532100871e-03
-7.011284117714452341e-03
-1.251478442778701516e-02
-1.791820644913266064e-02
-2.308279840022584364e-02
-2.782025387230964084e-02
-3.204436931100650837e-02
-3.572117200165361717e-02
-3.871508732833445904e-02
-4.088993113113281036e-02
-4.211822617394374996e-02
-4.229057226496804600e-02
-4.132386796855462563e-02
-3.910233056328952378e-02
-3.566266015868612554e-02
-3.111088023803484232e-02
-2.548449668368196058e-02
-1.884214285473868183e-02
-1.126649052449807051e-02
-2.866475274354119123e-03
6.221875718378306469e-03
1.590705696925618154e-02
2.595740554423218993e-02
3.609741275695703411e-02
4.611608780688244286e-02
5.580308805150437784e-02
6.495228085538276575e-02
7.336536175647447033e-02
8.085568983427311729e-02
8.730185457479075484e-02
9.252921116570089755e-02
9.636885761794722338e-02
9.871255452174998446e-02
9.948305021897095590e-02
9.863658350712345424e-02
9.616464499375276809e-02
9.209484202844492318e-02
8.650443590272197114e-02
7.950398258832397369e-02
7.121083990436499755e-02
6.176736524948683860e-02
5.133695164878254030e-02
4.010254072445109536e-02
2.826479149524121007e-02
1.603954559799100968e-02
3.653999529437592948e-03
-8.624685380421173719e-03
-2.056718281134861659e-02
-3.196335498957849491e-02
-4.261846606078533578e-02
-5.235406176770171505e-02
-6.100828712593836523e-02
-6.843619524163642442e-02
-7.449868672621197396e-02
-7.906620009739004362e-02
-8.206536649580518927e-02
-8.345602991589867736e-02
-8.322899293153497580e-02
-8.140351437494497411e-02
-7.802414418242463456e-02
-7.315739465211928971e-02
-6.688459524880316365e-02
-5.929395546335632095e-02
-5.050902247263649308e-02
-4.067248687232526139e-02
-2.994252322988097403e-02
-1.848978747978383477e-02
-6.494308848087189737e-03
5.857634933592894416e-03
1.832834187670252801e-02
3.077248133465838864e-02
4.301574745591062870e-02
5.488484362292370827e-02
6.621390763178289229e-02
7.684543322272943677e-02
8.663088238250320205e-02
9.543130707339834984e-02
1.030261787606105844e-01
1.093766143141302188e-01
1.144036511058232480e-01
1.180470053286034327e-01
1.202678690881066326e-01
1.210478522238304794e-01
1.203874359600509009e-01
1.183030993874474024e-01
1.147665787643945279e-01
1.098739228288884429e-01
1.037061434176580060e-01
9.636486600898577781e-02
8.796991278318745666e-02
7.865626800398381469e-02
6.857063912706996833e-02
5.786842286855522349e-02
4.670871477455203202e-02
3.524227066619982363e-02
2.363228950875214535e-02
1.203988628842619577e-02
6.206271530655015772e-04
-1.047883619541676095e-02
-2.112392616118756450e-02
-3.119266266305423252e-02
-4.056731889359554977e-02
-4.917939220288860408e-02
-5.697331092715446355e-02
-6.391761982196679515e-02
-7.000469582558743742e-02
-7.524968962664174699e-02
-7.968882683196708283e-02
-8.338142070332416056e-02
-8.640027665704702597e-02
-8.880830769197856078e-02
-9.070682937489145392e-02
-9.220764095323054355e-02
-9.342768035622842082e-02
-9.448339347995460269e-02
-9.548520525803666503e-02
-9.654070818027919720e-02
-9.773770866638209487e-02
-9.911178906160771074e-02
-1.007095679341228622e-01
-1.025565389270536171e-01
-1.046541555947057139e-01
-1.069776231176543524e-01
-1.094746966902263724e-01
-1.120603453287954271e-01
-1.146184560107993550e-01
-1.170322704946777231e-01
-1.191594265092474486e-01
-1.208445152993294636e-01
-1.219236396801032379e-01
-1.222292748892324504e-01
-1.215953820261840151e-01
-1.198361165933772982e-01
-1.167910373572759453e-01
-1.123820649768959984e-01
-1.065126108496483592e-01
-9.911524355677943376e-02
-9.015606149975598227e-02
-7.963798567605102907e-02
-6.760280412024986807e-02
-5.410596666593636694e-02
-3.926661200889558501e-02
-2.328230555927052886e-02
-6.351381156797474004e-03
1.129672366407187198e-02
2.940554014309093578e-02
4.769656660487349431e-02
6.587518671487967159e-02
8.362790888300250525e-02
1.006466791091957247e-01
1.166430843386866700e-01
1.313352936642445956e-01
1.444633845535077954e-01
1.557956415587539445e-01
1.651339462554714255e-01
1.723182325302496376e-01
1.771753539447917802e-01
1.796468768602229593e-01
1.797590915855248050e-01
1.775447535894877360e-01
1.730844373614724430e-01
1.665045146151940547e-01
1.579735814078004619e-01
1.476974877420516585e-01
1.358504498245206304e-01
1.227269014958150412e-01
1.086555321169320465e-01
9.393655591066681076e-02
7.887348660673958178e-02
6.376637030854889754e-02
4.890506720780993244e-02
3.456263837781611836e-02
2.097558665379594886e-02
8.380973281114709530e-03
-3.027291105622231544e-03
-1.310340286654525753e-02
-2.174358255841309095e-02
-2.888624855975361477e-02
-3.451084364811030092e-02
-3.863562775414693118e-02
-4.126715368314913535e-02
-4.252023880422654140e-02
-4.253674296008606859e-02
-4.147075777827857052e-02
-3.949867698957210127e-02
-3.681317892112841161e-02
-3.361665303803255955e-02
-3.011436381662059569e-02
-2.646236923219203244e-02
-2.289656033774256638e-02
-1.960921703439702860e-02
-1.675955253205131668e-02
-1.448308842755360003e-02
-1.289010705825054982e-02
-1.206483451425329617e-02
-1.206504174319854815e-02
-1.294317279528544966e-02
-1.471212556204532472e-02
-1.733379011736163600e-02
-2.073764246117872079e-02
-2.482446445492696163e-02
-2.947254121506623359e-02
-3.454450791423856193e-02
-3.989402703294283453e-02
-4.543369970633352739e-02
-5.099494344345795876e-02
-5.640420089611373339e-02
-6.148631069021870399e-02
-6.606737380080096589e-02
-6.998150027172828080e-02
-7.307740552274730184e-02
-7.522415636191734367e-02
-7.633759704262380041e-02
-7.634921471759871514e-02
-7.519025921425820380e-02
-7.281058294117971619e-02
-6.918059377251604969e-02
-6.429316812739244158e-02
-5.816518738838245134e-02
-5.083672164420555833e-02
-4.234003505133001471e-02
-3.281210488238824746e-02
-2.236922692700498219e-02
-1.114703810074061524e-02
7.018884528755004598e-04
1.301082931830733862e-02
2.560191603854739678e-02
3.829326187918388746e-02
5.094398139786229102e-02
6.332905817338053966e-02
7.523358629061968617e-02
8.643776363298140419e-02
9.672334859292235076e-02
1.058808479023696097e-01
1.137166948391472171e-01
1.200672879778683227e-01
1.248576708683466763e-01
1.279455830493457236e-01
1.292144464954126104e-01
1.285687300269647559e-01
1.259418781663862175e-01
1.213047862950793199e-01
1.146735951306374901e-01
1.061404310995359285e-01
9.593218222377940252e-02
8.413885103459910197e-02
7.093592477825821918e-02
5.652881983370856844e-02
4.115440870271803303e-02
2.508268967967009974e-02
8.617547125597709023e-03
-7.855306489688719529e-03
-2.386110508588228790e-02
-3.915004290287844163e-02
-5.337735703863707992e-02
-6.621233435629318709e-02
-7.734445286834840116e-02
-8.648853988398375048e-02
-9.338932185690687615e-02
-9.777765271404151304e-02
-9.941191908616761608e-02
-9.826120759505213575e-02
-9.427233462112989681e-02
-8.745512960275984848e-02
-7.788394265700293584e-02
-6.569717893599977265e-02
-5.109485401434412516e-02
-3.433062381302139782e-02
-1.571628754793934560e-02
4.387840732416094409e-03
2.559379519378281176e-02
4.748628080008403252e-02
6.963063818143715167e-02
9.158110610477147862e-02
1.128895759885351624e-01
1.330449892717311122e-01
1.515837261012307757e-01
1.682085829791606091e-01
1.826057933923094512e-01
1.945174384281546098e-01
2.037428156117857270e-01
2.101372390007565094e-01
2.136092823433842769e-01
2.139705325403569447e-01
2.111836515112601176e-01
2.054718255262468762e-01
1.970160100568453532e-01
1.860553631529052176e-01
1.728722643905859224e-01
1.577749462978449979e-01
1.410797632629813003e-01
1.229008208540202096e-01
1.035092835910822462e-01
8.335426076675561680e-02
6.276865236818009175e-02
4.207080732161904563e-02
2.155016726616702447e-02
1.452911044184349411e-03
-1.803055210252276636e-02
-3.694499896161746594e-02
-5.521261867602086232e-02
-7.270287163140677633e-02
-8.939931701449618795e-02
-1.053186019639135579e-01
-1.205083777348671253e-01
-1.350449447194335961e-01
-1.490301205059394174e-01
-1.626599869984794722e-01
-1.760395379673482530e-01
-1.892655213051148422e-01
-2.024541944895850154e-01
-2.157044216380024915e-01
-2.290895880561253373e-01
-2.426506976217274458e-01
-2.563912156629550299e-01
-2.702390831042892350e-01
-2.841067318416099496e-01
-2.979020055355522945e-01
-3.115010586681465354e-01
-3.247538554164345892e-01
-3.374840274605157009e-01
-3.494893868289189465e-01
-3.605438678613993031e-01
-3.702902014144876519e-01
-3.785108260710201566e-01
-3.849989798722475154e-01
-3.895497285355740691e-01
-3.919814028324957178e-01
-3.921365446573957803e-01
-3.898814999122595659e-01
-3.851055548766671999e-01
-3.775160425485071802e-01
-3.671901272045521858e-01
-3.541618897428860935e-01
-3.384823580192028447e-01
-3.202381894576926125e-01
-2.995436733116892403e-01
-2.765313347761902407e-01
-2.513425153102163967e-01
-2.237756963305156666e-01
-1.942582499633149773e-01
-1.630112774453260915e-01
-1.302445623452771206e-01
-9.616809266791190303e-02
-6.098241169268091288e-02
-2.486899117082410487e-02
1.201771502739342780e-02
4.996386109738498726e-02
8.851863279679468566e-02
1.275302919197806029e-01
1.668441268130913258e-01
2.063039658096199880e-01
2.457551662531807790e-01
2.850479270489075789e-01
3.240511910436986165e-01
3.628503432883134483e-01
4.011411638755555398e-01
4.387217224568426555e-01
4.753582817064412880e-01
5.107870019873624878e-01
5.447178637873580920e-01
5.768401526307376237e-01
6.068199889568675065e-01
6.342923074235273795e-01
6.590039765695420160e-01
6.806127211260761811e-01
6.987759031730497172e-01
7.131587618366579395e-01
7.234429853477856165e-01
7.293354407330655542e-01
7.305308681318001263e-01
7.266301820269840395e-01
7.176987592351812273e-01
7.036845689800595993e-01
6.846130638317883266e-01
6.605876957303892238e-01
6.317872124536345613e-01
5.984605641422721112e-01
5.608505643108921968e-01
5.191230813803736632e-01
4.739367374908908803e-01
4.258424984361408039e-01
3.754513074378301729e-01
3.234156975253166255e-01
2.704083407173080156e-01
2.170993802850895993e-01
1.640672163670085504e-01
1.117584189563495672e-01
6.088476596752135511e-02
1.200450616682612569e-02
-3.437937254525091219e-02
-7.783706458693556707e-02
-1.180291118448356796e-01
-1.547210457031226449e-01
-1.878297945811779890e-01
-2.174510152296657284e-01
-2.436372865491110429e-01
-2.665527395794988208e-01
-2.864403396511301381e-01
-3.036174584406620136e-01
-3.184697337216263469e-01
-3.314423407911030739e-01
-3.430176568294898698e-01
-3.537838912579596706e-01
-3.642995137312260989e-01
-3.750469476881850839e-01
-3.864617632177911322e-01
-3.989217080678784666e-01
-4.127377573763326701e-01
-4.281464299573103927e-01
-4.452731822721777144e-01
-4.642502754958647837e-01
-4.850899176803696311e-01
-5.076270429070708357e-01
-5.315818200595703313e-01
-5.565709832108928223e-01
-5.821228874526520602e-01
-6.076947636572450628e-01
-6.326797154255680011e-01
-6.564968668953855557e-01
-6.785052545827676695e-01
-6.980206050114977634e-01
-7.143611416362711797e-01
-7.268696338452937944e-01
-7.349352427824117351e-01
-7.380140084746444895e-01
-7.356212030750395314e-01
-7.273969162572500036e-01
-7.131157124391337421e-01
-6.926584080799126353e-01
-6.660264336827569354e-01
-6.333375741711061435e-01
-5.948182452723324021e-01
-5.507935812653610430e-01
-5.015576181291049318e-01
-4.475594369581851195e-01
-3.894569903646337705e-01
-3.279597464891413905e-01
-2.638397310011736940e-01
-1.979008045986296593e-01
-1.309466575876485073e-01
-6.375104518567850653e-02
3.146768607307979387e-03
6.916080518003815680e-02
1.335789447380594519e-01
1.957507738077426673e-01
2.550709945759601083e-01
3.110018075135016491e-01
3.630941513801632659e-01
4.110044219693046452e-01
4.545654471233909755e-01
4.937945206569613887e-01
5.286076036625040331e-01
5.589520430902960024e-01
5.848143990954560723e-01
6.062229727764706366e-01
6.232505350378824138e-01
6.360156159213835592e-01
6.445032536267282230e-01
6.491556191962608580e-01
6.502426289263397718e-01
6.479933736833809466e-01
6.426355654575264253e-01
6.343937530387486756e-01
6.234882638200750504e-01
6.101348687481767952e-01
5.942351463971201619e-01
5.762620272253085041e-01
5.565179650806316713e-01
5.352879448041252264e-01
5.128693648129754035e-01
4.895666146515924577e-01
4.656842495326540821e-01
4.415199940874396378e-01
4.171239846235396120e-01
3.929107232945255324e-01
3.692104057073179457e-01
3.463515362318637103e-01
3.246560826418225520e-01
3.044240060426374184e-01
2.859168700208759573e-01
2.693423385833215167e-01
2.547857428609962005e-01
2.422800040677625943e-01
2.318559871655231086e-01
2.234843014420059559e-01
2.170660600242182436e-01
2.124246780414025537e-01
2.093000865727229487e-01
2.073607519352218820e-01
2.062890329265522071e-01
2.053714761851881954e-01
2.040505747005343096e-01
2.017350281988110894e-01
1.978114390530261169e-01
1.916578550899343258e-01
1.826594685778577809e-01
1.702817547450357905e-01
1.542293037667909483e-01
1.336182064871485886e-01
1.080313934963129385e-01
7.716630184304276718e-02
4.084735223172842461e-02
-9.635899375759985480e-04
-4.815860274652386530e-02
-1.003714165127521790e-01
-1.569053138311215234e-01
-2.176856173745297107e-01
-2.820296715471957150e-01
-3.491057206874564334e-01
-4.179513588249850753e-01
-4.874953317017725052e-01
-5.565813786573300392e-01
-6.239031020014021989e-01
-6.880811359853726827e-01
-7.481650644145511064e-01
-8.029388855618767584e-01
-8.512301624379802201e-01
-8.919444385927547403e-01
-9.240986976811548237e-01
-9.468518359978820298e-01
-9.595694165054260427e-01
-9.618394579873361661e-01
-9.532859441644484511e-01
-9.337929549303098931e-01
-9.034463181503910034e-01
-8.625375342669183709e-01
-8.115641666703939938e-01
-7.512257050238959621e-01
-6.826036901670408108e-01
-6.068910726446536952e-01
-5.249392299282064078e-01
-4.380127079254590994e-01
-3.474573866166657532e-01
-2.546690632306390922e-01
-1.610628220162100277e-01
-6.804395832418412560e-02
2.280096880701262124e-02
1.101475979307834779e-01
1.931187057109441108e-01
2.706547284123128061e-01
3.418268327808492990e-01
4.058582321336779986e-01
4.621405283736065850e-01
5.102436337430908964e-01
5.497993250440827984e-01
5.808174101250902499e-01
6.035387751350355101e-01
6.181852552238800147e-01
6.250955553429828893e-01
6.247149283715004442e-01
6.175833455234057690e-01
6.043210486402657011e-01
5.855956743450465574e-01
5.622207022655664188e-01
5.349454058601423867e-01
5.044450490109910756e-01
4.713450200805087142e-01
4.362120341539962864e-01
3.995494000985970739e-01
3.617952192344613405e-01
3.233470864780855214e-01
2.845676891389733454e-01
2.456745078681038252e-01
2.068032898986796042e-01
1.680222455181893115e-01
1.293487836817449887e-01
9.076875854468764715e-02
5.225660465036760516e-02
1.382261688482859172e-02
-2.448865692731957977e-02
-6.265718393159012967e-02
-1.006251603791188109e-01
-1.382836893160379610e-01
-1.754589477981078061e-01
-2.119012552318781384e-01
-2.472783310532197243e-01
-2.811510229856980514e-01
-3.129953529634909026e-01
-3.422678023558251570e-01
-3.683826231788911998e-01
-3.907266966001811670e-01
-4.086756547758053082e-01
-4.216119569471161177e-01
-4.289447724483407831e-01
-4.300916589363174003e-01
-4.246229774643581756e-01
-4.121735944184303779e-01
-3.924802406798383325e-01
-3.654142359004828866e-01
-3.309999134964820566e-01
-2.894286929389165430e-01
-2.410676025103967168e-01
-1.863184128317838528e-01
-1.261316789817739370e-01
-6.139983780961466575e-02
6.897199503928601663e-03
7.766970541468322387e-02
1.497315377976921047e-01
2.218180136071896680e-01
2.926092985413142888e-01
3.610633986696357711e-01
4.253942803126279926e-01
4.842939328544270672e-01
5.366085756073515345e-01
5.813259536368481362e-01
6.175934170609599372e-01
6.447329166940323208e-01
6.622538155388228986e-01
6.701909625428142947e-01
6.680215268229575676e-01
6.558572500974951813e-01
6.340508399696153097e-01
6.031729526141383912e-01
5.639920598995361578e-01
5.174491639840113066e-01
4.646313173699808674e-01
4.068126233095470945e-01
3.451924228822447760e-01
2.810694227474693219e-01
2.157453894555621532e-01
1.504922717103280572e-01
8.652094162372846176e-02
2.495207101951985029e-02
-3.323570625781693821e-02
-8.734790720945966036e-02
-1.363903760212536176e-01
-1.798315836758304920e-01
-2.173348805696961039e-01
-2.487537442214025618e-01
-2.741209119567475927e-01
-2.936328665004040439e-01
-3.076876550857961523e-01
-3.169577314509816057e-01
-3.216464235468860511e-01
-3.223771374501880338e-01
-3.198319482258031865e-01
-3.147188837216181034e-01
-3.077398022000007449e-01
-2.995607911535060897e-01
-2.908341782476788207e-01
-2.821828642490143979e-01
-2.738283812981502363e-01
-2.660764374324091075e-01
-2.591248789615104853e-01
-2.530602819316505880e-01
-2.478593384246542963e-01
-2.433952620341730266e-01
-2.394532366587257544e-01
-2.357403425481911785e-01
-2.318910238725023498e-01
-2.275195304960977438e-01
-2.222298623586198563e-01
-2.156387194741286595e-01
-2.073973952083845995e-01
-1.972117076899172483e-01
-1.848157896142674783e-01
-1.700579734284490829e-01
-1.530018313366682536e-01
-1.337073524931858548e-01
-1.123336012455974364e-01
-8.914041585849923066e-02
-6.448570052112821693e-02
-3.881779260266451925e-02
-1.259535846321813493e-02
1.357485884736132388e-02
3.894001038627829814e-02
6.287414968314775088e-02
8.477182891631890316e-02
1.040649696259889484e-01
1.202385758385641351e-01
1.328456704389181231e-01
1.415541649883041431e-01
1.460663537931506939e-01
1.461735716267711094e-01
1.418478457505608914e-01
1.331929931719205151e-01
1.204422160461394858e-01
1.039510410060017348e-01
8.418616569073789080e-02
6.164224746174704755e-02
3.700449244874950278e-02
1.105476732601031430e-02
-1.547092881842004018e-02
-4.182442935089871611e-02
-6.726233986871689441e-02
-9.106316912606322866e-02
-1.125449762936512749e-01
-1.312409633625255534e-01
-1.464685037434347581e-01
-1.576308589952354622e-01
-1.644026555184456284e-01
-1.665937587326783431e-01
-1.641466847921077277e-01
-1.571302704469156597e-01
-1.457311088357530759e-01
-1.303780643020456542e-01
-1.113419242270975579e-01
-8.900756902816497895e-02
-6.394040265027439718e-02
-3.677773738476829840e-02
-8.207648118968001796e-03
2.105332001690585902e-02
5.028245244705382977e-02
7.875867711687931094e-02
1.058071515390196365e-01
1.308182864144469271e-01
1.532496710585272148e-01
1.726409880384330853e-01
1.886222108967510469e-01
2.009192005851613561e-01
2.093570045601643448e-01
2.139602368226650175e-01
2.146394900682790374e-01
2.114779744521849691e-01
2.046993393878224765e-01
1.946181142726841340e-01
1.816258727313940224e-01
1.661758748257268214e-01
1.487670663432711093e-01
1.300834588317387464e-01
1.105110268380825878e-01
9.053956987410412272e-02
7.068755753227995431e-02
5.144920473705379832e-02
3.328109789525586504e-02
1.659078619037227670e-02
1.727628186018996797e-03
-1.085452142736343349e-02
-2.111234410798012648e-02
-2.894882550123635545e-02
-3.431329786613951383e-02
-3.722621560427279153e-02
-3.777633041300403755e-02
-3.611552287877895645e-02
-3.245145311648563180e-02
-2.691906395277237837e-02
-1.994554386292595252e-02
-1.186602307989873678e-02
-3.018329439278111866e-03
6.257255294858043992e-03
1.562679162989930037e-02
2.477106581781232317e-02
3.339361368309804595e-02
4.122506840940469430e-02
4.803331307141778944e-02
5.363620389675388678e-02
5.790129457567570748e-02
6.074808658171085285e-02
6.214830228557837594e-02
6.212425722685883250e-02
6.074073459207825210e-02
5.803732966663294190e-02
5.426108908035878753e-02
4.959720815668359345e-02
4.425264469670545098e-02
3.845020866662784281e-02
3.242239873133592049e-02
2.640483570443739880e-02
2.062588726698875649e-02
1.529023715059794897e-02
1.063250794398773978e-02
6.827532099449803299e-03
4.016378937301627074e-03
2.302626450695775730e-03
1.750118542845294700e-03
2.382092509170990243e-03
4.195526126777402581e-03
7.178715710555857651e-03
1.116067072367997459e-02
1.600946394884469534e-02
2.156394368896103961e-02
2.763660960418816079e-02
3.401728877152478819e-02
4.047782948790700636e-02
4.679276791777455674e-02
5.273491890945434385e-02
5.800031768028197227e-02
6.235688139625298471e-02
6.559266782335361479e-02
6.752000599664063907e-02
6.797871097534724516e-02
6.683870207770747918e-02
6.398088296499579442e-02
5.931055385030346155e-02
5.286036648394989296e-02
4.465460111060701176e-02
3.475888009561910186e-02
2.327969027582466391e-02
1.036252279944097424e-02
-3.811329422925412592e-03
-1.908486154249298267e-02
-3.525149910816083310e-02
-5.193030557238412226e-02
-6.883276833969868835e-02
-8.566229868954956805e-02
-1.021190042469704712e-01
-1.179047988669367081e-01
-1.327290100062882838e-01
-1.463589355889206856e-01
-1.585456662796912164e-01
-1.689819157494561463e-01
-1.774591101708315743e-01
-1.838064609499261426e-01
-1.878944292835502405e-01
-1.896373321386352895e-01
-1.889951321979257137e-01
-1.859834766985347110e-01
-1.806604374019011860e-01
-1.731130129338708523e-01
-1.634790615725655316e-01
-1.519369553526084826e-01
-1.387027921060915991e-01
-1.240267479277541024e-01
-1.081884956040281148e-01
-9.149083659091981902e-02
-7.426199142259370944e-02
-5.683409465763336610e-02
-3.953682937612341269e-02
-2.269345525416867002e-02
-6.614175718464740741e-03
8.410136979158846365e-03
2.211382368494514694e-02
3.425022957360598225e-02
4.462692839053741811e-02
5.309481049404943948e-02
5.953945586741832274e-02
6.389290683915227476e-02
6.613585213992782819e-02
6.629859428621896755e-02
6.446063539545929255e-02
6.074789826079654564e-02
5.534396123617860153e-02
4.845782245341278410e-02
4.032545021840308608e-02
3.120826861383452569e-02
2.138818264133184738e-02
1.116225058851115330e-02
8.368255685272493923e-04
-9.239867352104353185e-03
-1.877354051914644981e-02
-2.749754820680600648e-02
-3.515738707125364015e-02
-4.152871502409035548e-02
-4.642130115138958651e-02
-4.968180442823326437e-02
-5.119562560924244277e-02
-5.083124469346784330e-02
-4.858300605046819015e-02
-4.448863435555359264e-02
-3.861795813364941182e-02
-3.108442166020265046e-02
-2.204077807647891393e-02
-1.167364185622367379e-02
-1.972742992926504457e-04
1.217406737438044527e-02
2.518731655775564501e-02
3.857220638403806995e-02
5.205455072080099332e-02
6.536097816532537852e-02
7.822632643959911980e-02
9.040067289006104012e-02
1.016557025721025881e-01
1.117652777905492195e-01
1.205916122461582751e-01
1.280033824631199302e-01
1.339006551920137178e-01
1.382201273086715310e-01
1.409358076283227512e-01
1.420586213559011379e-01
1.416349633753212489e-01
1.397288984483068264e-01
1.364581316884604656e-01
1.319636993038054151e-01
1.264095070245403185e-01
1.199771054232281337e-01
1.128594818272724842e-01
1.052547680073964431e-01
9.736084218864757278e-02
8.941252882996472695e-02
8.151679227103722503e-02
7.384091939324766152e-02
6.653785328269319621e-02
5.974087997491573515e-02
5.355886994233501064e-02
4.807254285067390220e-02
4.333861532439518133e-02
3.943744249443852101e-02
3.625479729138712109e-02
3.375155605117765439e-02
3.186788788010681134e-02
3.052396737611105804e-02
2.962106289196930753e-02
2.904334815850474066e-02
2.866561193268290370e-02
2.836342802766550833e-02
2.794888243409545184e-02
2.727891224205517690e-02
2.621875504526990919e-02
2.464518458020580408e-02
2.244915425619992827e-02
1.953801409745232337e-02
1.582822584892446677e-02
1.123246186319990826e-02
5.761204116667565170e-03
-5.844906135613362960e-04
-7.777096613461851465e-03
-1.576299258486420912e-02
-2.446378424825341666e-02
-3.377848153195411873e-02
-4.360528131486152148e-02
-5.384561021549713611e-02
-6.428533158086628674e-02
-7.475243693187219596e-02
-8.506725503266493460e-02
-9.504665805098348741e-02
-1.045085174250586918e-01
-1.132762812415017833e-01
-1.211918275475133283e-01
-1.281183682044935990e-01
-1.339014149538377274e-01
-1.384197868225743588e-01
-1.415738799945986393e-01
-1.432884735462630899e-01
-1.435149896340280062e-01
-1.422330769554031316e-01
-1.394424873634232676e-01
-1.351811540353471952e-01
-1.295334506409987763e-01
-1.225906453934935830e-01
-1.144669778812721084e-01
-1.052976497486241975e-01
-9.523633412844664803e-02
-8.445219104629382578e-02
-7.312021660729219052e-02
-6.142569548969832594e-02
-4.957203625197760533e-02
-3.775684786600074644e-02
-2.617440226998368757e-02
-1.501112921155359041e-02
-4.441317724670925879e-03
5.376789797116485539e-03
1.429075192445822783e-02
2.219904422151914095e-02
2.902617051590512115e-02
3.469798351607054215e-02
3.916353385201818554e-02
4.239749538189187261e-02
4.440202832227577862e-02
4.520772747792831808e-02
4.485593271816260691e-02
4.345905575171430529e-02
4.114326558093069769e-02
3.802736178421455698e-02
3.424252575570350954e-02
2.993136115070019893e-02
2.524682561729294644e-02
2.035064482802489624e-02
1.541643909473167789e-02
1.063478960924277121e-02
6.167906776258594639e-03
2.162586559248328832e-03
-1.249759111023111737e-03
-3.954406821064135671e-03
-5.854015490112315923e-03
-6.869049336685997126e-03
-6.919904953952919421e-03
-5.960433780567537046e-03
-3.983650431944544407e-03
-1.002913582667850842e-03
2.942897006170845826e-03
7.790791707264202101e-03
1.345574210424030359e-02
1.983325679472455749e-02
2.679168749968643612e-02
3.420657677258551188e-02
4.193806100193296638e-02
4.983385686386165858e-02
5.773667596140497765e-02
6.548719913543181448e-02
7.292696691219338612e-02
7.990126763569103951e-02
8.621611076045265776e-02
9.176110430340254920e-02
9.643342749410468984e-02
1.001387132645986944e-01
1.028034226555140374e-01
1.043754624165520867e-01
1.048241115600747897e-01
1.041394849508387455e-01
1.023086777931798974e-01
9.936609903565439550e-02
9.537275810201426007e-02
9.040965483130591895e-02
8.457774609416263134e-02
7.799468764947213584e-02
7.079120292420157390e-02
6.310729014123371561e-02
5.514136706340762306e-02
4.697376356739723507e-02
3.874307912319820135e-02
3.059262850313733406e-02
2.266015440054572685e-02
1.507382835230040852e-02
7.948757912788160032e-03
1.384127621309419248e-03
-4.442110645014768142e-03
-9.581553265623382262e-03
-1.400550397480294050e-02
-1.770192073277920483e-02
-2.067961439981935018e-02
-2.296856976794699537e-02
-2.461941741634719738e-02
-2.570030910863236109e-02
-2.624855359934795060e-02
-2.642742255321545164e-02
-2.635192188497499644e-02
-2.614265490920874083e-02
-2.592255734129496336e-02
-2.581359723848774060e-02
-2.593338203080238630e-02
-2.639344273746377367e-02
-2.731049698399566628e-02
-2.874833709302532930e-02
-3.076692280833154963e-02
-3.340341175176764904e-02
-3.667008012882628371e-02
-4.055310429907749148e-02
-4.501222734530738873e-02
-4.998825810771898026e-02
-5.542331546388075403e-02
-6.115943805757843854e-02
-6.705577400705881042e-02
-7.295334227563493590e-02
-7.867883343076829961e-02
-8.404907807158976119e-02
-8.887610351563085542e-02
-9.297741545911494820e-02
-9.618634699981057357e-02
-9.831430141405980705e-02
-9.920655945475094495e-02
-9.873090475069525029e-02
-9.678265964725649151e-02
-9.328912568393732396e-02
-8.821325437283809856e-02
-8.155853276644448036e-02
-7.337312509729750076e-02
-6.373324433793725596e-02
-5.275750582165294328e-02
-4.060188420764019451e-02
-2.745752538693653141e-02
-1.354758000724536580e-02
8.769859048987241421e-04
1.553162277141909887e-02
3.011309445413998254e-02
4.434774195818716458e-02
5.794104883048509930e-02
7.060576555868071369e-02
8.206922888560680418e-02
9.208025332158187304e-02
1.004154570026024734e-01
1.068605905603312867e-01
1.112552986130599386e-01
1.135364692471821785e-01
1.136474056972982816e-01
1.115796089784597683e-01
1.073742519892037645e-01
1.011221970323195191e-01
9.296241855488386607e-02
8.305935471170648732e-02
7.164577190047291544e-02
5.900946474568139616e-02
4.543382988555869778e-02
3.122008212368053079e-02
1.668120121968174815e-02
2.135685440285672084e-03
-1.209902518916748486e-02
-2.570348561906853416e-02
-3.836857964933996362e-02
-4.983560342937017051e-02
-5.987755908197756050e-02
-6.830743322749065205e-02
-7.498081093422408194e-02
-7.979699616705870913e-02
-8.269895473778396400e-02
-8.363542081774121006e-02
-8.263215725018829838e-02
-7.979306800763633079e-02
-7.524058899818551749e-02
-6.913511960053342342e-02
-6.166926766270248994e-02
-5.306109561303484073e-02
-4.354673694195548839e-02
-3.334106162185022232e-02
-2.270466069969432482e-02
-1.190922632386431923e-02
-1.201194413657629464e-03
9.186672083998686372e-03
1.904061413736382602e-02
2.817057053304676192e-02
3.641416622186073593e-02
4.364639501563410962e-02
4.976063937629060518e-02
5.468999400048198123e-02
5.840747962717360298e-02
6.092106807377310751e-02
6.227139983055084149e-02
6.252862381696376592e-02
6.178860210191066543e-02
6.017272451864928012e-02
5.780221373859631417e-02
5.482489355884801602e-02
5.140284782257072832e-02
4.770393772904955171e-02
4.389620306663991056e-02
4.014245575341948702e-02
3.659531532647463531e-02
3.342475577021012528e-02
3.071123818951840626e-02
2.854504511902153374e-02
2.700577308552870592e-02
2.615074177975852329e-02
2.601301739080462069e-02
2.660022397204876016e-02
2.789426648696331085e-02
2.989026106201079364e-02
3.247603866987871374e-02
3.555537674851633884e-02
3.902222699278801166e-02
4.275626859469435631e-02
4.662526210404194932e-02
5.048771642007313099e-02
5.419594257132807902e-02
5.758413183146397080e-02
6.051640209526333580e-02
6.285231604148033835e-02
6.445976805254545472e-02
6.521945637021377140e-02
6.502776299712216546e-02
6.379912574637248979e-02
6.146795018533693367e-02
5.790899671398799797e-02
5.319312631552428755e-02
4.733234627915995640e-02
4.036153283961967791e-02
3.233993663290735121e-02
2.335093315455145230e-02
1.350096002180859074e-02
2.914159677978884339e-03
-8.327533815305702969e-03
-1.998419115433855073e-02
-3.187370535432200447e-02
-4.380526710819562103e-02
-5.558282747001152407e-02
-6.700874782649053618e-02
-7.788765561795014947e-02
-8.802990948659640547e-02
-9.725548636544846526e-02
-1.054066454345069792e-01
-1.123358472714966610e-01
-1.179163466849401098e-01
-1.220456415141280282e-01
-1.246483359034507993e-01
-1.256782727520208975e-01
-1.251112532430255497e-01
-1.229352147520840904e-01
-1.192468347443802063e-01
-1.141241949861807048e-01
-1.076721477308057451e-01
-1.000210823721322112e-01
-9.132507908965252497e-02
-8.175930053774323192e-02
-7.151376274055366855e-02
-6.079361194806387481e-02
-4.982609483560268560e-02
-3.882674427977669818e-02
-2.800754263113233375e-02
-1.757263892516644846e-02
-7.714417424206386487e-03
1.390138229368811885e-03
9.568452407363680842e-03
1.666158244155846804e-02
2.259918351014261403e-02
2.730679277728839671e-02
3.074129668547093824e-02
3.289185987728780042e-02
3.377983317053143142e-02
3.345765784238183965e-02
3.199003210191318780e-02
2.947330353873848022e-02
2.607604657418814351e-02
2.195411548946688343e-02
1.727924319564855954e-02
1.223526375735351120e-02
7.014042710241008213e-03
1.811065343341292620e-03
-3.174339072642561651e-03
-7.743192662857664027e-03
-1.172649998116736224e-02
-1.497163184023676298e-02
-1.734879283555371479e-02
-1.875322581067917840e-02
-1.910651025804845082e-02
-1.835719257747225192e-02
-1.645868315283716132e-02
-1.339787549030244974e-02
-9.235969436444470965e-03
-4.047366652153112920e-03
2.063311840977067463e-03
8.964936857377892379e-03
1.650448810274119868e-02
2.451221792031682556e-02
3.281467722642304741e-02
4.123666768076669764e-02
4.957978233575242172e-02
5.764577201487854075e-02
6.523964721976863168e-02
7.217519336945774078e-02
7.828028733639882941e-02
8.340177529115797017e-02
8.739195265840525584e-02
9.016018061605787781e-02
9.164795872615745520e-02
9.181199775434041588e-02
9.063979513674359778e-02
8.815035913969815340e-02
8.439408441448378873e-02
7.945175783557203997e-02
7.342582333556736673e-02
6.645322312975829315e-02
5.869767400903999621e-02
5.033964925324699996e-02
4.157535306211102705e-02
3.261206576623194853e-02
2.366324227056884263e-02
1.494346327896166858e-02
6.705165731657159248e-03
-8.846781399397293626e-04
-7.661785644500351475e-03
-1.346043450844917715e-02
-1.813688749009896919e-02
-2.157365510370119061e-02
-2.368294192494481420e-02
-2.440916283989395807e-02
-2.365991569336154884e-02
-2.151097647944968244e-02
-1.804058986500872708e-02
-1.333663056739419102e-02
-7.518551540323777094e-03
-7.358530371466553976e-04
6.834429016818754227e-03
1.499128257342061295e-02
2.355290818015723028e-02
3.224416320688673621e-02
4.081032624903900563e-02
4.900491985656450084e-02
5.658639252779100459e-02
6.332350155679271342e-02
6.900054840793384825e-02
7.342247418248774860e-02
7.640129509815395126e-02
7.781173437837517193e-02
7.755532160598967162e-02
7.557063513946002398e-02
7.183765073976021431e-02
6.637877806071140752e-02
5.925869860181820492e-02
5.058306653713495749e-02
4.045582379240270782e-02
2.909541895469364842e-02
1.672199110289917037e-02
3.581287368122803780e-03
-1.005893979201625231e-02
-2.391551488155102198e-02
-3.769698196140800622e-02
-5.111120816763484870e-02
-6.390191348774632019e-02
-7.577334052347144133e-02
-8.646785967059286704e-02
-9.575315698546457699e-02
-1.034289677350231501e-01
-1.093331697693903093e-01
-1.133469121644675032e-01
-1.154004986620902756e-01
-1.155066415734623403e-01
-1.136659572794068013e-01
-1.099446478446504255e-01
-1.044524396863465154e-01
-9.734078826850581234e-02
-8.880029501336321462e-02
-7.905715985408544311e-02
-6.837727963385896446e-02
-5.710192632221611220e-02
-4.546598094181660693e-02
-3.376347116601103454e-02
-2.228589417325630914e-02
-1.131498344997830009e-02
-1.116121815535065127e-03
8.067535722885051108e-03
1.600481275085097882e-02
2.246065053992100588e-02
2.736411567781820570e-02
3.061871200733842779e-02
3.217157277568601093e-02
3.201521586292570970e-02
3.018795612729356995e-02
2.677282035027628640e-02
2.188857352197996417e-02
1.569447243651496751e-02
8.411375920107492382e-03
2.587666153019440619e-04
-8.525942026532682197e-03
-1.769265276418026389e-02
-2.698382386841321340e-02
-3.613987385974659627e-02
-4.488691466424143961e-02
-5.294451246514055021e-02
-6.012779385440480961e-02
-6.624721678247204315e-02
-7.114595408467137838e-02
-7.470252137834239303e-02
-7.683192174929405482e-02
-7.748555273293562806e-02
-7.662063408016450694e-02
-7.422795739722455599e-02
-7.041972207351908375e-02
-6.529752549840869835e-02
-5.899427834441799134e-02
-5.166943025450545374e-02
-4.350330358407932668e-02
-3.469078910200507765e-02
-2.542769841671089007e-02
-1.591037527213116226e-02
-6.349398959905279416e-03
3.059449198464581250e-03
1.213388045064463065e-02
2.071005289263877155e-02
2.864676305802832737e-02
3.582877603504375924e-02
4.214476711637869105e-02
4.754234076459969843e-02
5.202697758971028957e-02
5.560617876218746508e-02
5.831599582887227184e-02
6.021943780137884589e-02
6.140393094139679625e-02
6.197785329140915317e-02
6.205075649817133610e-02
6.176721876793364596e-02
6.128691937887922186e-02
6.075590541457190352e-02
6.031610426031173283e-02
6.010116883452079617e-02
6.023271631687857758e-02
6.081690822846889249e-02
6.197692852016441906e-02
6.376485431182414565e-02
6.619242706785768982e-02
6.926753658327404473e-02
7.297044688687451264e-02
7.725391743953488599e-02
8.204442139666309752e-02
8.724434721069659893e-02
9.280073604324905190e-02
9.853510689433619962e-02
1.042523522862450758e-01
1.097814084774850346e-01
1.149448158557620364e-01
1.195624383309164263e-01
1.234555055036751642e-01
1.264509978688379832e-01
1.284171818264425724e-01
1.291782032818434289e-01
1.285904368210607218e-01
1.265481944737447406e-01
1.229734941294399198e-01
1.178178791559154059e-01
1.110635353513474977e-01
1.027238594851723752e-01
9.281947291713651960e-02
8.144165730704647221e-02
6.870872548297976556e-02
5.476409419506911985e-02
3.978027414409444212e-02
2.395594514709717751e-02
7.512245013100823238e-03
-9.311598826803400841e-03
-2.629061503332770153e-02
-4.314213397684279333e-02
-5.959250751882194663e-02
-7.537413376952026289e-02
-9.022609924965711847e-02
-1.038996340136099927e-01
-1.161634429660842599e-01
-1.268088031240089675e-01
-1.356463946647389340e-01
-1.425425821128876724e-01
-1.473818403622287332e-01
-1.500836755891167273e-01
-1.506072126140029777e-01
-1.489537255089156687e-01
-1.451681578278449514e-01
-1.393394209796003647e-01
-1.315979194522490792e-01
-1.221360019011173553e-01
-1.111561492422781100e-01
-9.888870213810439791e-02
-8.558932407356725780e-02
-7.153575175288851007e-02
-5.702395210185699087e-02
-4.236455644355549555e-02
-2.793540983882004253e-02
-1.400863976069351320e-02
-8.773046621732491501e-04
1.118641921588717919e-02
2.193636260830981316e-02
3.115642186531337315e-02
3.866374946643917621e-02
4.430405746226633718e-02
4.788781504433958780e-02
4.943140520223528872e-02
4.892786972560064090e-02
4.641879740266907639e-02
4.199352931308421299e-02
3.578690777045565041e-02
2.797562872973761994e-02
1.876716263419933931e-02
8.378675735152388976e-03
-2.877381839294310736e-03
-1.470960313087190004e-02
-2.681564168622522018e-02
-3.888848848759082766e-02
-5.062271380487513156e-02
-6.172078388993038067e-02
-7.189389670435392121e-02
-8.084874314864397282e-02
-8.837080643181548234e-02
-9.427541858767252148e-02
-9.842265346383220759e-02
-1.007189451177882139e-01
-1.011170531285815050e-01
-9.961477948236878432e-02
-9.624302889709759889e-02
-9.104362993661570258e-02
-8.416199970167664857e-02
-7.577537970844895610e-02
-6.610028077806039126e-02
-5.538466713806528691e-02
-4.389897977077407420e-02
-3.192662482332495749e-02
-1.975968870723380025e-02
-7.664806203723119674e-03
4.105167254734470340e-03
1.528737340716052745e-02
2.563843034376530119e-02
3.494229857894991936e-02
4.301740927482330251e-02
4.972260582405479967e-02
5.494310269808293234e-02
5.862980472852864777e-02
6.081829995681367618e-02
6.155460781030868550e-02
6.092764436595091149e-02
5.906677746391508083e-02
5.613817957209657483e-02
5.233999456848702908e-02
4.789577829310675411e-02
4.304566813697120048e-02
3.804581612504408933e-02
3.315808632664986322e-02
2.864127101849846604e-02
2.474289810312943483e-02
2.169145378828618922e-02
1.968928921468319354e-02
1.894537235921389326e-02
1.957795839398947593e-02
2.163070404781873221e-02
2.514786419637476261e-02
3.012965550207062637e-02
3.653071470367681012e-02
4.426004368840179282e-02
5.318258102541442017e-02
6.317473774936098463e-02
7.399827997104756194e-02
8.535939277780081602e-02
9.698615445275798885e-02
1.085912045012532717e-01
1.198780919629275493e-01
1.305479712935849190e-01
1.403066369225059729e-01
1.488876117769196150e-01
1.560160020789557178e-01
1.614427725971342431e-01
1.649631941751255604e-01
1.664113028853340670e-01
1.656638178678945805e-01
1.626428908131647144e-01
1.573177307738066466e-01
1.496784861732493588e-01
1.398061755377935089e-01
1.278280544541654518e-01
1.139029526269412645e-01
9.823065028093584672e-02
8.104781077094863617e-02
6.262296653914876943e-02
4.325067040725872475e-02
2.322793968358275243e-02
2.892800152725186723e-03
-1.741343187236788631e-02
-3.735607725879636076e-02
-5.660836557002240504e-02
-7.485812200422345408e-02
-9.181402412547563785e-02
-1.072113230374919929e-01
-1.207902085937504894e-01
-1.323849677915334144e-01
-1.418465971242949819e-01
-1.490588613564147735e-01
-1.539488676799022349e-01
-1.564890908558524973e-01
-1.566982711634034020e-01
-1.546410284409674707e-01
-1.504021488444856336e-01
-1.441704591427685478e-01
-1.361352439354728550e-01
-1.265091239066883644e-01
-1.155299368451625092e-01
-1.034572727358409328e-01
-9.056859554511832722e-02
-7.715467763531949630e-02
-6.356188055932802949e-02
-5.006073414848859204e-02
-3.692887945424812302e-02
-2.442992775316989509e-02
-1.280568445035631074e-02
-2.272659099901065943e-03
6.980568525413460498e-03
1.479543984778881015e-02
2.094531200978411167e-02
2.543241230294582961e-02
2.821944704357622069e-02
2.930849335409641682e-02
2.874226698039383798e-02
2.660238401759573712e-02
2.300644130873972376e-02
1.810213569989917171e-02
1.202312296419666068e-02
5.019008632093287584e-03
-2.687082296961838725e-03
-1.085926877771987813e-02
-1.925398868474921532e-02
-2.762508930664585999e-02
-3.572900661083810298e-02
-4.332610142487842986e-02
-5.015387449451742807e-02
-5.604374705560591363e-02
-6.082952882752036550e-02
-6.437784736969415222e-02
-6.659018238866919182e-02
-6.740357777455947830e-02
-6.679030838325863972e-02
-6.474893887909861923e-02
-6.126842446799175834e-02
-5.645881254943409255e-02
-5.044192351926298640e-02
-4.337431323736701955e-02
-3.544151352688773571e-02
-2.685116660719219159e-02
-1.782555922370772372e-02
-8.600102734787845246e-03
6.013252844549320415e-04
9.585919199185607281e-03
1.813002419093721201e-02
2.602044836052360213e-02
3.306197352409354084e-02
3.908445265242965067e-02
4.394899585232747014e-02
4.753077736619372440e-02
4.974743957302409786e-02
5.064502905859958465e-02
5.024288993754705279e-02
4.859750346934703369e-02
4.580223368724333638e-02
4.198598518870479135e-02
3.731059877812547415e-02
3.195832474345806223e-02
2.613848888264844531e-02
2.010342398565199626e-02
1.409860620461779630e-02
8.373056814829488853e-03
3.172323423301066404e-03
-1.268417165721505511e-03
-4.730989645248914743e-03
-6.990121227111675134e-03
-7.874437219263267021e-03
-7.306614500686781435e-03
-5.197844251720136130e-03
-1.499949636842197020e-03
3.791478955963949529e-03
1.063534226598297772e-02
1.894485934232534655e-02
2.863789233208928475e-02
3.953630907151788054e-02
5.136048220797485159e-02
6.386151799401179607e-02
7.676541311314592775e-02
8.977825008451702227e-02
1.025921049419471209e-01
1.148917397388866807e-01
1.263811670107366503e-01
1.367416272458497339e-01
1.456605550481016587e-01
1.528723599536622180e-01
1.581443750401252402e-01
1.612820881777633775e-01
1.621333533574539632e-01
1.605916825721236674e-01
1.565743341502188191e-01
1.500753022916091195e-01
1.411603037159983864e-01
1.299327275193066233e-01
1.165475041260440880e-01
1.012077970712967762e-01
8.416031962379086351e-02
6.568949006930951962e-02
4.608378002494007558e-02
2.569065595218743281e-02
4.886590947428750588e-03
-1.595493032217757887e-02
-3.645809797085129700e-02
-5.625328275039562925e-02
-7.498545122799131490e-02
-9.232225858677534092e-02
-1.079552182344812733e-01
-1.216312819241908982e-01
-1.331303178914604313e-01
-1.422732083928755220e-01
-1.489305510922529774e-01
-1.530260254734610303e-01
-1.545384292073674060e-01
-1.535022279142810586e-01
-1.499951698584313931e-01
-1.441791077241495189e-01
-1.362461709142529231e-01
-1.264233346203408048e-01
-1.149732899936916075e-01
-1.021894636139048379e-01
-8.839039369083831477e-02
-7.391332874800145281e-02
-5.914477302700095473e-02
-4.441764911000475186e-02
-3.006101747719554240e-02
-1.639314921368771952e-02
-3.708175568042537239e-03
7.729346032878317910e-03
1.768884811531390433e-02
2.597734374764192750e-02
3.236871178404172184e-02
3.681465596132464657e-02
3.927508753192131968e-02
3.975048834896949268e-02
3.829086175783957824e-02
3.499382422551462757e-02
3.000132286304930257e-02
2.349513940931854603e-02
1.566821671242692171e-02
6.790328702277557277e-03
-2.868112241374531825e-03
-1.302303688227697369e-02
-2.338150637628175557e-02
-3.364796110649934113e-02
-4.353043135007254177e-02
-5.274679468875610733e-02
-6.095751501472905509e-02
-6.798424685319399974e-02
-7.362819724091193563e-02
-7.772893913955830625e-02
-8.016705553050085253e-02
-8.086517568170766002e-02
-7.978770666227696928e-02
-7.693504749182937530e-02
-7.226731039816317037e-02
-6.593704797306858267e-02
-5.808417905026615202e-02
-4.888855207874148734e-02
-3.856386282534193105e-02
-2.735032829773356017e-02
-1.550660566914107384e-02
-3.302053363617411027e-03
9.007780061601905822e-03
2.117007167812058957e-02
3.291499481787180797e-02
4.398267593728531766e-02
5.413139978404935687e-02
6.314546315101816909e-02
7.084215627828492623e-02
7.706493275700754264e-02
8.168378065396993126e-02
8.471255344598326020e-02
8.613802313037054181e-02
8.598776727040156886e-02
8.433065084782176424e-02
8.127623369095395012e-02
7.697284039341147077e-02
7.159775613064055244e-02
6.535697226702834317e-02
5.851382514969841880e-02
5.132372573899062623e-02
4.405047934708719581e-02
3.695927284531717177e-02
3.030973134194993659e-02
2.434912850526172248e-02
1.932710428731026359e-02
1.546845777906340376e-02
1.288663356059859336e-02
1.171226897233200448e-02
1.203619854329891770e-02
1.390542334907921874e-02
1.732045929154436142e-02
2.223428595315556089e-02
2.858766670035624638e-02
3.625523330866926158e-02
4.498273303423401537e-02
5.454922702851440486e-02
6.470466460892174143e-02
7.517450023089547462e-02
8.566504860258923604e-02
9.586973849607688392e-02
1.054837284289319166e-01
1.141882752866316825e-01
1.216710984787688216e-01
1.276580458653137073e-01
1.319048830665578709e-01
1.342028689895313209e-01
1.343832363965033749e-01
1.323207220486362079e-01
1.279052428906242433e-01
1.210976176739939902e-01
1.119585574156711227e-01
1.005725643217459664e-01
8.707691613667994934e-02
7.165866585469658767e-02
5.455012204750090549e-02
3.602304659816353560e-02
1.634923145923164109e-02
-4.142526547368527781e-03
-2.506881733614298169e-02
-4.605772854833481422e-02
-6.673253803947250262e-02
-8.672074717608235783e-02
-1.056631132360681125e-01
-1.232223610192542812e-01
-1.390981121192761960e-01
-1.530316242406497551e-01
-1.647883405055128037e-01
-1.741778112346527296e-01
-1.810582866041333394e-01
-1.853412095098962431e-01
-1.869944621431873788e-01
-1.860440070243410404e-01
-1.825881504614597917e-01
-1.767802347333131407e-01
-1.687975397933819122e-01
-1.588593055507341034e-01
-1.472203749860128141e-01
-1.341672595408084367e-01
-1.200137241801421811e-01
-1.050955037814170490e-01
-8.983548726770769488e-02
-7.456669627374386267e-02
-5.960119748146450874e-02
-4.525643543598580065e-02
-3.182506004978546271e-02
-1.956996488065329207e-02
-8.720565707806500477e-03
5.300423539309727372e-04
7.920933894948288881e-03
1.340973005265791961e-02
1.697780505751776345e-02
1.862878258744115820e-02
1.841649872626800744e-02
1.644296775725280838e-02
1.285478209747133692e-02
7.838144840166851035e-03
1.562029722486482685e-03
-5.679142416411318492e-03
-1.360153183111518192e-02
-2.191800066191013432e-02
-3.033451593694713733e-02
-3.855648104813159949e-02
-4.629504089339740031e-02
-5.327347584812613251e-02
-5.917677735340966944e-02
-6.380880611474086528e-02
-6.698946753346866900e-02
-6.857574478228489756e-02
-6.846924249476941948e-02
-6.661652672846438139e-02
-6.300798989244098258e-02
-5.767575077455919935e-02
-5.057628964348519218e-02
-4.190399346572570849e-02
-3.183424406488618436e-02
-2.057821682499377108e-02
-8.379471436688242306e-03
4.495311199712933789e-03
1.776644106787321487e-02
3.115255822832476915e-02
4.447060543894602869e-02
5.740141332055855722e-02
6.967289227483608460e-02
8.102788740323461913e-02
9.123393314969788226e-02
1.000929939345996111e-01
1.074503008308286822e-01
1.132056063645215105e-01
1.173844676409309118e-01
1.199540542321517050e-01
1.209444571804135643e-01
1.204259172393796207e-01
1.185096840121359074e-01
1.153484515970982643e-01
1.111356756706522730e-01
1.061194009327843107e-01
1.006738192420822409e-01
9.498626663032587458e-02
8.932931098970126049e-02
8.397190884791881638e-02
7.917316470015335617e-02
7.517711933387914713e-02
7.220825658301589789e-02
7.050658839721428428e-02
7.037385518879951674e-02
7.177265168489949110e-02
7.476836428689519198e-02
7.937735056839409498e-02
8.556550993805855931e-02
9.324888931147981563e-02
1.022962352783929746e-01
1.125810310784366858e-01
1.239773711532348582e-01
1.360823627983011319e-01
1.486009210392261748e-01
1.612161186193809825e-01
1.735959006240033464e-01
1.854004793222534808e-01
1.962904139107613521e-01
2.059540000130345161e-01
2.140904102764094874e-01
2.203645028943316819e-01
2.245220173109199469e-01
2.263508170509674622e-01
2.256847484785391988e-01
2.224060651247929121e-01
2.164467177727387170e-01
2.077498303419333670e-01
1.963050923227893929e-01
1.822679165561343073e-01
1.657962806240733944e-01
1.470993272159973331e-01
1.264296482869278482e-01
1.040738526308223055e-01
8.034230746609109797e-02
5.545834475800247299e-02
2.968445039954933223e-02
3.500786092045758691e-03
-2.271277557802917069e-02
-4.857870087608885667e-02
-7.373514379246873252e-02
-9.784987330754627011e-02
-1.206332784245051776e-01
-1.420021931753354116e-01
-1.618442519014101078e-01
-1.798520628401753529e-01
-1.958778519186172296e-01
-2.098124732334915310e-01
-2.215930918416094131e-01
-2.312111242540972889e-01
-2.387187185971767767e-01
-2.444147339518296658e-01
-2.485070394617677758e-01
-2.510393403170617099e-01
-2.521908789839110709e-01
-2.521541609252662131e-01
-2.511343084483650401e-01
-2.493495482191494528e-01
-2.470315884832697539e-01
-2.445779228075145584e-01
-2.422179019553241386e-01
-2.400742626256035239e-01
-2.383280942275946834e-01
-2.371314231452026633e-01
-2.366041452372308618e-01
-2.368325206296691965e-01
-2.378690208077507973e-01
-2.397735722914727252e-01
-2.424986086791585671e-01
-2.459766838755535201e-01
-2.501350394557050882e-01
-2.548733585063661655e-01
-2.600627981931046828e-01
-2.655454859042663540e-01
-2.711352888101408731e-01
-2.765049508276044010e-01
-2.814482335729525664e-01
-2.857934707650079953e-01
-2.893492616513041460e-01
-2.919368622550745362e-01
-2.933885705490629769e-01
-2.935448817443569447e-01
-2.922517852499544877e-01
-2.891421210034617051e-01
-2.841750959140056376e-01
-2.773269761765173591e-01
-2.685655402578771000e-01
-2.578921007965181977e-01
-2.453347207382607920e-01
-2.309398649802369696e-01
-2.147639762205799663e-01
-1.966680122918172680e-01
-1.768147081389528641e-01
-1.553467007309621561e-01
-1.323995192885566163e-01
-1.081207768856304319e-01
-8.266120828751168104e-02
-5.616549614208468655e-02
-2.876417792021016689e-02
-4.694639138464666399e-04
2.860418547010677368e-02
5.834246861916963373e-02
8.863727392964766694e-02
1.193847668658517963e-01
1.504893421586726288e-01
1.818669464195008523e-01
2.134468757869089905e-01
2.452009608410717356e-01
2.771062031223967548e-01
3.090925071649262001e-01
3.410744928718384417e-01
3.729507884729112432e-01
4.046042361578761071e-01
4.359024845263974046e-01
4.666997174321780850e-01
4.968840176427242739e-01
5.262480556669825171e-01
5.545782307881281792e-01
5.816355338518532925e-01
6.071579606873024337e-01
6.308644184034322144e-01
6.524598692768472930e-01
6.716516533523062549e-01
6.882176857226400823e-01
7.017479295868332967e-01
7.119438100369565037e-01
7.185247500147855515e-01
7.212334931597146337e-01
7.198414500731238341e-01
7.141542273010771380e-01
7.040347937305129200e-01
6.894278829972376732e-01
6.701601999047250846e-01
6.462331653159834044e-01
6.177138145247187406e-01
5.847328230534476479e-01
5.474808847917879140e-01
5.062042132843002085e-01
4.612094297894666628e-01
4.128284270630901420e-01
3.613957112441635866e-01
3.073579402674515015e-01
2.512064536464095332e-01
1.934656661077341633e-01
1.346801939728656528e-01
7.540190185111693422e-02
1.617425839413589791e-02
-4.252258909954606536e-02
-1.001780185162395587e-01
-1.562717094466533896e-01
-2.103016431233884764e-01
-2.617954619888714363e-01
-3.103218591958377681e-01
-3.555008329427608582e-01
-3.970128403039949738e-01
-4.346551511797523970e-01
-4.682431478439263439e-01
-4.976107577598966603e-01
-5.226390056035092879e-01
-5.432601733102260244e-01
-5.594617376775427031e-01
-5.712891142350772222e-01
-5.788299736626115743e-01
-5.822867735767145447e-01
-5.819065058546247782e-01
-5.779160817867172728e-01
-5.705674272174409145e-01
-5.601364504064828553e-01
-5.469221983230613260e-01
-5.312454197683657009e-01
-5.134283519487137237e-01
-4.938586262426742923e-01
-4.729260416549235235e-01
-4.509753474189233668e-01
-4.283378807916182196e-01
-4.053296150317565183e-01
-3.822498166633124250e-01
-3.593797691002083572e-01
-3.370067501256571174e-01
-3.153831067791973974e-01
-2.946928702924041521e-01
-2.751042481227547465e-01
-2.567501190449423265e-01
-2.397280847727719100e-01
-2.241015209552202070e-01
-2.099013341240921482e-01
-1.972323673522392851e-01
-1.860252552269852089e-01
-1.761274619323659196e-01
-1.674406812814324130e-01
-1.598438492340158168e-01
-1.531951855949436336e-01
-1.473351825808503213e-01
-1.420905963467221367e-01
-1.374574524487625626e-01
-1.331209380112772789e-01
-1.287653478318448175e-01
-1.242021083013674504e-01
-1.192583075716854568e-01
-1.137759141713277078e-01
-1.076112749449461004e-01
-1.006356453364920800e-01
-9.294543681343220287e-02
-8.423469213151391077e-02
-7.432218953286624796e-02
-6.318213969277626518e-02
-5.083101127495349286e-02
-3.731937670245437377e-02
-2.272350218393479754e-02
-7.138254059035297611e-03
9.150984721886518472e-03
2.626187615912650708e-02
4.412304423486256705e-02
6.254901593401336612e-02
8.132409387013028734e-02
1.002148774281633181e-01
1.189829703034067099e-01
1.373960766486281848e-01
1.551547554587076605e-01
1.722130943343019582e-01
1.883993214453428267e-01
2.035117024505932459e-01
2.173541822361969855e-01
2.297450953110650729e-01
2.405258319266742328e-01
2.495683062887977810e-01
2.568463269880713606e-01
2.622682321167869035e-01
2.657920235046439261e-01
2.674135448262176529e-01
2.671585769689103773e-01
2.650826952277550719e-01
2.612711698920394121e-01
2.558387376056469042e-01
2.491546872100115495e-01
2.411264215445668158e-01
2.319158783391975232e-01
2.217305826621559783e-01
2.107991127439788337e-01
1.993636409102668150e-01
1.876730064079465410e-01
1.759768251353918123e-01
1.648438270509741677e-01
1.541013999660877098e-01
1.439576446346281235e-01
1.346204907763469683e-01
1.262866393572572854e-01
1.191329531452886697e-01
1.133090479252353289e-01
1.089486411934930676e-01
1.063792691873184648e-01
1.052967810427394568e-01
1.056955241215287861e-01
1.075443994328222075e-01
1.107831112125750722e-01
1.153188417174427494e-01
1.210243036645653469e-01
1.277587813402412953e-01
1.354422612962745409e-01
1.436579058381853846e-01
1.521615252073253988e-01
1.607025420528098159e-01
1.690266282043285662e-01
1.768782403958115701e-01
1.840036241043298826e-01
1.901688747961207959e-01
1.951672713364288880e-01
1.986938717349968075e-01
2.005578368306880910e-01
2.006045116186714605e-01
1.987177561614812127e-01
1.948211891454053601e-01
1.888786636983957878e-01
1.809085991530132442e-01
1.709721191072265112e-01
1.590945580378035906e-01
1.454009240954652338e-01
1.300569299371603094e-01
1.132643036986927809e-01
9.525517396220892219e-02
7.628583628851048903e-02
5.665004796213905097e-02
3.665290165567308689e-02
1.652634842562880277e-02
-3.448006009126790023e-03
-2.299680412290535519e-02
-4.186204296691151822e-02
-5.980763528958690789e-02
-7.662516498834369416e-02
-9.213349079919011531e-02
-1.061872492665705270e-01
-1.186964289235975384e-01
-1.296037932144010196e-01
-1.388937314410481905e-01
-1.465914731205748833e-01
-1.527612132800966194e-01
-1.575031808863860128e-01
-1.609890504936498379e-01
-1.633835803758712235e-01
-1.648004207737291393e-01
-1.654295219435059083e-01
-1.654707466342038580e-01
-1.651262041756310639e-01
-1.645929513468398775e-01
-1.640563746400030554e-01
-1.637660405294894816e-01
-1.638554382428556444e-01
-1.643322960510284758e-01
-1.652738843200233787e-01
-1.667272254293397926e-01
-1.687059551790967837e-01
-1.711886709150327868e-01
-1.741190798946570806e-01
-1.774918209188988960e-01
-1.811519886608562446e-01
-1.848657703352705184e-01
-1.884653263586765770e-01
-1.917737608034714436e-01
-1.946093687048879584e-01
-1.967902450125872116e-01
-1.981394506544112144e-01
-1.985454713561760620e-01
-1.978204559426466058e-01
-1.957912688993772299e-01
-1.923604094498229389e-01
-1.874671869117965906e-01
-1.810896009813915963e-01
-1.732450838629074896e-01
-1.639902799724777815e-01
-1.534645336646879299e-01
-1.417663725598670432e-01
-1.290300289793385180e-01
-1.154476593299697956e-01
-1.012390329748013018e-01
-8.664594691435589802e-02
-7.192608881237197438e-02
-5.734648354419359662e-02
-4.326106452234434324e-02
-2.987615009668162513e-02
-1.739633770025895976e-02
-6.041176897597613088e-03
3.995261410154209158e-03
1.254951376908430491e-02
1.949263887897064937e-02
2.473297421583379660e-02
2.807484568513399226e-02
2.961895547547633428e-02
2.945869710775023825e-02
2.768692185740521949e-02
2.443646921336796451e-02
1.987693632873580724e-02
1.420990819842584199e-02
7.662902355895078246e-03
3.293203349436610479e-04
-7.397897180731020927e-03
-1.520117456583867065e-02
-2.279412075671100740e-02
-2.989769000937005788e-02
-3.624732981157374051e-02
-4.160012509150658178e-02
-4.574168083722314482e-02
-4.857838922695098538e-02
-4.989589554851470848e-02
-4.957267561848718862e-02
-4.754034600603770921e-02
-4.377582911706430491e-02
-3.830237329846362254e-02
-3.118938308674646526e-02
-2.255096234289116416e-02
-1.253211735022199610e-02
-1.356241811391955144e-03
1.075570571590257068e-02
2.356231007203123465e-02
3.680582823894183730e-02
5.021770672329702728e-02
6.352452652492476814e-02
7.645538014003544491e-02
8.881949237744111991e-02
1.002670764974886997e-01
1.105709287270559837e-01
1.195364551214493642e-01
1.270052477414090331e-01
1.328576297630144343e-01
1.370143713881401271e-01
1.394464528584761775e-01
1.402552219246980536e-01
1.393565531841894911e-01
1.368264224210384572e-01
1.327809792174631520e-01
1.273729712135303616e-01
1.207875560836383921e-01
1.132376544981629485e-01
1.049854446451230772e-01
9.643476944758296032e-02
8.765555820946742405e-02
7.888733928897374847e-02
7.036552595372329300e-02
6.231728179154044645e-02
5.495855257778450159e-02
4.849198074625803850e-02
4.316739566025037250e-02
3.937313784271926492e-02
3.697116366767947554e-02
3.603005360250637751e-02
3.658297834934468723e-02
3.863051208423858018e-02
4.214554120147021715e-02
4.707940400861036073e-02
5.346444439845324942e-02
6.144962927022837307e-02
7.063522758877167906e-02
8.085090559457093484e-02
9.190377123397830417e-02
1.035857546484144909e-01
1.156825777618288725e-01
1.279832843872557580e-01
1.403757581822354383e-01
1.528202036146073250e-01
1.649438603068204556e-01
1.765432241689356141e-01
1.874218967429733540e-01
1.973953874902619476e-01
2.062964331014579822e-01
2.139803031398341826e-01
2.203485681338775704e-01
2.253401935163465430e-01
2.288629697627902748e-01
2.308746296405045639e-01
2.313569830028750496e-01
2.303143584923253440e-01
2.277714733511379541e-01
2.237710868116633278e-01
2.183103817048287210e-01
2.114196720949038100e-01
2.032807691035773967e-01
1.940300833166031802e-01
1.838221064633875079e-01
1.728224544592826539e-01
1.611998001363319222e-01
1.491177345416726807e-01
1.366289709012944720e-01
1.238209896638134550e-01
1.109348751899112140e-01
9.812788142702422167e-02
8.555043133481406159e-02
7.333871562867995408e-02
6.160665431543269760e-02
5.043829990018918602e-02
3.978229466653985386e-02
2.963087598867391800e-02
2.005870973884520472e-02
1.105097509618303657e-02
2.568926388410485654e-03
-5.452307482129088376e-03
-1.310591157395752347e-02
-2.051487759104019329e-02
-2.795055004356582565e-02
-3.556694690304341294e-02
-4.346636946215926001e-02
-5.182767783093173569e-02
-6.083425812592352377e-02
-7.067093830201159887e-02
-8.152124347447325947e-02
-9.356455895819118518e-02
-1.071352166254644772e-01
-1.223198982040874100e-01
-1.391465012983663374e-01
-1.576841832847847291e-01
-1.779653426501519309e-01
-1.999838029361105385e-01
-2.236943504993937071e-01
-2.490131310574605350e-01
-2.759912742234358340e-01
-3.043750795800742037e-01
-3.338665558653374776e-01
-3.641771358924998370e-01
-3.949726114021028245e-01
-4.258787932111587904e-01
-4.564887929004331490e-01
-4.863713240522234416e-01
-5.152038414291076895e-01
-5.424558200649447492e-01
-5.676125649109602378e-01
-5.901875226883237513e-01
-6.097026055378890197e-01
-6.256990379483428066e-01
-6.377486083220017532e-01
-6.454648009303910472e-01
-6.485806908708765528e-01
-6.467688088134826430e-01
-6.398009638201643812e-01
-6.275327357011640794e-01
-6.098974193867999771e-01
-5.869099854555409612e-01
-5.586696886437767517e-01
-5.253612384894655873e-01
-4.872875285574946869e-01
-4.447459260578601192e-01
-3.981682345187285699e-01
-3.480688662922464816e-01
-2.950296729261662754e-01
-2.396871276718799681e-01
-1.827181724188537693e-01
-1.248255378970482415e-01
-6.669605403879545757e-02
-9.012469931514756338e-03
4.750290727943565217e-02
1.021430969775976860e-01
1.542360950000981057e-01
2.031648797345600721e-01
2.483863027420009084e-01
2.894501861328330761e-01
3.261495831500737519e-01
3.581676785526358153e-01
3.853193181149082713e-01
4.075094738258515648e-01
4.247396976624418508e-01
4.371137557132631080e-01
4.448409248967852836e-01
4.482536788814152073e-01
4.479885107672721967e-01
4.443687919742196901e-01
4.378923924846868099e-01
4.290850869936249645e-01
4.184901568288957874e-01
4.066593317138365582e-01
3.941442295428079778e-01
3.815194581669661966e-01
3.695003762274502446e-01
3.583900676609417246e-01
3.485681632362249149e-01
3.403364482436369021e-01
3.339145649705387298e-01
3.294393439161075743e-01
3.269672153598041087e-01
3.265052929983662811e-01
3.280536321665842858e-01
3.313530862239144059e-01
3.361651368905440584e-01
3.421957761020904543e-01
3.491068500029892996e-01
3.565286703508090960e-01
3.640734913661315963e-01
3.713594446302634355e-01
3.780090728380314791e-01
3.836280425695974827e-01
3.878941427301413891e-01
3.905317406863012542e-01
3.913173670872316379e-01
3.900829728921751394e-01
3.867172361958347016e-01
3.811823031986830146e-01
3.734557906827525864e-01
3.635438323707787522e-01
3.515713958447115872e-01
3.377178946259165593e-01
3.222045812808028153e-01
3.052805121736060223e-01
2.872084043962312983e-01
2.683098978527076461e-01
2.487997264589548452e-01
2.287961804822006007e-01
2.085366839441443187e-01
1.882433222482963187e-01
1.681090335027320137e-01
1.482851123034193697e-01
1.288716669086392430e-01
1.100025563846787902e-01
9.158870705718825944e-02
7.342646235430252966e-02
5.544211480538122072e-02
3.754541352335072357e-02
1.962722039042072777e-02
