0.000000000000000000e+00
2.097543208083951782e-01
7.466543628230602747e-02
-6.581952142256536353e-02
-1.201704285373608599e-01
-3.488549782287923007e-01
-4.633728943024647551e-01
-1.765808487583932496e-01
1.407689314802791358e-01
3.037108109514015108e-01
9.516710713592629878e-02
1.486000458917331457e-01
2.377575905282003355e-02
1.931661955200847380e-01
2.665232837996538429e-01
1.875140423194977257e-01
1.547474727992286248e-01
-2.265236354205857339e-02
2.912422424672905796e-02
-4.461282758609860788e-02
-3.816305591570107181e-01
-3.835465152930659927e-01
-5.682635873418147021e-01
-3.737930179308861511e-01
7.562653240496586271e-02
9.186002821984085021e-02
2.391473398668180206e-01
1.576727847306944597e-01
1.836137094927202118e-01
3.325352173587560189e-01
2.699309059484491513e-01
1.662001521647812341e-01
1.624809229792439913e-01
1.207133591682858498e-01
5.360024495073179018e-02
-1.634196841283994672e-01
-1.804209458801340205e-01
-5.009214536235910842e-01
-4.628875557360907500e-01
-4.731404253527001780e-01
-4.709743506932818624e-01
-9.653205491934399585e-02
8.790761110642530962e-02
2.425395877957456925e-01
5.915514495484990309e-01
2.351749309525011933e-01
2.994382313910677329e-01
1.302478513474102095e-01
1.405793964675735586e-01
2.557707724447104702e-01
1.578440422612301108e-01
8.904694546531055632e-02
-1.316136705445652422e-01
-1.159696853012740780e-01
-2.838143233917235220e-01
-5.186428453180411680e-01
-6.206759776814454455e-01
-6.850057586933371301e-01
-3.796802310119051782e-02
2.336588391328890957e-01
1.712858629763771567e-01
2.140392279225094008e-01
3.863832683704639948e-01
6.358022072021460858e-01
6.741496427377953182e-01
2.750141557703488226e-01
2.602947486348688999e-01
3.410387142083726175e-02
1.425060039641834475e-01
3.548136492316911195e-02
-2.577208133072561025e-01
-2.469379897043130212e-01
-3.478532033517658384e-01
-3.529891754742788268e-01
-5.035696873148377550e-01
-5.253676340913124854e-01
-1.184338030443105594e-01
1.411956095170918690e-02
2.739514534563050607e-01
4.096794919835641258e-01
2.849816774726422475e-01
1.934518985613296049e-01
1.032913236850596661e-01
3.087148769087075806e-01
4.157397776679154222e-01
1.592086663307132610e-01
-1.684341180805937199e-02
-1.631941155273610722e-01
3.827829180771413764e-02
-1.709724854281571282e-01
-2.633884210845491847e-01
-5.568369692894217238e-01
-5.596927391399147966e-01
-1.463755703706158262e-01
2.282237511268700725e-01
2.859476652227839200e-01
3.510219049032307082e-01
1.003040471509211162e-01
3.021613150520912061e-01
2.041162264657384595e-01
1.887966183270686771e-01
1.887023198000553903e-01
4.981976559474915467e-02
7.983109208660299494e-02
1.252337134540699726e-01
-1.070602467922850964e-01
-2.612466352303691730e-01
-4.288788895190930872e-01
-4.360259982921690924e-01
-3.168542341163091414e-01
-1.181144056346637716e-01
1.302936752733012682e-01
1.542755879988750856e-01
3.851132251945390550e-01
2.952374599506225050e-01
-1.536691660189220543e-01
-1.530089442329605198e-01
2.262945481756650778e-03
2.488316665569965114e-01
2.275595055014842660e-01
7.072105478956608460e-02
4.898556797820163844e-02
-1.331142854777933593e-01
-7.693250453437694425e-02
-7.775185614154819791e-02
-4.413005749112762777e-01
-5.795584558267372621e-01
-4.633815831935141905e-01
3.931872735460939516e-02
2.273861443651452596e-01
-1.691875562446451542e-02
2.792543616855879818e-01
1.662891238000481220e-01
3.868491705127665714e-01
1.712089871314203537e-01
9.320598945641189736e-02
2.410063877785719455e-01
4.480903820769377432e-02
1.639477215465789950e-01
6.704737982685210484e-02
-6.737519719210294245e-02
-1.463566989377917960e-01
-3.833895718387557716e-01
-4.398213029661199869e-01
-3.399858269085651585e-01
-2.091633228818312595e-01
-2.460128450325282934e-02
2.045384329032562398e-02
2.339493537521104560e-01
3.850597721375589311e-01
2.108238323830610161e-01
1.855748815143799524e-01
1.457194863615653979e-01
1.788540612557730225e-01
2.634433705747187826e-01
6.257281940134584719e-02
-1.383265492227014892e-01
-1.969930699311651656e-01
-1.044995195226764290e-01
-2.526563313176846681e-01
-4.980686185130673849e-01
-4.525015469451939554e-01
-3.012807343213395050e-01
1.748928406549156989e-01
1.203665531996527122e-01
9.380633353610284830e-02
5.152663648465571899e-02
8.903790409224565661e-02
2.328059814486872492e-01
3.317907335103711386e-01
6.239707499666047319e-02
8.230617447349697358e-02
-6.487677247008694081e-02
8.591349578109930274e-02
1.150051670883893706e-01
-2.391526700422383911e-01
-3.421289357632326111e-01
-6.446048830733545065e-01
-4.329164115248017031e-01
-1.324978291513456696e-01
-1.935936093205395392e-02
2.359228753020700120e-01
8.957157448508090702e-02
1.693871432984940528e-01
3.046500623662235507e-01
2.486119302911964368e-01
1.623593486402907793e-01
9.443958714435263246e-02
2.456095181393391780e-01
1.898571147293500183e-01
-1.345844410856099627e-01
-2.083681732895485972e-01
-3.635408192938367478e-01
-5.658547393635826595e-01
-5.118253771474697844e-01
-3.926055544892147475e-01
-7.453246800483490087e-02
1.291532183557927427e-01
3.433031932138735920e-01
4.090632101683069899e-01
5.313898271325617761e-02
1.140645788583285469e-01
2.576185443475809134e-01
3.676620031318160731e-01
1.995052195499698033e-01
1.421893139851159726e-01
2.708099331878804916e-02
-5.014252931952523085e-02
-9.176592991079413064e-02
-3.655408967659650177e-01
-6.849710070028874886e-01
-7.886683744801566975e-01
-5.310660656067938135e-01
-4.474417714032785653e-03
5.213825913668892476e-01
4.886745250028985410e-01
5.778991923544465337e-01
3.936444472006990214e-01
3.046688873800400543e-01
2.094746251702803708e-01
4.216050066771903637e-02
2.277892943491188760e-01
1.179577569485502631e-01
-1.251607559944695192e-02
-3.073540128091614698e-02
-2.801794487665434374e-01
-4.725071533463482965e-01
-5.833817220178587615e-01
-4.748083778486227313e-01
-1.312960771948118270e-02
1.164946328215339388e-01
2.726651951497147675e-01
2.698072824984912854e-01
3.329888976500402498e-01
4.884283385636049024e-01
1.659722925842434527e-01
1.884182261401070868e-01
2.078870222840509818e-01
1.277076985162702849e-01
1.634187230878747787e-01
-2.260942051287961330e-01
-1.484308294839395970e-01
-3.411855762561915029e-01
-3.859718887047040026e-01
-5.474375330628298286e-01
-5.760772832424132517e-01
1.491353995755696493e-01
3.562763244085351833e-01
4.623675329049672378e-01
3.613792649103684806e-01
6.822182154095079998e-02
2.123942900304054415e-01
1.621032917015101660e-01
1.283145398491527533e-01
1.456128570981747306e-01
1.444598808656325506e-01
-1.150016088731513619e-01
-8.248583970304368407e-02
-5.151602871222649149e-02
-2.737630370154895409e-01
-5.761876670265352329e-01
-5.508905148576848099e-01
-2.843555250832010550e-01
2.206001027693007543e-01
3.998971946642442266e-01
1.461051212792829901e-01
3.894138711983430312e-02
2.385540322075357933e-01
1.752857647657308782e-01
2.197289803595682267e-01
1.972145282487620666e-01
1.669721856829351481e-01
1.546647231219768770e-01
1.516989317257451120e-01
-5.566221375285174133e-03
-3.223118712703998412e-01
-3.691529412580717429e-01
-6.266690898891302819e-01
-3.512852128575226218e-01
-7.047932329446726651e-04
6.145482474476482437e-02
2.006968804593252109e-01
2.930593668193548496e-01
2.073728854186135395e-01
2.526885871222391833e-01
4.940900428985439685e-02
2.199403535762634032e-01
9.348558502183879071e-02
2.232578279516621023e-01
1.180648620157781492e-02
-1.647213530406280713e-01
-1.633945387099520197e-01
-3.196328747882462573e-01
-5.201249986379901102e-01
-3.703028262426317774e-01
-4.271912531462946916e-01
-1.688301287739608914e-01
1.284254766003057047e-01
3.045891105597761106e-01
2.988281952453943902e-01
1.810548063720747725e-01
1.947079515622778256e-01
2.043070255293932824e-01
1.091707685502705805e-01
1.616058308469452420e-01
2.959558572889942063e-02
-8.852377045447763770e-02
-7.258678323386885678e-02
-6.629048414480535889e-02
-3.812212786563935474e-01
-7.337719349932937396e-01
-5.233165408472295610e-01
-1.279084902544826985e-01
2.327890489885169056e-01
3.421974738889710377e-01
1.860342748868563656e-01
1.783501912686621393e-01
2.695319827117510503e-01
3.759103234222344048e-01
3.826341415814782376e-01
-1.624581075984897760e-01
-8.783070924946162483e-02
8.083066762731011545e-02
-4.665795133956540663e-03
-1.998058426164335266e-01
-5.610120580987265626e-01
-5.976507879280594793e-01
-3.994737124284543084e-01
1.001897665538171722e-01
1.251627835039104131e-01
2.238831495309701047e-01
1.777540820577639680e-01
1.459500222934028146e-01
2.972351533658714740e-01
2.358403466807106330e-01
3.033616374353466372e-02
7.702450022127349527e-02
9.597633848021258629e-02
-9.577500036833042074e-02
-1.471228616377275866e-01
-4.301784579459924096e-01
-5.493859176678039802e-01
-7.159670227279697485e-01
-1.420670863510327120e-01
4.016436372912268737e-01
2.867344665466795561e-01
1.817438516469409571e-01
2.991972645710814227e-01
2.038822350280347084e-01
3.404148657296350855e-01
1.634675793726820814e-01
1.148287106458205642e-01
1.609094080120825332e-01
-6.111987782920635937e-02
1.398608976726103958e-01
-3.584131355616348991e-01
-4.975534762605988703e-01
-7.408371974104340785e-01
-2.409306371436372718e-01
1.249475928338900643e-01
6.516185759738390981e-02
2.866789475502278250e-01
3.129936392448480209e-01
4.486979461245704792e-01
4.450637790174968300e-01
1.569221340886862714e-01
1.124684369672288020e-01
6.489019084811753491e-02
-1.037696639772383023e-01
-1.191106070939595973e-02
-3.028100933945463424e-01
-3.244480251741608257e-01
-5.416903951131307737e-01
-5.608159263591251387e-01
1.992254747320275077e-01
1.608310946231504834e-01
1.426065878466513670e-01
2.410760431729371822e-01
4.169476123792638655e-01
3.323483132850978961e-01
1.279973485273408207e-01
1.962043603218918131e-01
1.994569048608322293e-01
1.262589027469620262e-01
8.385248758965613280e-02
-2.315281417238383987e-01
-3.244676101601914331e-01
-5.400804933443348332e-01
-5.389452475486991023e-01
-9.076404048681774306e-02
8.631522511052502900e-02
1.835000241920254904e-01
2.721938106852288541e-01
2.100176230395837118e-01
3.520919245210271664e-01
1.325944472877787772e-01
7.572520171133323430e-02
2.286171977520956855e-01
1.174294429484108310e-01
-1.817540405764872524e-03
-2.417907978459019613e-01
-2.003962602484470890e-01
-3.705278796920454809e-01
-2.160355476683024079e-01
1.021040425824140119e-01
1.044602852622640021e-01
1.857476088919755020e-01
3.458503509331476988e-01
2.175820237999326334e-01
1.705989984137268323e-01
9.017761294889384271e-02
-4.519374421296629141e-02
4.373966633315418129e-02
-1.297342040232338789e-01
5.839095671946591126e-03
-4.787615510563708598e-01
-4.290096700209456992e-01
-4.245936086763721917e-01
-2.292292515940941300e-01
1.101287095784005965e-01
9.967033753856102685e-02
6.801998077821208577e-02
2.568186053849823569e-01
2.303664826969352430e-01
8.900210062631441765e-02
-4.383442432392903321e-02
-4.253527614159618997e-02
1.876241600993211467e-01
5.975054537569068902e-02
-1.275180904101933521e-01
-3.176146614822616954e-01
-5.111558717742294977e-01
-4.015689915924052222e-01
-5.622936326512451011e-02
2.147166287325654732e-01
1.075200301065876163e-01
3.726441407226794289e-01
3.114735141240892458e-01
4.107323456906643022e-01
4.379482648262088551e-01
1.870974613073969617e-01
3.956898813213860500e-02
2.622408201535755268e-01
1.801253742859998397e-03
-5.548926172172707894e-02
-2.776841065616488247e-01
-6.197501633626840700e-01
-3.359810371669373907e-01
-2.384326936797838137e-01
1.389162801569682193e-01
9.193520839867222461e-02
7.047900091573898462e-02
2.726104829809040120e-01
1.918141392404078549e-01
1.980690614536818051e-01
1.972632154019517414e-01
1.941833975664958856e-01
8.550600828604523751e-02
4.190099941488323321e-02
-4.505675608156234357e-02
-3.190151490132555057e-01
-3.470404249984884171e-01
-4.323531664709793776e-01
-4.847067696076517995e-01
-8.934244882493369566e-02
-2.486221200811622456e-02
7.724108573524912646e-02
3.255856288170535517e-01
1.647617660092950964e-01
3.806790839509834878e-01
2.684102602249760494e-02
-6.130268096297419866e-02
3.275996232814661902e-01
1.759318507668610199e-01
-3.008638504316252238e-02
-3.043596163011406119e-01
-3.447548065920886806e-01
-3.406323498138019712e-01
-4.233449775716922048e-01
-2.458770474755850588e-01
-9.332800281726960634e-02
9.773912525923766914e-02
3.323605545994083865e-01
3.629307476903935736e-01
2.988878465741367507e-01
4.665668908100917278e-02
1.208653821019327335e-01
1.896791311573582384e-01
2.297699154885959327e-01
1.659393096815420243e-02
-1.676744326818039310e-01
-1.831119948796203767e-01
-3.205067569945732053e-01
-5.717383670313311850e-01
-3.620266603392186533e-01
-2.110028036567411780e-01
6.535708309845111863e-02
2.844930615690882680e-01
2.578781863051829437e-01
2.311198859322065591e-01
2.139584524144459987e-01
8.327795826800540868e-02
3.311843366926364718e-01
8.701365382439774088e-02
9.279145692350763974e-02
-2.249370297362798254e-01
-3.115137081710177558e-01
-2.524044111708231286e-01
-2.493290318726602006e-01
-6.277489518353560616e-01
-3.538668134506461338e-01
2.778025869617104515e-01
3.696259014515393959e-01
3.165600459271998846e-01
2.758588157155114073e-01
-5.317246009817866437e-02
2.135885965662526198e-01
2.682470237847587313e-01
1.256326785902435461e-01
5.234907665900800922e-02
-1.146119780594096471e-01
-3.809818861437592741e-01
-2.446299237995335218e-01
-5.916990448508394618e-01
-5.309393114589819884e-01
-3.828974843345847034e-01
2.597758666884431022e-01
2.907809455417522670e-01
4.281751394718171788e-01
3.529511231450316311e-01
1.571065134168338484e-01
1.290685782370016021e-01
2.216778612763308232e-01
1.609139966824451040e-01
1.421532156552074433e-01
-4.729088748501664163e-02
-2.459037315047516437e-01
-9.876626492068973917e-02
-4.464073341781313875e-01
-6.978551802517634073e-01
-9.287655108066341647e-01
-3.808935731819129700e-01
1.782775525710518227e-01
2.982702768441616303e-01
4.048199788744810679e-01
5.118654888037583728e-01
2.999414679070646628e-01
3.189067312486026928e-01
4.306734020396280060e-01
4.107231309067665426e-01
4.570214035281638942e-02
1.067908197456790553e-01
8.745013606687934704e-02
-1.568420247387261046e-01
-3.565366119791208988e-01
-5.987272300947310555e-01
-7.589513698545249376e-01
-1.316344518003949027e-01
2.558956318923488737e-01
3.798830411505007554e-01
1.698976713508253689e-01
5.570841263613507399e-02
5.423744967521375582e-01
3.885906557984590282e-01
1.656689094140758600e-01
1.691440131335604224e-01
1.219753661086466767e-01
5.962819168815181037e-02
-5.744709912179801758e-02
-8.910179798004902452e-03
-4.005666918222342554e-01
-4.384317903467105371e-01
-5.843400821915336607e-01
-2.457567293029354616e-01
1.214126725105901805e-01
5.202314476186775671e-02
1.906954202904529438e-01
2.944749394885151084e-01
1.870790756609208572e-01
7.469247129799505558e-02
-2.640144912344073447e-01
-2.395121750965549801e-01
1.478802485095540575e-01
-2.351198074521576586e-02
1.095024441127048220e-01
-1.249131580493018645e-01
-1.865811217342605577e-01
-5.959412230745175787e-02
-2.053831778155682519e-01
-1.760106979352586976e-01
-1.570006527893568204e-01
2.523524854540329931e-01
5.971768423562087147e-01
4.277705796223706392e-01
2.499366786645441096e-01
2.148946964992504149e-02
1.155519059540386362e-01
2.086363973506633052e-01
1.966645527535783033e-01
1.745860325668888713e-01
3.720471451929929785e-02
-1.667336380300588061e-03
-7.244107356232776240e-02
-2.217201465412501626e-01
-2.644408136639269102e-01
-7.360000088211413605e-01
-2.958227730148981216e-01
1.962975049390465188e-01
2.779271902783371218e-01
2.663864294226900853e-01
7.412211523275624714e-02
2.609619752764861245e-01
3.007119829979155723e-01
2.030421922048835093e-01
1.741441267909284718e-01
-9.833370559123139065e-02
-1.267157807181429341e-02
-1.224036744468239846e-01
-2.384780201641042985e-01
-5.025344614552691436e-01
-6.200926590709223696e-01
-4.473005386336491584e-01
-2.035615088916402637e-01
2.223792762350030872e-01
1.792665811718683888e-01
1.574675847201069123e-01
2.563500059205755521e-01
3.444061881629332245e-01
2.650181029495589646e-01
2.394565040886217355e-01
4.645630628838681719e-02
5.252275087264046682e-02
-8.444403018020585350e-02
-1.889879747380918684e-01
-1.080209171358805786e-01
-4.638089639762987271e-01
-5.544859271834039482e-01
-4.287858888553891523e-01
8.816077159499946525e-02
4.650049068441903799e-01
5.879085073095122738e-01
5.949525636548242957e-01
4.633237567843253579e-01
2.936306030746829165e-01
1.692770241683936305e-01
-1.483300168598369329e-01
4.075984674988331058e-02
1.376491857349271264e-02
-1.842088529524499307e-01
-2.672512436404810288e-01
-5.833444210043337019e-01
-6.030874838473205823e-01
-2.928241061234637121e-01
-8.255295917173799403e-02
1.492147991251491501e-01
1.239711222082204856e-01
8.292721013451137546e-02
3.332652941589635542e-01
1.469062568777105282e-01
1.433766685140396291e-01
-8.778673556302662995e-02
1.658319080424186520e-02
1.600685013784904909e-01
-8.256252002677708091e-02
-3.502998260166622080e-01
-6.529597818821791799e-01
-5.605498291146566725e-01
-1.380688497214477284e-01
1.938659667933709807e-01
3.189453562834374534e-01
1.264465163205958920e-01
3.222250615878251567e-01
4.150208257554277580e-01
1.017456349887305156e-01
-3.026740049581488901e-02
3.581196757440174849e-03
1.334393855348776636e-01
-8.367453426604870570e-02
-1.798576040435710954e-01
-4.195520506350867151e-01
-7.661472661552033436e-01
-4.910860012826807619e-01
7.162150804695678608e-02
1.813624752310349919e-01
2.710472172193918450e-01
3.623488334820534895e-02
1.921909506900520981e-01
3.586587703599837251e-01
2.003619331405003257e-01
1.973599136626809913e-01
6.149123794580751978e-02
1.052012713598777793e-01
-1.652622392253527694e-01
-4.238532915261709055e-01
-5.064242189357729407e-01
-5.372439850559708185e-01
-1.177746826813043657e-01
3.776680068243557509e-01
2.863236180659713415e-01
3.195717585251116599e-01
2.167511497459281289e-01
1.272688827472433504e-01
2.214660624854437043e-01
1.555850800673964085e-01
1.323980451202846353e-01
-4.488400022465188766e-02
-2.218996329813662793e-01
-2.862936669202641449e-01
-6.164498950278206602e-01
-6.661263395286116662e-01
-3.595038694314540151e-01
1.838975602968935252e-01
3.994537265437346774e-01
4.978499932246704951e-01
4.434954432828868143e-01
1.103517255237762562e-01
2.575532640466829948e-01
2.814944645454498517e-01
1.610722367563287571e-01
6.735316903878574291e-03
-2.449965220811348710e-01
-3.408861168500545435e-01
-3.602531676186030429e-01
-5.215628584947415991e-01
-1.624384443190375893e-01
-8.515150048811739869e-02
1.717658374992206416e-01
5.827777243603275981e-01
3.211974282613913045e-01
1.846796571712250867e-01
2.728699073747375969e-02
8.948661474916352887e-03
4.576124514782697883e-02
-1.463688916769996518e-01
-1.577118879850539224e-01
-5.852912177850042585e-01
-5.574183459421615527e-01
-3.040164686477389022e-01
-4.588032772212147226e-01
2.050586993849351503e-01
2.424031766763559137e-01
3.615945041440560281e-01
3.444793200716659842e-01
2.947521789288023442e-01
1.963588013604258276e-01
2.311656999774682753e-01
1.373788498304387984e-01
1.880224118638109676e-01
-3.810605176781367565e-02
-1.610564378929321694e-01
-5.140710347403243397e-01
-4.469044000635524760e-01
-1.712343213774865092e-01
-5.425363394684357132e-05
1.380507826115549008e-01
2.567128969515731773e-01
3.175775786130954348e-01
2.697309108968124480e-01
2.377909913217026716e-01
2.211890561144439493e-01
7.125416862539823981e-02
8.975170684200928228e-02
1.958621888978678144e-02
-8.202866177408363324e-02
-4.212209315594905856e-01
-6.782752388194245308e-01
-4.081471744279446812e-01
1.099562038123607088e-01
3.069126928225538453e-01
2.239887745250609685e-01
2.814562438619736540e-01
3.724602180021858722e-01
3.482927521025169781e-01
5.584427277150783020e-02
1.748133827744559055e-01
-1.477072546224442728e-01
3.738825440896209606e-02
-1.793874152828291435e-01
-3.890435178032518593e-01
-4.785809588714375895e-01
-5.187629969508028571e-01
1.605193285595718500e-03
4.026964514174783405e-01
3.120692231531594363e-01
2.815292757554863634e-01
2.283741696169441227e-01
2.348380431494007103e-01
3.665237231871117385e-01
2.156930567997519255e-01
6.299221859391163081e-02
-1.344629353253035120e-01
-9.947709553125561044e-02
-2.166485106010718753e-01
-3.687491136722755858e-01
-6.431346247115570236e-01
-4.935020623866958056e-01
-7.036502688546192319e-02
3.554135907749890189e-01
3.790232786237092144e-01
5.000072165812446956e-01
2.626652750224146571e-01
3.028150637215127894e-01
3.635594500407423046e-01
8.957428050798887931e-02
1.087489748915961840e-01
-1.354280492360354637e-01
-1.546873051098867080e-01
-3.561553924479765598e-02
-4.308009222968121055e-01
-5.812029710578847652e-01
-7.119286966485485202e-01
-1.456952588748847144e-01
2.421482115709761018e-01
2.067562644364784319e-01
4.941072315736322329e-01
2.399113110895088052e-01
2.319042741187775647e-01
3.201843442017666685e-01
1.843919265058374668e-01
1.325896107409800795e-01
-2.462563122047555231e-01
2.870461899955678575e-02
-7.208783571909727073e-02
-3.484667566570017194e-01
-2.940130334132058376e-01
-6.713836207250072352e-01
-3.066117328158615152e-01
4.242753957315903435e-02
3.305211467094304467e-01
2.490561524653246706e-01
2.559798559955485109e-01
2.355025722996340054e-01
2.906585063866198304e-01
2.144690142792517185e-01
1.447298115672190910e-02
6.062251306041166465e-02
-5.370441485434684914e-02
1.325970886717306452e-02
-2.599546161818316325e-01
-3.086145790256216159e-01
-5.981342143582752957e-01
-3.364557962155471649e-01
3.757810604149008915e-02
1.349559178770021184e-01
2.492177258220269476e-01
2.727274364590415168e-01
3.968767655817924123e-01
3.569615411386174442e-01
1.661821575550090080e-01
1.261417718270677057e-01
1.494083513956270814e-02
-3.771233665454165607e-02
-7.169283017824672199e-02
-1.597026944515860247e-01
-3.256225874918834973e-01
-5.661423294740717260e-01
-6.265272168692879173e-01
-3.274771037075338564e-01
-6.271367038078290435e-02
1.672774921061652709e-01
9.233147553198439716e-02
3.714208506907872298e-01
3.321759529654704224e-01
2.173428635992882274e-01
2.207890338155822363e-01
1.253071003786084825e-01
1.634569050360157316e-01
2.017216942826429715e-01
-3.916966418372175296e-02
-2.270284135621947197e-01
-3.935389044732995334e-01
-6.105870662062284904e-01
-5.368756641638725569e-01
-2.306018587663039021e-01
7.520906312884467759e-02
8.705361775300435312e-02
3.575492492848426629e-01
4.194035716134454361e-01
1.949497471939456439e-01
1.651763457337884766e-01
1.424637286533911862e-01
2.177400555557369444e-01
1.762792505216812522e-01
-1.617693357790603859e-01
-7.085434753475627900e-02
-4.401122785432762807e-01
-3.124013272846223321e-01
-5.194805176483390241e-01
-5.419081898550319742e-01
-8.332703491429716003e-02
-8.252599151976958147e-03
2.575118722097888835e-01
3.656881538566689738e-01
1.499858520721315536e-01
2.396873879374380178e-01
1.990477895275934994e-01
3.633329102697726576e-01
3.387453934784651066e-01
7.397642735644779921e-02
-8.376117082602044239e-02
-2.924582884848364595e-01
-2.991467501292939257e-01
-4.648082900831076447e-01
-5.836162761142195121e-01
-3.081834154812715942e-01
3.536920229675022398e-02
3.131433234977313851e-01
5.516244735701791857e-01
2.648433652279795769e-01
3.466421183178452492e-01
1.895008613657034324e-02
3.373279269280522463e-01
2.202731426875703391e-01
1.201706364202357602e-01
-1.593630130749626450e-02
-3.142580777297647732e-01
-2.360467774161152388e-01
-3.359441799446574173e-01
-5.618510525060607108e-01
-3.862796394391918575e-01
2.563529261322378128e-02
3.790305832111202644e-01
4.743043121238394999e-01
1.397882571840487753e-01
2.275636489803992690e-01
-1.616033752535894763e-02
2.106921726471124856e-01
2.665985999001815321e-01
6.992833740397269571e-02
-9.811057615423290912e-02
-2.487841731622312536e-01
-3.962570435044665551e-01
-4.490640188711113590e-01
-2.556093590288841533e-01
6.063567947495658930e-03
1.308119611428940621e-01
1.796736628648829548e-01
3.308979866258675573e-01
-3.115867267779548477e-02
2.313757646472229812e-01
3.670411194929695808e-02
2.072654774656528254e-01
1.750667836370238817e-01
-1.633504151233315937e-01
-1.672932679519343324e-01
-4.911089176038045956e-01
-4.849351768278244990e-01
-3.516338446028944853e-01
5.825084985590089914e-02
2.431959403792083307e-02
1.753464949571696962e-01
3.067909291813251116e-01
3.394129993402845713e-01
1.614811282619008637e-01
1.889577293246714751e-01
1.717731831466454140e-02
-3.830281940051022405e-02
-1.533890401931448100e-02
-2.175865119598692221e-01
-4.764799380523995209e-01
-6.539830269468376311e-01
-1.782228519040508496e-01
2.126772672248355978e-01
2.024346952601887573e-01
4.584950721950420416e-01
2.268531248986266347e-01
2.853333453678722487e-01
1.511216143594213968e-01
1.138096989632764178e-01
1.768479895063965746e-01
-1.191114588885742176e-01
-6.345074819647544828e-02
-3.121975049092484689e-02
-3.511692335614342575e-01
-6.159078302754847911e-01
-3.291331858271133726e-01
-1.202232795861606363e-01
4.001027322918512263e-01
3.971429873917922126e-01
5.246294584551861595e-01
3.408476387751258052e-01
3.432487174995975665e-01
1.809386037596364405e-01
1.073720326485354537e-01
-5.655482686537460779e-02
-6.537682938153244194e-02
-4.734202275356258482e-03
-3.393040328294288921e-02
-2.373358257717526620e-01
-2.782916529397343464e-01
-4.617553282056219288e-01
-4.956419263490863258e-01
-4.557551404724159427e-01
-2.379512960081903161e-01
3.373818517923987681e-02
1.693402764006947114e-01
4.349820469777682108e-01
5.668097794359034935e-01
5.015133252225842941e-01
3.114808096498827283e-01
4.074428030277046364e-01
2.284171803682830681e-01
3.892127883849472170e-01
1.975996446693986108e-01
7.143714388446209540e-02
-3.552669568045190296e-01
-4.714738839556192884e-01
-5.548011353263221368e-01
-6.654848741510818178e-01
-7.875271758040458536e-01
-1.000625161330150448e+00
-1.913615852837269316e-01
1.646660946734931907e-02
2.490859712878863430e-01
3.432405210190536682e-01
3.623167549265136067e-01
3.231160267724735302e-01
3.938818876267071722e-01
-3.028954776042513952e-02
1.065453779404883505e-01
-1.576056080840220197e-01
-2.888124238488654072e-02
2.472371178198037034e-01
-4.438566485388307364e-02
-7.985990012450683295e-02
-3.138028893452335932e-01
-3.965349032347562641e-01
-3.966914111021486722e-01
-3.545056531557344570e-01
-9.121666893513769026e-02
1.689489095200902291e-02
4.073898490871896705e-01
5.501453222233450013e-01
4.692496264669231421e-01
3.342235330793112413e-01
1.611763379378937655e-01
3.101875229994788263e-01
3.434426879904413643e-01
9.682811777414981891e-02
1.738729859385796384e-01
-9.987105205005786246e-02
-1.934512004803138341e-01
-5.022821207437166979e-02
-2.697085338661961429e-01
-5.499006847055538660e-01
-7.226285737591251479e-01
-7.021999226564551444e-01
-2.130376006115572707e-01
-3.997362616328881124e-02
1.132955419644466333e-01
1.459020937180731670e-01
4.293229067470734073e-01
5.931037356773807279e-01
3.579664895391665436e-01
2.200713060354919648e-01
1.914996098865278107e-01
8.775685745545136474e-02
5.897771304215480015e-01
2.391923895000243050e-01
3.562975009359914402e-02
-1.539176961617446104e-01
-2.013454568239778641e-01
-1.422994183180611438e-01
-4.356571165664639977e-01
-5.822127618238441826e-01
-8.224786436605325823e-01
-2.895633040568099670e-01
1.516797004702563623e-01
2.654811462605362049e-01
4.566011116434162131e-01
1.894964385574400279e-01
2.226152099145715102e-01
4.469206976437544165e-01
2.220195741594954697e-01
1.385454282171627305e-01
2.026084594883988399e-01
1.362375896290248800e-01
1.460979113142220343e-01
-3.041666573626589098e-02
-1.682684608028316431e-01
-2.630852503275631360e-01
-3.160855006355705044e-01
-3.563071691660649742e-01
-6.105556590848277843e-01
-4.386936741091390091e-01
-8.619708136755815930e-02
1.855727265639519064e-01
4.022085192256099617e-01
3.985324577124624845e-01
2.754620239902303425e-01
9.071419395203483838e-02
1.385805635502450617e-01
3.465100952458067818e-01
9.862190478492882661e-02
1.193457218066895642e-01
-1.934163870669020069e-01
-5.230555678505554446e-02
9.722124935042238125e-02
-2.040400516396632113e-01
-3.542440227224055160e-01
-8.032491943026586201e-01
-4.842885883363836075e-01
-1.756382150349447210e-02
1.140104311409651516e-01
3.256103419266055954e-01
1.768771060128897510e-01
3.497958560248684012e-01
4.214529031553378990e-01
3.812376985612600522e-01
1.473456960825033635e-01
1.462955063087439944e-01
2.263734634033556514e-01
9.973590397557857701e-02
-6.664447894296610109e-02
-7.952033977800319897e-02
-3.839924620513931464e-01
-2.193436453199539837e-01
-2.371095818915741615e-01
-7.431538180645899105e-01
-6.051097093814935546e-01
-2.955465097751781567e-01
1.571733808773372321e-01
2.884768625318141488e-01
4.196916162524204630e-01
2.468261950519390346e-01
2.337656578041387156e-01
4.943241342453630338e-01
5.386222732499112986e-01
1.421951237953928970e-01
9.652157059682919815e-03
-2.348925771621451775e-02
1.095372853917069289e-01
9.910011925537681732e-02
-2.591933766520548854e-02
-2.172927666827668691e-01
-4.816822417118391542e-01
-6.589784073003199794e-01
-7.442280883969960570e-01
-3.794335567924428387e-01
6.245298514596897554e-02
1.069833119143126510e-01
6.747393870698978890e-01
4.241363956461973173e-01
2.450706452654061174e-01
2.108273986569836334e-01
2.476983615574601671e-02
3.652018600093372980e-01
2.443607763468901295e-01
1.262811553061135017e-01
-5.756796948579556705e-02
-2.338939819017209487e-01
-2.786263104131010415e-01
-2.563575686459280689e-01
-4.405093270584954368e-01
-4.586637257474477369e-01
-9.205364588436462103e-01
-2.751525968442950498e-01
9.110062798368495640e-02
3.148754417161067076e-01
3.226040851277210963e-01
3.013837768435616571e-01
2.710145102407170992e-01
3.296766379095639188e-01
2.560801294787652393e-01
2.950873281413395333e-01
2.238187571351479832e-02
1.478267858282977798e-02
7.264702479548695857e-02
-1.118328882965942128e-01
-2.200987795210291864e-01
-5.460913083220861886e-01
-3.920467677234208415e-01
-5.626539884659719215e-01
-3.349577493334536804e-01
1.455619637888871942e-01
2.078065205005794613e-01
3.548312435084213234e-01
4.531269528427916971e-01
1.778822794205633384e-01
3.648823413379058689e-01
1.033616635287951113e-01
1.473583137162698953e-01
2.954777733660850503e-01
8.868356672420241171e-02
-2.152289379590044405e-02
-2.595628416478813483e-01
-2.979003732451430686e-01
-3.917066526911837654e-01
-7.327853136398487788e-01
-9.360472483814321620e-01
-4.273689260349933239e-01
1.454193126294237026e-01
5.582757706083291138e-01
5.009037839591137242e-01
4.049004487257483187e-01
2.770534825875313745e-01
2.713971321161803285e-01
4.112862366665712699e-01
2.721440466402073044e-01
1.419436981294671107e-01
-7.372183665083542614e-02
-8.958461245004289975e-02
-1.524470214373753463e-01
-4.141641171766501373e-01
-5.084389361390405648e-01
-8.937838790137564438e-01
-5.943169448956382439e-01
-1.041245697231182876e-02
1.538185182770784865e-01
4.082227598739075480e-01
4.567224253284669633e-01
4.344579482749056365e-01
5.902756163906387465e-01
3.079483857107336853e-01
3.062033522024366627e-01
1.451237121824673348e-01
1.358563970961380596e-01
1.285484004320659734e-01
-4.626905952046234116e-02
-1.884040621069032473e-01
-5.380458084277024433e-01
-3.135119212586251480e-01
-5.515275272036055387e-01
-7.026489695495602428e-01
-3.850290801332608703e-01
6.896415545497458499e-02
3.397892496155541231e-01
4.570638664777681992e-01
4.095959326921203569e-01
3.053423520146860692e-01
1.683790200032202478e-01
2.804197003347734807e-01
4.700045836201574012e-01
3.040736072542298274e-01
1.418359008991856296e-01
-9.260204899982338311e-02
1.662759657871266672e-01
2.375321589324741467e-03
-2.387432467339229980e-01
-3.750475324309900937e-01
-8.709795911124227352e-01
-4.928790315859655768e-01
1.036384390558243718e-01
2.198232551989625083e-01
2.821521998742096971e-01
3.068188554201417007e-01
3.789894012243926746e-01
2.314664771990871950e-01
1.119253920544805714e-01
2.396307214230064819e-01
-3.702792636790153136e-02
1.189891745903832732e-01
1.074846730416595952e-01
2.570711631005129227e-02
-1.043471205459743922e-01
-4.996637174050011510e-01
-3.840907826113692525e-01
-4.507129324247636237e-01
-4.691831988978749646e-01
-2.390719244582186209e-01
5.196490642760139000e-02
2.273857886960960473e-01
3.318729128595492850e-01
1.277920029426640736e-01
3.386587409616083622e-01
-1.068930688238468873e-03
2.350574490664226746e-01
3.800029807699789597e-01
2.172529226744022435e-01
5.828840325973053127e-02
-1.744838761968411367e-01
-8.060432814557993986e-02
-1.488784427702645186e-01
-4.576315315861809729e-01
-4.631023481832140520e-01
-5.990348142324433134e-01
-2.630740210015025671e-02
3.252847551905715395e-01
2.492136011911745552e-01
2.426216155381248907e-01
1.645861021079457753e-01
1.481357186353211564e-01
2.099207412208595747e-01
1.053270004780131608e-01
-4.868937180457988401e-02
-1.428900464584113017e-01
-2.398427107072198528e-02
3.837154451141577827e-02
-2.838701814794759581e-01
-5.807301860452658282e-01
-6.449844879947971288e-01
-2.476972828216754685e-01
1.297026214795415910e-01
2.913647338042287815e-01
2.503968833742326039e-01
1.324201434432276114e-01
6.884486222587993254e-02
3.276701262338565512e-01
1.817988256699186733e-01
1.804058486341019729e-01
-7.338139512641356221e-02
-3.656670001300221795e-02
-1.933113080807354889e-01
-4.634179028691052249e-01
-5.803794278340992374e-01
-6.616233160478204312e-01
-3.201826951587561920e-01
1.025872289809848237e-02
3.179254410972027767e-01
2.710824080209809361e-01
6.210481512970733586e-02
2.523493405446508575e-01
4.061874955447452029e-01
1.313554999633854692e-01
6.157145694953181092e-02
-5.785343919495922194e-03
-1.118410734961994280e-01
-1.926229933999454857e-01
-1.999858327573535988e-01
-5.079609301660759080e-01
-1.004938740432908872e+00
-7.520082123592937151e-01
-3.362519191843507116e-01
-5.536557161066468780e-02
3.998227134029734842e-01
7.033120757529922606e-01
6.326769694204559258e-01
6.104503028774170836e-01
3.607884952230069331e-01
1.968886150693247572e-01
1.001656534240868979e-02
1.141737175724344411e-02
5.523059329662793893e-02
4.349931957915753600e-02
-2.997293705391095298e-01
-6.091892092602431141e-01
-5.224743279036417887e-01
-3.787484720599532118e-01
2.064470680173582373e-01
2.900384976199408271e-01
3.071170036906500922e-01
2.077233500011084200e-01
3.897168373584913859e-01
1.933716542996017917e-01
1.084024616038702371e-01
-2.138494715243152711e-02
7.233700507536111601e-02
9.561396958206008767e-02
-1.103978383456313273e-01
3.028201761135906889e-02
-3.597023691977997428e-01
-1.797080360784844566e-01
-2.182528333568605761e-01
-4.803189899257014339e-01
2.467873461273195623e-02
-5.196713736497149405e-02
2.293641560367705168e-01
5.557932872586520689e-01
5.752001729483052772e-01
3.278355229755798295e-01
1.230978249992715767e-01
1.599771414821707094e-01
1.284139378641117879e-01
3.671034194528555172e-02
9.523263488237221353e-02
-2.066306798292202318e-01
-4.780415846623686793e-02
-1.587462058036992474e-01
-3.640648248571187739e-01
-5.060123407528089867e-01
-3.091320873356624421e-01
8.050603451917090481e-02
2.320440205513139842e-01
1.014589980127468261e-01
-8.740682653602349639e-02
-2.956774814618944314e-01
-2.028533601987714263e-02
-4.502740229735069377e-02
1.640737149773461578e-01
1.543860061496337144e-01
9.955348549145881520e-02
7.366641283444508304e-02
6.418924118950131152e-02
-3.984823886018218353e-02
2.160293153408079370e-01
1.911620665325010071e-01
3.312959538320654485e-01
2.481295576512199119e-01
-6.687790139906679698e-02
-4.120352044905306599e-02
-2.007215480893211890e-01
-1.931965642700635977e-01
1.186803729718007017e-02
-7.872030206603491953e-02
2.203807676236151369e-01
4.100493787810344237e-02
-7.339549500803510540e-02
-3.020979359393960451e-02
-6.916437332545588568e-02
-3.121653372665189607e-02
1.308488884400319796e-01
1.269457150256703137e-01
1.987666576686452080e-01
2.751566671873445502e-01
2.825747653278892768e-02
3.269799114993610090e-02
2.507427253844163317e-02
1.224769658745673284e-01
3.578779545215438063e-02
-2.535514684386352968e-02
-3.034406344652841314e-01
-2.508198651096034126e-01
-2.495746578834155960e-01
-6.620971639590522706e-02
9.831168052684713388e-02
-2.212178139238218932e-02
1.512866316452370352e-01
1.518905165821755054e-01
2.571458684522109905e-01
-1.510357682854246431e-02
-7.135977253586744951e-02
7.295614869647054634e-02
-9.482258755531064454e-02
-7.684374051072895284e-02
-9.826781038192305973e-02
-2.756667753094576567e-01
-1.917857387793523993e-01
-6.000412701951829408e-02
2.137297297355902070e-01
8.719087596101596227e-02
1.537840328354649344e-01
1.478835446187489744e-01
1.457316052872974499e-01
1.645185089328864425e-01
1.687792738622500011e-01
1.035073110962396736e-01
3.548558299509693148e-01
4.701053775661190315e-01
3.533655687613093122e-01
3.580924752837510994e-02
-3.110609316739447183e-01
2.284234535532846666e-01
1.704477556666050275e-01
-1.171067782242842803e-01
-3.017973181787385606e-01
-4.348915480944572920e-01
-4.680732599191963494e-01
-5.626658043083448968e-01
-7.082879077558756897e-01
-6.469366696838643183e-01
-1.030207137401778716e+00
-1.006239608520478335e+00
-8.649907357239577932e-01
-9.642344323097327141e-01
-3.528858331024016248e-01
-5.291865414205942919e-02
5.656050930761150619e-01
5.910579073041308806e-01
5.571910018733270409e-01
6.798858384935289045e-01
6.571036318685896660e-01
6.949492894069893012e-01
8.055107340356175705e-01
5.963302042830918026e-01
6.218165340610242176e-01
6.270518103996991499e-02
2.203807690565904309e-01
2.082881340947091431e-01
5.727015649168238909e-01
7.919914333296249609e-01
9.630180204598559612e-02
-4.310686068065558985e-01
-2.701942986517122947e-01
-2.620251214486399860e-01
-3.094200253682966029e-01
-1.204466503275671840e-01
4.670141710611391828e-02
-1.537847201817599263e-02
7.070418462258709624e-02
-4.029505242248743180e-02
-2.517128174822050868e-01
6.561913182457945748e-02
4.577211373009592577e-01
4.546312422778142626e-01
3.936785493424761473e-01
-6.669806664886923642e-02
-1.170073821499548611e-01
-5.126230853890467731e-02
-2.553657556304667064e-02
9.081174073559317161e-02
-3.201168746515141716e-01
-2.882021256694593525e-01
-4.824426681295851949e-01
-5.328071276341665996e-01
-5.119117373875765598e-01
-5.179633626233510757e-01
-7.259771417927690651e-02
3.003009211049563754e-01
2.855645911066297948e-01
2.652000283603992425e-01
6.551804513440503963e-02
1.082051658324713062e-01
3.360826944750461842e-01
2.358671760638735293e-01
2.258561245419722918e-01
-2.389440259519606258e-01
-1.827883447700308084e-01
-3.750345829193910685e-01
-5.290373151747377323e-01
-2.601606655901982368e-01
3.619472643812421397e-02
1.230977456520844227e-01
1.199685588061749630e-01
4.716879498909420931e-03
4.781284166371979616e-02
4.629116161921610628e-02
-5.294610114309294957e-02
2.337440409735340452e-02
9.549220020170734458e-02
-1.107378529611839912e-01
-1.391638427040249315e-01
-2.612226071444398445e-01
-9.019702804968654508e-02
3.803881311743926297e-01
5.594280187582398867e-01
3.037889889890884598e-01
2.677154068584135516e-01
2.826866855075920171e-01
2.367956205457835139e-01
2.776756458907091440e-01
-1.583745430757654837e-01
-1.114887102844575040e-03
-3.060714365566163941e-02
-1.744514613589043250e-01
-2.320299454188340382e-01
-4.576264593210543352e-01
-2.394881535113577153e-01
1.667071747282730387e-01
1.798715585294053954e-01
3.306774985773046627e-01
1.012743645207866416e-01
4.834579475957501149e-02
4.431313866064916229e-02
-6.471630932015848270e-02
-6.262301834289996094e-03
-2.210984527386288256e-01
-3.212501332465888537e-01
-3.419977083183773914e-01
-4.224316959551531747e-01
-5.504715204111598759e-02
-1.185966514659675397e-01
2.137170967625661167e-01
4.543133266089554034e-01
1.427680885923179321e-01
1.741867365250011623e-01
-1.261657749313924715e-01
4.836137253278249837e-02
6.756285900499658936e-02
-3.193093710974709981e-02
-9.493031233493609555e-02
-6.037273145535534402e-01
-4.752186186559516079e-01
-4.891452647238996310e-01
-2.363274029623038675e-02
2.996613407490920089e-01
2.580776736117454950e-01
1.788173356662550728e-01
1.510870406945275524e-01
2.351184429752440352e-01
2.245741859758458858e-01
-8.509471412998487194e-02
-2.602003362022455857e-01
-2.763330050852469411e-01
-3.777678310226403324e-01
-4.860745728394237908e-01
-5.929016105772877410e-01
-1.953343881677124805e-01
3.760802023390101834e-01
5.365272927916361345e-01
3.986729294710135152e-01
1.262928039525945678e-01
9.884991345741744873e-02
2.025501559318021449e-03
3.155464526048297469e-02
-7.504552799723640533e-02
-3.883633802509147692e-01
-5.519390072663032942e-01
-4.542403592306438753e-01
-2.101607856379983374e-01
4.702582903585383889e-01
3.100882609560504655e-01
3.086450188781729720e-01
1.830101372541105276e-01
3.359025999190820566e-01
2.223467192356594624e-01
1.602123040880283344e-01
-1.851780726218830164e-01
-7.201601434696769388e-02
-3.437513415148276685e-01
-4.362775886486245369e-01
-5.559409523206175763e-01
9.935207230911125009e-02
4.758554362133704529e-01
6.860950405452399536e-01
2.690248888417592354e-01
1.061616386521322397e-01
2.307823752278750362e-01
1.117534526970374031e-01
2.859901428422517711e-01
1.401365414684221378e-01
-2.203318424472513470e-01
-2.491979209464716405e-01
