-5.819821392606434537e-03
-3.068869301040527686e-02
-6.780417883219536090e-02
-1.201913755059867694e-01
-1.748591751421496310e-01
-2.056178124785000838e-01
-1.884829157650049491e-01
-1.208732328034048259e-01
-2.736819439267537679e-02
5.576736956595669537e-02
1.045037829024786369e-01
1.180955608556082115e-01
1.101900582040145210e-01
9.349370860121959670e-02
7.420906885461382718e-02
5.580407895345710495e-02
3.942574206184588231e-02
1.748645632173170122e-02
-2.688262576970487303e-02
-1.046059105818917534e-01
-2.007475460624680019e-01
-2.727286321468309627e-01
-2.749063902016500305e-01
-1.915743148287284425e-01
-5.065461219158587380e-02
9.303646335841168902e-02
1.903428465886315146e-01
2.215885720089993682e-01
1.989316714203430148e-01
1.522468284321393250e-01
1.107781140967666611e-01
8.911464007744118732e-02
8.123278831141998724e-02
6.504632384297953651e-02
1.737901821814452630e-02
-6.783258501116325168e-02
-1.706159585411017310e-01
-2.529570536383393131e-01
-2.788202344107449937e-01
-2.328068191535358211e-01
-1.265362348737051612e-01
8.671793480495598727e-03
1.362287305418300731e-01
2.278741797487877641e-01
2.718899442015820789e-01
2.740334775104940612e-01
2.505878144261620144e-01
2.168094334934086154e-01
1.786119035101596808e-01
1.330693642638405283e-01
7.458266967427662486e-02
-8.551883781892713476e-04
-9.482067561300001890e-02
-2.033733650261000392e-01
-3.100063503095983330e-01
-3.836982839451630323e-01
-3.915380251444366411e-01
-3.204153074315448380e-01
-1.890974336282155166e-01
-3.860473313895181058e-02
9.070655143512738883e-02
1.760396730441936564e-01
2.135558710394803439e-01
2.110493583686306462e-01
1.822807464500975361e-01
1.441670375242314339e-01
1.112099021644706032e-01
8.651539076566240605e-02
5.773208194069381904e-02
5.334577311304274094e-03
-8.062090842452254713e-02
-1.876234493233935319e-01
-2.814047907659009695e-01
-3.209755169244217221e-01
-2.808375328283939654e-01
-1.682222087492903639e-01
-2.302916254765120102e-02
1.031153902073569384e-01
1.766664443149476571e-01
1.992373880683422360e-01
1.986123711948001302e-01
2.016670736575016942e-01
2.123773002387231157e-01
2.126598492864995582e-01
1.825516538790616095e-01
1.191598335298412747e-01
3.710877126365197398e-02
-4.642160825913299593e-02
-1.226102728256112523e-01
-1.849609893058201116e-01
-2.166816435745368141e-01
-1.929966403512957396e-01
-1.025096953349586698e-01
3.386984809215692893e-02
1.691354548333768582e-01
2.585062124536950945e-01
2.843318786788316954e-01
2.575665828997075191e-01
2.004447478648510583e-01
1.300893268767661093e-01
5.493333514363543668e-02
-2.084810632412287257e-02
-9.521867960825941557e-02
-1.708905811533368846e-01
-2.565888635177416832e-01
-3.614066192160898527e-01
-4.839005442811167290e-01
-6.035259616993315923e-01
-6.819578662879783870e-01
-6.766695631677905887e-01
-5.619929018330791504e-01
-3.462806349425902042e-01
-7.159050650125514670e-02
2.087459266052987816e-01
4.593743209725826837e-01
6.714393654458241656e-01
8.399932295079297617e-01
9.359246847490299004e-01
9.104589113295618041e-01
7.370483313557232297e-01
4.502468915429650997e-01
1.372707534925827755e-01
-1.155503627801730548e-01
-2.720097043835124628e-01
-3.475844229876660085e-01
-3.722625837852934216e-01
-3.599622541295885991e-01
-3.110573337697040142e-01
-2.316556500613767833e-01
-1.406307699262765998e-01
-5.942772576239235827e-02
-1.039066113118769508e-03
3.145943592489985896e-02
4.204285736353088887e-02
4.028914304091030241e-02
3.762293073110428709e-02
3.812162786862580144e-02
3.164546195239456572e-02
-2.217784031585817717e-04
-6.729653986381012309e-02
-1.574430948495693650e-01
-2.389078523861010162e-01
-2.767187257753945251e-01
-2.510804313665567222e-01
-1.667248356312904800e-01
-5.005430228806069526e-02
6.285971220234967682e-02
1.421257662725955440e-01
1.770222777205003317e-01
1.786209502409160654e-01
1.690115806589239100e-01
1.641051011062261700e-01
1.632823411803172586e-01
1.534683898267948376e-01
1.221377313820201371e-01
6.647170236393484810e-02
-8.105199006702243358e-03
-9.392511162181374496e-02
-1.808982833360665010e-01
-2.499873943317784120e-01
-2.731649872587623151e-01
-2.289865859809454840e-01
-1.233504544927882113e-01
6.612669930996156742e-03
1.138637089623808218e-01
1.706790433362738169e-01
1.804392254343770707e-01
1.653926540673002488e-01
1.466428038860660144e-01
1.342041099056914266e-01
1.283754508119823723e-01
1.227435991566513396e-01
1.052775112622568732e-01
6.353854558636928829e-02
-3.454948486343201175e-03
-7.636473668932501624e-02
-1.218656407763397259e-01
-1.127354120678321497e-01
-4.569231803682975712e-02
5.695096512683343881e-02
1.601905717657377548e-01
2.316438578909551238e-01
2.503919347563358100e-01
2.089796371759914395e-01
1.118952527486559156e-01
-2.739431649399437507e-02
-1.898783688759120292e-01
-3.532381224423819521e-01
-4.919223190779762334e-01
-5.779326988475701476e-01
-5.875035082848667489e-01
-5.138189604758601758e-01
-3.764144790609014191e-01
-2.156255851376646937e-01
-7.182548644772579483e-02
3.580259877552549597e-02
1.145485731114502803e-01
1.855150151446515738e-01
2.655281436522587413e-01
3.563315593360230071e-01
4.441099414556648473e-01
5.062977001758341977e-01
5.226667660226307355e-01
4.864294977507221951e-01
4.075515005685688141e-01
3.032837918625933549e-01
1.831352141129647393e-01
4.472675542679782623e-02
-1.115986989956205822e-01
-2.632269788898866647e-01
-3.652574755276448704e-01
-3.778088804672881107e-01
-2.987149131347028863e-01
-1.699425558556967308e-01
-5.019662965873583627e-02
2.120743572689054446e-02
3.929734837697779204e-02
2.244158867205825469e-02
-6.492465246112688604e-03
-3.092125678946938683e-02
-4.358549443222148323e-02
-4.883257470158641755e-02
-6.322060491539460703e-02
-1.067262842769197417e-01
-1.843232425056149648e-01
-2.720767782854213168e-01
-3.239621578498333987e-01
-2.989389853978331457e-01
-1.885392640248356733e-01
-2.380212106107348902e-02
1.422639122483990159e-01
2.625776866183288649e-01
3.166335735955708164e-01
3.148603281635153350e-01
2.873992296989164585e-01
2.640760089793673937e-01
2.561327247035002919e-01
2.508549340517475246e-01
2.233500922725621951e-01
1.569448367902438468e-01
5.638110556257963646e-02
-5.463141046249858634e-02
-1.455180909104926146e-01
-1.900201249516451640e-01
-1.738347927518408831e-01
-1.015494684571963402e-01
-9.763508828306011189e-05
8.942164864926191448e-02
1.323451719742113064e-01
1.200227765264575974e-01
7.120318489147114960e-02
1.253860103566801880e-02
-4.427761886111952760e-02
-1.072223071665350247e-01
-1.882023145252166296e-01
-2.868925427743325707e-01
-3.928968486657988812e-01
-5.006409214464627722e-01
-6.142803412443289535e-01
-7.319061780426019403e-01
-8.241794147143756133e-01
-8.314178588129967906e-01
-6.881005478876911496e-01
-3.624345699894900297e-01
1.137501426507355196e-01
6.479789714842251191e-01
1.127545218247903991e+00
1.472278431903041529e+00
1.658951368512464830e+00
1.697636437856229641e+00
1.585581919678061169e+00
1.290054338251957144e+00
7.868255907770886903e-01
1.234027138481583741e-01
-5.579870128634669690e-01
-1.073526060961872641e+00
-1.294655200384268845e+00
-1.215762948278501288e+00
-9.445317292044148605e-01
-6.287614413532800484e-01
-3.768887056350941900e-01
-2.235473997468656604e-01
-1.487899596613989628e-01
-1.193072771545912181e-01
-1.143403087423981723e-01
-1.249232958311096708e-01
-1.415483224157129127e-01
-1.490070791645837223e-01
-1.332430285165858708e-01
-9.222404355640734241e-02
-4.018872292057040774e-02
4.279535005935475311e-04
1.614530690807769453e-02
1.604900927415631173e-02
2.773898899337384760e-02
7.446779863006933176e-02
1.515911671976633568e-01
2.254773293506109055e-01
2.589533601255892825e-01
2.413180875733712538e-01
1.957190689208203604e-01
1.585069113163293242e-01
1.511109878210715740e-01
1.688338212199765875e-01
1.912913275245754496e-01
1.990437504413864744e-01
1.811161752014201487e-01
1.342014876527417022e-01
6.373236599439724426e-02
-1.170393514768014454e-02
-6.317449244227690830e-02
-6.727556757267438847e-02
-2.355668265130977934e-02
4.406641030967087258e-02
1.041999069173004805e-01
1.370979692051203236e-01
1.400081406167636988e-01
1.191405670221225011e-01
8.131500330580798686e-02
3.388798516936819549e-02
-1.226020072220279644e-02
-4.650645828825661354e-02
-6.812836112897224794e-02
-8.972846153041724726e-02
-1.273385861315283751e-01
-1.862069886842566691e-01
-2.571052644082422178e-01
-3.251326971072808214e-01
-3.789983274161078941e-01
-4.127734970128079661e-01
-4.266123408539455042e-01
-4.340052703565967507e-01
-4.660651237205607478e-01
-5.530594108541933007e-01
-6.829452623541314438e-01
-7.724168636718546921e-01
-6.945639423509355481e-01
-3.636386748672819635e-01
1.854215441714650581e-01
7.978220600468373114e-01
1.289041411556353989e+00
1.548865345110983949e+00
1.573985380171755599e+00
1.420363772629410937e+00
1.141619241717356292e+00
7.733302483595108079e-01
3.570659845784691644e-01
-4.328761180512030737e-02
-3.578401176556523788e-01
-5.409303859734302389e-01
-5.867451388486888408e-01
-5.250680900090067826e-01
-4.096038071484375820e-01
-3.054469076596268984e-01
-2.704996100856025265e-01
-3.287152367196677361e-01
-4.486083250043382264e-01
-5.492645397085671455e-01
-5.429211435749599080e-01
-3.930930126848890538e-01
-1.470367810268187192e-01
8.421318271679201217e-02
1.866050280863902344e-01
1.081243733710479660e-01
-1.046071385963021072e-01
-3.180073076642644381e-01
-3.784812710251905798e-01
-2.118269219733108777e-01
1.101811058115687025e-01
4.043389418703813298e-01
5.059972619635013658e-01
3.927865925944518111e-01
1.924172202548464772e-01
7.015931397381991452e-02
1.009164725375463201e-01
2.312767275662285238e-01
3.438236099580422866e-01
3.531180741747123042e-01
2.564984187723606812e-01
1.152612994272936842e-01
-3.118166222823237632e-03
-7.195058815978550015e-02
-1.111680761040346743e-01
-1.572744760938290520e-01
-2.271159976328612773e-01
-3.035310905272797788e-01
-3.488934583480776119e-01
-3.311645523657874568e-01
-2.431120347559275752e-01
-1.061717888416181532e-01
3.882201389262307512e-02
1.488088960604329603e-01
1.977480389266297323e-01
1.887538617337828906e-01
1.494347361075631375e-01
1.107505548923791855e-01
8.470101785226924473e-02
5.972781592827972746e-02
1.755994532403071934e-02
-4.466816904162744517e-02
-1.070461853180550149e-01
-1.391908150920487808e-01
-1.203422707780046896e-01
-5.218569313963321299e-02
4.192639276674867133e-02
1.280705029871038181e-01
1.762231144228670610e-01
1.723370011644289879e-01
1.239075134023350233e-01
5.565580034217604277e-02
-4.835913636584310282e-03
-4.413467246102259489e-02
-6.971807391317275115e-02
-9.949217548012756485e-02
-1.421666523423899542e-01
-1.855960470929777784e-01
-2.030175605738803180e-01
-1.718229061522226209e-01
-9.097287984387616988e-02
1.419128312721598673e-02
1.028552576555020609e-01
1.402133481968076689e-01
1.180418532915200325e-01
6.092769190546090674e-02
1.098296638819645787e-02
-1.612783112079397424e-03
1.862783004902557327e-02
3.607763899925742201e-02
1.378546648335832181e-02
-5.390532825077110068e-02
-1.335051568623923934e-01
-1.758502291975577725e-01
-1.505145494577793119e-01
-6.366447927143337182e-02
5.045845760699807503e-02
1.520439380114030903e-01
2.145776008740089835e-01
2.326344328403240902e-01
2.197440043754120276e-01
1.981096043241744598e-01
1.831707043896272924e-01
1.713857411010497600e-01
1.411330674893430670e-01
6.855712651749457098e-02
-5.168870891640575671e-02
-1.958358111999430884e-01
-3.189460584805353660e-01
-3.768762225105946606e-01
-3.487919080403478200e-01
-2.477851352982630984e-01
-1.147527127916082024e-01
1.631960162141475601e-03
6.961964611010168502e-02
8.949263304646239148e-02
8.749026018973629637e-02
9.162101535496114391e-02
1.081961818486011917e-01
1.179243900189241301e-01
9.371576603080136736e-02
2.535663801315052313e-02
-6.732683612494601288e-02
-1.420591776306500686e-01
-1.582197648560219605e-01
-1.025986769373320451e-01
3.373957996395428316e-04
1.018116877796496900e-01
1.578977256665575757e-01
1.550129953880033662e-01
1.144123823320640776e-01
7.316302777664419887e-02
5.601920874033106817e-02
5.924950922568277684e-02
5.784885797687016468e-02
2.833726720641767047e-02
-3.277434996322120542e-02
-1.080933019326633659e-01
-1.713586479962909692e-01
-1.987212245104969521e-01
-1.741530044493280749e-01
-9.500988263865794980e-02
2.013061459549282672e-02
1.319240882135742921e-01
1.984401386624415342e-01
2.012748933332437762e-01
1.564290936295729961e-01
9.894979104617565580e-02
5.542103462949746207e-02
2.819581678463749241e-02
1.304978103521342581e-03
-4.196248419239827221e-02
-1.056336443986843898e-01
-1.781797418478168471e-01
-2.368261980251000487e-01
-2.558611700328793370e-01
-2.191900450646336318e-01
-1.332591194213086916e-01
-2.928710357364058825e-02
5.222828256382860967e-02
8.583878124526100883e-02
7.509013288443729117e-02
4.526818943078148028e-02
2.275137406910923699e-02
1.831297073477700099e-02
2.468037473481171640e-02
2.554686965328265003e-02
7.695178238886241084e-03
-2.915158738285225648e-02
-6.774527139979849566e-02
-7.836748935312162767e-02
-3.552605947668105446e-02
6.202232541325733428e-02
1.842439885780501885e-01
2.848740933998569203e-01
3.290464889924552550e-01
3.127577289710244957e-01
2.607881146305608411e-01
2.071719102925053679e-01
1.730771152150232250e-01
1.549617129691909234e-01
1.282502267908536275e-01
6.514404421769193210e-02
-4.158154358474230872e-02
-1.641924049266401120e-01
-2.503061884765153122e-01
-2.577125359801923921e-01
-1.900265436781595207e-01
-1.012279229102949762e-01
-5.944361878828874346e-02
-9.751656340528402911e-02
-1.937159811761143269e-01
-3.006829446062534439e-01
-3.948473479460565816e-01
-4.965820276212469242e-01
-6.380200327541529770e-01
-8.073044336458599091e-01
-9.244323176828492805e-01
-8.782542041428000879e-01
-6.002433539207170377e-01
-1.179618523857768331e-01
4.518982915126844024e-01
9.625752259451365589e-01
1.304529774503834005e+00
1.440379177715805259e+00
1.396736563166819600e+00
1.230178934168220106e+00
9.940573030249275632e-01
7.242439738681754058e-01
4.443620616856969185e-01
1.766532673197700465e-01
-5.662054922760967335e-02
-2.435946874331793577e-01
-3.920710182560527279e-01
-5.229458293231081800e-01
-6.492415578020278577e-01
-7.596735206812021968e-01
-8.234316616757981766e-01
-8.120395675976419536e-01
-7.182222318048032683e-01
-5.576447048442694232e-01
-3.582686775256138656e-01
-1.513595067684734841e-01
3.084286432308658288e-02
1.581234419285962312e-01
2.115657601345660721e-01
1.930004797989503529e-01
1.246531922461801001e-01
3.823147920283465062e-02
-3.768398138758945193e-02
-8.445929557191836357e-02
-9.501854739212248213e-02
-7.354494294524743792e-02
-3.219868551156235270e-02
1.725982959123562033e-02
7.210544469245228072e-02
1.380676343679776430e-01
2.175459511239272725e-01
2.978474208061601125e-01
3.540159821995474410e-01
3.679520710842245634e-01
3.474154415627381809e-01
3.238557258226115732e-01
3.244821496509645575e-01
3.390939397875983308e-01
3.135991480615517579e-01
1.860829773209038418e-01
-5.480306786726663049e-02
-3.367090711430442695e-01
-5.322524439376721261e-01
-5.381536653723872909e-01
-3.480675838779552222e-01
-6.153535341466431774e-02
1.802449612338086204e-01
2.834473199043738845e-01
2.494918164002603023e-01
1.524739010266649153e-01
7.354242281163880790e-02
4.702511016874000305e-02
5.260684760001499427e-02
4.496994858103064985e-02
-1.237239179840443626e-02
-1.324210849434717119e-01
-3.067416345835347613e-01
-5.092337475565220650e-01
-6.963248438334099788e-01
-8.125700001889651913e-01
-8.090560315398248603e-01
-6.666338905237587653e-01
-4.072377141455820748e-01
-8.557248345443779769e-02
2.313770552548723991e-01
4.850687849189543321e-01
6.402788349660273326e-01
6.920535888240295641e-01
6.620192409136174128e-01
5.840335843260859860e-01
4.863559103205288281e-01
3.808338406897314732e-01
2.655262334709294070e-01
1.391783734362902480e-01
1.663433968424643528e-02
-7.053671478732270739e-02
-9.403472045822558467e-02
-5.451921559005312723e-02
1.121333057602041938e-02
5.087332310468872798e-02
3.045977778957864590e-02
-4.381676391101896328e-02
-1.316801844644668318e-01
-1.909303165450733086e-01
-2.154332056043366528e-01
-2.483436129638949552e-01
-3.480453839082615630e-01
-5.185426590270290070e-01
-6.598111042694299044e-01
-6.022814499395265919e-01
-2.304836473774077854e-01
3.915116940675283930e-01
1.010980803191126709e+00
1.325385374357250123e+00
1.169050421246902172e+00
6.068324127480888563e-01
-1.186133390739900761e-01
-7.260392212561586067e-01
-1.026807389672966142e+00
-9.922240329975153816e-01
-7.446671748327220453e-01
-4.805659964412781759e-01
-3.550374913047070757e-01
-3.893482605820405285e-01
-4.649244254639126606e-01
-4.133784040590765541e-01
-1.382575739976091289e-01
3.202622231651089946e-01
8.180831411191904490e-01
1.201008796953280999e+00
1.384636591857443921e+00
1.370890020175149715e+00
1.210007004005710041e+00
9.534339579059415426e-01
6.336640400973263532e-01
2.728530633704286390e-01
-1.007674384434955606e-01
-4.468069439272742693e-01
-7.194859813985682306e-01
-8.801559209562735964e-01
-9.101052643476280624e-01
-8.223926983619530562e-01
-6.689329025888084423e-01
-5.324442413009806696e-01
-4.944765873368922593e-01
-5.868902136635677502e-01
-7.547552705996083411e-01
-8.646741192981779456e-01
-7.718351189534913281e-01
-4.175367592789880344e-01
1.064926469752871530e-01
5.845096224756349823e-01
7.936538144541074313e-01
6.410413610257676975e-01
2.291682666945527025e-01
-1.947644538750128440e-01
-3.736789074473660932e-01
-1.797023919636646649e-01
3.186601505453408589e-01
8.959111492144806732e-01
1.294179882960988515e+00
1.362701827873308069e+00
1.127492101768444055e+00
7.476984071123295994e-01
3.923214984107294967e-01
1.281497534113729964e-01
-9.906168166395151742e-02
-3.800198210758319872e-01
-7.268339213918957320e-01
-1.027832731049049597e+00
-1.115981659348560528e+00
-8.971377668707649633e-01
-4.312086359684821346e-01
1.006377451838684767e-01
5.122345967533095124e-01
7.149629171881273226e-01
7.308534372595114625e-01
6.252301452402722060e-01
4.349286311210081024e-01
1.587580499514467114e-01
-1.928803186210417131e-01
-5.520267030514700579e-01
-8.068327826857015772e-01
-8.683805810059779251e-01
-7.316536430433456806e-01
-4.790019746630533315e-01
-2.265433198175275109e-01
-5.752830528461916337e-02
1.152681692068480146e-02
1.775385533955087247e-02
1.184961034562004301e-02
2.294318263973904592e-02
4.788715683324307193e-02
6.360608785594623615e-02
4.888197102232511027e-02
2.135239419747247958e-03
-5.286883138820284989e-02
-7.657077525822827968e-02
-3.561822550547645572e-02
7.393411629456475564e-02
2.184065118161678809e-01
3.428139565830939928e-01
4.040829802509756097e-01
3.984201276772742495e-01
3.615089436246510801e-01
3.400537894597666644e-01
3.559329863480670819e-01
3.898827635963529881e-01
3.956053485485964138e-01
3.325457414376106202e-01
1.944521752578260987e-01
1.590887387169025169e-02
-1.466051844913325297e-01
-2.471219671129536444e-01
-2.750275460287838758e-01
-2.558280939359959261e-01
-2.285014172366121588e-01
-2.174158499608694894e-01
-2.203492140850393244e-01
-2.206895439745437115e-01
-2.111914814685222352e-01
-2.057601100280382900e-01
-2.262393996220193326e-01
-2.756021910040058476e-01
-3.240528373840861898e-01
-3.242267142093212540e-01
-2.449420606406711443e-01
-9.582928602959872588e-02
7.640539831657267023e-02
2.152588217112682001e-01
2.838322912593215230e-01
2.779151729181514874e-01
2.193925428826204449e-01
1.387236738083914567e-01
5.791809273234305167e-02
-1.719547465903725758e-02
-9.118369525419456334e-02
-1.635770755090452111e-01
-2.168458042650251993e-01
-2.211397502278473204e-01
-1.553135253013047112e-01
-2.678172927950533966e-02
1.286675106632473309e-01
2.676548262529308553e-01
3.618431920931552415e-01
4.047058322836454280e-01
4.031998629009913571e-01
3.677483100677337857e-01
3.081522256511786129e-01
2.318300749149554418e-01
1.411462654297481745e-01
3.492135425683737249e-02
-8.169952490480228424e-02
-1.878826016129661602e-01
-2.530795442980358079e-01
-2.584288624323050620e-01
-2.140730939230957031e-01
-1.542816103326051236e-01
-1.141808495097600407e-01
-1.085592034548876761e-01
-1.279417108176634232e-01
-1.499943140809247566e-01
-1.548653523970217050e-01
-1.363912618378673725e-01
-1.063974660071284745e-01
-8.900146042587556150e-02
-1.031516832858486721e-01
-1.424425493716777735e-01
-1.711534855007465494e-01
-1.464566420755427645e-01
-5.184228884763092404e-02
8.725879409426756661e-02
2.197106955694625163e-01
3.017365732670931333e-01
3.192966392564354772e-01
2.864732731338853755e-01
2.286322993487755195e-01
1.667078103094334629e-01
1.100692454622449190e-01
5.574209533630199165e-02
-7.755222722887838982e-03
-8.996312854312106533e-02
-1.839288148435299364e-01
-2.595578982894176101e-01
-2.766070819652976520e-01
-2.128568179411391426e-01
-8.505850443622098300e-02
5.758290256235013005e-02
1.634953391954194757e-01
2.075403302045012999e-01
1.980958940650452416e-01
1.634938759401208808e-01
1.323991126533423657e-01
1.190478525141254185e-01
1.162302579812304892e-01
9.824167868031485895e-02
3.711268198632633464e-02
-7.268075442023796962e-02
-1.989774093253106335e-01
-2.843995589204671992e-01
-2.836466239602724593e-01
-1.973284453334999689e-01
-7.268189495935947764e-02
2.999878149929217919e-02
7.618057540587128140e-02
7.126618537148643462e-02
4.598874930283666784e-02
3.112538053570085284e-02
3.955656184334721548e-02
6.134367627207210072e-02
7.033807933722302508e-02
4.022075600409349971e-02
-3.554685976760546540e-02
-1.323101760750213796e-01
-2.034746796355998422e-01
-2.084023493384404291e-01
-1.391961655599532333e-01
-2.483300823191313123e-02
8.932257452860542513e-02
1.675133154557761905e-01
1.961797143414694133e-01
1.817123976810652297e-01
1.429126985010267525e-01
1.026356683239427470e-01
7.656432066983803741e-02
6.200978897433856440e-02
3.760121632633098288e-02
-2.004771222840867617e-02
-1.130579045816621359e-01
-2.125964055211626014e-01
-2.732141837929196737e-01
-2.609263471120025768e-01
-1.737547610103629403e-01
-4.164620731003261522e-02
9.036024807897738431e-02
1.827266878183123611e-01
2.160842046653053128e-01
1.967371781697291877e-01
1.515673412601439285e-01
1.121325203246386210e-01
9.448599351872132013e-02
8.830395596066065167e-02
6.554817485798039578e-02
4.305814832013060700e-03
-8.996505082868683223e-02
-1.825565683645812010e-01
-2.286359859336619393e-01
-1.997935334046336275e-01
-1.014210382184741327e-01
2.793873196020828231e-02
1.346322393231793868e-01
1.774696540691860780e-01
1.511116012979467627e-01
8.983190938471899423e-02
4.512763989813575738e-02
4.895306614790456701e-02
8.797635267560399708e-02
1.089824312037384335e-01
5.386643356796948223e-02
-9.784591375069176533e-02
-3.060900445500349676e-01
-4.834424823420819806e-01
-5.413025768701633655e-01
-4.445529554902676317e-01
-2.380108514478372905e-01
-2.001608717692260342e-02
1.239438055692085872e-01
1.781802072763267741e-01
1.965351431842835561e-01
2.443690625252625814e-01
3.351590170292801929e-01
4.190131780970747233e-01
4.293978345951918740e-01
3.396674141479490983e-01
1.788787641467988743e-01
3.407251912769776458e-03
-1.388227816391465474e-01
-2.212160089565654020e-01
-2.329928480253235512e-01
-1.767892982113080935e-01
-7.506199646338240772e-02
2.975356864242534316e-02
9.294271838114348538e-02
9.301088785644223700e-02
4.334470065500029001e-02
-2.004627699010086417e-02
-6.445488979862007417e-02
-8.075438225742598286e-02
-8.540976933172703123e-02
-1.048171303624546025e-01
-1.525990026913987829e-01
-2.140784169430907657e-01
-2.496810844506814897e-01
-2.194006557812082925e-01
-1.144239258090922473e-01
2.914770707499673985e-02
1.500783765205398468e-01
2.030832433572786200e-01
1.885221528734516427e-01
1.465432661424853622e-01
1.217349675714364671e-01
1.282402177660431908e-01
1.426164767329167748e-01
1.272843064485735531e-01
6.384304803045537380e-02
-2.918241109056980698e-02
-1.060406387767443281e-01
-1.233824878252316182e-01
-6.926616501364009360e-02
2.837755491249394080e-02
1.194647203832069626e-01
1.628430719283525119e-01
1.487976550282758548e-01
9.804320468105348629e-02
4.000807311992499171e-02
-1.141888912929078792e-02
-6.498108009827063825e-02
-1.365074612078595595e-01
-2.248621153175264786e-01
-3.019098202115561569e-01
-3.273226962419548691e-01
-2.768205428602185658e-01
-1.603416471056594572e-01
-1.596252287201904707e-02
1.135157526772817560e-01
2.017840090108767859e-01
2.443406926999569517e-01
2.494882995559795091e-01
2.258173565731625976e-01
1.752116885322859696e-01
9.454067182096892452e-02
-1.501279671548805261e-02
-1.364232534188241086e-01
-2.335508607166254524e-01
-2.647961733795065609e-01
-2.088543724426160653e-01
-8.320496684917155772e-02
6.177808134550977215e-02
1.700536220633983575e-01
2.078619011724436305e-01
1.741696700122488117e-01
9.208429678922747108e-02
-7.635299235970283149e-03
-1.003074263805719957e-01
-1.744919894798617199e-01
-2.318509146523574649e-01
-2.787511508009242744e-01
-3.128808606306366924e-01
-3.157889087176967147e-01
-2.615161125857381474e-01
-1.373593811302131762e-01
4.145531455548856492e-02
2.380119516171407268e-01
4.155411068722861256e-01
5.542960952422290033e-01
6.498962889116888242e-01
7.001978122048848618e-01
6.979376326270714248e-01
6.362305180476408584e-01
5.179319424485631096e-01
3.566124957454225863e-01
1.680294950604312443e-01
-3.757718231840995182e-02
-2.531045809858928908e-01
-4.647405025231240994e-01
-6.463743245156299277e-01
-7.662004681976273268e-01
-8.015668024202843300e-01
-7.514356410241628259e-01
-6.392413813686187440e-01
-5.050877809625357040e-01
-3.895451339820575898e-01
-3.149471135955838053e-01
-2.749660723210883839e-01
-2.415940488827732491e-01
-1.859473264386251046e-01
-9.621965131646148528e-02
2.106329651983274154e-02
1.524038349760035160e-01
2.852925005793984781e-01
4.053761698982207839e-01
4.922340109011562603e-01
5.258263404595029389e-01
5.013887016009417330e-01
4.376327102667429969e-01
3.674642341392304612e-01
3.175046241957051318e-01
2.936150431610436984e-01
2.829314779845895078e-01
2.673952629194917829e-01
2.364848157990109834e-01
1.922066515697145039e-01
1.470839987090340473e-01
1.174683757281794472e-01
1.132901030764801864e-01
1.278810535616336508e-01
1.355615594409625702e-01
1.021167246208967150e-01
3.341684430294866726e-03
-1.603409127751177499e-01
-3.616006999025646595e-01
-5.553481737987528977e-01
-6.936741023142960483e-01
-7.421999871558172535e-01
-6.938755794192003057e-01
-5.733304043718242538e-01
-4.252014502673394647e-01
-2.895596138612308579e-01
-1.806775624687406157e-01
-8.642718109100056001e-02
1.143400280850306872e-02
1.152039096124212597e-01
2.072398590055130052e-01
2.653597313096797694e-01
2.809468421798620996e-01
2.628588606725938415e-01
2.265518304046960363e-01
1.829505013861066343e-01
1.389099840812640374e-01
1.046334054806976055e-01
9.458280003980862327e-02
1.181700994926787596e-01
1.705800020249686466e-01
2.338945953737983641e-01
2.865696621336394911e-01
3.122308032049937454e-01
3.034317182177219685e-01
2.624068510569223522e-01
1.999235552445453035e-01
1.300512869891416456e-01
6.172482491378161740e-02
-5.945316415448008429e-03
-7.946305595230637731e-02
-1.625565969669753863e-01
-2.531026928135096665e-01
-3.468753926780373531e-01
-4.393590373583323716e-01
-5.195328843823917575e-01
-5.631810449332103063e-01
-5.390965645931705685e-01
-4.289055812477989837e-01
-2.443232379146161315e-01
-2.577353857586314745e-02
1.766218173380392775e-01
3.245883940791107758e-01
4.027253058891626658e-01
4.174150778458590727e-01
3.891162788770804459e-01
3.422884972967550898e-01
2.947204345897842526e-01
2.500111548096617953e-01
1.985395386998362044e-01
1.266962645144655564e-01
2.660452802848541076e-02
-9.989825152142263465e-02
-2.403961636580463634e-01
-3.695070373079628601e-01
-4.493237076097031935e-01
-4.422915951117579736e-01
-3.350727659048729490e-01
-1.552229512812702827e-01
3.768737051393927784e-02
1.843239450998572782e-01
2.578539012490967952e-01
2.720385453109114837e-01
2.610247561920516213e-01
2.496429692335692951e-01
2.386591051883196757e-01
2.128230919825357947e-01
1.580287885043595297e-01
7.039147330985182083e-02
-4.475392052053410452e-02
-1.740224230421403284e-01
-2.931159106055817865e-01
-3.680878924455092127e-01
-3.688467972516827897e-01
-2.887938192329069231e-01
-1.534914211053937105e-01
-8.279558114238368127e-03
1.064408066822959964e-01
1.730928399184646360e-01
1.970050785716116193e-01
1.940292498422107048e-01
1.781854487258081321e-01
1.560007058256882573e-01
1.264522469705633978e-01
8.432312170588412981e-02
2.610149309518216415e-02
-4.485749829084409446e-02
-1.189939349322573503e-01
-1.864639791805812186e-01
-2.402784723434674974e-01
-2.716994110884039526e-01
-2.652602360931654579e-01
-2.050714916041457836e-01
-9.096581722893978816e-02
5.228339569764722111e-02
1.856370783481587627e-01
2.788853801293355583e-01
3.256739592266363337e-01
3.388478793641533926e-01
3.336552322934449033e-01
3.149396501133640558e-01
2.765039245629189457e-01
2.083188811776964799e-01
1.035475732245483838e-01
-3.709268865952225491e-02
-2.012503536034928042e-01
-3.615108496012564565e-01
-4.786530188607101555e-01
-5.161066122230578701e-01
-4.599138205537700586e-01
-3.300205697329756660e-01
-1.723540674764024172e-01
-3.513059259681472479e-02
5.522949390097633970e-02
1.033744579275725217e-01
1.347103756113499917e-01
1.728547457048015823e-01
2.200035322156805306e-01
2.547635408157042924e-01
2.500375538506203199e-01
1.965440343377565235e-01
1.112519040044231411e-01
2.308253498719511909e-02
-5.008911246704837728e-02
-1.103441914579853383e-01
-1.662602543872778449e-01
-2.126620794284495020e-01
-2.267682798343128026e-01
-1.862953016908567849e-01
-9.142282673046865649e-02
3.123292100363372903e-02
1.453280993705084179e-01
2.250570748734453952e-01
2.623716980622224360e-01
2.615577137469252689e-01
2.329937745061299581e-01
1.916772635832524885e-01
1.543903407164022024e-01
1.302820848414912858e-01
1.115167542076275220e-01
7.544495372629328456e-02
-3.193154089124877748e-04
-1.206909798549738039e-01
-2.652435571903358769e-01
-3.934816439110736530e-01
-4.607466032091604435e-01
-4.387008532131677074e-01
-3.310260542817167195e-01
-1.743324452445539630e-01
-2.074441773805246747e-02
8.906814723295630731e-02
1.447747582527030286e-01
1.641773596444370265e-01
1.731856382295655639e-01
1.844364934710898130e-01
1.896921403552455643e-01
1.688966344853181922e-01
1.073120589371576172e-01
9.074362817488523802e-03
-1.000027514969956677e-01
-1.812577495279647510e-01
-2.003568203800465408e-01
-1.459386793439677865e-01
-3.872805081625245449e-02
7.830131405389720300e-02
1.651611178774575750e-01
2.068317921788740965e-01
2.142368006890851273e-01
2.057615572592814690e-01
1.885703996748875899e-01
1.563794620667223190e-01
1.017332462310721747e-01
2.669375700404771207e-02
-5.948266268504071030e-02
-1.498304135283781979e-01
-2.414033697609380413e-01
-3.253535922723414520e-01
-3.790426667877209721e-01
-3.744815549011894507e-01
-2.986952828717693298e-01
-1.665967952366039506e-01
-1.411421292674978900e-02
1.209252734465274259e-01
2.139310564350087041e-01
2.576089917615961289e-01
2.593497105790553148e-01
2.365928804747846614e-01
2.091905573633617843e-01
1.885914114691893406e-01
1.703692854239214349e-01
1.379115923734834381e-01
7.636491691471780641e-02
-1.375119170521360568e-02
-1.132900066613667239e-01
-1.921106705954026828e-01
-2.215327998529701414e-01
-1.867958266070918194e-01
-9.612351252161166482e-02
1.949876711286746556e-02
1.199948895357531020e-01
1.769101917696662696e-01
1.859607138018506411e-01
1.615508426681052656e-01
1.195716803253340510e-01
6.539628781610795638e-02
-2.771085807947937241e-03
-8.243594446960095246e-02
-1.628313688338763887e-01
-2.332534741155804503e-01
-2.919980318455304147e-01
-3.426861964351024525e-01
-3.805908688995479072e-01
-3.856729488834226838e-01
-3.339558252178506659e-01
-2.190536801444951109e-01
-6.313692747484800361e-02
9.378600382324886464e-02
2.163159010437706309e-01
2.890967586608770290e-01
3.171651557570183133e-01
3.171928513106944125e-01
3.078396945351357106e-01
3.016414705602910029e-01
2.987940792574129700e-01
2.861567582259091358e-01
2.447535592464833432e-01
1.629807906881892143e-01
4.713571228620033748e-02
-7.772529543604241031e-02
-1.770195818385723041e-01
-2.211457957321257273e-01
-1.990900042443991547e-01
-1.251714747369574443e-01
-3.410973085503510305e-02
3.558307597123344657e-02
6.154695911712948497e-02
4.760088233165027383e-02
1.631348730474979636e-02
-9.642695429074588098e-03
-2.196948565833933831e-02
-2.706447907397624419e-02
-3.666396880963568305e-02
-6.055386213399296946e-02
-1.054526713834679497e-01
-1.730231740020634068e-01
-2.518363398660617980e-01
-3.119521364992014489e-01
-3.164007963174697569e-01
-2.477954478908893088e-01
-1.265536665272503358e-01
5.704327076788695550e-04
9.372753620004625752e-02
1.438349957009016911e-01
1.669709008570051667e-01
1.809715883644233969e-01
1.905889504370325005e-01
1.913453464371966950e-01
1.794808767517362402e-01
1.540193529737743372e-01
1.135553222095095627e-01
5.897718797016038295e-02
2.148893494118897518e-03
-3.308343111990558194e-02
-2.554848192085568126e-02
2.476324069080887424e-02
9.372760967526072573e-02
1.490640112425160035e-01
1.695249574498448042e-01
1.520678251859188812e-01
1.072527874019950089e-01
5.185393542786786991e-02
2.374529101848710244e-03
-3.281708174443939696e-02
-6.046511955103947566e-02
-9.917410371333487684e-02
-1.621875336482761498e-01
-2.389826314890394210e-01
-2.955276799070906124e-01
-2.977686094172848907e-01
-2.393545283001086155e-01
-1.490115815630114471e-01
-7.204822838394131512e-02
-4.292589406199454061e-02
-6.873790340882190986e-02
-1.291887717655829659e-01
-1.870871484952787434e-01
-2.036641291588834335e-01
-1.560192754120499625e-01
-5.058039953440651715e-02
7.801398954248295325e-02
1.871307615793162960e-01
2.533842230938341267e-01
2.846124348997900455e-01
3.063899494803138390e-01
3.378618725260899014e-01
3.803212761207647175e-01
4.234094577904619072e-01
4.534481448904492673e-01
4.531488035262346559e-01
4.016162799015885465e-01
2.866879415714167489e-01
1.222453095295070735e-01
-5.119107896381347445e-02
-1.917928511657678303e-01
-2.894468233742676921e-01
-3.750189175086178217e-01
-4.909108142349212223e-01
-6.424060275102374540e-01
-7.718007125767432086e-01
-7.845933142189487342e-01
-6.153599682138510829e-01
-2.847333256823616487e-01
9.892685524320957158e-02
3.985527311681789087e-01
5.268526408517004711e-01
4.885547123761482258e-01
3.592684138390827009e-01
2.221550632018615412e-01
1.134245264006886189e-01
1.601152184052767602e-02
-1.014451588093641110e-01
-2.397985250705534366e-01
-3.586911694475167778e-01
-4.063843466410790306e-01
-3.608746812788454217e-01
-2.461087262682437604e-01
-1.118065329103512529e-01
2.915524987310291749e-03
9.122762179908994185e-02
1.714258729699595918e-01
2.625077704531681988e-01
3.651005662137432051e-01
4.606652615968996889e-01
5.250116699496301109e-01
5.431763682010435357e-01
5.151808608963550640e-01
4.509737747746678238e-01
3.611004680835145919e-01
2.520580879180340794e-01
1.303386563062780834e-01
1.033251070606361344e-02
-8.414483684768797600e-02
-1.304916631807125915e-01
-1.234374389685795048e-01
-8.192450533476289265e-02
-3.960858225317315240e-02
-2.840235492085207980e-02
-7.021271996195194154e-02
-1.795500407135290633e-01
-3.654012981300993612e-01
-6.229411008784357939e-01
-9.206490116759098452e-01
-1.197128615065366386e+00
-1.374592185020841351e+00
-1.382197438017239932e+00
-1.177289108217659530e+00
-7.588708412224485222e-01
-1.746071103581174899e-01
4.795130703931150817e-01
1.074866211855291631e+00
1.486906507056378057e+00
1.641588023340335489e+00
1.544701059634496110e+00
1.273582290129084749e+00
9.358844855050865164e-01
6.211278073225094953e-01
3.717141246515484054e-01
1.845680431900598162e-01
3.523498866071750335e-02
-9.520084941695472480e-02
-2.076434403676429286e-01
-2.914011463331090956e-01
-3.402946299584357348e-01
-3.632654102028048948e-01
-3.798207157751929408e-01
-4.044689897714792703e-01
-4.351214959456677911e-01
-4.574235716972010479e-01
-4.617692387242984253e-01
-4.566490125893148955e-01
-4.640869151989188701e-01
-4.987058542378162707e-01
-5.472613126799126260e-01
-5.674875120196064548e-01
-5.117096862431752546e-01
-3.604982467102392785e-01
-1.403724763234568129e-01
9.023951279922476365e-02
2.768071791207477594e-01
3.983937202661599342e-01
4.701720002485791916e-01
5.211801383369925045e-01
5.677770628964693422e-01
6.029380901455857478e-01
6.072268620922982585e-01
5.710171679963069735e-01
5.092861496963370094e-01
4.556953803311125650e-01
4.396635949662358045e-01
4.653066746988299140e-01
5.090764395788422991e-01
5.346832800965732879e-01
5.093300965538154479e-01
4.105729497131273553e-01
2.295486659681263975e-01
-1.978267286550006165e-02
-2.919436293285454509e-01
-5.229815307499604549e-01
-6.722781363685618183e-01
-7.622009821183266531e-01
-8.664070554450911121e-01
-1.035790213971004681e+00
-1.220486108553757498e+00
-1.270163118562640081e+00
-1.031912305678991837e+00
-4.723765586860220189e-01
2.747749116083284537e-01
9.697718997300165400e-01
1.384451541501423577e+00
1.396569139253977410e+00
1.017186085770910964e+00
3.611240091022680510e-01
-4.046747056191155600e-01
-1.109059609289674286e+00
-1.613779123817079331e+00
-1.840614232995177346e+00
-1.785308947138770419e+00
-1.510130934814243098e+00
-1.111987355118861043e+00
-6.783064036564960819e-01
-2.546715156928145429e-01
1.572665181494865561e-01
5.728443379037686523e-01
9.885624553109867430e-01
1.364228058243250885e+00
1.640484182020459869e+00
1.784432566827784949e+00
1.828388878283234931e+00
1.861509928402788727e+00
1.966599044417267406e+00
2.144718926345086984e+00
2.291449485138195019e+00
2.252233228233821105e+00
1.917463258362100298e+00
1.284295353810955609e+00
4.454986060761525479e-01
-4.694787903872619239e-01
-1.346980389111528620e+00
-2.108575825052480646e+00
-2.707605854763692310e+00
-3.114703924689378844e+00
-3.293370477220976866e+00
-3.182546433442862366e+00
-2.723210236562914055e+00
-1.935967010213639927e+00
-9.857201402135979951e-01
-1.443413278579233072e-01
3.588098099837877530e-01
4.899938472020837210e-01
4.314596097041439315e-01
4.386052328730696837e-01
6.448508795909708713e-01
9.699858849692339913e-01
1.198936485474111358e+00
1.157694174194229486e+00
8.434795070069078804e-01
4.185248305067701402e-01
9.105762373962833500e-02
-1.813818297330938023e-02
6.510931109826018082e-02
2.080788911617929560e-01
2.705427908948021543e-01
1.961843275453756252e-01
4.237404487152218735e-02
-6.389101919791873030e-02
-1.294654575194620350e-02
2.116632755908209873e-01
5.159726457079485407e-01
7.502452894221312008e-01
8.013225367234901864e-01
6.594435649502292662e-01
4.132318079454486148e-01
1.811886929875973218e-01
3.522493913922830622e-02
-2.901687611561332147e-02
-6.448947350192524297e-02
-1.216819825619406270e-01
-2.161361753749950765e-01
-3.301019257964061815e-01
-4.342126525105194368e-01
-5.072575335535298713e-01
-5.439072618241960200e-01
-5.523192715830766986e-01
-5.456394924342831132e-01
-5.307001459623483797e-01
-5.007227830826730397e-01
-4.400462163573699570e-01
-3.398760197124250926e-01
-2.116357768027379016e-01
-8.395334094098538813e-02
1.575843331755377719e-02
7.848174793230633384e-02
1.136446963379804664e-01
1.334270253699401110e-01
1.389715684244534621e-01
1.242573889015408106e-01
9.374077103174816017e-02
7.207013031993581009e-02
8.968722454118682741e-02
1.550023322715332608e-01
2.425557986742452599e-01
3.123628822636295155e-01
3.421418956623667462e-01
3.400648874027171198e-01
3.273093830048582897e-01
3.114368037796251265e-01
2.784541230443267068e-01
2.093488424756387578e-01
1.028396300388757512e-01
-1.647991857790231940e-02
-1.098197710305673924e-01
-1.460362049751686708e-01
-1.200778730700562402e-01
-5.771927497509543592e-02
-2.316219842573685739e-03
1.077908696220508666e-02
-2.424434574750544691e-02
-8.329382189602430042e-02
-1.348254232432214428e-01
-1.658076867100878315e-01
-1.867735108872120020e-01
-2.113732729145716416e-01
-2.327722439098457441e-01
-2.237411864284361007e-01
-1.623554710104273269e-01
-5.747045495009917015e-02
5.204173199663551797e-02
1.237617095664188260e-01
1.393988294226838898e-01
1.111275779558712484e-01
6.573120839153367978e-02
2.313820270285740777e-02
-1.457544853930586859e-02
-5.901521445382540421e-02
-1.207330346030267981e-01
-1.930640801197029688e-01
-2.464393858507071267e-01
-2.422586573504269536e-01
-1.612476539581390589e-01
-2.435455179222606459e-02
1.152448803990672177e-01
2.066033503172478580e-01
2.338422983113510600e-01
2.192619677306174575e-01
1.959248298119626863e-01
1.770580179890737238e-01
1.511726290542807494e-01
1.053856314046432985e-01
5.110029293260409666e-02
2.408688886618137737e-02
5.679132668877640011e-02
1.478994703500059460e-01
2.561820592583563538e-01
3.227965758318039335e-01
3.029567541444032619e-01
1.849705630138201440e-01
-1.066633787965187707e-02
-2.444848227984988132e-01
-4.716883019308912850e-01
-6.494243325871473793e-01
-7.390111806227723790e-01
-7.098621250902437119e-01
-5.500798005782021605e-01
-2.795331926090284802e-01
4.707116530563770773e-02
3.555418113466004559e-01
5.789101421442122142e-01
6.784308189150838331e-01
6.491420422065008466e-01
5.149867831832963816e-01
3.225622947394816142e-01
1.331715835868899356e-01
4.954866571484251025e-03
-3.509321760255679212e-02
-1.103624442943357264e-02
