1.013323578605507258e-02
-8.398364804768418956e-01
-1.431584586472711917e+00
-1.646041872226328140e+00
-1.541143913872182747e+00
-1.273359759693383664e+00
-9.849359690705691284e-01
-7.502763751657257618e-01
-5.999691159741257218e-01
-5.595079155999682641e-01
-6.356536069908664821e-01
-7.588209849927352035e-01
-7.620161059433837591e-01
-4.616585746769820697e-01
1.934888577771296525e-01
1.027705459455542814e+00
1.702669971898539192e+00
1.921274791746960364e+00
1.625631782040068085e+00
1.033246376842738012e+00
4.783389227979600866e-01
1.809311282628265349e-01
1.217282135091061757e-01
1.094571842284334240e-01
-3.080497749653132722e-02
-3.103972651883623035e-01
-5.849277636646854628e-01
-6.936778074456492194e-01
-6.007210020691885477e-01
-4.184134023030144367e-01
-3.027091356403469602e-01
-3.182402301622269669e-01
-3.892722796880199176e-01
-3.728759838761060430e-01
-1.866983380240242185e-01
1.170442468506205369e-01
3.889296262608181731e-01
4.948014106777973709e-01
4.096295035285626440e-01
2.214207691687401502e-01
5.164259162032235062e-02
-3.542529968944985175e-02
-6.066151840812333829e-02
-8.152567915897254713e-02
-1.204248530643356324e-01
-1.404481693343528348e-01
-9.157576624825390643e-02
1.909066290829515566e-02
1.081393420600096633e-01
8.027905012718168642e-02
-7.213726361770994577e-02
-2.302343126604324830e-01
-2.280455954486522718e-01
-4.950039350433310670e-03
2.968866576659932033e-01
3.983091362839322747e-01
9.565003790745729706e-02
-5.330475160512373467e-01
-1.108365357087601533e+00
-1.172054279147168865e+00
-5.153802367444773047e-01
6.280949127775492524e-01
1.686929721254768477e+00
2.099655683239723292e+00
1.666560104928830111e+00
6.588200063857913014e-01
-3.819061263899835579e-01
-9.954576807624470058e-01
-1.053381904230509036e+00
-7.534387788626613069e-01
-4.069373913050913227e-01
-2.079609953819523682e-01
-1.518970140834799143e-01
-1.256100401757744289e-01
-5.466799415173426158e-02
2.835520445082320706e-02
3.723097020468019158e-02
-6.360295887092484723e-02
-2.100107698092219533e-01
-2.886237516258924884e-01
-2.364480531519905504e-01
-9.733227593410512246e-02
1.499807980150652531e-02
1.471396842823999296e-02
-8.055494497176041158e-02
-1.577337202321988929e-01
-9.131490748990481188e-02
1.645138513324840845e-01
5.410890865395461269e-01
8.949596214039697850e-01
1.085599027468126643e+00
1.038458871025662589e+00
7.652819344833170501e-01
3.482284779186999857e-01
-9.217442667938635648e-02
-4.350723128875906287e-01
-6.025399400901004787e-01
-5.977142914708032384e-01
-5.099682447795925722e-01
-4.643054135220424650e-01
-5.323616282688337087e-01
-6.683996173192580104e-01
-7.345235655604582803e-01
-6.151363467005777075e-01
-3.356118936651740770e-01
-7.417983110744252873e-02
-3.070340946718097541e-02
-2.426654753254709473e-01
-5.069651115995916779e-01
-5.002577651747599496e-01
-2.863031844178554053e-02
7.868899906829567303e-01
1.552146721474092050e+00
1.857348916794938409e+00
1.560027061748656241e+00
8.748938685555505135e-01
2.040585295019057277e-01
-1.522602139720110048e-01
-1.768959564246641580e-01
-8.273795389757160335e-02
-9.657126783245612023e-02
-2.726667099550469375e-01
-4.801806891425459134e-01
-5.465538985670383987e-01
-4.135105370790715384e-01
-1.751520241476167139e-01
1.126477505345879759e-02
4.346228564114229531e-02
-7.899025513679086563e-02
-2.923408843915244471e-01
-5.260666196802410433e-01
-7.204320460486711708e-01
-8.128493965562260115e-01
-7.473748009793266256e-01
-5.289886503601499701e-01
-2.692607480816865961e-01
-1.440462819748793977e-01
-2.546377288451423526e-01
-4.947822378640526209e-01
-5.621488798172924461e-01
-1.548023079646365652e-01
7.711240141915567392e-01
1.890428892512612702e+00
2.663668899116954591e+00
2.672118042035584118e+00
1.894139038214477155e+00
7.175979897702556842e-01
-3.181793012690010691e-01
-8.553908454832518382e-01
-8.885642054663407396e-01
-6.793301345834261706e-01
-5.199727303520794708e-01
-5.410372337271698306e-01
-6.841542227864572112e-01
-8.095328531091703361e-01
-8.162287951758524507e-01
-6.845739799544678927e-01
-4.475094779418381519e-01
-1.561887134260006027e-01
1.217613326864467327e-01
2.972082304180638790e-01
2.929377894315608466e-01
1.102089663606908854e-01
-1.383246198495332591e-01
-2.895235581884985088e-01
-2.596564090271342162e-01
-1.333538474864930379e-01
-1.108787747474462293e-01
-3.284587967581709123e-01
-6.931289901264582332e-01
-8.895439967802660775e-01
-5.887511068211381815e-01
2.840605056679490481e-01
1.434330301737507751e+00
2.342305288702649868e+00
2.575078195346364840e+00
2.045282503949288788e+00
1.039703629635953641e+00
1.760680552874072102e-02
-6.610387838039587516e-01
-8.954339033874552101e-01
-8.224763551093164926e-01
-6.794481077107610290e-01
-6.651315268528210645e-01
-8.643248153240852272e-01
-1.229365770862133944e+00
-1.592552596946526844e+00
-1.712994673363449127e+00
-1.377678185478474759e+00
-5.369630999682293293e-01
6.075455038555972465e-01
1.652584434721333206e+00
2.187996249405445681e+00
2.027769422530663945e+00
1.320220364704982607e+00
4.539632035587954362e-01
-1.791575313601488917e-01
-4.025549956338161928e-01
-3.150883782963861401e-01
-1.736448871201204669e-01
-1.986619144275242332e-01
-4.364248556428615977e-01
-7.517573004121657076e-01
-9.327244380611597885e-01
-8.314047968621602891e-01
-4.618885096275590074e-01
-7.283248586665819202e-03
2.723800270559094128e-01
1.955523926212799912e-01
-2.014756770553050025e-01
-6.378739053794167946e-01
-7.262256485064355616e-01
-2.216397383995457604e-01
7.729065299293877978e-01
1.806030703200776522e+00
2.320048913041710570e+00
1.995431505883703549e+00
9.631818776444339703e-01
-2.707631282839007003e-01
-1.141123372216185761e+00
-1.357109925181464227e+00
-1.026738045944855626e+00
-5.088508161480522762e-01
-1.317564221817491832e-01
2.806255544214542041e-03
5.839141118998969482e-03
3.079266031367258738e-02
1.131186891050066368e-01
1.518927392117405961e-01
2.915763978661062295e-02
-2.543066031992703424e-01
-5.521876915143408837e-01
-6.789110429663125501e-01
-5.579413446071330718e-01
-2.867247557030591643e-01
-6.224540556660983215e-02
-2.424747063563144345e-02
-1.397781053878612845e-01
-2.225530045614310115e-01
-7.799910865673370663e-02
3.328920108027063618e-01
8.373677609563311419e-01
1.153489522316354599e+00
1.084452018160312781e+00
6.629926252718790769e-01
1.328480743745077963e-01
-2.274737487481014730e-01
-3.095002109234148424e-01
-2.471874518014661737e-01
-2.906845659842952623e-01
-5.723447486870822942e-01
-9.525734059769691564e-01
-1.083941304469832057e+00
-6.647793680491639323e-01
3.030232536192953852e-01
1.453944979629691936e+00
2.254920683012819893e+00
2.323412828354914250e+00
1.644485807407250810e+00
5.464763212157069949e-01
-5.237953943738464790e-01
-1.252403197364850396e+00
-1.573757702561034755e+00
-1.613526499737333531e+00
-1.546676159890308266e+00
-1.486409792734838975e+00
-1.454843570340092374e+00
-1.408020237191247581e+00
-1.266921048201808286e+00
-9.410630982824603752e-01
-3.646895378420896838e-01
4.467068659869932734e-01
1.353873543726199058e+00
2.116812977166655951e+00
2.495885544879069773e+00
2.377329918738925407e+00
1.838091345551039257e+00
1.102049092626846472e+00
4.172838393168469828e-01
-6.238214248516393834e-02
-3.202928009426681544e-01
-4.347792492635574879e-01
-4.998939891856296613e-01
-5.681776056756586701e-01
-6.415991032751939827e-01
-6.959398213079290851e-01
-7.080113685090234643e-01
-6.676112914871386028e-01
-5.763787941208131649e-01
-4.439511917672394059e-01
-2.863532149742887278e-01
-1.242927334894823321e-01
2.087004529868990987e-02
1.309759692977658374e-01
1.913329187865895065e-01
1.893100565814040959e-01
1.177433803159001202e-01
-1.429994934093906100e-02
-1.714179066347555069e-01
-2.962769670273511236e-01
-3.341530774817199623e-01
-2.651170753175003392e-01
-1.195234851857692737e-01
3.941717769725888720e-02
1.573671417177888721e-01
2.246359138683748369e-01
2.772649373698008457e-01
3.607722616340188759e-01
4.843060452908355962e-01
6.022323872941091061e-01
6.397198186060581993e-01
5.447218393929552649e-01
3.281720172363144505e-01
6.299055922824392528e-02
-1.572160170646919597e-01
-2.707987235107500723e-01
-2.771531664630557112e-01
-2.254975668098939678e-01
-1.740264033810393629e-01
-1.481736803172280237e-01
-1.254369644628842151e-01
-5.639891239770111753e-02
9.141576395237532848e-02
2.954958164868490833e-01
4.735993258677603235e-01
5.213206671491730226e-01
3.737897964694618103e-01
5.328970185080322830e-02
-3.329493178748672011e-01
-6.517810482528836324e-01
-8.267607733571238349e-01
-8.872850475288738270e-01
-9.424235065577925008e-01
-1.088819506499242973e+00
-1.315610514236720263e+00
-1.481760187308926557e+00
-1.394383427838002731e+00
-9.394790602330627127e-01
-1.691426829494994122e-01
7.241513648925239632e-01
1.529089126712238622e+00
2.137084471223114068e+00
2.565560587138119963e+00
2.866354210645259748e+00
3.003547266730637322e+00
2.818457322257462927e+00
2.131902190032579192e+00
9.168746421917164380e-01
-5.953775348461118888e-01
-1.975471593807850867e+00
-2.802544872523531794e+00
-2.887791713376643088e+00
-2.367908368754366499e+00
-1.608500659342937622e+00
-9.838748007178439448e-01
-6.761430061060506036e-01
-6.147633929364442196e-01
-5.790281903825134080e-01
-3.806415391375320700e-01
4.424393593405184788e-04
4.128580037732644259e-01
6.553185446110580958e-01
6.311421767041165420e-01
4.251350797051712815e-01
2.486495970215306661e-01
2.915930907582031661e-01
5.856246141942148542e-01
9.749772998484292907e-01
1.215454480046272767e+00
1.132231410465623700e+00
7.279178756209749857e-01
1.714185403723695877e-01
-3.153502543814278303e-01
-5.873518247487380384e-01
-6.361149011619340321e-01
-5.535015375805333315e-01
-4.449891790602468755e-01
-3.639008509709162897e-01
-3.054861440178438525e-01
-2.440940798102667897e-01
-1.674190212339429218e-01
-7.880782754895471198e-02
2.178507699495191297e-02
1.463969279033012216e-01
3.012218802938979589e-01
4.598196415084010447e-01
5.599763391216543429e-01
5.371137922761463068e-01
3.713338712436813349e-01
1.084604594797651533e-01
-1.648980629603264969e-01
-3.734422995081749241e-01
-4.910403242175288008e-01
-5.368673601254008165e-01
-5.393373273686297154e-01
-5.035647919347250312e-01
-4.109023453871404330e-01
-2.472178222508136791e-01
-3.055059939697157834e-02
1.882865281971206617e-01
3.518957644980945099e-01
4.253094055676843732e-01
4.049020964359761887e-01
3.064051528180775641e-01
1.506350533086830146e-01
-3.713027279527886249e-02
-2.185098407568465406e-01
-3.432761887687316160e-01
-3.712806169726585170e-01
-3.012366078263112312e-01
-1.777258755769937082e-01
-6.175202344129607224e-02
1.609229399964097473e-02
7.888129330436406683e-02
1.770989468170523495e-01
3.308917350736856888e-01
4.932951026872651745e-01
5.759805337236351130e-01
5.251876035452792690e-01
3.833697278287560017e-01
2.725575035534927304e-01
2.976122969317913092e-01
4.431003130826491332e-01
5.574880255358114489e-01
4.551680951804371045e-01
6.636670631971031131e-02
-4.861654453506139006e-01
-9.547629815235603168e-01
-1.133518200478018878e+00
-9.942688800218696388e-01
-6.860111867105105343e-01
-4.070050916567617971e-01
-2.646280121752271342e-01
-2.392027230740282617e-01
-2.638739228554033422e-01
-3.213250427198036663e-01
-4.470988318294059072e-01
-6.319804520394640690e-01
-7.339407516215128435e-01
-5.229272682483266932e-01
1.363898023056338005e-01
1.105701531104111623e+00
1.973360229392588483e+00
2.280850815698132195e+00
1.830751915466801494e+00
8.429739073353778034e-01
-1.726635901371008641e-01
-7.432698726747293261e-01
-7.205659833549646898e-01
-3.258558610459564298e-01
5.814856308862767498e-02
1.693342103260447318e-01
8.263734704091640904e-03
-2.373897046851238535e-01
-3.837631004872754659e-01
-3.828861373113972566e-01
-3.044664634914361900e-01
-2.230451410079464791e-01
-1.405917937673652474e-01
-1.744090237616569006e-02
1.374661567735318279e-01
2.294391461414326538e-01
1.496191263776388558e-01
-1.083734437236721360e-01
-4.110223474506097263e-01
-5.854535589122893402e-01
-5.797112405371163124e-01
-5.276082369980803488e-01
-6.314426493643555682e-01
-9.420887921529919051e-01
-1.232170061037857645e+00
-1.106718931829469232e+00
-3.027689210079465010e-01
1.046755166162228967e+00
2.410484279372684391e+00
3.152768655171814149e+00
2.926886246838740213e+00
1.885093103093813616e+00
5.588794847553510969e-01
-4.909736088210255867e-01
-9.951342697788192471e-01
-1.054015398499978495e+00
-9.608025230958328056e-01
-9.417252235993025522e-01
-1.015939183723008954e+00
-1.050088412919185199e+00
-9.204378068426453119e-01
-6.305645205201103609e-01
-2.993467103959024933e-01
-5.569731719338305576e-02
5.507472814821334772e-02
7.934984980201456595e-02
9.014420136374873271e-02
1.203578333175069209e-01
1.520960464479527430e-01
1.581253138357406884e-01
1.443079634100583319e-01
1.493309990887736749e-01
2.057157438073515254e-01
3.047804460096699142e-01
4.023123162572291300e-01
4.600063899116846322e-01
4.817154157524198843e-01
5.074333813036868701e-01
5.679391401874565037e-01
6.419925727232288493e-01
6.592618615810323934e-01
5.526041267683516889e-01
3.169875648765734244e-01
2.163850743060033444e-02
-2.400504155330956957e-01
-4.223381428644055191e-01
-5.566786976549323862e-01
-7.096994538831045141e-01
-9.067499287903350025e-01
-1.095705869161534896e+00
-1.193314178958107874e+00
-1.175872356184138878e+00
-1.121116202559832020e+00
-1.139880963343759435e+00
-1.239433239598942915e+00
-1.245287546954377378e+00
-8.853258301662580987e-01
-8.491091685648211040e-03
1.225289640574376282e+00
2.360089742969035065e+00
2.896886013775229252e+00
2.622602121028801303e+00
1.770278274809925945e+00
8.759048459895715233e-01
4.241952152309792501e-01
5.384444161044050770e-01
9.355251606280591270e-01
1.163012050677926457e+00
9.263586519092594784e-01
2.643006362246133056e-01
-5.311731763369668124e-01
-1.151767944409424427e+00
-1.467313667607631933e+00
-1.546298981161874586e+00
-1.530992525554478734e+00
-1.503686357782360261e+00
-1.454933877910821183e+00
-1.348787779749174298e+00
-1.191322555543172346e+00
-1.025548793306646278e+00
-8.689747048001040808e-01
-6.782052611619836524e-01
-3.965494521249585125e-01
-4.427134443067426428e-02
2.521170331800381414e-01
3.516068830145329116e-01
2.517301233400024985e-01
1.598210180367492517e-01
3.837660304850926130e-01
1.093291406301696300e+00
2.132151932580913289e+00
3.049006494585417393e+00
3.355486250846822394e+00
2.838464536813266381e+00
1.700768652881788245e+00
4.282147044421743542e-01
-5.167330883365538474e-01
-9.536235559809718154e-01
-1.024454699775868116e+00
-1.016857641836586001e+00
-1.123639941887322635e+00
-1.315219821667640065e+00
-1.395802129025320193e+00
-1.176550543876184740e+00
-6.326593861973853761e-01
5.323108508639451397e-02
5.706114308740630747e-01
6.247422971563619809e-01
7.201430668821473535e-02
-1.001106415406207706e+00
-2.277517134486979788e+00
-3.294823560876929402e+00
-3.606316123268224594e+00
-2.971339003668558743e+00
-1.489970867903347651e+00
4.043918373618287099e-01
2.119125580396641784e+00
3.168219532081852030e+00
3.386507594593801240e+00
2.970135592141603276e+00
2.326393747833725545e+00
1.833047679052198120e+00
1.652933279490168772e+00
1.697203835333828792e+00
1.728237159289469194e+00
1.517918702102090789e+00
9.703283629195956772e-01
1.614401522841066861e-01
-7.038467931645682185e-01
-1.390926902869535686e+00
-1.751854634193703131e+00
-1.807000250149819021e+00
-1.738335753568457154e+00
-1.775728025457544046e+00
-2.029155914991457976e+00
-2.379342311260768561e+00
-2.523910641478581685e+00
-2.173578065212582899e+00
-1.271641227241230299e+00
-7.263257094414687920e-02
9.918491497291419545e-01
1.573060073862189157e+00
1.604813268837486984e+00
1.302662618306214437e+00
9.778734652721187137e-01
8.196150809632932743e-01
8.080264104664864888e-01
8.007862601029521743e-01
6.942032596671837696e-01
5.151027797319673862e-01
3.789499148079614743e-01
3.718298785049705124e-01
4.698890762506289787e-01
5.604675104065952596e-01
5.324832396461272044e-01
3.516327959272700920e-01
6.675478495128578382e-02
-2.364623501514612203e-01
-4.819492957440900671e-01
-6.210676461688571237e-01
-6.363945179364332017e-01
-5.539191690614363450e-01
-4.520381875776615654e-01
-4.298623937184297694e-01
-5.265512420730673604e-01
-6.500055834520626075e-01
-6.025742744980788768e-01
-2.288722786443999624e-01
4.079662601633278207e-01
9.805152752976883379e-01
1.068655041180517351e+00
4.610766923614117996e-01
-6.351986006198524493e-01
-1.663325301621876973e+00
-2.049089101537493463e+00
-1.572175237820301774e+00
-5.060716470760048269e-01
5.761286653948869407e-01
1.183071100336522408e+00
1.194498504414534201e+00
8.658979675999656234e-01
5.812722657647109159e-01
5.654766555913819381e-01
7.659158098328204822e-01
9.549466724828632458e-01
9.335104919378246491e-01
6.667839475386616588e-01
2.703495811840189722e-01
-1.045352628064921685e-01
-3.754315803577282784e-01
-5.497051875560079459e-01
-6.725133255150974598e-01
-7.643373827034893875e-01
-7.993615736363384183e-01
-7.297497079167694078e-01
-5.270002848679018470e-01
-2.106372641361636266e-01
1.480022385375259208e-01
4.458709154241924377e-01
5.869652292819488304e-01
5.284142757739567209e-01
3.104557205063117609e-01
4.291923521833179711e-02
-1.576646306154622090e-01
-2.454146001869045302e-01
-2.762533505975365289e-01
-3.551751376130397597e-01
-5.283115776382509843e-01
-7.068921797609252211e-01
-7.025020197166416125e-01
-3.701786010874396626e-01
2.423306360822584660e-01
8.683092799546910934e-01
1.167322197307454790e+00
9.549160717928910636e-01
3.482012691620850475e-01
-2.933033735014900500e-01
-6.021208199530678762e-01
-4.463866699960920559e-01
-4.414605477982336268e-03
3.813715089088577370e-01
4.563989585693599693e-01
2.220546261534893373e-01
-9.688615388316171306e-02
-2.441564422604911300e-01
-1.258677651067809655e-01
1.378643009796108876e-01
3.260439446130101726e-01
2.908314051951177426e-01
5.558252155557619201e-02
-2.249193258691015718e-01
-3.918189802869911365e-01
-3.892397929588342076e-01
-2.765283669546206857e-01
-1.558892266520409686e-01
-8.756989868291378820e-02
-5.960106094005815369e-02
-2.285373881411417729e-02
5.139411369970800503e-02
1.432117766299325634e-01
2.030045908368558472e-01
1.944428105537022167e-01
1.236784782453223819e-01
3.497199637515012449e-02
-1.873853243245782174e-02
-7.146207320917488670e-03
6.177022648178029374e-02
1.451120080738664275e-01
1.823494935973303255e-01
1.212696698923069055e-01
-5.270494716402601698e-02
-2.951416360702805441e-01
-5.068960703809308743e-01
-5.756700386597949359e-01
-4.427845082672048349e-01
-1.558603299844457113e-01
1.372643719868096301e-01
2.667277313650555648e-01
1.511228584305596423e-01
-1.348064748433103754e-01
-3.928174684946549311e-01
-4.244237138192162306e-01
-1.642436708178736660e-01
2.737589049660466567e-01
6.760075581273450318e-01
8.793317000186819943e-01
8.780199471794363220e-01
8.038946083334306270e-01
7.940533240107159330e-01
8.533106120713209730e-01
8.286978207350348402e-01
5.279667881189125112e-01
-1.037329999370255607e-01
-8.914541432011393596e-01
-1.510137523585544983e+00
-1.694024974045200915e+00
-1.425821316277602779e+00
-9.573902905332747348e-01
-6.318368728926762046e-01
-6.277852234812317800e-01
-8.156098889449844291e-01
-8.429910317615771920e-01
-3.996761951600861229e-01
5.280235914534032737e-01
1.604435194724060043e+00
2.340871713440418667e+00
2.403855313035657915e+00
1.814280978659287502e+00
9.008336048937165552e-01
5.822647768228117471e-02
-4.969829881999645593e-01
-7.951276541263667674e-01
-9.838631838700703236e-01
-1.140136974574329942e+00
-1.197535183114083246e+00
-1.044217051408018460e+00
-6.840329764469852414e-01
-2.928777160704989502e-01
-9.853357872741486112e-02
-1.794162551791732563e-01
-3.646092764742255854e-01
-3.420643196215953363e-01
9.503054215160955387e-02
8.593382091650290100e-01
1.596999427516630821e+00
1.919959779542761202e+00
1.668108451699636063e+00
1.005189275197857279e+00
2.863227013610112337e-01
-1.900371214412321375e-01
-3.571267570041094519e-01
-3.674088022499307216e-01
-4.298747919509149362e-01
-6.386043871062500044e-01
-9.180650722259068308e-01
-1.104376521967624702e+00
-1.079610511038747056e+00
-8.533819427900211085e-01
-5.439708858266334435e-01
-2.907270864866999260e-01
-1.684868671174951649e-01
-1.561136642124636986e-01
-1.645020437372126387e-01
-9.492247694727259932e-02
1.065345020625350636e-01
4.195626524296479642e-01
7.533591108955658422e-01
9.834849150341237189e-01
1.011501487495775509e+00
8.212751328660286010e-01
4.967707932839069973e-01
1.806377689861022318e-01
-9.013277326401392120e-03
-5.018159184431830733e-02
-2.286002488943117417e-02
-3.955900747926222039e-02
-1.501815924808560521e-01
-2.961600035101691342e-01
-3.536076607176783515e-01
-2.338956465545630192e-01
3.880658367339911985e-02
3.362876521078415615e-01
5.134549212399039941e-01
5.015205702469605065e-01
3.336659270075952310e-01
9.241402047412985987e-02
-1.632154361319314018e-01
-4.216052347155792024e-01
-6.802254178215623170e-01
-8.988431263747016509e-01
-1.007767345801559244e+00
-9.741220452199399471e-01
-8.573801055015500827e-01
-7.790258050307055093e-01
-8.076898650976387373e-01
-8.543369420342223908e-01
-6.892164715006763309e-01
-1.025245472652209777e-01
8.976021105924147925e-01
2.010032182584760463e+00
2.771267702682225664e+00
2.820161863129681645e+00
2.117746364908337675e+00
9.708193259418443910e-01
-1.514672201467828216e-01
-8.767205961602412279e-01
-1.095355311323747305e+00
-9.485068524770758902e-01
-6.811986623043980726e-01
-4.795951621598418813e-01
-3.924266491465904227e-01
-3.586973822292583991e-01
-2.938604172044645413e-01
-1.665130103776817361e-01
-2.224800089402340086e-02
4.956295476351030294e-02
-1.988352904517209918e-02
-2.234438116062768265e-01
-4.684990137730886683e-01
-6.264866877090639052e-01
-6.152618594201069158e-01
-4.564558869128053642e-01
-2.577553817343787856e-01
-1.245537554323031260e-01
-6.965645719906569944e-02
-4.258842516411232015e-03
1.685465791899877774e-01
4.323300342979318756e-01
6.260186154011851967e-01
5.583580844581282898e-01
1.942648448513717430e-01
-2.466639733716771143e-01
-3.928447496694865704e-01
1.970524649594029842e-02
9.181987389773644814e-01
1.882103219908052072e+00
2.381785783172271298e+00
2.106035134890233085e+00
1.147291105812362932e+00
-7.687153587050121750e-02
-1.089814607662548562e+00
-1.609843158003485541e+00
-1.634451770839820961e+00
-1.350367320060595455e+00
-9.878423544790173594e-01
-7.332052014288443775e-01
-7.125077477371742907e-01
-9.784536060117139389e-01
-1.455662018060453367e+00
-1.892752624624461255e+00
-1.920834931225214426e+00
-1.251572943115035752e+00
9.028729383089695304e-02
1.683805275631842679e+00
2.887583893575479621e+00
3.195935036199487378e+00
2.544672710857838194e+00
1.350655711652315460e+00
2.504904506743035331e-01
-2.848340098307670099e-01
-2.013847756598140526e-01
1.731608839868172822e-01
3.999214457502852649e-01
2.308940327932298420e-01
-2.578249607180833625e-01
-7.648147691339703957e-01
-9.957319818833972880e-01
-8.572446407511197242e-01
-4.908398464994212507e-01
-1.477955406549059103e-01
-1.078082427362225815e-02
-8.779231414453961269e-02
-2.390498437438528245e-01
-3.007405917124503225e-01
-2.083896247990980610e-01
-3.374479171865646387e-02
8.201709159051018272e-02
4.111439281448250882e-02
-1.379714646071106554e-01
-3.383057712214940782e-01
-4.337889195135611331e-01
-3.790277089338625616e-01
-2.328273359498945760e-01
-1.022928653786705500e-01
-5.528742439909066497e-02
-6.999866886741608341e-02
-5.773126759784369399e-02
6.307053143248317340e-02
3.009308464199680344e-01
5.823007206247834411e-01
8.012753770683789245e-01
8.860468197008705138e-01
8.327073994619618169e-01
6.883837655923603638e-01
5.070307081641192148e-01
3.182720989826716140e-01
1.309650093756167255e-01
-4.184572600933286757e-02
-1.689065277129582487e-01
-2.164338482674565134e-01
-1.799350101294084625e-01
-9.908727386655402647e-02
-3.601417439696019684e-02
-3.255587773927129391e-02
-8.551545489371231712e-02
-1.652525707442175640e-01
-2.615385841034852388e-01
-4.094369404112810917e-01
-6.600092236546093449e-01
-1.010557999244047656e+00
-1.354033704576436570e+00
-1.503659613230098113e+00
-1.293670266484791664e+00
-6.938644150014603440e-01
1.421657737330130900e-01
9.319128557991442907e-01
1.389837262224937753e+00
1.352061669821140955e+00
8.410678545172217691e-01
5.579532541978671212e-02
-6.942490749260679106e-01
-1.087947803125102864e+00
-9.074091849683391109e-01
-1.411582832580540181e-01
9.742477678513654649e-01
2.023220082096107042e+00
2.589137148147787393e+00
2.461281785506098885e+00
1.747408074455228943e+00
8.100019248410571526e-01
5.464098147388724014e-02
-2.990330019871717537e-01
-3.179799199989943315e-01
-2.690106768174161944e-01
-4.123509140542157003e-01
-8.198199296691974780e-01
-1.337436539095266053e+00
-1.708788247501446200e+00
-1.766536351972265884e+00
-1.556522180782430320e+00
-1.306770255265101044e+00
-1.259237919058698640e+00
-1.477711512564388041e+00
-1.768578937983294352e+00
-1.782773077690724239e+00
-1.245735802796791081e+00
-1.665651407870509804e-01
1.122225013631256596e+00
2.136906646103563734e+00
2.524170895427326755e+00
2.267890362454792363e+00
1.682018618929992160e+00
1.195782924728397090e+00
1.079365087475214979e+00
1.294432117176994801e+00
1.559747615455657987e+00
1.569517216113924141e+00
1.202906309920454220e+00
5.843328175514347356e-01
-2.873696515898316317e-02
-4.320458189799353810e-01
-5.966628900876400632e-01
-6.508627851007813270e-01
-7.548953362113841603e-01
-9.749999215795330798e-01
-1.250634649236172624e+00
-1.467506462167548209e+00
-1.564672465566795179e+00
-1.581350894452026257e+00
-1.603595941347343956e+00
-1.658147653589776782e+00
-1.649949910423704091e+00
-1.408979833076463573e+00
-8.225473041208448688e-01
4.770440295616706905e-02
9.635927967325634835e-01
1.638177375088095689e+00
1.905996744630307882e+00
1.811229601970541836e+00
1.551116572182686060e+00
1.323845975254996699e+00
1.199965313720948945e+00
1.107658863294091578e+00
9.234174024185406449e-01
5.787186308108327459e-01
9.820528777671078124e-02
-4.379052099225730910e-01
-9.444027112885653441e-01
-1.336811346584458438e+00
-1.503835082271759216e+00
-1.313809534760088438e+00
-6.977782104060686885e-01
2.373585986314863394e-01
1.176694376984125823e+00
1.719884623196899165e+00
1.608439195360180207e+00
9.018216848623671344e-01
-3.995595239626625883e-02
-7.731937069467976764e-01
-1.039686899261773823e+00
-8.982292996899610138e-01
-6.334823238211577667e-01
-5.251431898819677313e-01
-6.559655167811830889e-01
-8.896422698211654545e-01
-1.007858148180040603e+00
-8.805138946928903199e-01
-5.409811388988952086e-01
-1.339787455700942598e-01
1.953683310575909382e-01
3.783855418380027147e-01
4.277683636512739640e-01
4.009334085971174577e-01
3.694728284709694055e-01
4.066597939968029651e-01
5.687981595229109066e-01
8.553324285397259086e-01
1.175601833978941801e+00
1.371331555393575430e+00
1.306125133856944398e+00
9.639057470099463565e-01
4.689715295446142962e-01
-5.509723404274913250e-03
-3.731592832319400310e-01
-6.926159681911550070e-01
-1.081800550319423904e+00
-1.550979215823307111e+00
-1.908045581605395613e+00
-1.849004685526656644e+00
-1.193640469817428329e+00
-8.604511038260120870e-02
1.019882011237603026e+00
1.613617634773993004e+00
1.451787444132456750e+00
7.160651721983215534e-01
-1.140918351309902490e-01
-5.806904959486062223e-01
-5.262815173461599105e-01
-1.424562659052810432e-01
2.206522016412814646e-01
3.190553833836147768e-01
1.561394837637602173e-01
-7.895367300983496817e-02
-1.935981821450550311e-01
-1.364342425102402778e-01
-2.374247891979146263e-03
7.886606029543528906e-02
6.019712423039101645e-02
3.445759863379416199e-03
5.992907949514930666e-03
1.021736450802417651e-01
2.261742882682163669e-01
2.642949576911069465e-01
1.495392749199538074e-01
-7.908846007108583098e-02
-2.979558212671903350e-01
-3.826399301987803980e-01
-2.917103151432477448e-01
-9.246463053063200266e-02
8.536057319861495296e-02
1.333795277919308520e-01
3.049338521702621430e-02
-1.484908849244836460e-01
-2.830711172745891679e-01
-2.823072044126434532e-01
-1.382745856578801724e-01
7.415823395858314737e-02
2.492600042925559867e-01
3.191719901185288144e-01
2.933253421300489050e-01
2.420828414285694508e-01
2.375053217362979308e-01
2.958739245995670730e-01
3.657708262911983366e-01
3.703567691286515084e-01
2.692422834065199000e-01
8.946906290543121809e-02
-9.857052128723706175e-02
-2.369458361957093029e-01
-3.170887881176947531e-01
-3.658387977068946473e-01
-3.982077461131300344e-01
-3.889111306986576255e-01
-2.984533541571743887e-01
-1.332122629645044742e-01
2.479766850256243105e-02
6.572186364889104349e-02
-4.801326511049719414e-02
-2.190754470296906731e-01
-2.682026010316713727e-01
-8.655659326475728665e-02
2.315432533833718665e-01
4.078261404543764290e-01
1.753817072788043108e-01
-4.794908501157799652e-01
-1.226672918772478305e+00
-1.558656955854478499e+00
-1.124428401064365701e+00
4.143252613523884520e-03
1.337873688194276323e+00
2.258287477400106713e+00
2.389324672830259289e+00
1.794594526299948978e+00
8.782053211094609235e-01
8.775826667461611441e-02
-3.511028463123178622e-01
-4.920747148205579791e-01
-5.201904397623549059e-01
-5.545769909520661400e-01
-5.687459777127006344e-01
-4.714662597459804982e-01
-2.484245363154615194e-01
-2.178901821952372586e-02
3.205203031557452009e-02
-1.643323329411181533e-01
-5.023419891956322214e-01
-7.516901378170446346e-01
-7.360942804084391611e-01
-4.833283821996831042e-01
-2.228763899547393512e-01
-2.169470802976585788e-01
-5.414977529757205588e-01
-9.832546806214015334e-01
-1.145165068108109807e+00
-7.053303372255137482e-01
3.414661879415761270e-01
1.629545814717228591e+00
2.604502187614064823e+00
2.832760289588256875e+00
2.243453696468449721e+00
1.151738273713248439e+00
5.527616480830987999e-02
-6.601707021763070227e-01
-9.182259622413727618e-01
-9.349530471113144392e-01
-1.012933522816705789e+00
-1.293889385318503171e+00
-1.640638298156993358e+00
-1.729328379853544373e+00
-1.288561228548466220e+00
-3.192741265668126438e-01
8.603693604272240059e-01
1.781400007388429740e+00
2.091579308843155793e+00
1.745015884995370303e+00
9.938751581019702463e-01
2.044326124571870240e-01
-3.619661149283680546e-01
-6.544107378973215150e-01
-7.762694341623374017e-01
-8.430579238576231260e-01
-8.801798774775042578e-01
-8.322172066673314550e-01
-6.521318836110214789e-01
-3.754771464552049132e-01
-1.091102400463802580e-01
5.331994576749615744e-02
1.108538868558703316e-01
1.571292926709914606e-01
3.002950288939939538e-01
5.662597604662579220e-01
8.638745959710405486e-01
1.039644818465435661e+00
9.793044053856677644e-01
6.809894898661703611e-01
2.516803028871605896e-01
-1.620290729772868588e-01
-4.546749068861315468e-01
-6.022368318767498119e-01
-6.472911558655500830e-01
-6.521978796616431096e-01
-6.557180748887017074e-01
-6.549545777644654176e-01
-6.139270840725519207e-01
-4.884091119122545566e-01
-2.550567511846077440e-01
6.626259567661707539e-02
4.080094525632558256e-01
6.754671971468950709e-01
7.870585538179351026e-01
7.144491963277640467e-01
4.978060780892988313e-01
2.248516126977897489e-01
-1.397225777996721763e-02
-1.657921809341337815e-01
-2.271073695085501221e-01
-2.247751910289420840e-01
-1.853127830135890830e-01
-1.167153403957045948e-01
-1.346601938286309808e-02
1.242828584523498203e-01
2.764686263541383804e-01
4.068147195177680420e-01
4.814933930357708780e-01
4.869216141007349785e-01
4.307764132769985599e-01
3.233220622060787863e-01
1.535407674452314297e-01
-1.162632281730036077e-01
-5.220733135987949414e-01
-1.045464935309779353e+00
-1.572671308693004422e+00
-1.907749127648456611e+00
-1.854596044348369777e+00
-1.332217420899224125e+00
-4.499737509219818854e-01
5.195627557505511085e-01
1.269564727085445988e+00
1.614981339182755438e+00
1.574093136594568509e+00
1.322194629375841313e+00
1.055129505357435216e+00
8.641327920956949349e-01
7.086756581750897066e-01
4.933772389945287329e-01
1.752015331926169428e-01
-1.880288088870377683e-01
-4.799651493761665222e-01
-6.147366921008621254e-01
-5.965156380451746010e-01
-5.066732293459377257e-01
-4.382514680407111896e-01
-4.345518956579826897e-01
-4.743938221334021987e-01
-5.021743978702407629e-01
-4.687165692880634893e-01
-3.525620091297529957e-01
-1.584411168313623608e-01
9.030880718135203544e-02
3.526924369342432364e-01
5.697500612173415080e-01
6.772319646929485515e-01
6.341367729429913114e-01
4.502178386298846258e-01
1.889133944186631719e-01
-6.224815799971655794e-02
-2.364556214996139383e-01
-3.176714244018548072e-01
-3.370592889164386041e-01
-3.419691667493184317e-01
-3.617475103274869763e-01
-3.925182632020139950e-01
-4.056371855349635291e-01
-3.681471880372135241e-01
-2.604079915624073482e-01
-8.443827179669619043e-02
1.348046977376791133e-01
3.522716593387394401e-01
5.117783495065832966e-01
5.644810121066080599e-01
4.930724314855147172e-01
3.275880379590565550e-01
1.371593106224214542e-01
-4.353706021074099652e-03
-5.976771903758448801e-02
-4.705378479779578904e-02
-1.757464316227255741e-02
-7.595076444419812667e-03
-1.882541765022255342e-03
5.616285199520915095e-02
2.095222025799746701e-01
4.304520317425738485e-01
6.135644519862862856e-01
6.355265279116100174e-01
4.418905738203467992e-01
9.295587761742729604e-02
-2.720109483238732917e-01
-5.279623020909912645e-01
-6.419725957073647571e-01
-6.746340910636031696e-01
-7.079127130483280350e-01
-7.647963009827571934e-01
-7.915448073951611985e-01
-7.161277358214032107e-01
-5.269909844821593081e-01
-2.973646033337830064e-01
-1.300937426461014623e-01
-7.212108519591145517e-02
-7.812816542231322547e-02
-5.943213975863653048e-02
2.564113405556753267e-02
1.269278557369534766e-01
1.537615842983772740e-01
8.529777084918221952e-02
4.064345108810579754e-02
2.316257678937150288e-01
8.132317310349679307e-01
1.733524946370683661e+00
2.694354118223313499e+00
3.260063411797237798e+00
3.055118225268800281e+00
1.945068459179855491e+00
1.198987283195398490e-01
-1.943169448583907055e+00
-3.618406280803863506e+00
-4.338005430557286601e+00
-3.817649149603185688e+00
-2.220142379198958515e+00
-1.548048678597755412e-01
1.545764459178319283e+00
2.208365085574869546e+00
1.668303284543345644e+00
3.648413843244164845e-01
-9.065368555556705399e-01
-1.454593093694863448e+00
-1.081698010825482115e+00
-1.551005426940629262e-01
6.746183561568561693e-01
9.058115363533558728e-01
4.774535277053686411e-01
-2.533698950450630205e-01
-7.939816717968500859e-01
-8.381414995916973698e-01
-4.136939275073938660e-01
2.055834148268704809e-01
7.168897599028977163e-01
9.647084204223903559e-01
9.751092196674648882e-01
8.689675724071008744e-01
7.509743151190260146e-01
6.568041286589292316e-01
5.706735824628923481e-01
4.690652463452776311e-01
3.441999710876489926e-01
1.981079732968991369e-01
3.017274969724614841e-02
-1.606074035703615732e-01
-3.621834022546424614e-01
-5.446026332668285619e-01
-6.736486918309685379e-01
-7.304221227712754949e-01
-7.165449629838980261e-01
-6.415608557376607513e-01
-5.114231281916643557e-01
-3.370369282016268397e-01
-1.556020684975993884e-01
-3.304293527868334968e-02
-2.565464193938998827e-02
-1.224367134870778251e-01
-2.251020153465214391e-01
-2.058408541301364469e-01
-1.499661111877220732e-02
2.505779449629482181e-01
3.965234861799536992e-01
2.837290134728743807e-01
-3.008427698012600127e-02
-2.909103440529266504e-01
-2.213369001531580449e-01
2.495984961951259740e-01
8.820295409716765178e-01
1.249144505399617522e+00
1.018992147114110569e+00
1.949403510711076315e-01
-8.616360822794648655e-01
-1.643556669728351682e+00
-1.793005708570053036e+00
-1.280347367224392574e+00
-3.690936147989802851e-01
5.719439236715936348e-01
1.260291937508164040e+00
1.583096641493371148e+00
1.567735387556262516e+00
1.312724459896413842e+00
9.434751570368670182e-01
5.951804288856181735e-01
3.845531646795766756e-01
3.541608172529212561e-01
4.270477913115293678e-01
4.293511378271335222e-01
1.933411607572486091e-01
-3.204712163640168754e-01
-9.752097215211933401e-01
-1.529711753358316662e+00
-1.785911499714562201e+00
-1.706939757381380041e+00
-1.423358430250958540e+00
-1.130094868184795320e+00
-9.553568035544459658e-01
-8.947242369531571704e-01
-8.458424864328716319e-01
-7.030552501046033465e-01
-4.358460707176551319e-01
-9.982369629141610301e-02
2.143229885855884864e-01
4.466833354004621226e-01
6.011132141067134782e-01
7.295664216756450049e-01
8.869305982171633573e-01
1.090140600726660969e+00
1.306365259642956467e+00
1.474353261566616169e+00
1.544104330302765060e+00
1.510397624611421685e+00
1.418079458581063435e+00
1.331890637220392470e+00
1.286707272801462798e+00
1.252506961962553955e+00
1.145378937168247457e+00
8.856383930125364401e-01
4.639391755553715635e-01
-4.021685164474744778e-02
-5.135423627856152695e-01
-9.025275062085770239e-01
-1.266824800205543333e+00
-1.732676401642834874e+00
-2.365182514154622773e+00
-3.057344215580048541e+00
-3.541455828167770381e+00
-3.543639586597603142e+00
-2.983412205436144049e+00
-2.064949886614471541e+00
-1.171520263684181939e+00
-6.200311637142492671e-01
-4.474635030144358261e-01
-3.896237900840356372e-01
-7.611389636595594643e-02
6.948966473409632361e-01
1.799400548322766413e+00
2.859377398737638742e+00
3.488696022977970657e+00
3.536224358388502687e+00
3.159809895693970638e+00
2.693049978599581173e+00
2.412801656717540766e+00
2.373521557812126481e+00
2.410932883258252613e+00
2.288706475403766483e+00
1.866176603373014053e+00
1.168176311915030796e+00
3.275167889628940454e-01
-5.292853825816991042e-01
-1.350141187833477030e+00
-2.132346623423281073e+00
-2.848749649651795224e+00
-3.414653786620472253e+00
-3.742157352784033719e+00
-3.834897507274154904e+00
-3.819197387320298454e+00
-3.849210810773705749e+00
-3.939002920333651403e+00
-3.864529433175603934e+00
-3.252610195718790731e+00
-1.835114884179488426e+00
2.996986979721429911e-01
2.654789936655657989e+00
4.539463306049672298e+00
5.427737131461513265e+00
5.226516450701859107e+00
4.281250559520271004e+00
3.131186116851043977e+00
2.192964470044191927e+00
1.579581953122871640e+00
1.143883376835834964e+00
6.730305333501567233e-01
7.428685841109872179e-02
-5.691155389581825652e-01
-1.080238300831332543e+00
-1.323043888196977269e+00
-1.288754737061089894e+00
-1.088339394759804568e+00
-8.752624005933228313e-01
-7.581466258194826668e-01
-7.534362664211975424e-01
-7.947982182415735952e-01
-7.850652308589063377e-01
-6.601621075485670787e-01
-4.321859727921830707e-01
-1.883259687444850394e-01
-4.309761739886630583e-02
-6.823786082720695312e-02
-2.428765105902864208e-01
-4.597851343139442992e-01
-5.893451145115073952e-01
-5.614931718172098130e-01
-4.084472699164226617e-01
-2.350406829473850046e-01
-1.355095946429062392e-01
-1.177395032546386389e-01
-9.424840495862196743e-02
4.863098366816259732e-02
3.518133399065391798e-01
7.296027909387859944e-01
1.006641288469559470e+00
1.026412432873515801e+00
7.585154391372733729e-01
3.294734891071678939e-01
-4.701578550437945925e-02
-1.958370773797002418e-01
-7.964500282766451278e-02
1.924758407416478634e-01
4.489628804494326109e-01
5.719552456256988826e-01
5.649338614469919806e-01
5.268190624504461850e-01
5.550438521178526763e-01
6.520955857697356972e-01
7.083161042712906585e-01
5.775438634482836786e-01
1.913765120618105553e-01
-3.741055318277867192e-01
-9.319513044981732053e-01
-1.295941959270995536e+00
-1.388680384177338523e+00
-1.268473871479935067e+00
-1.061551841563421528e+00
-8.594518340809723655e-01
-6.648821010133896259e-01
-4.249483917974365976e-01
-1.158481560801294385e-01
1.999998261827820589e-01
3.994631390475308352e-01
3.907996931093852266e-01
1.968607546424652188e-01
-4.403836458889830163e-02
-1.690231635255698972e-01
-1.070742605264033143e-01
7.113147916882628374e-02
2.141183208766378743e-01
2.184346080303120607e-01
1.246645182671360097e-01
9.949941242995230528e-02
3.085911601445305297e-01
7.719360761775857505e-01
1.312842195117595701e+00
1.645770551974400142e+00
1.547037370838317605e+00
9.929704621803401299e-01
1.760459899620308022e-01
-6.032034005432120871e-01
-1.090872653990368368e+00
-1.186772832477629214e+00
-9.572939409089890050e-01
-5.723103986178581515e-01
-2.177588227707966118e-01
-2.585450329592275942e-02
-3.790684984209324870e-02
-1.998181029778063889e-01
-3.911878226149200777e-01
-4.862280177649278556e-01
-4.252982140989052806e-01
-2.540936177973983634e-01
-9.344322840536350983e-02
-4.752710828184616987e-02
-1.131594589367561077e-01
-1.671278802522750406e-01
-5.714667275542906211e-02
2.634954425587561211e-01
6.663453938033553348e-01
9.136705268038829431e-01
8.246452421168566360e-01
4.169497904517615039e-01
-9.461111279526768225e-02
-4.525388007851065542e-01
-5.467542129878206758e-01
-4.843341336609914283e-01
-4.742313330139381611e-01
-6.166770352584828307e-01
-7.769803492892379815e-01
-6.664056874010944043e-01
-8.513202570555011839e-02
8.623071826081847302e-01
1.765857017368943183e+00
2.150646808846047087e+00
1.793438695343472444e+00
8.780757573307205188e-01
-1.308094514509012818e-01
-8.016536166267126395e-01
-1.000605577684967828e+00
-9.148066536006144167e-01
-8.369771287188778608e-01
-8.998928893548351349e-01
-9.771364187117379529e-01
-8.196254843107150245e-01
-3.022004581496279263e-01
4.288026148922934322e-01
1.026734101232495533e+00
1.175206044348996892e+00
7.989313369151583855e-01
1.038830781061597097e-01
-5.656239711289988703e-01
-9.355162496424943575e-01
-9.326795261774409873e-01
-6.721406959660940483e-01
-3.402701687494071314e-01
-6.813853956257712174e-02
1.280040418749184283e-01
