8.819972077910076536e-03
-1.098405268669231605e+00
-1.879669292238595579e+00
-2.176470959193019361e+00
-2.048632308843937988e+00
-1.687684696825031860e+00
-1.281595733065515885e+00
-9.386595168256328670e-01
-7.014960874455922202e-01
-5.911051880246045442e-01
-6.066397134760415089e-01
-6.780719790334390762e-01
-6.454743930243227457e-01
-3.322024261737190898e-01
3.137040103388204493e-01
1.125315465292753947e+00
1.774435713875063492e+00
1.968188032689264455e+00
1.646402391222453909e+00
1.024605949811009165e+00
4.430002227344801424e-01
1.358144379854517303e-01
9.700525657538239255e-02
1.357695981158111298e-01
6.076120395369966065e-02
-1.642396550377147046e-01
-4.127324211522103159e-01
-5.243260429906458908e-01
-4.485853194981309633e-01
-2.823059652649591023e-01
-1.784548123992200919e-01
-2.137853977894242641e-01
-3.295116464227795250e-01
-3.898887919249027778e-01
-3.024213941030692299e-01
-9.627591125580836628e-02
1.033037138057446014e-01
1.775710982886897216e-01
1.058685306244868674e-01
-2.687764727497742034e-02
-1.064807366204223726e-01
-8.109283958095796219e-02
8.030735783782549930e-03
7.664614411271254701e-02
7.852252600230491542e-02
4.305407911603764681e-02
3.675407955376677749e-02
8.688789050156860150e-02
1.429955774009498137e-01
1.200303298244097816e-01
-1.035193480260956922e-02
-1.679939162510736550e-01
-2.158808695862282634e-01
-8.817754713780509568e-02
1.151007056648580273e-01
1.704750778143765411e-01
-9.200078875324513294e-02
-6.059978188596439885e-01
-1.043741469837482505e+00
-1.007086155586428333e+00
-3.199233102799636796e-01
7.949691463811661141e-01
1.806704229940140571e+00
2.192773142067800940e+00
1.765183884549976323e+00
7.766714562955266965e-01
-2.612780868788805444e-01
-9.072386294249134009e-01
-1.029527829888525092e+00
-8.076181192139406662e-01
-5.343719145743028864e-01
-3.945200526416475229e-01
-3.809587083945447650e-01
-3.768051470148698900e-01
-2.988862358778509032e-01
-1.715190498483586679e-01
-8.307879142418664320e-02
-8.646783094502825950e-02
-1.441453164573143209e-01
-1.651321408028129101e-01
-9.290051141132153745e-02
4.011134431491104879e-02
1.405356292205986457e-01
1.380083660634426335e-01
5.060414081102913852e-02
-2.364645023414529978e-02
1.966655815888668224e-02
2.133489761808169405e-01
4.948174573163346968e-01
7.470771043988704285e-01
8.663025942132268620e-01
8.078534074308609814e-01
5.914292535829646091e-01
2.802586863081166779e-01
-4.265629425766570559e-02
-2.952849786223040174e-01
-4.226263726132455378e-01
-4.265256133674926176e-01
-3.751543310313215640e-01
-3.663686310875461927e-01
-4.545571615715527924e-01
-5.958641457467108715e-01
-6.710048603379351606e-01
-5.868134117462480148e-01
-3.785929839260460117e-01
-2.119987726809752782e-01
-2.550089881075060516e-01
-5.095694377527840713e-01
-7.526857172244041383e-01
-6.678670589903242805e-01
-9.076941141012784264e-02
8.215343692307486290e-01
1.650081653595473874e+00
1.980035727807513357e+00
1.679810173211435220e+00
9.802121596568218465e-01
2.954954867085198833e-01
-6.906269076618704039e-02
-9.705237942327171741e-02
-6.185010307184296563e-03
-3.118988547569162550e-02
-2.351213474106954582e-01
-4.914190634037603478e-01
-6.213486072855841647e-01
-5.489074495191785807e-01
-3.458513281387943783e-01
-1.541481756007657133e-01
-7.635425329847678189e-02
-1.281058103716668506e-01
-2.670417808359646372e-01
-4.402154460346018872e-01
-5.967351708318698877e-01
-6.750342507486475352e-01
-6.151512590981805806e-01
-4.143904782328896585e-01
-1.740772465354336607e-01
-6.141687785433100344e-02
-1.778492886685589802e-01
-4.304284491572344384e-01
-5.377348482189709955e-01
-2.107173849532714693e-01
6.053656358778733981e-01
1.622141414179953500e+00
2.346083217715282832e+00
2.386734699498430423e+00
1.714787626182354474e+00
6.780101213574806218e-01
-2.338400500624177036e-01
-6.957981986088519477e-01
-7.061673842339291074e-01
-5.081043252506063368e-01
-3.704514240333308672e-01
-4.095108261567810271e-01
-5.654974049087454491e-01
-7.054075320467206867e-01
-7.370560346509749117e-01
-6.473828741357551264e-01
-4.707364277649203621e-01
-2.509492443515865534e-01
-3.778837739011803309e-02
1.034893772427166181e-01
1.136062606456101354e-01
-7.202047980990000653e-03
-1.699173463717806309e-01
-2.463255433162624686e-01
-1.783135336182525288e-01
-5.127587200223221453e-02
-4.304930295446302013e-02
-2.628440285842349455e-01
-6.080856127677002343e-01
-7.798650407702789611e-01
-4.800910993760674206e-01
3.441455516135676351e-01
1.403190406858001227e+00
2.208525750144926914e+00
2.367061580968709666e+00
1.817959190475294307e+00
8.498012373416364840e-01
-9.667673319865754955e-02
-6.862369732120635613e-01
-8.364037543030957700e-01
-6.922806208516907311e-01
-4.936585461983550860e-01
-4.424071408457335153e-01
-6.293891451074556942e-01
-1.013394779603675744e+00
-1.428985586112962558e+00
-1.630449788855155013e+00
-1.393141580403716384e+00
-6.515492110193802366e-01
4.094687639071452612e-01
1.400851142851979869e+00
1.920816445157447649e+00
1.783475365462498186e+00
1.128903704382542506e+00
3.322820465520412436e-01
-2.277698939392067690e-01
-3.830252781849464716e-01
-2.347814613557158148e-01
-3.936829970876863649e-02
-1.807529645503663795e-02
-2.219472914704946898e-01
-5.234307531749347042e-01
-7.175274430577420759e-01
-6.588774308079269337e-01
-3.576750084930632734e-01
1.333648754131988579e-02
2.089878719985498734e-01
6.322601382054049424e-02
-3.765442420437667970e-01
-8.266964896536899143e-01
-9.053215798842272344e-01
-3.764872567333888975e-01
6.511255231080301797e-01
1.726937058889602028e+00
2.297192825366039415e+00
2.041782287632185611e+00
1.081288503009718127e+00
-9.641894375676240969e-02
-9.430190417654485957e-01
-1.174828026475072340e+00
-8.948615698791578810e-01
-4.498426690684910745e-01
-1.556898530030984273e-01
-1.039787689623072886e-01
-1.727684994874567892e-01
-1.933799800235477817e-01
-1.130854983163802896e-01
-2.268605317725191917e-02
-4.739267519329612433e-02
-2.135046797534368990e-01
-4.118203061418768129e-01
-4.860566758660768150e-01
-3.659912725662566313e-01
-1.301304647703955264e-01
5.562351012178720633e-02
7.377117944641777003e-02
-4.481661846072329536e-02
-1.393570569229460043e-01
-4.593167359524863436e-02
2.634816351714647231e-01
6.394818552173739956e-01
8.505797995011680213e-01
7.505902376083466443e-01
3.928291663740798301e-01
-1.689767593169966275e-03
-2.072438426184601279e-01
-1.673935923897881262e-01
-4.044690377796403280e-02
-6.813109252982785247e-02
-3.591289337073625410e-01
-7.587082092694258373e-01
-9.232739779519140155e-01
-5.642936588691798150e-01
3.129859653478517245e-01
1.360126352324132259e+00
2.074565405851398925e+00
2.099483651906168813e+00
1.426797689415856052e+00
3.731143490421688913e-01
-6.332416460197900498e-01
-1.291854213574240351e+00
-1.542960336909912300e+00
-1.515749849332842292e+00
-1.391773404270151282e+00
-1.293064737555098986e+00
-1.247414041269826468e+00
-1.210074714532537010e+00
-1.097682470770800389e+00
-8.180230796531717807e-01
-3.086923821047408145e-01
4.113761023383466497e-01
1.208371768300496418e+00
1.861734912334716663e+00
2.161162513045933764e+00
2.020292861463095946e+00
1.528738077824673525e+00
9.014922773763467401e-01
3.584117539847450074e-01
1.567721585837333897e-02
-1.434624518781454361e-01
-2.142000258748835706e-01
-2.850922034895077561e-01
-3.850280106937084557e-01
-4.875728768611471420e-01
-5.514814001319007231e-01
-5.572867071376363945e-01
-5.155205464765639789e-01
-4.507072193278029992e-01
-3.813209176570219738e-01
-3.115179439378996662e-01
-2.363083861932172569e-01
-1.522376734224703543e-01
-6.544426986843643324e-02
6.700099295937456123e-03
4.098983961082949823e-02
1.977708972376812646e-02
-5.563932458745599052e-02
-1.576088458468953291e-01
-2.389152585791456951e-01
-2.545131204123333157e-01
-1.871253509706642670e-01
-5.915398341181136999e-02
7.989677084441133836e-02
1.840867708716196205e-01
2.387464426497656889e-01
2.649153005195421517e-01
2.972847804029232766e-01
3.528374449261651447e-01
4.145806249652222997e-01
4.427633760814925212e-01
4.045272100113436187e-01
2.992721630651095088e-01
1.613051240216114013e-01
3.898308862342309000e-02
-3.379955131085390918e-02
-5.417957513956214721e-02
-4.535827274275991416e-02
-3.553986937708272786e-02
-3.597935117556932266e-02
-3.290891808884696679e-02
8.775778598031358513e-04
8.119891265219109089e-02
1.901500176903944128e-01
2.731828825941988725e-01
2.630177738256366249e-01
1.204635341066102039e-01
-1.331785574155283647e-01
-4.183649834851587146e-01
-6.409720483454692808e-01
-7.533603754295732369e-01
-7.889524819897668628e-01
-8.375836398752498635e-01
-9.701881269113316053e-01
-1.165044875106567179e+00
-1.296599429364444944e+00
-1.206623573401321092e+00
-8.123118620967280101e-01
-1.695387263688877821e-01
5.617834367809367846e-01
1.225769870356420821e+00
1.763662086858089229e+00
2.211474874614272057e+00
2.601828926049016832e+00
2.857600770108484234e+00
2.783308868300836458e+00
2.186031550775047627e+00
1.047338508138573321e+00
-3.877929384755018916e-01
-1.690055610809979569e+00
-2.458297772441208728e+00
-2.531554004046264961e+00
-2.062694038085203463e+00
-1.408662034699636356e+00
-9.131864262822257938e-01
-7.222363342746722648e-01
-7.413029795923531395e-01
-7.451691522077641405e-01
-5.544550000370199738e-01
-1.595482821266615003e-01
2.832005280982277107e-01
5.700500504529324441e-01
5.963914622412018751e-01
4.303431393520246173e-01
2.647419924379765255e-01
2.819114328203852771e-01
5.244755753417403854e-01
8.608689138612204417e-01
1.069079897103909271e+00
9.812891937897592065e-01
5.917358969980988093e-01
5.817547045243043335e-02
-3.977471099342987371e-01
-6.189615481679873188e-01
-5.861619298294928893e-01
-3.987297105337203051e-01
-1.925851051795602897e-01
-5.944440591971748844e-02
-1.590074588498496810e-02
-2.491384188915029413e-02
-3.722433895366476092e-02
-1.957184873155187743e-02
3.925870760730956754e-02
1.326340169528431312e-01
2.384996247605846165e-01
3.216224643573083464e-01
3.445296151052245071e-01
2.873443373303170567e-01
1.625861388715875433e-01
9.531358657420718750e-03
-1.310695775935167562e-01
-2.420049005940274056e-01
-3.323768437469855064e-01
-4.155077690981918703e-01
-4.829574694226665965e-01
-5.007298971731211079e-01
-4.341329388490171581e-01
-2.807721105578672161e-01
-8.201121068437294825e-02
9.882460718470972849e-02
2.141503963606146421e-01
2.548428703728427003e-01
2.415673572489167864e-01
1.970938820418937643e-01
1.279864459304171920e-01
3.231506320393809362e-02
-7.777312837878169738e-02
-1.662434877832214553e-01
-1.919012639705340306e-01
-1.417959223034432059e-01
-4.695944679952079870e-02
3.918041925387159841e-02
8.481964862077182032e-02
1.069031928425012573e-01
1.532596951726175605e-01
2.520942412055938719e-01
3.750489919331816413e-01
4.532647258747484753e-01
4.392219832756144582e-01
3.601191954310629662e-01
3.068714885558279093e-01
3.554594075991239777e-01
4.825516899311435570e-01
5.548864653983351936e-01
4.177180400733574994e-01
2.163127642892059832e-02
-5.158054410379987464e-01
-9.725036087297610488e-01
-1.166781164044146779e+00
-1.072056199396324683e+00
-8.123876485871317499e-01
-5.512416234316711572e-01
-3.754180750638825836e-01
-2.720560135341873464e-01
-2.022284814246950446e-01
-1.791586570177318150e-01
-2.563188929739724231e-01
-4.278152636865729108e-01
-5.483931874471953405e-01
-3.850527278624913952e-01
2.020681915347586344e-01
1.087687185155898240e+00
1.883212984964317105e+00
2.153532951117913541e+00
1.709873530226440508e+00
7.585493318713956157e-01
-2.181436903450703069e-01
-7.696610679290467605e-01
-7.497843312152081552e-01
-3.625364366697629848e-01
3.011291175305615131e-02
1.727722797757811901e-01
5.370172700811121080e-02
-1.602798426665643927e-01
-2.987705629762923421e-01
-3.121386072937984979e-01
-2.591239457227527687e-01
-2.062104094273130295e-01
-1.563997550450366980e-01
-7.433927669309697839e-02
3.506720967835028069e-02
9.440862413890216409e-02
1.651918303635585561e-02
-1.955374204532531746e-01
-4.212570791412053595e-01
-5.169455382696460655e-01
-4.570544590595613244e-01
-3.826702786998312789e-01
-4.840977419592550346e-01
-7.969355222111798032e-01
-1.093098493943408744e+00
-9.949373167350958891e-01
-2.598278814840928597e-01
9.774975965058620986e-01
2.212530287800444917e+00
2.854727855559312744e+00
2.596684459575693715e+00
1.603376352697731377e+00
3.880864280856132220e-01
-5.250646335829081135e-01
-9.033086957137771433e-01
-8.708365944595672925e-01
-7.294833180197561884e-01
-7.032476728684087242e-01
-8.029029513839380794e-01
-8.832190583104126969e-01
-8.073535267578006991e-01
-5.683261683831302147e-01
-2.809783916925308045e-01
-7.713418655125109380e-02
-6.990454731434059266e-03
-2.368490729284172813e-02
-4.476650757525965640e-02
-2.310090377467299144e-02
3.272057083264320182e-02
9.163584612318437239e-02
1.423751024591917158e-01
2.017070734053983405e-01
2.869060724447754507e-01
3.873586128759265446e-01
4.680135813775664344e-01
5.020530473299454899e-01
4.985264774990870729e-01
4.940971096860271583e-01
5.133109938908024805e-01
5.350201235713171188e-01
5.009490106536060861e-01
3.648508963417047002e-01
1.403327695119103435e-01
-9.921915834179317883e-02
-2.755467722242650463e-01
-3.706724384047069831e-01
-4.420256662982345874e-01
-5.674474312785487973e-01
-7.653311137814042819e-01
-9.659366885266345015e-01
-1.070296014483471891e+00
-1.050223880820588152e+00
-9.914382590506195525e-01
-1.019195082639299255e+00
-1.152759084064524764e+00
-1.219873107935325329e+00
-9.374761687744143090e-01
-1.319999359185937138e-01
1.063636094049555947e+00
2.213467034228150165e+00
2.819506509957125040e+00
2.645464662134874523e+00
1.883849601765802850e+00
1.031208297730701773e+00
5.546140948151211392e-01
5.915679587815206864e-01
8.965361801151456866e-01
1.055241158817984637e+00
7.893127000769855073e-01
1.249277392196749270e-01
-6.734410951252272071e-01
-1.315769173461692532e+00
-1.664343433423637997e+00
-1.757978342059172583e+00
-1.708559651017155012e+00
-1.590564285791859822e+00
-1.417212188947013729e+00
-1.192736202611696772e+00
-9.570698993532833487e-01
-7.634196002653113045e-01
-6.162151597430218786e-01
-4.509809329893672558e-01
-1.986608318253734184e-01
1.185386642509820843e-01
3.654376820658836178e-01
3.977004669600213704e-01
2.205397488760169611e-01
5.552035786865017197e-02
2.223194741793291795e-01
8.952068977974678710e-01
1.918117340994563991e+00
2.841612444912682278e+00
3.182679325289232697e+00
2.731425864745344434e+00
1.683726635851944931e+00
5.059792252395636236e-01
-3.637784635413737755e-01
-7.618789491078190590e-01
-8.312888185074908121e-01
-8.477461630557221461e-01
-9.910724519022028334e-01
-1.228416963059576261e+00
-1.370954480622467830e+00
-1.236257668282516597e+00
-7.917814479713038978e-01
-1.935226948512753786e-01
2.838566603707892710e-01
3.713947981614409422e-01
-7.566061646809507657e-02
-1.002544391599228035e+00
-2.142144166179347664e+00
-3.078568750699286483e+00
-3.387876334622088592e+00
-2.819340934265802900e+00
-1.436185731078071015e+00
3.734979631697283864e-01
2.048806973495695516e+00
3.107100606719311653e+00
3.358890092949918582e+00
2.964585240347801687e+00
2.307046750505509003e+00
1.766275257197376991e+00
1.532444388319258666e+00
1.552064768524543226e+00
1.609703161310781061e+00
1.474236393459142702e+00
1.024784956590289564e+00
3.049343308678721387e-01
-5.041575798778656914e-01
-1.173730323853850788e+00
-1.544420390726354064e+00
-1.616736524922844476e+00
-1.557174622607677916e+00
-1.595782896173479237e+00
-1.861702160407479711e+00
-2.264608117716718549e+00
-2.521136313234215720e+00
-2.331595933557008671e+00
-1.594931101301053200e+00
-5.054793635377867744e-01
5.484371259722160552e-01
1.217962755538080977e+00
1.392746654639467341e+00
1.227579287185112999e+00
9.933804437296160916e-01
8.796110997778813223e-01
8.968668366369414446e-01
9.319230679594733280e-01
8.817615688988548195e-01
7.438409998372937926e-01
5.981091710967301189e-01
5.184514597409020098e-01
5.041469284178834442e-01
4.876358491971937159e-01
3.979620469046487030e-01
2.155105170864173303e-01
-2.370099986705020978e-02
-2.614428800922992124e-01
-4.482851571127389745e-01
-5.525739409180328021e-01
-5.621857559185603481e-01
-4.970113679271809248e-01
-4.192266622362570416e-01
-4.073608685475964553e-01
-4.877455298915671089e-01
-5.753211392889933107e-01
-4.995015281064437707e-01
-1.343386228443750330e-01
4.508402649848574084e-01
9.579548507887052367e-01
1.015664203646746699e+00
4.437043291220403862e-01
-5.677697617682513354e-01
-1.522634588756631491e+00
-1.910936271773073791e+00
-1.531987248799354440e+00
-6.161432731835094767e-01
3.411468189091756420e-01
9.061563555073164355e-01
9.569774146374461221e-01
6.940748114406527502e-01
4.385560785138868933e-01
3.935675423152461549e-01
5.412940523120257641e-01
7.171985259413445890e-01
7.655910020174554464e-01
6.438113997322849613e-01
4.146356071530690190e-01
1.674138848893259035e-01
-4.879402249838732386e-02
-2.321069415930973601e-01
-3.908986411026079133e-01
-5.111676895172536650e-01
-5.580865336944629274e-01
-5.031980651331373622e-01
-3.491794430763504042e-01
-1.341569844952381352e-01
8.202547744807153762e-02
2.383011701207957411e-01
2.927890036041364552e-01
2.400764465205915965e-01
1.175556178729632584e-01
-1.094222655935028765e-02
-9.474250571846661029e-02
-1.357803044633712763e-01
-1.914135831453800118e-01
-3.240314292578991839e-01
-5.271259854601073602e-01
-6.915232990065384167e-01
-6.585335631915616439e-01
-3.399644421590078958e-01
1.816819924919501617e-01
6.641486679533669113e-01
8.440192183662192926e-01
6.164576516373683202e-01
1.228732050672730058e-01
-3.298885399585705924e-01
-4.709619500609268927e-01
-2.442999983248270168e-01
1.655605670733059087e-01
4.767176771083136422e-01
5.110627016895480379e-01
3.034221928697002357e-01
4.648504605884395957e-02
-7.185211545326386506e-02
-5.889277523319857988e-03
1.360461760219301985e-01
1.986473049507467281e-01
1.081139011696698182e-01
-8.000712565552436928e-02
-2.397983563242672422e-01
-2.797972872565821501e-01
-2.050627337829673824e-01
-9.448841020542786406e-02
-2.524819117859283812e-02
-1.400947957535041144e-02
-2.016429412934792748e-02
1.929528350555834160e-03
5.419842882450336130e-02
9.241490494436134517e-02
6.833807810608368005e-02
-2.325309972134743941e-02
-1.330199895066872806e-01
-1.890114115703544206e-01
-1.453026840430472477e-01
-1.139366141849090797e-02
1.542649733141172597e-01
2.759926997165570439e-01
2.946479395267058710e-01
1.877983716357150556e-01
-2.456399929239527768e-02
-2.834356925707980368e-01
-5.033313434263244623e-01
-5.992356264423114309e-01
-5.263665963368200362e-01
-3.140762758761288520e-01
-6.535751191768265911e-02
9.253817830276213352e-02
8.595585283788051423e-02
-4.922227602398329682e-02
-1.797153166187851481e-01
-1.574680201120712830e-01
7.909900891797849720e-02
4.579978051618658341e-01
8.188412107615925528e-01
1.019955174087968430e+00
1.027623720653863426e+00
9.190006367436041046e-01
7.973850858284388110e-01
6.901467699266017330e-01
5.171895880097602261e-01
1.635565445032145515e-01
-3.967470722792671989e-01
-1.028772232677427567e+00
-1.489000679290318319e+00
-1.580500431574178855e+00
-1.301350845760947950e+00
-8.666099761291720105e-01
-5.687001551597561377e-01
-5.641420313552623078e-01
-7.429131134136939263e-01
-7.901129429890980660e-01
-4.123827563938728957e-01
4.275014633365430416e-01
1.443136613009337488e+00
2.184243266101884018e+00
2.316239050339199856e+00
1.820935236096318022e+00
9.790095131780043314e-01
1.608554005763925820e-01
-4.064067975259341159e-01
-7.240991547286903529e-01
-9.204558000389305716e-01
-1.078422177019242589e+00
-1.154630860241412149e+00
-1.053301736375769737e+00
-7.684469102134792173e-01
-4.420839811202353919e-01
-2.652512249686275747e-01
-3.009985971072554611e-01
-3.941962650406120039e-01
-2.692932860183653299e-01
2.450407881908618357e-01
1.044566204789351582e+00
1.780155098344463172e+00
2.079625507590906253e+00
1.795493752393986453e+00
1.093025321505817438e+00
3.207138485428225883e-01
-2.275168929301492615e-01
-4.777910461367422812e-01
-5.620369588077858136e-01
-6.632969348960460199e-01
-8.579830523852177704e-01
-1.072571828759815826e+00
-1.166524324686066594e+00
-1.056210079683580716e+00
-7.790681445083503798e-01
-4.603272156167300677e-01
-2.233093155145706721e-01
-1.161824927326633727e-01
-9.992467412194139254e-02
-8.997921014928739192e-02
-1.247637929616610131e-02
1.590712161554059811e-01
3.965922066744814178e-01
6.325418862172329515e-01
7.881064354800939586e-01
8.079288715430827938e-01
6.902515759258551764e-01
4.940783086912841071e-01
3.101341177443499575e-01
2.059206119277489089e-01
1.809143197853681218e-01
1.694300564707423573e-01
9.602472584203336492e-02
-5.619738272952845559e-02
-2.211388222461219133e-01
-2.948973921878926818e-01
-2.185112151182611595e-01
-3.074128868623110522e-02
1.552801669115036198e-01
2.341183513907695579e-01
1.802990664290213818e-01
5.074510523714961807e-02
-7.987661983156840728e-02
-1.875524641846344764e-01
-3.063620171373245826e-01
-4.712164711728207278e-01
-6.581366247770584765e-01
-7.897467562193987156e-01
-8.087672575973490208e-01
-7.472402666401385396e-01
-7.103585857243865931e-01
-7.691077868660095573e-01
-8.513013490202214761e-01
-7.439311264846758531e-01
-2.374151231632896097e-01
6.830035956372062511e-01
1.752557012555537419e+00
2.536326801702210254e+00
2.674771478925601187e+00
2.099732959758650264e+00
1.072659462322067325e+00
2.472268946640221454e-02
-6.849966886259466481e-01
-9.342573093581194588e-01
-8.385046663930898481e-01
-6.207129580116108603e-01
-4.583624789200198557e-01
-4.037361400632273889e-01
-4.032505248855258739e-01
-3.747338712046279774e-01
-2.798083139830701560e-01
-1.496876589204399477e-01
-5.906916198544689967e-02
-7.102328527751650133e-02
-1.883548361994534237e-01
-3.434481281003399222e-01
-4.379418925004849306e-01
-4.101671210901509101e-01
-2.817238410985147268e-01
-1.412789742690025996e-01
-7.004214314489345949e-02
-6.785195361461866803e-02
-5.031034911259711639e-02
6.710775924120393476e-02
2.650570067335034641e-01
3.993479415977150837e-01
3.082110912197507657e-01
-2.232980444596216474e-02
-3.787340958647599787e-01
-4.234914078853491137e-01
6.488145855650528926e-02
9.893110830669097355e-01
1.937698796599212514e+00
2.413699394806655185e+00
2.140158115626940027e+00
1.221187089381266633e+00
5.645004696983146886e-02
-9.132807089344215923e-01
-1.438797526794039605e+00
-1.528525051681216773e+00
-1.351788817877201954e+00
-1.098962586923230678e+00
-9.093988193536807207e-01
-8.752511451388669261e-01
-1.046770084188259897e+00
-1.385015448945403183e+00
-1.702291014716105444e+00
-1.690169285554984580e+00
-1.082122544777089468e+00
1.317939584894247673e-01
1.605710076869328429e+00
2.768271427411962193e+00
3.131408740041369487e+00
2.580219607523974723e+00
1.443221509409057246e+00
2.911875990813468373e-01
-3.990119438762694815e-01
-4.932619901454893263e-01
-2.132638315169817500e-01
6.589691382462634084e-02
7.653388675183653289e-02
-1.951208725018281909e-01
-5.498344743469614215e-01
-7.456252626704289455e-01
-6.666491400790127697e-01
-3.828180593128573950e-01
-7.970954409873504121e-02
7.555979475725427275e-02
3.592893603590219254e-02
-1.177536539535102011e-01
-2.538561259951785942e-01
-2.879886791106597288e-01
-2.317753544620070050e-01
-1.647556503076240131e-01
-1.596643628224671541e-01
-2.225031876364836902e-01
-2.922474168874747424e-01
-2.955952543713231684e-01
-2.091075335490537590e-01
-7.769516654940827882e-02
2.400963403650832606e-02
5.377226014565042456e-02
3.560264143493560574e-02
3.836735700456650466e-02
1.183093922660464065e-01
2.733623947116531339e-01
4.453677176121037529e-01
5.653140667058760283e-01
6.018933727692161728e-01
5.739529244410953579e-01
5.210055858335930212e-01
4.625978420149368664e-01
3.849790691190086989e-01
2.661506226047072321e-01
1.131566607225221455e-01
-2.740406907230258371e-02
-1.005297053996059287e-01
-9.041636834148998603e-02
-4.031581825912866623e-02
-2.232793449643316608e-02
-8.022984099506025313e-02
-1.962628893878397562e-01
-3.146554394506377306e-01
-4.030668384176568364e-01
-4.937586707323800561e-01
-6.581479403776795412e-01
-9.263678417442994251e-01
-1.218747376110084657e+00
-1.357521814297442120e+00
-1.167826631814769645e+00
-6.038339305713560368e-01
1.901891669428350529e-01
9.309615382203320078e-01
1.329682277746238039e+00
1.228390187654122112e+00
6.692357666671220340e-01
-1.237265218485070761e-01
-8.269061684051087768e-01
-1.128667091534050204e+00
-8.424487181324935570e-01
6.235972337358286488e-03
1.158259895216710911e+00
2.200047063931424240e+00
2.735115094560900850e+00
2.573336587752665050e+00
1.828058165138982893e+00
8.506080364189898546e-01
3.167657481464603020e-02
-4.099230413231688686e-01
-5.191944313036682690e-01
-5.263181409080941453e-01
-6.611984056635381579e-01
-9.920341503598728572e-01
-1.393509546305848890e+00
-1.655724602555364466e+00
-1.649407518906919057e+00
-1.428953481804355663e+00
-1.200274179571174216e+00
-1.172686417469766651e+00
-1.393975682336708655e+00
-1.684764300782999547e+00
-1.728851076273673293e+00
-1.273650518492777772e+00
-3.140306060188029491e-01
8.682465007228790110e-01
1.849025945356942868e+00
2.305792967816282957e+00
2.203240587789813354e+00
1.796296271444950188e+00
1.449367829065857594e+00
1.396395794191875428e+00
1.604112640272679968e+00
1.823797506160982129e+00
1.782743677413948236e+00
1.373835386661858005e+00
7.141882952246897398e-01
4.603634940594525382e-02
-4.344400913641353057e-01
-6.928850310595007223e-01
-8.425961778026892501e-01
-1.027398431929535505e+00
-1.301022525174546640e+00
-1.594919766546496032e+00
-1.789995413780614442e+00
-1.824242410817634719e+00
-1.742574606178026952e+00
-1.646192471320649497e+00
-1.585150782916261436e+00
-1.489293305684090241e+00
-1.205514262728770714e+00
-6.224217246537625536e-01
2.135223034555673305e-01
1.088134598353085458e+00
1.734286951113942044e+00
1.991010841420168154e+00
1.889684039481220879e+00
1.606903367431248286e+00
1.327992148421755170e+00
1.130150251633825764e+00
9.674530093307810441e-01
7.488710112792187346e-01
4.276725678577383283e-01
2.796545822107299184e-02
-3.930536766350134492e-01
-7.858933674218941956e-01
-1.100944769833854586e+00
-1.249427580032357543e+00
-1.103118001073539300e+00
-5.761852854929837564e-01
2.566141831865242917e-01
1.115918627769223903e+00
1.624271602024598860e+00
1.520665724214984804e+00
8.363523372942137657e-01
-1.067574181234909325e-01
-8.882045684717500000e-01
-1.239956872328309201e+00
-1.179857301419523052e+00
-9.435521887937974306e-01
-7.837496823941972890e-01
-7.953630916794143246e-01
-8.860417000413698396e-01
-8.869330176649710129e-01
-6.959978540424931470e-01
-3.430399026904422666e-01
5.198314324310338019e-02
3.694270109433536731e-01
5.516423295763995815e-01
6.060718066407280169e-01
5.767135443204495227e-01
5.225626625242076884e-01
5.093726322770434356e-01
5.919818110296095615e-01
7.763019948556528771e-01
9.891428602084755273e-01
1.100039880717701868e+00
1.001851961596280649e+00
6.946336098580969676e-01
2.951077252238256676e-01
-5.244049278938484049e-02
-2.968058344957794636e-01
-5.211360943821308211e-01
-8.506623302725859759e-01
-1.292859768738584991e+00
-1.654597930796781746e+00
-1.636561500311642270e+00
-1.060558425363909540e+00
-5.807934194411035200e-02
9.457926155171838545e-01
1.471120164375665063e+00
1.286009804738549089e+00
5.550777092088248210e-01
-2.752754908670327350e-01
-7.690044224649853488e-01
-7.587321756319308497e-01
-3.976043001500964014e-01
4.231206425139966143e-03
2.131816152093221062e-01
2.017513035126794474e-01
1.039083650964115757e-01
6.621477345570324358e-02
1.289136581142570070e-01
2.219628585341800464e-01
2.545706945095305707e-01
2.055701463786457905e-01
1.365954169187327816e-01
1.258072684045282164e-01
1.875339762435706825e-01
2.496141043921028813e-01
2.076429438778319425e-01
1.162113928026903276e-02
-2.837569072866924502e-01
-5.441011576801330074e-01
-6.378755321958566871e-01
-5.187907868729149108e-01
-2.533929436037092309e-01
2.139253610821237328e-02
1.803157623747305704e-01
1.789232329114037179e-01
6.951534608009754534e-02
-4.105030328033371090e-02
-6.170658785423266401e-02
2.886514622066876923e-02
1.763455375047702778e-01
2.931649797112988454e-01
3.187115889829080229e-01
2.564124081150217505e-01
1.638049428784132955e-01
1.054241708803018152e-01
1.049922538470158540e-01
1.327966559335792829e-01
1.357993987608330511e-01
8.371011441537097586e-02
-7.939653996043974371e-03
-9.577290388271952892e-02
-1.488469131923949029e-01
-1.723443766100284658e-01
-1.918734182282537115e-01
-2.149549487910941137e-01
-2.121718135284225426e-01
-1.449023049193902957e-01
-1.922142347681646268e-02
8.987643087174512768e-02
8.345638494472334967e-02
-7.077067085199001406e-02
-2.818607439879076138e-01
-3.824716421934321042e-01
-2.656350751543906097e-01
-6.110956979827192326e-03
1.531021694276869516e-01
-2.623547966125383546e-02
-5.591379855031144430e-01
-1.152533032355212317e+00
-1.353511521600731182e+00
-8.529719696575441823e-01
2.693778724873514552e-01
1.549420925388267589e+00
2.406138470479990410e+00
2.489467716145915777e+00
1.865929219310894061e+00
9.243891669707328118e-01
9.330841092771979817e-02
-4.118269670416593309e-01
-6.404198274329130358e-01
-7.603420330992095577e-01
-8.663445616479268363e-01
-9.081207061652447621e-01
-7.799720138824299820e-01
-4.696824588162639702e-01
-1.194059586946976115e-01
6.378559880467793430e-02
-2.592618504769789167e-02
-2.946878341614120878e-01
-5.105076168490382260e-01
-4.854967861088831382e-01
-2.360955249244090504e-01
1.275810736601717954e-02
-3.270790658010724883e-03
-3.649088675074705357e-01
-8.629127772257895179e-01
-1.102396656555132193e+00
-7.607017681276977417e-01
1.744256538897501763e-01
1.354719524514260476e+00
2.253203553278253501e+00
2.464961939006299119e+00
1.934230953603135239e+00
9.659319380721542725e-01
2.288644583947785360e-02
-5.532474239749931577e-01
-7.179228826346617520e-01
-6.929103071342548326e-01
-7.635192967081166904e-01
-1.048719025920841430e+00
-1.401880316909406954e+00
-1.509327438390111631e+00
-1.119331429464736960e+00
-2.439997658429222671e-01
8.077320740450881775e-01
1.594121333491909764e+00
1.794785895747066595e+00
1.386815663353912598e+00
6.314519149084987237e-01
-1.066094931812230362e-01
-5.737069273775406986e-01
-7.326452884654930386e-01
-7.095215792057443238e-01
-6.507049837626072142e-01
-6.110570193720192833e-01
-5.487144330794493374e-01
-4.053910873989565733e-01
-1.862927110909702311e-01
3.203127994006182977e-02
1.659192779208963631e-01
1.977450247788501148e-01
1.916586546024710846e-01
2.390048939253319182e-01
3.806634149296642677e-01
5.701284541956677110e-01
7.045996724377738829e-01
6.963824900375923388e-01
5.291862707344662242e-01
2.617948894469601107e-01
-1.520598881438633976e-02
-2.324591527415033054e-01
-3.690410838703399032e-01
-4.444065380469879312e-01
-4.908240693924454945e-01
-5.283822750261428780e-01
-5.544283602313496706e-01
-5.469988915847375788e-01
-4.772281370404990453e-01
-3.265312677739110603e-01
-1.033293498290083767e-01
1.497221787091583822e-01
3.667497962299899328e-01
4.870272897299748882e-01
4.858665716148650726e-01
3.875362878406596323e-01
2.499520819741817279e-01
1.308165796457270713e-01
5.858821960133685225e-02
2.744822996997892117e-02
1.646993245982159015e-02
1.487948948956240025e-02
3.215772727919988250e-02
8.557327796850701385e-02
1.768773896116847266e-01
2.791028565864741573e-01
3.467106846908127316e-01
3.436468340324678183e-01
2.682228535876895470e-01
1.533173368062049069e-01
3.725222746472542368e-02
-7.543223336154850078e-02
-2.304452605786563857e-01
-4.945842220326596150e-01
-8.901408130166250654e-01
-1.336375122469702692e+00
-1.650247785097942010e+00
-1.626767726195690322e+00
-1.162002340489241448e+00
-3.398317936604329237e-01
5.852064978511626325e-01
1.310988897745950066e+00
1.642928636398302888e+00
1.580321227901624104e+00
1.280393723479673396e+00
9.344971469066072345e-01
6.509884561342116349e-01
4.246380207711921151e-01
1.975690081577431978e-01
-5.453087667354622470e-02
-2.873794597091792746e-01
-4.270683105759620624e-01
-4.394842530326273367e-01
-3.648861324271122086e-01
-2.889220934699591736e-01
-2.785865451048955554e-01
-3.381386160564076593e-01
-4.169069777956488920e-01
-4.543545882496596300e-01
-4.206899640624227055e-01
-3.237249771415265931e-01
-1.873288172233761317e-01
-2.963323912104959268e-02
1.381279390975101440e-01
2.969291155007159899e-01
4.113629629823939982e-01
4.421838581651175160e-01
3.727036104404405359e-01
2.263763609831092594e-01
5.865830284880935164e-02
-7.288703490353623526e-02
-1.391405482395126070e-01
-1.501158169692189404e-01
-1.411932704296023910e-01
-1.471775633550123918e-01
-1.816418913967249027e-01
-2.316112292465561939e-01
-2.664469625311166601e-01
-2.535970513108662949e-01
-1.741707901512074552e-01
-3.370534988730825021e-02
1.355831103176318719e-01
2.841054335363739081e-01
3.649168716577673166e-01
3.563951484768722588e-01
2.743615622950036359e-01
1.637745111148731780e-01
7.263702861328877325e-02
2.450579867877597517e-02
9.468635048053758441e-03
1.275131078689567543e-03
-1.239224454715441570e-02
-1.245457039611201633e-02
3.797075560283955098e-02
1.560428648894315873e-01
3.083354760634345881e-01
4.171513282882229334e-01
4.067399891773053611e-01
2.572730862927273265e-01
2.299619302347091776e-02
-2.034389716008823956e-01
-3.544005271867103346e-01
-4.275351774591431564e-01
-4.702586690287686721e-01
-5.239666901324131487e-01
-5.794860607722028822e-01
-5.856039759807759593e-01
-5.036194100488909919e-01
-3.561953124053091058e-01
-2.206371881244353073e-01
-1.665293208430924099e-01
-1.918313083978599454e-01
-2.190305160535871987e-01
-1.624255952456479524e-01
-1.107018235945503304e-02
1.500979597985681313e-01
2.110351357239587111e-01
1.488504748494192953e-01
8.634666404450408450e-02
2.346964354344632797e-01
7.459890817467993429e-01
1.574060629774555853e+00
2.441878096565472056e+00
2.943563983483759472e+00
2.726014211295784584e+00
1.657824307955624299e+00
-8.583042422972964047e-02
-2.048517599526726851e+00
-3.621359456649372532e+00
-4.250002170202516361e+00
-3.666824993284578227e+00
-2.054554503669411947e+00
-3.204564065128323591e-02
1.587207135841694816e+00
2.181258445300367388e+00
1.645624349341730630e+00
4.487348282502815477e-01
-6.444080474680631276e-01
-1.024565589963528200e+00
-5.822944315457663222e-01
2.750486756458636606e-01
9.303935852481357571e-01
9.672518991731925420e-01
4.068789776515177037e-01
-3.632614273208388811e-01
-8.825169347091663674e-01
-9.069330967996577231e-01
-5.084573683470048344e-01
4.226835069114476262e-02
4.841246883807009405e-01
7.061685624650619886e-01
7.484042234516548042e-01
7.075586673378322367e-01
6.465457432811889671e-01
5.712666041141820639e-01
4.646045470406331424e-01
3.245759397752862041e-01
1.691346842014938567e-01
1.494898808669406498e-02
-1.371688705181960399e-01
-2.920214152568239574e-01
-4.390852904200980289e-01
-5.480965424478434489e-01
-5.893678253017596846e-01
-5.582203487151440324e-01
-4.767829251767320420e-01
-3.707480171194117435e-01
-2.475862374306408986e-01
-1.032597431093713602e-01
4.752320736580484262e-02
1.545692859056221335e-01
1.603343906365441440e-01
5.875892602996551917e-02
-7.218055294245950826e-02
-1.121642629398654223e-01
2.285660182398119300e-03
2.034597260452733758e-01
3.236449059916502446e-01
2.296054602972075198e-01
-4.173114856916584903e-02
-2.722031934746345083e-01
-2.130910157369307889e-01
2.029723099379435736e-01
7.588659308226849420e-01
1.060483891308874771e+00
7.961692923133750766e-01
-3.518352248356149126e-02
-1.094995708505251519e+00
-1.896849941911421755e+00
-2.082454014267784981e+00
-1.596707375699228937e+00
-6.676627607147430643e-01
3.575458145643095609e-01
1.187805653630648939e+00
1.672981532016256434e+00
1.793197300925994053e+00
1.613454731491156924e+00
1.253842579205339147e+00
8.701960087821904999e-01
6.103673005102487892e-01
5.408257831595479903e-01
5.919782661389116907e-01
5.835561752933593471e-01
3.377357314980555802e-01
-1.900012613004941064e-01
-8.611144684133809069e-01
-1.430775541680088470e+00
-1.700616094045553250e+00
-1.637762317058096606e+00
-1.377270388040400473e+00
-1.114668045573706134e+00
-9.742328289652946172e-01
-9.467327259518671934e-01
-9.285182397005830035e-01
-8.171410607117293168e-01
-5.863107791692875326e-01
-2.917180227568387796e-01
-1.726055027202660908e-02
1.889479866296560062e-01
3.422017646175016803e-01
4.998424330060068921e-01
7.131058753386545490e-01
9.872959605589288756e-01
1.274418890364087176e+00
1.500197371604722107e+00
1.607916197068572250e+00
1.592663854113041788e+00
1.503890346400469369e+00
1.411306385401367436e+00
1.353032258562088863e+00
1.301708962792316404e+00
1.178244812889715387e+00
9.107792019875204925e-01
4.976668276731797125e-01
2.060164961371302450e-02
-4.135291021786235421e-01
-7.636309714310579588e-01
-1.100962383383463417e+00
-1.557043757994322819e+00
-2.196464645598395382e+00
-2.911515698798773588e+00
-3.437631133253294280e+00
-3.504365506844118183e+00
-3.025102651263867237e+00
-2.181489409431593529e+00
-1.323836146567463068e+00
-7.447493070183212049e-01
-4.856404162913193767e-01
-3.200983851498560573e-01
6.916291495914783649e-02
8.464412974798032341e-01
1.888523655400659251e+00
2.854271459686155588e+00
3.404046408905993637e+00
3.410766862545283828e+00
3.019416197655708345e+00
2.527449610469670205e+00
2.184016810388440533e+00
2.050680272299453044e+00
2.006305673680764290e+00
1.867966599436257535e+00
1.523457089981483659e+00
9.809798934825045835e-01
3.204554147270085585e-01
-3.894310174386484968e-01
-1.127492096807415356e+00
-1.883832381895134134e+00
-2.600784669111457781e+00
-3.166672381454156859e+00
-3.487649168361293128e+00
-3.578482209521358648e+00
-3.574603963450710076e+00
-3.621861433946399700e+00
-3.712162456239680886e+00
-3.606485933737115790e+00
-2.944662944754159462e+00
-1.500455632950449258e+00
5.911567796133012642e-01
2.815289798920153075e+00
4.510491484981381305e+00
5.213932300117840590e+00
4.891582143762720492e+00
3.906806913680775928e+00
2.766312126921147918e+00
1.830130634672554546e+00
1.174891603962919362e+00
6.679015532168945946e-01
1.555271507501283512e-01
-3.910364738205489576e-01
-8.665642025694453299e-01
-1.134530655803879018e+00
-1.140977217597465732e+00
-9.526870811743377576e-01
-7.069524680755667756e-01
-5.257386533964902853e-01
-4.580599653619876754e-01
-4.778461108137721514e-01
-5.212094519489659517e-01
-5.299142434701877846e-01
-4.786069900422420531e-01
-3.815163790231127505e-01
-2.828919884902303394e-01
-2.351331581390960213e-01
-2.700024995270183803e-01
-3.754384563362568317e-01
-4.946370137761014751e-01
-5.546697062311386484e-01
-5.108586335842868476e-01
-3.767823901725269042e-01
-2.149941325606626041e-01
-9.077335642601941368e-02
-2.116300675918625362e-02
4.054483191680668952e-02
1.681883584027230594e-01
3.968215241432839213e-01
6.762859027226579833e-01
8.839568765841179232e-01
8.960994716621045741e-01
6.734796530619420185e-01
3.015817259282100871e-01
-4.772864144440425171e-02
-2.138985663315302044e-01
-1.427132391908608744e-01
8.554879012891675183e-02
3.159368573688812742e-01
4.267371518543978670e-01
4.094338466662837961e-01
3.619459321993291900e-01
3.985492921186510329e-01
5.435919912083027050e-01
6.924569122827477496e-01
6.757417254921613825e-01
3.838788796706182338e-01
-1.404049967570628610e-01
-7.140255138144822045e-01
-1.124391444920819438e+00
-1.258377764723613179e+00
-1.155584441050337086e+00
-9.521118073187520014e-01
-7.661700826132924469e-01
-6.187255931784170215e-01
-4.484582345593681740e-01
-1.998700733551997399e-01
9.699677613420926159e-02
3.279711954853781197e-01
3.800021637471319158e-01
2.397371476585784533e-01
1.943970637029500403e-02
-1.189793772317744303e-01
-8.641351670045643862e-02
6.345873729484644010e-02
1.794759400015871198e-01
1.450913939300854105e-01
-6.315398120944060167e-03
-9.232863804176488776e-02
8.810034841979785813e-02
5.854329691732884644e-01
1.221370403555324113e+00
1.670897253498738522e+00
1.656639600681707902e+00
1.123660532660160083e+00
2.762552513098787133e-01
-5.429247916469820412e-01
-1.044039533849816292e+00
-1.127232552271399957e+00
-8.934666569641924738e-01
-5.481164761327563806e-01
-2.766823164640446753e-01
-1.666678835001823011e-01
-1.999450085609574268e-01
-2.935985915223312537e-01
-3.540316612148098341e-01
-3.218407206953228239e-01
-1.982165873735179940e-01
-4.497046248349720332e-02
4.917947276370401855e-02
2.791466642596843184e-02
-8.182400038063106229e-02
-1.711296098216885386e-01
-1.179256000427519324e-01
1.157527941647286118e-01
4.329513285582460846e-01
6.500688038594708562e-01
6.222795464776068597e-01
3.542566077845585859e-01
2.941408571495662816e-03
-2.409942941500656244e-01
-3.036850852832145287e-01
-2.834882596529372245e-01
-3.532388001245075904e-01
-5.801333607172838303e-01
-8.168073190503697401e-01
-7.755603700356877850e-01
-2.527359058063308739e-01
6.648706606719456680e-01
1.588031392619507098e+00
2.045142060214851121e+00
1.788474171477647090e+00
9.612114635429627185e-01
-3.713846267458298378e-03
-6.792488092478309314e-01
-9.119062310175555242e-01
-8.652232094263320183e-01
-8.232450876079663304e-01
-9.265473094130032283e-01
-1.057352576075900386e+00
-9.587874520866631611e-01
-4.792430311183647484e-01
2.640113862711632731e-01
9.343488335654878130e-01
1.196448023675916961e+00
9.366253815888859746e-01
3.243368670487347671e-01
-3.131410585789143886e-01
-6.963245420251059636e-01
-7.346405683514973806e-01
-5.270557395831246827e-01
-2.519714374390221723e-01
-3.858587670989532814e-02
9.787422921714866719e-02
