1.043975498081920676e+02
1.029007767526220363e+02
1.021265914462148316e+02
1.018673712021136026e+02
1.016312636165577317e+02
1.016361875387884766e+02
1.016052641438741091e+02
1.015971497957416432e+02
1.012118276732878570e+02
1.009236300660730734e+02
1.011707399608963698e+02
1.010869907572320443e+02
1.011501286602430412e+02
1.007446092274316953e+02
1.005569377098097732e+02
1.018429525603699375e+02
1.037588646747260839e+02
1.041964242956341309e+02
1.020102073425193225e+02
1.018508623286639647e+02
1.015972377752892868e+02
1.021272384014355623e+02
1.020584168618266858e+02
1.015196933896444591e+02
1.014291035047860277e+02
1.012230955035302884e+02
1.014164507042253547e+02
1.013451176238664715e+02
1.015783178064589265e+02
1.014309497353999063e+02
1.016678246422233087e+02
1.020801942263191933e+02
1.018083195999318065e+02
1.016528558578817183e+02
1.019414529114398107e+02
1.025820453181272427e+02
1.027331824184116158e+02
1.025455814472900613e+02
1.023025739930272380e+02
1.025048330730909356e+02
1.022836916234247582e+02
1.021889372627818631e+02
1.018709826461401917e+02
1.017697282344585261e+02
1.017541547492195377e+02
1.020847310365669358e+02
1.019040482018452280e+02
1.019517749244712945e+02
1.019342008486562889e+02
1.018371554886652319e+02
1.018844521242627934e+02
1.016390155994818940e+02
1.021485241941571616e+02
1.021186450284332352e+02
1.017828587538765248e+02
1.020936176591837636e+02
1.025118766862253068e+02
1.018273099089050078e+02
1.010271027343895014e+02
1.013077990511373230e+02
1.011225808868988594e+02
1.019309184895189873e+02
1.045799468681250204e+02
1.056814977880320896e+02
1.030955961978101243e+02
1.020073103927166045e+02
1.019378544061302705e+02
1.016455085727305629e+02
1.011161389613558299e+02
1.011580561320842975e+02
1.017213096414520805e+02
1.014517613868369210e+02
1.015757348951218972e+02
1.018353920263912471e+02
1.016526525966149848e+02
1.018551631649530691e+02
1.014011366812633952e+02
1.012496485275648155e+02
1.012569619543900927e+02
1.009393480050901957e+02
1.012639866686638754e+02
1.009887904164632459e+02
1.012967895272946777e+02
1.009242865242865292e+02
1.010987462283775926e+02
1.011492303386509946e+02
1.011722329663790561e+02
1.010417092429168520e+02
1.018575473835233680e+02
1.020990776837501244e+02
1.026549183137210122e+02
1.025529790660225302e+02
1.022045746935068848e+02
1.016855922315480427e+02
1.016227147863976370e+02
1.016731130197372153e+02
1.014326031775876658e+02
1.014574928634894206e+02
1.013419240084771360e+02
1.017974866168039938e+02
1.017349022751565002e+02
1.018407951697425489e+02
1.020335227598874894e+02
1.021847846926646071e+02
1.016643675540101555e+02
1.025965808382092206e+02
1.024814638602367580e+02
1.026488347255597517e+02
1.025535568430050262e+02
1.023630963677078967e+02
1.025979986001551083e+02
1.013422449017323999e+02
1.051728160339057041e+02
1.057259878388546497e+02
1.033049605198534096e+02
1.027225886464851357e+02
1.019149966475452516e+02
1.021344824996244540e+02
1.023555445901577201e+02
1.019186704119850191e+02
1.017926195814648764e+02
1.011813872853691407e+02
1.010568578461990654e+02
1.009693195347559396e+02
1.013042798838107075e+02
1.015958620179139871e+02
1.015402358238148821e+02
1.010355572724095339e+02
1.014142220571852988e+02
1.007612199951881280e+02
1.010628756957328278e+02
1.007951782517899773e+02
1.003066777347353025e+02
1.007610975838171896e+02
1.009200964872606647e+02
1.008705206220419228e+02
1.011368251867259147e+02
1.011816232829930868e+02
1.010806907676250148e+02
1.015664090753359403e+02
1.016290642271774374e+02
1.013114065913192121e+02
1.023939155167774828e+02
1.060483219782992705e+02
1.050543794951203012e+02
1.028906822899489839e+02
1.017171478631827597e+02
1.015081639579169632e+02
1.009353516359533671e+02
1.015952118353997093e+02
1.012088793234801045e+02
1.010960228023481875e+02
1.008511885503301926e+02
1.012834095650010653e+02
1.012109558220680015e+02
1.013927307326355844e+02
1.011741750848132142e+02
1.016450936672193421e+02
1.017701538814882980e+02
1.017445587316019697e+02
1.028770847744216326e+02
1.023734190496175245e+02
1.023831215028746158e+02
1.020448451932454788e+02
1.021092380310182079e+02
1.021207859319691806e+02
1.022508344977487980e+02
1.022729394658299498e+02
1.019130775254502623e+02
1.024473679137994111e+02
1.022573398448721633e+02
1.019926322839919663e+02
1.022954854787692938e+02
1.031836913891002752e+02
1.072704293850387245e+02
1.057923134982966502e+02
1.039811063498246853e+02
1.035605952541588692e+02
1.030737321893672487e+02
1.023198983911939024e+02
1.025714855471569109e+02
1.022106059735233856e+02
1.018877653430286614e+02
1.019784377852144814e+02
1.018123379989632014e+02
1.014469918946687415e+02
1.014497634235580250e+02
1.014737769345439773e+02
1.011188380112115084e+02
1.015284610928750624e+02
1.020933403867630602e+02
1.048111191335740102e+02
1.057418044616716912e+02
1.036854496633848441e+02
1.029709052550824708e+02
1.025078326996197688e+02
1.021730035119865505e+02
1.017731350738670244e+02
1.018542700093846349e+02
1.018211625292918541e+02
1.016614571406762906e+02
1.011414147198045441e+02
1.012313550521173795e+02
1.008552861594588421e+02
1.011666029001032996e+02
1.016619498671595352e+02
1.018057282543837800e+02
1.016856682213393128e+02
1.015148715594575464e+02
1.016263326226012822e+02
1.016737881920514610e+02
1.016035706111238284e+02
1.013093857306371461e+02
1.010085064897826470e+02
1.031533504106692618e+02
1.056587323792101500e+02
1.039660627337889025e+02
1.017386235871945104e+02
1.004825050229349159e+02
1.004609692863766242e+02
1.005905927710843457e+02
1.005352746121888998e+02
1.008111963190184071e+02
1.008306259600614396e+02
1.008817982665015620e+02
1.013617683805862555e+02
1.009703816503283633e+02
1.016698328632011226e+02
1.007766187870496992e+02
1.005921790897160406e+02
1.008273348345482958e+02
1.000098411305856985e+02
1.001920768995566391e+02
9.992709742573502751e+01
1.003560019129603091e+02
1.006000347141865205e+02
1.005012995948321901e+02
9.997637734687596378e+01
1.003255724530405928e+02
1.004841477491342800e+02
1.008735603259712406e+02
1.014091093312747205e+02
1.013213829416547185e+02
1.012303474903474978e+02
1.011455462314265930e+02
1.012835708637880145e+02
1.004704160128592747e+02
9.992316809726816018e+01
1.001468052347960054e+02
1.004169942662089881e+02
1.006264150221814333e+02
1.003035843522645081e+02
1.001386589718277804e+02
1.004765108345562368e+02
1.007198488145687776e+02
1.025349072312083649e+02
1.056740762991889540e+02
1.043703127914930775e+02
1.024236816310527445e+02
1.024669276615636306e+02
1.022516808175496692e+02
1.016258060845155882e+02
1.013933124988016914e+02
1.014048925158463987e+02
1.017796573834070699e+02
1.019093400677355561e+02
1.019124825662482579e+02
1.030666128460599396e+02
1.034476699317304735e+02
1.038931198615318152e+02
1.043601026625653816e+02
1.049357827476038381e+02
1.069312142931338911e+02
1.083674393987509319e+02
1.089919730763602956e+02
1.084464180229360721e+02
1.078232651920466338e+02
1.081170777458493006e+02
1.077231916243654695e+02
1.074778276622558337e+02
1.073408816484886898e+02
1.074854540053470657e+02
1.072146116909401172e+02
1.075895335427685211e+02
1.080735897129662817e+02
1.084204461926614584e+02
1.077099825349790905e+02
1.082256700416914725e+02
1.086079489793878423e+02
1.088324160259004572e+02
1.089183109946588672e+02
1.096376259798432358e+02
1.092974682248920431e+02
1.095950386269593650e+02
1.097937602291325732e+02
1.100198583302624655e+02
1.097113355596074626e+02
1.094665027658266752e+02
1.095208538587849034e+02
1.094406737981064737e+02
1.093269085489107084e+02
1.094047687564234366e+02
1.091388049955105686e+02
1.095445828552696241e+02
1.100703974852132205e+02
1.095257124140189831e+02
1.098485097467288369e+02
1.095964883592584300e+02
1.096187956612873649e+02
1.103151681226306238e+02
1.102604188093964552e+02
1.096251325340510618e+02
1.096108467733629936e+02
1.093610892849758045e+02
1.092962165296444255e+02
1.092844800987349601e+02
1.091016663238016804e+02
1.091049883990719138e+02
1.092599278722308043e+02
1.091397084596193992e+02
1.097980729382511385e+02
1.095323310134032795e+02
1.094482253404869994e+02
1.096878165273603116e+02
1.100868860198279862e+02
1.107765700483091820e+02
1.096832828477911761e+02
1.092429461778937139e+02
1.093408214887978858e+02
1.089672765728195998e+02
1.088123569338561651e+02
1.085662915509004876e+02
1.080650469906018856e+02
1.075505824647455597e+02
1.078539299148683455e+02
1.081893183499630169e+02
1.070066780251845842e+02
1.071505814413416715e+02
1.078261826404732631e+02
1.088698054089709757e+02
1.096356299129849816e+02
1.100426990315683469e+02
1.097653131740414096e+02
1.090673469387755148e+02
1.101168792004135781e+02
1.094486082049330946e+02
1.089006918751698265e+02
1.068469244640352542e+02
1.048432877883811756e+02
1.032910275631415118e+02
1.030403664801042822e+02
1.024070174104766977e+02
1.026714911949210318e+02
1.031494125301389175e+02
1.038222187352895105e+02
1.036465940215570782e+02
1.040951021783512687e+02
1.044780589967004545e+02
1.038316954748494965e+02
1.042738795295613556e+02
1.048602349402487732e+02
1.053996758837232761e+02
1.052736966102727649e+02
1.049941265782323825e+02
1.046539336152557382e+02
1.054525029641687155e+02
1.053885399844488404e+02
1.057803946530871997e+02
1.061342462452815028e+02
1.062555952380952391e+02
1.065539101992268911e+02
1.049122564545541820e+02
1.049594138831195949e+02
1.047971011717852434e+02
1.049354695062923497e+02
1.049167609535328438e+02
1.051672066898197500e+02
1.048960364251940973e+02
1.051025400730197816e+02
1.050913040075140827e+02
1.053040805906841513e+02
1.054795276371935984e+02
1.052241883823005963e+02
1.051168861712135367e+02
1.053720380081220611e+02
1.056829567731331991e+02
1.054589761848247491e+02
1.055027265183546064e+02
1.050122692148882209e+02
1.049752113455005116e+02
1.043961401028782205e+02
1.042057655048241571e+02
1.040417797176674100e+02
1.040352795421919012e+02
1.039397106583997612e+02
1.041258376916499344e+02
1.037698323582136624e+02
1.043398742238497050e+02
1.044191628684592814e+02
1.046907731169322062e+02
1.051653868400582468e+02
1.050007383903091238e+02
1.049173486251319076e+02
1.048392970485560056e+02
1.052968628000560614e+02
1.048989834178814107e+02
1.045643929575498987e+02
1.046687167118882655e+02
1.046068209403665179e+02
1.049096157279742982e+02
1.051369830217664543e+02
1.050741020193395912e+02
1.051052211718718894e+02
1.055136207034692859e+02
1.054047973334920556e+02
1.058643679534679762e+02
1.057832574054548758e+02
1.056000356633380903e+02
1.059121262922604103e+02
1.055473992703203692e+02
1.058587101262049117e+02
1.056620506834952238e+02
1.054036906819220292e+02
1.051967361919608521e+02
1.057211511595417761e+02
1.055612636374535498e+02
1.047735289496425395e+02
1.036962659729129967e+02
1.037735931809080654e+02
1.036802202376447468e+02
1.043686879277149728e+02
1.050929069589209064e+02
1.042914475557664815e+02
1.051781811197541430e+02
1.038919126460893096e+02
1.048444033729929572e+02
1.045188918327381771e+02
1.045960477054305500e+02
1.044944410366508123e+02
1.046295134653733783e+02
1.052403366278500840e+02
1.050071194618236063e+02
1.083285258779061166e+02
1.077710071483015071e+02
1.069521568785846881e+02
1.059675258858835036e+02
1.053443993172052444e+02
1.042348127896379850e+02
1.049191039081092782e+02
1.055889353936484696e+02
1.055769532629596199e+02
1.054686235215529138e+02
1.054856187552548761e+02
1.053425118050562475e+02
1.054293813832472466e+02
1.053317183775508141e+02
1.053101363918164850e+02
1.054211991475800119e+02
1.056891015804818181e+02
1.057822108694408882e+02
1.058031372400613037e+02
1.060490323072233991e+02
1.060734679930139066e+02
1.058797291162227623e+02
1.054776318759876688e+02
1.056034137683622305e+02
1.055064747928635001e+02
1.050907323885188163e+02
1.057057214497378652e+02
1.050483025012781013e+02
1.054697326969874211e+02
1.060289636186361406e+02
1.050196779625740220e+02
1.060478067919928407e+02
1.098234803113457616e+02
1.108974281782212188e+02
1.087370111931899572e+02
1.075853106447193284e+02
1.063938008523827961e+02
1.063687260168841107e+02
1.058368134793853699e+02
1.051481117267724414e+02
1.048232092927245844e+02
1.048765445988262002e+02
1.050860801025795723e+02
1.049549340131973452e+02
1.050184232994972007e+02
1.046294507575757535e+02
1.053743667485416040e+02
1.053408960367604834e+02
1.054044388465868991e+02
1.050067295004712520e+02
1.049277544329081024e+02
1.052973658976817575e+02
1.051592872164638806e+02
1.047603988977824514e+02
1.045944677095265831e+02
1.046774630912925517e+02
1.047881088394467923e+02
1.052951954242135315e+02
1.047106981321322507e+02
1.051112576200577138e+02
1.047078100955601627e+02
1.055031682748791440e+02
1.051916463310822252e+02
1.061361625023841384e+02
1.053026674028520944e+02
1.051718351861988339e+02
1.057556323532188856e+02
1.057840432827859445e+02
1.054103168866740248e+02
1.051768048191855200e+02
1.049337476857974139e+02
1.050730310262529912e+02
1.052702495642680702e+02
1.056086839886563808e+02
1.049858445572131842e+02
1.047683697281299118e+02
1.051023096663815295e+02
1.048676998890289127e+02
1.054936393021189645e+02
1.051152926108003385e+02
1.054648085211414781e+02
1.060071975322746596e+02
1.057535731232798781e+02
1.083157668006892607e+02
1.096348657531907662e+02
1.075710123816460282e+02
1.061325525372608212e+02
1.051482104297643900e+02
1.051621569682527451e+02
1.047200084093037447e+02
1.045895425831494094e+02
1.044794920394238176e+02
1.038404971811267927e+02
1.032708989022798676e+02
1.016387392778775194e+02
1.007012478892961553e+02
1.004637128554691685e+02
1.003487040321374337e+02
9.979142625122879906e+01
9.911572406529752755e+01
9.959066610097582384e+01
9.952564395275949494e+01
9.926618972022347975e+01
9.960841285376397991e+01
9.965393914970782419e+01
9.965861800155910544e+01
1.001786460845795119e+02
1.005431166117495820e+02
1.005591242035055757e+02
1.006434926383749229e+02
1.014410644136052184e+02
1.012127957931638917e+02
1.019188993056917667e+02
1.016817043572061436e+02
1.024491318476358970e+02
1.050753138930923143e+02
1.068680925397298722e+02
1.038999799639350812e+02
1.029886781995962082e+02
1.027832147152179516e+02
1.020436645343036446e+02
1.020591795033008395e+02
1.018250395639177128e+02
1.016512024825446048e+02
1.014219119185033122e+02
1.014471209658695159e+02
1.022960377063287183e+02
1.019255835631335714e+02
1.026643042249096993e+02
1.029860046125643152e+02
1.030301202412815087e+02
1.042358979698073824e+02
1.039055641063484359e+02
1.018460108664569645e+02
9.939620994646598717e+01
1.001419520615119012e+02
9.963199319293767076e+01
1.004372664279040919e+02
1.007218461897537622e+02
1.016174526738541317e+02
1.054086600648868739e+02
1.064089626875240526e+02
1.060257360865629295e+02
1.049078969666158230e+02
1.041045511723341548e+02
1.045262272550105678e+02
1.044251030969515597e+02
1.044875330369399080e+02
1.044868082499489503e+02
1.039683142698728773e+02
1.032753879275327051e+02
1.033908326222113772e+02
1.029467140319715810e+02
1.021972523675974571e+02
1.020507151358657296e+02
1.016215560285663173e+02
1.025181068049306958e+02
1.026133044455143590e+02
1.033384279920930879e+02
1.029927577049971745e+02
1.031763692800640797e+02
1.035363404526617757e+02
1.042583167899897774e+02
1.074548495691389149e+02
1.084462968554544346e+02
1.088308096448326694e+02
1.093100763745305670e+02
1.096173602214967531e+02
1.098058149275688038e+02
1.094279309300212049e+02
1.101402524260043378e+02
1.108840603276555896e+02
1.106019833447318632e+02
1.108641137725735319e+02
1.104497924821495189e+02
1.108997978917333711e+02
1.116793185419968353e+02
1.122495364024832725e+02
1.118091873494815189e+02
1.117708896485927710e+02
1.110321983861444721e+02
1.118925340050377883e+02
1.115599887608879044e+02
1.113771244187910838e+02
1.116063453104252972e+02
1.111959837264765554e+02
1.115579557854746895e+02
1.116118151134824927e+02
1.117454230179853170e+02
1.117278551139225300e+02
1.116902551737994713e+02
1.122413620631014624e+02
1.121418506247255635e+02
1.126827484799109840e+02
1.139328529178989413e+02
1.126138088951233698e+02
1.123036194972460322e+02
1.102929552214480680e+02
1.099114162464305195e+02
1.101212897758227598e+02
1.122568162556586913e+02
1.137898376554923061e+02
1.135598899519566345e+02
1.132891662404092159e+02
1.125879604344923877e+02
1.132602237263405272e+02
1.136874424378328570e+02
1.135228606332485555e+02
1.138744025808507274e+02
1.126630873520153102e+02
1.134137681301258453e+02
1.133129653751190773e+02
1.130589033659066303e+02
1.122719987730531841e+02
1.125709910430511513e+02
1.119996177223899849e+02
1.121863513106357289e+02
1.123049976381672224e+02
1.126622213826973962e+02
1.128071221673198039e+02
1.128594620283243017e+02
1.134022553516819443e+02
1.138850378606345259e+02
1.143274619387165245e+02
1.139492159042981569e+02
1.139774139232421675e+02
1.139743604561565746e+02
1.135770614118997628e+02
1.138537512787353592e+02
1.137681877091514053e+02
1.137036822155179152e+02
1.136061958822397600e+02
1.137778850610227153e+02
1.141087422980767201e+02
1.140351201115672382e+02
1.144983598782753091e+02
1.154877803074567169e+02
1.160448883379732194e+02
1.160023506806753630e+02
1.150995413863466439e+02
1.145724294375075232e+02
1.139687685665623604e+02
1.139883019778099396e+02
1.152116762476047569e+02
1.156221736112571818e+02
1.147585217228542263e+02
1.144971459187668756e+02
1.144271585686145727e+02
1.144647763332992128e+02
1.141092980671413954e+02
1.142402715953147805e+02
1.143411881308279021e+02
1.142662870340872843e+02
1.137363456985003864e+02
1.134579517069109045e+02
1.129466386721071132e+02
1.129051671251311149e+02
1.133428126683829333e+02
1.128518636192140576e+02
1.127100882270749338e+02
1.129361169520376507e+02
1.126980620385216980e+02
1.131672585927942833e+02
1.127807752239968835e+02
1.130426226285265017e+02
1.128448211660950591e+02
1.125650712217493492e+02
1.129749733969179886e+02
1.132007234710711003e+02
1.127096883401374185e+02
1.124606638291069629e+02
1.134545064553031608e+02
1.132680323846908834e+02
1.133893399873192465e+02
1.130050088571254037e+02
1.127487089130566886e+02
1.127103464860423685e+02
1.131278973925979443e+02
1.128108188467561348e+02
1.130881163135338738e+02
1.133268616809003078e+02
1.135815139155470206e+02
1.132724247195041869e+02
1.131216737639696959e+02
1.125678737970036707e+02
1.121831672422298851e+02
1.125251285092922018e+02
1.122767579556030881e+02
1.131149664959410472e+02
1.127953779294098524e+02
1.124205146705146774e+02
1.118136992195904327e+02
1.114501167255117622e+02
1.116230870814883787e+02
1.111469953714599512e+02
1.101255465941113698e+02
1.092238029677222073e+02
1.079832333047537389e+02
1.072797301687400875e+02
1.063684880253736651e+02
1.066418899507785341e+02
1.065416931155865967e+02
1.063941659422389563e+02
1.058791259432784813e+02
1.059503248511098974e+02
1.054766580036577182e+02
1.058015704584040719e+02
1.060221719985972157e+02
1.062726754584225972e+02
1.079258289883148194e+02
1.082983681999535577e+02
1.063318471982976945e+02
1.051797900519964628e+02
1.047046999474104467e+02
1.041262307155593447e+02
1.035521425132402413e+02
1.030590243995497843e+02
1.032382451194315252e+02
1.028896308161414197e+02
1.026753334361267491e+02
1.030444895199458983e+02
1.034862804878048763e+02
1.032537491577630249e+02
1.039333422875453152e+02
1.031759432342730776e+02
1.026017172425557789e+02
1.028119703591107879e+02
1.033835391105778569e+02
1.057882733437663063e+02
1.046828586224753934e+02
1.033715459742734595e+02
1.033750911132562464e+02
1.024094029094028997e+02
1.021091994382022534e+02
1.015713064926489153e+02
1.014605834160390714e+02
1.007892233640218365e+02
1.004062398502130122e+02
1.005195409006906004e+02
1.001225813994271334e+02
9.985251294429087920e+01
9.968364492292256784e+01
1.003364826850324931e+02
1.002778177294901809e+02
1.005579769257662264e+02
1.001946774660109867e+02
1.002935879997701107e+02
1.006371402185624078e+02
1.007163704859393363e+02
1.008904522229848340e+02
1.012732186169095456e+02
1.019371878050180840e+02
1.018694199001152612e+02
1.017647597953104679e+02
1.015418238933476260e+02
1.015907688179256780e+02
1.015243613329034531e+02
1.014281204837605515e+02
1.017584601884704938e+02
1.020637437989618661e+02
1.018581905689566156e+02
1.023775286937161724e+02
1.022610111104801831e+02
1.025518364703192873e+02
1.027502958579881636e+02
1.033715203632096404e+02
1.041083396175338862e+02
1.042981700961278619e+02
1.039401282965074955e+02
1.036363183125599221e+02
1.034163326944299257e+02
1.040129779703305530e+02
1.035757476428282189e+02
1.034128808997404576e+02
1.033684019486101846e+02
1.030491335527191836e+02
1.037627066748316054e+02
1.033579991653704582e+02
1.040036522307440947e+02
1.038986605434366624e+02
1.037505739493406764e+02
1.045597017785955245e+02
1.044955484533729049e+02
1.062907675282586411e+02
1.087409025680567254e+02
1.066337351880473960e+02
1.062798037315241118e+02
1.049046641645163760e+02
1.041953464982689610e+02
1.037185145625512632e+02
1.028956397157237888e+02
1.035470437313318541e+02
1.030692772228341454e+02
1.034697880296872938e+02
1.035733713323897405e+02
1.036548501388489854e+02
1.039498684260707080e+02
1.037827769622328589e+02
1.038625423664267515e+02
1.039482991643348129e+02
1.034275141488898555e+02
1.040693296336975067e+02
1.038109036191064263e+02
1.032899585444495614e+02
1.032490393029714966e+02
1.034774945458720765e+02
1.038072194861222499e+02
1.039541933375622307e+02
1.042913431677018679e+02
1.044794867335304502e+02
1.043128648773626708e+02
1.046247121877599966e+02
1.048306179504482714e+02
1.051236722453323011e+02
1.047190665074902682e+02
1.047597158861234590e+02
1.044120447099633822e+02
1.043577051780498550e+02
1.048107954434052971e+02
1.071032252628030932e+02
1.083530272072265888e+02
1.064242455818606174e+02
1.057833979987747597e+02
1.049844562671219421e+02
1.037409041856162730e+02
1.032978986402966655e+02
1.038966832822085991e+02
1.037215143793228975e+02
1.038494497460366262e+02
1.042935841905793097e+02
1.042256175592352747e+02
1.038732402437393745e+02
1.035457269636374065e+02
1.037073123673548025e+02
1.033017736697476892e+02
1.034901378579003222e+02
1.035205395580216106e+02
1.070830692525457408e+02
1.093640929617799316e+02
1.075082624569993470e+02
1.067194897236002760e+02
1.056086039563357986e+02
1.053811157633558082e+02
1.048159668120909913e+02
1.044655436744357644e+02
1.045651180502665625e+02
1.047222157229761308e+02
1.047254122211445093e+02
1.044131585581043566e+02
1.038214573810164154e+02
1.033174049662783460e+02
1.034692190893540129e+02
1.038440905444798688e+02
1.042549853868024030e+02
1.040956968400855374e+02
1.042387614770062498e+02
1.040690678379697403e+02
1.040042260859497105e+02
1.038003850226200910e+02
1.037956427765344927e+02
1.044723255724751567e+02
1.041278484645556262e+02
1.040736346588082171e+02
1.033543647529222653e+02
1.035541526320854615e+02
1.036424601489829911e+02
1.036866229583620793e+02
1.039754404904190892e+02
1.037346349908627587e+02
1.037302471754135667e+02
1.037918219201884256e+02
1.039152078352741597e+02
1.042117337053398387e+02
1.046991022638563607e+02
1.042442090314161334e+02
1.048082722046954558e+02
1.047981398220867248e+02
1.047572704551178902e+02
1.044303637178313409e+02
1.041861798663938004e+02
1.040073855816387862e+02
1.041664400590474742e+02
1.041788275888806936e+02
1.039863311288834211e+02
1.038303505997608767e+02
1.043044236808436409e+02
1.043054863565262735e+02
1.046111786382666793e+02
1.046573892438867972e+02
1.042086005858814133e+02
1.047128910411622371e+02
1.041262256068538790e+02
1.042559978400061595e+02
1.041865769482898259e+02
1.034854459735450831e+02
1.039485294117647101e+02
1.039404491594955005e+02
1.040560938493248244e+02
1.050834549974351972e+02
1.068539197426346163e+02
1.072751472419834897e+02
1.063508296854321600e+02
1.060372811410713609e+02
1.049738661824924577e+02
1.048226408559113310e+02
1.051347471326302809e+02
1.049618765526466717e+02
1.043316578166632098e+02
1.054825181616875938e+02
1.077350680811962178e+02
1.087451013549218857e+02
1.078936157063101433e+02
1.058346447352813300e+02
1.058073021511742695e+02
1.051757149500116242e+02
1.048219191332946423e+02
1.045220471385628684e+02
1.044694038613308749e+02
1.039508706587056253e+02
1.034765716479508626e+02
1.029289571444984972e+02
1.027855224796685576e+02
1.022005682356283813e+02
1.026965136361048394e+02
1.022743056212961790e+02
1.019216903854139105e+02
1.018552516104938803e+02
1.020153535277232209e+02
1.018517539553675988e+02
1.013581299069429207e+02
1.019984931248822733e+02
1.035874649927571198e+02
1.052426827562783416e+02
1.052604971756020973e+02
1.040226727926488195e+02
1.030560293034613721e+02
1.032265371547040900e+02
1.030622674797683516e+02
1.031794646103212614e+02
1.027860114994704333e+02
1.027646199107905574e+02
1.029751413304421845e+02
1.016467794253938877e+02
1.014486224291812135e+02
1.009448820432833003e+02
1.009287275735077003e+02
1.009390727692581038e+02
1.004757329440082145e+02
1.007966034677052676e+02
1.008485740824917514e+02
1.006979595049290594e+02
1.005117594698842822e+02
1.009230723769749005e+02
1.011227845608507181e+02
1.011360025295442853e+02
1.015976652933097881e+02
1.024280002363554019e+02
1.030902261616121507e+02
1.033408538152769296e+02
1.053608230620352373e+02
1.062854348944930507e+02
1.066929656242345033e+02
1.068393144955625900e+02
1.066165112109430169e+02
1.063760372515073840e+02
1.061218398529382654e+02
1.066161550314092636e+02
1.069157045263872874e+02
1.061688169091408298e+02
1.048890072020444393e+02
1.047311640822073144e+02
1.041619127516778605e+02
1.037886996601695273e+02
1.036071703096359613e+02
1.034369927885087748e+02
1.033174422036399420e+02
1.035310256410256358e+02
1.050920363793138819e+02
1.056159840408952135e+02
1.048983627384684780e+02
1.029924377485649387e+02
1.021629849034970334e+02
1.012001583471572843e+02
1.010383548810193020e+02
1.001630908512747595e+02
1.001895783791945149e+02
1.006056479109278854e+02
9.974544448472590830e+01
9.938603186718823679e+01
9.873987271826531753e+01
9.902375987603542740e+01
9.949118742881411492e+01
9.983949196116803648e+01
9.963843342835824046e+01
9.981300999008617225e+01
9.993321940822949045e+01
1.001670173044483647e+02
1.003522038541647134e+02
1.001033611558183907e+02
1.006407334273624912e+02
1.007980706190877669e+02
1.011982220399947892e+02
1.015923420477267172e+02
1.022150464278946345e+02
1.016078256750355422e+02
1.010934758875127102e+02
1.010273115167008058e+02
1.007112297440557285e+02
1.005482368596141072e+02
9.986638922144308594e+01
1.000526216021533941e+02
1.000865119485294059e+02
1.000051757066462841e+02
9.978536325193340417e+01
1.008095535192045276e+02
1.035918607337099218e+02
1.039518618298769894e+02
1.027497132046611767e+02
1.021078117951634709e+02
1.015324685337599391e+02
1.010754284404195431e+02
1.011001584128540713e+02
1.017482436486537694e+02
1.019757332170549944e+02
1.014721792014505439e+02
1.011897175822932695e+02
1.016422006228177679e+02
1.015461797285546766e+02
1.014877716104343790e+02
1.009626742307547715e+02
1.013676230507965670e+02
1.016730714997461860e+02
1.015345032102577534e+02
1.015824397795061600e+02
1.013489207949034920e+02
1.016383466626236611e+02
1.020762186397023754e+02
1.018750572606504790e+02
1.014222970402495605e+02
1.012643830934568712e+02
1.013357460918995798e+02
1.016333004851425130e+02
1.018506393861892576e+02
1.018530808366308662e+02
1.018008898144642131e+02
1.019172272649750823e+02
1.017843715722985110e+02
1.018815226608875832e+02
1.015587185268695833e+02
1.016048346199357582e+02
1.019587441569993018e+02
1.022288605384060389e+02
1.022915403849067957e+02
1.022277425238439150e+02
1.020741323724634952e+02
1.019538666159984928e+02
1.025199328257094322e+02
1.020165907673702321e+02
1.024036473128053757e+02
1.022113433403002176e+02
1.020215603594665339e+02
1.020769274344304165e+02
1.018788761155649638e+02
1.017353349168646020e+02
1.017849550441938362e+02
1.019323968725744436e+02
1.023256004731289437e+02
1.021109241155002536e+02
1.025339931234922091e+02
1.027071282472807923e+02
1.028339857854129491e+02
1.029630804509841369e+02
1.030243385232591606e+02
1.029865092748735265e+02
1.034676279657609115e+02
1.033147797479007721e+02
1.036829268292682968e+02
1.037434897567099767e+02
1.034725114575543188e+02
1.027610970768675571e+02
1.022314835872943632e+02
1.020442070016365932e+02
1.028154073675719360e+02
1.061208641820387300e+02
1.064959753237698834e+02
1.057095126271989471e+02
1.046518076377937092e+02
1.041440012655974954e+02
1.039687183056577595e+02
1.031181870338496935e+02
1.027124891587163944e+02
1.024306933599483358e+02
1.022559121621621614e+02
1.024143940584721690e+02
1.020875939125409388e+02
1.029924235177071523e+02
1.027977254886944678e+02
1.021858981682470784e+02
1.023914871458602533e+02
1.020906431048848049e+02
1.019745827885872416e+02
1.017767653325216770e+02
1.022283270651572167e+02
1.023540884082716644e+02
1.021442885771543132e+02
1.020374247779157599e+02
1.025058038026898970e+02
1.020101709172943885e+02
1.021512058307257860e+02
1.023383952077530665e+02
1.052562919802541046e+02
1.075974244717821904e+02
1.053136131927943211e+02
1.055625252362109308e+02
1.046136260078847897e+02
1.039027505681373071e+02
1.038396397804301614e+02
1.031005317801975139e+02
1.025061819166843975e+02
1.025479436117197736e+02
1.027013519049569794e+02
1.026999106761427640e+02
1.025899281971666994e+02
1.025632784483091058e+02
1.026100579302911910e+02
1.039032103784300745e+02
1.067911814001461153e+02
1.056691677175283672e+02
1.047529753442463232e+02
1.034920498409968275e+02
1.034219415158146091e+02
1.030562687844589078e+02
1.021613937117800930e+02
1.017319037453910227e+02
1.015216923076923052e+02
1.014878351302356521e+02
1.015425016099094648e+02
1.014497290101739964e+02
1.019469387755102048e+02
1.018328837360576955e+02
1.016715707650014195e+02
1.023154911838790895e+02
1.020350100680065424e+02
1.022184396087648821e+02
1.023510122989593185e+02
1.024431773124634191e+02
1.032303809957498544e+02
1.031124172563341688e+02
1.025278580115536613e+02
1.021331678760206927e+02
1.016144751255996681e+02
1.019291873330789713e+02
1.016605852635592271e+02
1.017389378006807448e+02
1.013010441706730802e+02
1.010773051788614794e+02
1.020310657078720027e+02
1.019333600274568141e+02
1.016690124900947154e+02
1.019375178316690551e+02
1.020632188271019203e+02
1.027721531045782655e+02
1.028718573209320226e+02
1.031290304029444513e+02
1.027656247009054198e+02
1.022605647293207198e+02
1.021966242454535063e+02
1.023038619840750982e+02
1.014445797807551770e+02
1.016945067157172673e+02
1.016025547863999776e+02
1.015941396028936481e+02
1.016982966969731876e+02
1.018202560356758539e+02
1.018540331918178339e+02
1.020760882137487044e+02
1.025635949679709853e+02
1.025468786038287021e+02
1.025031040476781641e+02
1.025508885916300414e+02
1.025991545985290827e+02
1.030110509740321021e+02
1.028950762908565224e+02
1.024013310515307182e+02
1.015686954554879122e+02
1.017254763853724455e+02
1.021592678830445067e+02
1.025919355149738692e+02
1.027801396551058986e+02
1.028814461012736814e+02
1.052776742757702948e+02
1.070494012927837275e+02
1.068022950337319514e+02
1.067663351535411067e+02
1.067618013440419560e+02
1.068069486343665773e+02
1.070414003105527456e+02
1.071638783881605406e+02
1.070275326017811750e+02
1.067811031705294766e+02
1.061001317267831610e+02
1.064718197708292990e+02
1.063146389119962976e+02
1.066098078555444175e+02
1.068202262425909339e+02
1.062837786621186211e+02
1.066903663704203638e+02
1.067954609715179686e+02
1.068005471136010271e+02
1.067326649646870180e+02
1.067436379544650578e+02
1.072184745256237761e+02
1.068848469035949336e+02
1.076778047449718656e+02
1.075831429919773541e+02
1.078000150124791361e+02
1.075912818784406113e+02
1.073788530533275605e+02
1.072512578912654249e+02
1.067117903930131035e+02
1.064771235666867852e+02
1.066565208399917282e+02
1.063555773141522849e+02
1.066562523683213470e+02
1.061451277199621614e+02
1.059837773450055778e+02
1.064759948506304283e+02
1.063007631558964334e+02
1.064536211778567463e+02
1.062809676258311384e+02
1.062672130836511286e+02
1.073246680884585089e+02
1.069855898442712032e+02
1.068683165117560918e+02
1.069724281964323325e+02
1.067414622000038236e+02
1.062948213980516243e+02
1.066093357202712042e+02
1.067025048610316844e+02
1.061012076560838437e+02
1.061003453641504422e+02
1.064267782426778268e+02
1.067841737574477037e+02
1.067053693830921475e+02
1.066005094379075047e+02
1.066819908093122251e+02
1.072974339406658402e+02
1.072608212671416510e+02
1.074656049122133794e+02
1.070091369185597330e+02
1.060738483804010457e+02
1.062851782721316454e+02
1.063902555392278515e+02
1.065258385522726314e+02
1.061541590632603373e+02
1.062105050505050627e+02
1.061517250642821466e+02
1.063874380866112830e+02
1.065949130677551580e+02
1.064712518195050990e+02
1.068328962591592699e+02
1.068112756439919764e+02
1.067218642117376248e+02
1.066871710147154886e+02
1.063103712648304793e+02
1.063302635635018447e+02
1.064113106551336330e+02
1.059462939759036146e+02
1.058155971223021652e+02
1.061279027191613267e+02
1.055696053444547431e+02
1.062113413976423573e+02
1.070415014331147603e+02
1.086114827088458412e+02
1.070551704452781081e+02
1.055731557124676669e+02
1.024011685319288887e+02
1.012355952847911738e+02
9.979373948445257270e+01
9.854525875458178064e+01
9.835089375376581700e+01
9.857325901977506533e+01
1.017904135145662963e+02
1.034320693436814480e+02
1.036384712167151463e+02
1.024568899463644840e+02
1.013465137632602051e+02
1.000215592543531216e+02
9.918220579874927978e+01
9.913178822994774464e+01
1.005061322519046314e+02
1.021806379520520096e+02
1.011165015713887954e+02
1.003739630485885783e+02
1.007051748359409515e+02
1.000021753234362478e+02
9.989941055622756494e+01
1.006537699774487749e+02
1.008756902277505958e+02
1.018007598058715786e+02
1.020263029712615577e+02
1.023100669573341719e+02
1.022442808563258296e+02
1.021418270628598037e+02
1.025178156996587120e+02
1.019029985094562392e+02
1.022954939172749249e+02
1.021784398214041971e+02
1.023794574705444944e+02
1.018084273274501754e+02
1.017344941213172831e+02
1.018626602751471211e+02
1.018599175176747735e+02
1.013079227632062214e+02
1.014942522005581793e+02
1.011130605051889546e+02
1.017642274829505311e+02
1.020756033958786730e+02
1.018101946425130109e+02
1.018840763352916383e+02
1.020058477282345279e+02
1.021556076832855808e+02
1.022282786964323549e+02
1.021910637645616191e+02
1.019916927063486014e+02
1.018815158692562903e+02
1.025682513888363872e+02
1.023904718658947246e+02
1.026666347498037197e+02
1.024110397798922349e+02
1.023019132411441490e+02
1.020788977113498390e+02
1.022522987427284704e+02
1.029144750663687091e+02
1.046957184425661751e+02
1.041614223281684559e+02
1.025620600222304546e+02
1.017799455798066361e+02
1.012891397952349166e+02
1.015667795972143779e+02
1.023442498816848172e+02
1.031609320271966084e+02
1.041943637852728699e+02
1.047793950295510399e+02
1.054132802758013696e+02
1.059310119101736518e+02
1.058824415975885387e+02
1.048563564091740545e+02
1.052739860815428301e+02
1.055554039052974389e+02
1.048063536770488469e+02
1.046876037883902910e+02
1.057122779401843928e+02
1.058693681633901917e+02
1.044499537395441990e+02
1.037416392720060259e+02
1.033022695320345434e+02
1.031068793836537481e+02
1.038115109513397414e+02
1.030356241130830739e+02
1.032866074731779520e+02
1.035565666548567094e+02
1.032531802840930197e+02
1.032552297382353999e+02
1.031291135021019016e+02
1.031003928981800613e+02
1.031095734985026837e+02
1.033407530412717392e+02
1.030132829433668746e+02
1.032391158115026570e+02
1.029416112755776567e+02
1.027019882220458129e+02
1.033485777090590574e+02
1.024698799563477678e+02
1.031781974122540646e+02
1.029232024944974313e+02
1.026537884608349032e+02
1.027000110107905755e+02
1.027273391278942398e+02
1.027727832852071828e+02
1.028765975392852425e+02
1.025173938463787096e+02
1.027484768406371671e+02
1.029635432025951047e+02
1.025951380607283738e+02
1.023195159296769816e+02
1.024097494997405988e+02
1.024062229107877329e+02
1.024183865956502473e+02
1.022320678229642823e+02
1.020760597124953932e+02
1.025306167808853530e+02
1.022370530152295487e+02
1.028600475112698973e+02
1.046981605021118611e+02
1.066853233318221186e+02
1.065703480193276107e+02
1.070348388652254386e+02
1.074471512692754658e+02
1.078634105638995493e+02
1.081770114942528664e+02
1.101022904070740793e+02
1.107671663634206283e+02
1.110609997841062864e+02
1.106022654661632316e+02
1.096820831269762664e+02
1.094930311937043683e+02
1.090182028479872542e+02
1.079852298305336973e+02
1.070333944954128356e+02
1.063026433242854267e+02
1.062567684305328441e+02
1.046895113555648749e+02
1.028975815316966020e+02
1.014521314533384526e+02
9.979691037180579372e+01
9.884560901383957798e+01
9.776325564457391692e+01
9.680029495341894119e+01
9.582506374840629348e+01
9.505513448725631065e+01
9.507154923629197185e+01
9.488537035409893861e+01
9.461437671552126005e+01
9.518950725341005636e+01
9.530502926812371811e+01
9.656513487391266892e+01
9.818082934384679561e+01
1.018919247985675867e+02
1.047942631058357961e+02
1.046822478536120116e+02
1.044955907370760002e+02
1.040427103014335017e+02
1.043266037236389394e+02
1.030744262936167956e+02
1.030751890503475749e+02
1.028897893615869208e+02
1.027678756854243716e+02
1.024413438389144204e+02
1.023478381579921432e+02
1.023890425810310632e+02
1.021521228612964620e+02
1.024651568267393742e+02
1.028739848576509104e+02
1.034508987245700666e+02
1.031232012397609026e+02
1.038674001049553937e+02
1.039858974358974422e+02
1.035915285794079210e+02
1.036267502184867624e+02
1.040396887741742376e+02
1.042746151966772601e+02
1.042628794891655417e+02
1.043727191600053175e+02
1.036801092088049501e+02
1.033460150117458198e+02
1.035491184841365424e+02
1.031913473752061634e+02
1.033900513074825085e+02
1.030304944951004558e+02
1.031569116771927241e+02
1.036944999902929538e+02
1.034397369639000317e+02
1.025969991507030272e+02
1.037262518340167787e+02
1.040095670259028253e+02
1.041361954387554789e+02
1.041146022727272680e+02
1.038087152830475048e+02
1.032687196233292752e+02
1.029159447701910324e+02
1.026824240135926090e+02
1.033365142758395621e+02
1.031475765428543951e+02
1.029479951907479176e+02
1.031018884581430086e+02
1.039222133587563519e+02
1.030198242112535354e+02
1.036499832244567756e+02
1.028015499045912975e+02
1.024202373492088327e+02
1.036076267549506440e+02
1.026015787786504205e+02
1.017035607203746821e+02
1.007310026004045085e+02
1.003738589608649932e+02
1.005353890214797161e+02
1.007092706856244888e+02
1.005690312738367709e+02
1.004095191438046442e+02
1.008843615715162656e+02
1.008521608134827261e+02
1.017206715675013555e+02
1.017181369759058924e+02
1.019503982621288856e+02
1.018326407685562884e+02
1.020347861008586534e+02
1.019011195445920350e+02
1.019806535799387319e+02
1.021273979620880112e+02
1.026611070731800623e+02
1.023913192657402647e+02
1.033067574043899128e+02
1.032393863649373174e+02
1.039440350605026282e+02
1.039358999000538120e+02
1.038470097889262860e+02
1.053408506190705936e+02
1.068406932280745139e+02
1.061081252558329879e+02
1.055385618293049959e+02
1.046262364578426656e+02
1.046984023924762965e+02
1.042356028966626980e+02
1.045696279691678399e+02
1.041584267491302569e+02
1.047827868060520586e+02
1.053522922663781713e+02
1.056868192672840649e+02
1.054947399011915223e+02
1.053347308628617753e+02
1.051152328032190013e+02
1.049216463355694344e+02
1.050763286881307010e+02
1.050664120232633962e+02
1.051099282617869477e+02
1.049660182079540078e+02
1.050338176304627495e+02
1.052875555385322457e+02
1.047318281108767763e+02
1.048851102249642651e+02
1.054965556612749680e+02
1.058421943525428901e+02
1.058992066216576973e+02
1.051100742715673277e+02
1.042554728009804847e+02
1.044657962555900781e+02
1.043703341728376586e+02
1.043758370325784313e+02
1.041353710970503812e+02
1.038588674316633984e+02
1.044616868016561853e+02
1.044898747113819724e+02
1.047379955490173984e+02
1.050070224184524079e+02
1.068560838393890720e+02
1.077403292010448297e+02
1.062516744101852453e+02
1.056287451909998794e+02
1.048953091439091736e+02
1.037425764889281226e+02
1.034906327125869439e+02
1.036417015499490901e+02
1.037756878477084257e+02
1.034640380873212280e+02
1.032470627979430162e+02
1.029848938639511857e+02
1.030758292053566407e+02
1.038411537054508358e+02
1.052539575545887232e+02
1.046762003496361331e+02
1.033154846654096275e+02
1.021445518535898600e+02
1.022414104882459327e+02
1.016417375727720440e+02
1.015417947895640367e+02
1.012291479316546656e+02
1.009306463188909504e+02
1.011207832530143378e+02
1.013886143808306457e+02
