2.571039624693249870e-02
-9.148600686567951445e-01
-1.608878018829216439e+00
-1.934987283553009974e+00
-1.927887579738703394e+00
-1.705111720719218571e+00
-1.376321172580542207e+00
-1.018733782897856210e+00
-7.140451524485299517e-01
-5.645048352840231765e-01
-6.273357874424621006e-01
-8.117109377626957611e-01
-8.598474348849064475e-01
-4.874621715163376390e-01
3.873789701482015513e-01
1.510311809771342384e+00
2.392896598565598776e+00
2.610741280670224818e+00
2.086107949969143061e+00
1.137577923462530949e+00
2.551507314960924644e-01
-2.262626103258447152e-01
-3.083473902313235704e-01
-2.458238655305425291e-01
-2.933410816028508838e-01
-5.014684272617816463e-01
-7.164122856647952009e-01
-7.543813977888479405e-01
-5.802887844438644471e-01
-3.353558725919417172e-01
-2.026797283524583715e-01
-2.409823901245382594e-01
-3.355599433586153868e-01
-3.054134222032723334e-01
-6.893871725871936196e-02
2.757131578990625331e-01
5.222530658342545706e-01
5.174062047314611501e-01
2.779349230274518190e-01
-2.829756473250338855e-02
-2.146859143283987303e-01
-2.093725624355461112e-01
-8.425048904075263523e-02
3.322912551073248233e-02
7.940109572267392557e-02
9.722112453399991971e-02
1.677402313877899009e-01
2.995570086616705652e-01
3.890652405904960198e-01
3.038024511283362594e-01
2.365438341331965733e-02
-2.959277826866988925e-01
-4.243522329099818080e-01
-2.623451047629700161e-01
2.052804355696857819e-02
6.843164054130990159e-02
-3.769224268628379448e-01
-1.198132416002354317e+00
-1.876429558293724487e+00
-1.796336601437089397e+00
-6.952682682857591612e-01
1.073335856337057415e+00
2.687714676336320885e+00
3.344773936305038831e+00
2.755611845365687262e+00
1.303839280912504561e+00
-2.331907734567657542e-01
-1.184766058329299598e+00
-1.351887524820450270e+00
-1.010803574250100034e+00
-6.121548126898113118e-01
-4.401009186065910073e-01
-4.787172620686770963e-01
-5.339406558191880370e-01
-4.574300278703661848e-01
-2.712640766782303259e-01
-1.124121167326604387e-01
-8.068127037487268782e-02
-1.422705693964085860e-01
-1.706583644116372867e-01
-7.499161158261841154e-02
1.079076332879130296e-01
2.415072529388759826e-01
2.113123762329400246e-01
3.357192518434787276e-02
-1.418464407414800899e-01
-1.370244834904918441e-01
1.240654703542047876e-01
5.587759884771715813e-01
9.764887207486796505e-01
1.190235278480620273e+00
1.109564352660249664e+00
7.661759332404131095e-01
2.799791246024303515e-01
-1.970940183291077230e-01
-5.332076403181319479e-01
-6.605364391233941035e-01
-6.065672715592442810e-01
-4.895467072283157250e-01
-4.549471995985521211e-01
-5.721910429645624685e-01
-7.653324402462629017e-01
-8.538824511727198807e-01
-7.009853387900619737e-01
-3.592249659339146750e-01
-7.297882991562693045e-02
-9.596949722523850923e-02
-4.492678283941049511e-01
-8.313097066541857982e-01
-7.970532811609560842e-01
-1.025102946442233431e-01
1.053129226307141009e+00
2.105097109621894447e+00
2.491951970205360301e+00
2.044043472194422506e+00
1.090471504538216285e+00
2.035436270993991603e-01
-2.118087656199885149e-01
-1.623683332008385993e-01
2.421607524151142554e-02
1.459693814674856149e-02
-2.673559992826761711e-01
-6.288058946509718083e-01
-8.143495164193735869e-01
-7.247639034477518782e-01
-4.681471233947369082e-01
-2.374601390836834081e-01
-1.556477808286970133e-01
-2.233633713227204387e-01
-3.774689160824996614e-01
-5.629242180379061544e-01
-7.379051571323401726e-01
-8.356453149601019703e-01
-7.703417758735850995e-01
-5.209731623526229205e-01
-2.126036573082888403e-01
-7.384923252630515300e-02
-2.500899864087603452e-01
-6.130149716523780601e-01
-7.634424944765156873e-01
-2.906947855347357113e-01
8.773682429041431696e-01
2.318920931337173919e+00
3.322657291188501283e+00
3.336714709426080283e+00
2.337481699322402573e+00
8.412037855439378209e-01
-4.459023792465521829e-01
-1.070391059981827375e+00
-1.048470428390312792e+00
-7.391074754727819940e-01
-5.245319552710956401e-01
-5.632476690775629624e-01
-7.694878414577041026e-01
-9.642925937964481609e-01
-1.027796407338242624e+00
-9.381282450781616156e-01
-7.215954477937340794e-01
-4.128314895220479563e-01
-7.281861300878555987e-02
1.857318957317716235e-01
2.412076666594426544e-01
6.819946592179637612e-02
-1.984518064265944071e-01
-3.383770963073141624e-01
-2.309956127183460384e-01
7.569712075630674608e-03
8.911260759900052619e-02
-1.926772689750673173e-01
-7.195079184201748079e-01
-1.048632253292209660e+00
-7.069320309757489706e-01
4.231432532245997802e-01
1.933367614024446457e+00
3.094927581867341182e+00
3.308853520006958426e+00
2.478363589008430345e+00
1.042282402232660221e+00
-3.306356002385237858e-01
-1.146109281771735544e+00
-1.312053051466702369e+00
-1.084207456520755342e+00
-8.343267559296543290e-01
-8.278697282473816976e-01
-1.124440496931902844e+00
-1.592390794094921791e+00
-1.976461390448441158e+00
-1.988666321125229564e+00
-1.428843715545018878e+00
-3.158820442523688765e-01
1.049702063408470831e+00
2.177552645546161347e+00
2.627079892689987872e+00
2.260693038319847137e+00
1.333340187709047386e+00
3.405371864678055083e-01
-2.798145787334121448e-01
-3.899835458583429393e-01
-1.838263055945364988e-01
-8.364244525455061252e-03
-1.163365621986213183e-01
-5.138322074807663009e-01
-9.795280697188475383e-01
-1.218127544676867791e+00
-1.047756336829320123e+00
-5.233274571551072007e-01
6.574867361411290689e-02
3.373214563837965696e-01
4.914286918837751372e-02
-6.967300144626706881e-01
-1.426977709299514174e+00
-1.525515543274996944e+00
-6.274510772312011930e-01
1.068372393155050393e+00
2.816879276003696919e+00
3.722700620456973475e+00
3.284523648148608643e+00
1.719109359029190598e+00
-1.712883065606514155e-01
-1.502629348230978046e+00
-1.831823523008694776e+00
-1.344287349672461218e+00
-6.134091162940419339e-01
-1.528589438295054337e-01
-1.051850103412195481e-01
-2.629454111358840440e-01
-3.414871994380066500e-01
-2.443282603440471712e-01
-1.101415980268500294e-01
-1.388139247648309260e-01
-3.772453239890062870e-01
-6.591490502047819833e-01
-7.445502876679902515e-01
-5.305732646256535734e-01
-1.491755366999695243e-01
1.333778168351599791e-01
1.349343777342128514e-01
-8.393119670098773966e-02
-2.535514588097859123e-01
-1.035010601464479429e-01
4.107624495256653185e-01
1.041094049339457595e+00
1.403250852831628315e+00
1.251144366785099882e+00
6.648564884735034264e-01
1.364909522110269169e-03
-3.682848732749113285e-01
-3.410062195229192072e-01
-1.577811646448550320e-01
-1.965258474608384542e-01
-6.291696953603258535e-01
-1.216362025002066360e+00
-1.427175955820469522e+00
-8.241369189937819417e-01
5.652119605381424883e-01
2.179870315954414828e+00
3.232376975035625044e+00
3.183593700791422343e+00
2.054981422782410139e+00
3.759576377643860656e-01
-1.166448706065843943e+00
-2.112156399324312872e+00
-2.400627903296659316e+00
-2.274093233993196073e+00
-2.044041945328504806e+00
-1.902926991917793798e+00
-1.869967973278375828e+00
-1.838236135605308297e+00
-1.646857178904801877e+00
-1.143273104968267617e+00
-2.487547768695672623e-01
9.686003637065869754e-01
2.257893792397045463e+00
3.247026227188618108e+00
3.604948474339123354e+00
3.218621898824405747e+00
2.264358345105891956e+00
1.116406732799152923e+00
1.501385578320266756e-01
-4.313630108211541359e-01
-6.461097666664541439e-01
-6.531512468087888879e-01
-6.230289444914095531e-01
-6.486729687025649671e-01
-7.330046186716454582e-01
-8.285050860316425236e-01
-8.828988389572471895e-01
-8.647314252193321060e-01
-7.701812165610395500e-01
-6.210619417842303536e-01
-4.560679639981521927e-01
-3.127902207090993980e-01
-2.066967882849339300e-01
-1.235895076280436600e-01
-3.662459646816584868e-02
6.261343566034238695e-02
1.469496672883327526e-01
1.708871612519314021e-01
1.126964060949307289e-01
5.434660876180996691e-03
-7.470123620195079361e-02
-5.939779336563066892e-02
6.062465738153396955e-02
2.273691370534558498e-01
3.590890124616598622e-01
4.108940588046879894e-01
4.029188426748412377e-01
3.938376589112686510e-01
4.234895007399051003e-01
4.736679443784905796e-01
4.799692266753180503e-01
3.848231942344384482e-01
1.885484835079200283e-01
-4.232996612708084250e-02
-2.161696992282782781e-01
-2.757869711871208107e-01
-2.328801329871426073e-01
-1.533290384506286186e-01
-1.052410023223854657e-01
-1.076944936530264407e-01
-1.171941427927766233e-01
-6.255808237930376992e-02
9.475411941898848056e-02
3.168534629427757765e-01
4.957050907123370931e-01
5.114361752364573466e-01
3.089150867005334700e-01
-5.804638642504983403e-02
-4.502119491232625115e-01
-7.274632493206585337e-01
-8.430125554144063393e-01
-8.797695353691250553e-01
-9.918893526177919862e-01
-1.279607705881105506e+00
-1.682484259539188010e+00
-1.977617542624402924e+00
-1.901792067724426882e+00
-1.321706030463300596e+00
-3.287179168708749266e-01
8.180490265317128529e-01
1.860532407778686448e+00
2.689128118505090814e+00
3.347201163977628013e+00
3.888961314106555101e+00
4.217689225196302516e+00
4.062140831112245110e+00
3.144428545590343127e+00
1.431100177865485046e+00
-7.279104787547865385e-01
-2.703793975011919759e+00
-3.896086870924877932e+00
-4.050796157581765478e+00
-3.381203949816780518e+00
-2.413318751028284304e+00
-1.660224527212178502e+00
-1.336791292231705564e+00
-1.289591580902212931e+00
-1.168331320145004515e+00
-7.079525505150366937e-01
7.305246641492102455e-02
8.864215221019093871e-01
1.380734714509336047e+00
1.391525072751411907e+00
1.058709415922446606e+00
7.289206573026169034e-01
7.110734046050621870e-01
1.057156538921369515e+00
1.523044677403592617e+00
1.736564221580879197e+00
1.452978244594955060e+00
7.184182541520497400e-01
-1.672725222286248759e-01
-8.500415676689618838e-01
-1.133833525564011069e+00
-1.060989019207149164e+00
-8.263774784330074619e-01
-6.139821621455803236e-01
-4.858901342701826831e-01
-3.908074158339843174e-01
-2.551656252523479829e-01
-6.335393483942214354e-02
1.367099638769955772e-01
2.888776251935573636e-01
3.796208143639243637e-01
4.351565173734743275e-01
4.753510888817212288e-01
4.776463666540243791e-01
3.910882416519884663e-01
1.883781728510495745e-01
-9.472923877432232187e-02
-3.718405526962352825e-01
-5.605558437292131879e-01
-6.313069090826357588e-01
-6.100029394414687722e-01
-5.384202528054056192e-01
-4.338588242061526823e-01
-2.855352120216823608e-01
-8.597211586482372825e-02
1.389323815482104152e-01
3.340874083393268745e-01
4.504360323925813980e-01
4.763966532376133767e-01
4.352219631963564761e-01
3.533768761574133110e-01
2.348709283826906080e-01
6.989476414201267751e-02
-1.309796579617862333e-01
-3.158875126484771978e-01
-4.138519671354610185e-01
-3.875668632228479460e-01
-2.691334318392614167e-01
-1.399861058852253648e-01
-6.556694626041115193e-02
-4.081524835547575836e-02
1.221293639148662846e-03
1.206666544639419247e-01
3.039411017493514056e-01
4.658787137187238026e-01
5.273967061100949261e-01
4.997871706259335856e-01
4.888392217065940515e-01
5.980057754525749392e-01
8.075152307305799582e-01
9.449286652886351723e-01
7.957301891859123177e-01
2.790059062819363334e-01
-4.574653583653074396e-01
-1.113923870552562034e+00
-1.436440097347345457e+00
-1.378751012709273027e+00
-1.099543281378253523e+00
-8.098239275887252342e-01
-6.144368014152019608e-01
-4.864533426806691985e-01
-3.762184936881821096e-01
-3.192943048517712379e-01
-4.075790336778740697e-01
-6.345454296027644991e-01
-7.796584152289449676e-01
-4.971979031092617074e-01
4.034620091642837636e-01
1.703713816592527186e+00
2.797588044801373464e+00
3.040676682361707073e+00
2.199142540042147154e+00
6.557145759219908943e-01
-8.074490744879936344e-01
-1.506776103591578542e+00
-1.274690902583275776e+00
-5.006831469445836014e-01
2.044741917348282534e-01
4.414008918498443790e-01
2.292376282713565749e-01
-1.235012289417627696e-01
-3.223695954362102989e-01
-2.961416590965330053e-01
-1.699626241246463554e-01
-8.494209708275196613e-02
-6.305187058433098235e-02
-3.586589748203017347e-02
2.490737609600413016e-02
3.710922835715113610e-02
-1.134721391224590703e-01
-4.250576225820399956e-01
-7.305852229618962079e-01
-8.289792626262282305e-01
-6.917349590597383635e-01
-5.354222992330384123e-01
-6.476207693532206600e-01
-1.083110643021020891e+00
-1.502131281159565068e+00
-1.342785422079314284e+00
-2.474089748936036948e-01
1.577226185240023781e+00
3.375908810689160156e+00
4.272727292439392421e+00
3.821510304942317138e+00
2.282268427085284657e+00
4.288052166613267602e-01
-9.576282962246349673e-01
-1.535278775400768847e+00
-1.492273691821882187e+00
-1.274161818871532459e+00
-1.204717258551203374e+00
-1.292118293634838100e+00
-1.323493582062635898e+00
-1.114066894068188596e+00
-6.834761982118715551e-01
-2.314563337742886473e-01
3.260037887502004184e-02
4.528042048032487887e-02
-8.993237592745312314e-02
-2.073434916727162070e-01
-2.034231390516940685e-01
-8.263457532321932808e-02
8.831639458811561816e-02
2.542817163822482796e-01
4.044108786835952096e-01
5.498423963152693217e-01
6.869736140679817415e-01
7.912809877778939072e-01
8.451542121501540716e-01
8.629035529381057223e-01
8.781614774091739406e-01
9.002467542929284416e-01
8.843602673502839462e-01
7.551342577824426971e-01
4.742989463622229174e-01
9.450847292366496011e-02
-2.582682026091213112e-01
-4.736150468346523867e-01
-5.476544306633561732e-01
-5.919569372629450710e-01
-7.395799525086417248e-01
-1.022143737182156453e+00
-1.331425649202451433e+00
-1.514558257721359880e+00
-1.527433943779410441e+00
-1.497760118442829746e+00
-1.609846840539346235e+00
-1.884727153724857107e+00
-2.053742228318395480e+00
-1.682913506946774884e+00
-5.053842365301124406e-01
1.282820835829526995e+00
3.027814098329090875e+00
3.978616189238984191e+00
3.773158134704261535e+00
2.692728960538198990e+00
1.480655607765754667e+00
8.443840563642076580e-01
9.993442559171622497e-01
1.576341719775634864e+00
1.933648063618244706e+00
1.617812572925858117e+00
6.348579975032730971e-01
-6.273517395680654474e-01
-1.708811523717870040e+00
-2.355400569548060652e+00
-2.580569340271081646e+00
-2.532814019714364484e+00
-2.335666756170933223e+00
-2.039524113624863411e+00
-1.680797307311728606e+00
-1.335967227828127157e+00
-1.085904802682933212e+00
-9.269498883332745187e-01
-7.448828727388403514e-01
-4.154095372103657757e-01
4.397180395270028352e-02
4.290948029919400275e-01
4.974454538373606627e-01
2.155448756289443102e-01
-1.137641801997514301e-01
-2.232549465516209253e-04
8.744524746639470436e-01
2.351328125494951848e+00
3.802642136144047225e+00
4.487723768479551012e+00
4.018593181733773889e+00
2.602232666742660072e+00
8.894035896488423631e-01
-4.489467130799342787e-01
-1.107889024262865618e+00
-1.240605558772334138e+00
-1.235411364628123732e+00
-1.380290365497885308e+00
-1.665294133579711122e+00
-1.836201135331121392e+00
-1.621128632655565616e+00
-9.515498333331353642e-01
-3.917745459713151135e-02
7.132133044551054457e-01
8.953369731138163257e-01
2.743908675824173748e-01
-1.083113625548811410e+00
-2.787748664651253705e+00
-4.222810131072407991e+00
-4.757080723002474087e+00
-4.017200603790465507e+00
-2.097417605056994816e+00
4.269412323389807362e-01
2.731312250487488935e+00
4.120937123641405186e+00
4.350527317531621918e+00
3.698990867722024234e+00
2.762418299432097157e+00
2.102561736010011728e+00
1.963946932438997095e+00
2.205475010380638867e+00
2.445613775303696613e+00
2.304265866775924820e+00
1.603466104447417440e+00
4.442426198560165407e-01
-8.525630893494877682e-01
-1.905530808645579333e+00
-2.465232998970849465e+00
-2.549575155921481429e+00
-2.434270265886353091e+00
-2.473655975139986474e+00
-2.840179203828585575e+00
-3.357478480576142399e+00
-3.571757150898290156e+00
-3.048172287056646113e+00
-1.699345935255494044e+00
9.798782549229345662e-02
1.702320122105837719e+00
2.591723944805861102e+00
2.658711605309307391e+00
2.210264844896151715e+00
1.696496534631602326e+00
1.392878285263058125e+00
1.273420442503088390e+00
1.136596267715066721e+00
8.397184803538882969e-01
4.329212231160235458e-01
9.907353617172320881e-02
-1.732520807206716640e-02
7.109709123766294603e-02
2.201058174906969089e-01
2.773613820919116346e-01
1.847847613913526921e-01
-1.378527549914904116e-02
-2.339416285828792019e-01
-4.064952893599425576e-01
-4.905375620260651326e-01
-4.704868050487963083e-01
-3.736743563272389990e-01
-2.924481096276526082e-01
-3.528236985355124311e-01
-6.096349369910876170e-01
-9.433642341213801519e-01
-1.081405628631037619e+00
-7.868893275157934353e-01
-9.652428981877558822e-02
6.050811404342367750e-01
7.963365289284228821e-01
2.048536777602658621e-01
-9.221406647571328552e-01
-1.907781031972852315e+00
-2.074503153006278744e+00
-1.212298490943520823e+00
2.661182096356353721e-01
1.604976346262637188e+00
2.209331928220297669e+00
1.999052350129386202e+00
1.372636855893935026e+00
8.515756531163429788e-01
7.051607558364000328e-01
8.292858532515046122e-01
9.198495346077053547e-01
7.524373258289884792e-01
3.354804614484938607e-01
-1.505539481591520179e-01
-5.297158027223823895e-01
-7.555235892277650800e-01
-8.972269462888698976e-01
-1.033375767542825674e+00
-1.163841297127127916e+00
-1.210162798837187692e+00
-1.085664537161654675e+00
-7.661581200525647839e-01
-3.106172168818012169e-01
1.674338704474163109e-01
5.467444541630688271e-01
7.394120037109661592e-01
7.205660560869981968e-01
5.420582029174983996e-01
3.143472999403738033e-01
1.468628353539797593e-01
7.259645811075066124e-02
1.713056775489335548e-02
-1.414538692216437132e-01
-4.466714925220777177e-01
-7.715643681884726268e-01
-8.615553477750501621e-01
-5.162019385448781694e-01
2.142994592690093958e-01
9.873765532180195370e-01
1.353449355001110854e+00
1.061550744646025279e+00
2.614575890774876177e-01
-5.667977070040121079e-01
-9.260590333001020857e-01
-6.370610085212189411e-01
5.115276365102339184e-02
6.548772046163382488e-01
8.029641560504064968e-01
4.767856058434853939e-01
-2.372745684247029585e-02
-3.374178534359695281e-01
-3.086136892858932224e-01
-6.409099402597756567e-02
1.317519506013649366e-01
1.018616451703581727e-01
-1.224764016505390241e-01
-3.612616882143475650e-01
-4.494263035302601961e-01
-3.579697912788852854e-01
-1.846173006560360985e-01
-4.700219026067480044e-02
1.420633015284795964e-02
4.224015552255416805e-02
9.250771301634394539e-02
1.614755909043780191e-01
1.845114579589888226e-01
1.007185791941533626e-01
-7.849380344188838787e-02
-2.601907135564150986e-01
-3.282884832099410843e-01
-2.211558255406560480e-01
3.045308111069833235e-02
3.259792459165028466e-01
5.514147999989695847e-01
6.265961203243111122e-01
5.226619762520080537e-01
2.602524164439652954e-01
-9.310673908366373652e-02
-4.274752739914534083e-01
-6.171348228134649894e-01
-5.795057445023527043e-01
-3.390810166039218698e-01
-4.130971179935491455e-02
1.192019941645644510e-01
2.733499725159152516e-02
-2.556385463255930190e-01
-5.119169458226252578e-01
-5.095927061590120877e-01
-1.734246493838327852e-01
3.472697262798947193e-01
7.771897006760909443e-01
9.149798214401918539e-01
7.812608819998518861e-01
5.921834981030926759e-01
5.706818015271033495e-01
7.427750663403734910e-01
8.894632917299610808e-01
7.084818069950480357e-01
7.045645422003787850e-02
-8.335748650882961464e-01
-1.584870601629239317e+00
-1.818597210130920683e+00
-1.488522869993643027e+00
-9.077030904187675109e-01
-5.198218194754065102e-01
-5.624081061749457433e-01
-8.753438235349693120e-01
-1.008566057585681408e+00
-5.602382173003230825e-01
5.016628695037390617e-01
1.775915857166006084e+00
2.674160787508030435e+00
2.796695752229287457e+00
2.164919751914124113e+00
1.154532422764331212e+00
2.061969105825062210e-01
-4.488142057300340548e-01
-8.477066018021813809e-01
-1.135391943819598071e+00
-1.362253820655696224e+00
-1.433678357393254554e+00
-1.245814160142429516e+00
-8.578066479340664685e-01
-5.105667107652742676e-01
-4.447078679280622726e-01
-6.672492035989313619e-01
-8.862510748286602791e-01
-7.032443566600721230e-01
6.870277016552384097e-02
1.215072813580708955e+00
2.222639826595860235e+00
2.609250720952881242e+00
2.235028059438063153e+00
1.367085714990317058e+00
4.657839768148540061e-01
-1.297238001277308816e-01
-3.815696157830953394e-01
-4.906706663956736936e-01
-6.771961757975029084e-01
-9.927558041868346228e-01
-1.298753707266814050e+00
-1.398664210864226431e+00
-1.199683924826087544e+00
-7.800726556201436068e-01
-3.299056585909028172e-01
-2.797630660674993441e-02
5.395324478687768543e-02
-3.073252607244730816e-02
-1.525668407937933180e-01
-1.795869255138570486e-01
-3.832133745504423539e-02
2.552097837355923327e-01
6.004499418058750759e-01
8.551637391211771577e-01
9.065436703455227452e-01
7.386561845076115018e-01
4.511236960292716036e-01
2.037459153601709205e-01
1.125965785819580955e-01
1.683932071333048008e-01
2.437924628186380338e-01
1.940703854212922908e-01
-2.099892096019034815e-02
-2.920567778565987815e-01
-4.349358089356453738e-01
-3.313759195595949447e-01
-2.360353271368492711e-02
3.146371559575170118e-01
5.055682949947568616e-01
4.858970143849575818e-01
3.205460442883344419e-01
1.124163534013080112e-01
-9.755445958384953431e-02
-3.431598187775610764e-01
-6.531506290312851792e-01
-9.710436967078388548e-01
-1.172059026492012102e+00
-1.176463675600658121e+00
-1.049061456474329912e+00
-9.663789767904696903e-01
-1.048670925783010244e+00
-1.194415947018521162e+00
-1.084975829203798980e+00
-4.012768126003469771e-01
8.908690220176507246e-01
2.414231082149167484e+00
3.539189869933148991e+00
3.741818241228715980e+00
2.919020202358750815e+00
1.445984431398878778e+00
-5.312367544748375359e-02
-1.054456281537499596e+00
-1.376140445233358989e+00
-1.186684911270682985e+00
-8.227323809841464719e-01
-5.651591038906158548e-01
-5.099534377808947472e-01
-5.784795363488306474e-01
-6.219918600035121425e-01
-5.392470205518883342e-01
-3.416882163172657028e-01
-1.394783822365157633e-01
-6.270547527959358103e-02
-1.663927427892515909e-01
-3.826655019032244032e-01
-5.603914362135793414e-01
-5.723088974074115320e-01
-4.104612918960003354e-01
-1.879127175952756135e-01
-3.663016784887671018e-02
1.344117591673396617e-02
5.888918680045521215e-02
2.135400511219611164e-01
4.574911181114935665e-01
5.984523685323210884e-01
4.186873603158938195e-01
-9.018276499200517105e-02
-6.137282163404501611e-01
-6.658474501121103284e-01
6.397919306525556848e-02
1.421303864925751004e+00
2.799036079320551096e+00
3.477684142103084852e+00
3.064295855537485735e+00
1.719601749777050825e+00
2.544588263611213819e-02
-1.384912899787109852e+00
-2.155896078627440371e+00
-2.295928918568780119e+00
-2.037275392181028266e+00
-1.645544913052291225e+00
-1.329240641931781930e+00
-1.245473441353825761e+00
-1.488575623069013032e+00
-1.996963259681362013e+00
-2.461002603611416539e+00
-2.390029605787528766e+00
-1.392473440921152106e+00
4.869045052405294172e-01
2.646302064179095748e+00
4.184041459731096424e+00
4.415208858879237752e+00
3.305544678154535898e+00
1.507602213697363025e+00
-4.213793656524233988e-02
-6.929515424225878295e-01
-4.307468794722322247e-01
2.077985187115034549e-01
5.626047059500401959e-01
3.006022754866846114e-01
-4.115766019898541295e-01
-1.091414119939018157e+00
-1.310418409170150067e+00
-9.776657697003043879e-01
-3.595955756059135977e-01
1.403083367210045118e-01
2.611182759806602860e-01
2.819304688655754898e-02
-3.155742575260806482e-01
-5.132489888087695684e-01
-4.727417425946639495e-01
-2.997870167372586048e-01
-1.819758957416396372e-01
-2.282906953319785992e-01
-3.896427874784637035e-01
-5.125635083229898026e-01
-4.720132502996319257e-01
-2.724805548426114665e-01
-3.927125034446951601e-02
8.665697328445842729e-02
6.156929038188946324e-02
-3.023663496674955375e-02
-4.755362110177563384e-02
9.622333419125086995e-02
3.703847544008939674e-01
6.573731346166474809e-01
8.439097172490876986e-01
8.951299170760025348e-01
8.553227339120479389e-01
7.850994807895617100e-01
6.983393213818712697e-01
5.579626731112756755e-01
3.326022124557840853e-01
5.743282168290964051e-02
-1.650355173498962713e-01
-2.355859929814644593e-01
-1.438332418041911864e-01
9.036433165287016678e-03
7.897126521876118854e-02
-1.243680606740976691e-02
-2.217802668941036282e-01
-4.321541151589286534e-01
-5.671357723974760345e-01
-6.682325138393165886e-01
-8.579054122217861789e-01
-1.207790878195553086e+00
-1.621164667529925829e+00
-1.840358220599361827e+00
-1.596361102495780671e+00
-8.034460303244385093e-01
3.401943839277239423e-01
1.421015623085680746e+00
2.007111964173723617e+00
1.855183230656520577e+00
1.019430473318042374e+00
-1.732167981232859422e-01
-1.248695070448420319e+00
-1.755702915127268060e+00
-1.431284824048063342e+00
-3.175220818355395380e-01
1.222092503751372128e+00
2.624403532330900735e+00
3.363689008986875173e+00
3.198622652245081355e+00
2.287401163396576287e+00
1.089453535302653098e+00
1.029969452603912705e-01
-4.022742812027735870e-01
-4.935781439395586778e-01
-4.683847558298946945e-01
-6.189146882902945013e-01
-1.031294497078410144e+00
-1.547443066804244705e+00
-1.901814721870767499e+00
-1.929354726246116369e+00
-1.697663308301971430e+00
-1.468278433776514236e+00
-1.505706917055041227e+00
-1.859427146508089823e+00
-2.275127994638521223e+00
-2.318257665887983876e+00
-1.651842778878318985e+00
-2.917991364949659161e-01
1.343511794754143729e+00
2.646381152252674340e+00
3.171075443508582392e+00
2.892689222802651727e+00
2.197236376301055394e+00
1.610571666744375907e+00
1.455290857868019039e+00
1.670075360952589349e+00
1.902829772298176181e+00
1.791676776403005711e+00
1.222942599312069500e+00
3.890666483230047490e-01
-3.733065798256132162e-01
-8.269278656574180486e-01
-9.766447213127876781e-01
-1.019974323829770935e+00
-1.163664387823311941e+00
-1.458060165576944733e+00
-1.774467459706279504e+00
-1.931257841829733035e+00
-1.856722512112445322e+00
-1.650510361266968262e+00
-1.489981441713057020e+00
-1.457137400592045218e+00
-1.433636425243275392e+00
-1.164865840101434902e+00
-4.600710512280949960e-01
6.217377337692644446e-01
1.753112804832552163e+00
2.517731983924062167e+00
2.665007438227300796e+00
2.254721778883808092e+00
1.590280349810771821e+00
1.001512332646804060e+00
6.459886488258502757e-01
4.655953791786764384e-01
2.980116893329890493e-01
2.423722288506469091e-02
-3.676355554526284930e-01
-8.196159869436752121e-01
-1.261636883636976680e+00
-1.612498000057945191e+00
-1.738421117139165695e+00
-1.459633691602442163e+00
-6.636573571804540439e-01
5.359490926470205086e-01
1.745459290846806955e+00
2.444366557128188511e+00
2.284721417602988858e+00
1.331021680228478665e+00
4.867310521068390905e-02
-9.733512434657852763e-01
-1.376681284761092972e+00
-1.214655184795213172e+00
-8.442026568886566995e-01
-6.313278121760828032e-01
-7.004360818210848549e-01
-8.992597154208371579e-01
-9.688290490664909216e-01
-7.581285003082951501e-01
-3.189543699146881739e-01
1.611159915575781643e-01
5.003078518961161514e-01
6.203012264420271205e-01
5.516673361122653718e-01
3.852729574753421815e-01
2.294840402225239995e-01
1.885503681745872573e-01
3.341020591286910091e-01
6.550568243376604372e-01
1.023832367218734163e+00
1.237692218334081495e+00
1.140242841824876674e+00
7.405303558475364589e-01
2.187869988060262005e-01
-2.114290815496889797e-01
-4.819388046810113568e-01
-7.257775676785576113e-01
-1.133892239467576557e+00
-1.715231439138042102e+00
-2.176895241351054722e+00
-2.071290445707877570e+00
-1.139543529097099217e+00
4.082307538191640717e-01
1.923099931857902289e+00
2.681066827243097972e+00
2.339284445569064896e+00
1.156117989413112834e+00
-1.861206853565513519e-01
-1.024206333985834494e+00
-1.103828905549919970e+00
-6.563780004425436854e-01
-1.494200476786054499e-01
6.964068405468337719e-02
-2.787476573259184409e-02
-2.208334667282835229e-01
-2.715366497192115425e-01
-1.175298742799190110e-01
1.152067218662262971e-01
2.536072086017754357e-01
2.330341406057187259e-01
1.376625964697766047e-01
1.072040839510808863e-01
2.018248336158275369e-01
3.416633342505438486e-01
3.678816771570636024e-01
1.728351057181276573e-01
-2.039257079164984443e-01
-5.867331924217844552e-01
-7.735551800116581278e-01
-6.665693755548326438e-01
-3.349585380648526511e-01
2.936439772542526194e-02
2.311348930414823810e-01
1.883990991646802837e-01
-2.558931333487701743e-02
-2.373884047807723330e-01
-2.864494429485978655e-01
-1.229954070395607724e-01
1.698361545359892144e-01
4.389880794336049052e-01
5.629955752656771173e-01
5.220942926992702127e-01
3.925553912799534251e-01
2.769899689052952585e-01
2.277648994679622174e-01
2.212711120430521095e-01
1.966545916636588676e-01
1.195195534422701100e-01
1.286888617020962022e-02
-7.028373240351593054e-02
-1.032743484883703600e-01
-1.134710676434012439e-01
-1.501553872869263728e-01
-2.216575153017912303e-01
-2.684483538171986150e-01
-2.124133377916135323e-01
-4.800557122385823439e-02
1.139837619204066566e-01
1.135799642623716577e-01
-1.152802083484134599e-01
-4.490260354954315192e-01
-6.363832571492794576e-01
-5.027450157556352384e-01
-1.399994754658498430e-01
1.011758619786634616e-01
-1.392455933021428116e-01
-9.037484872336110087e-01
-1.779733553403882285e+00
-2.106055660201687108e+00
-1.417202676792440386e+00
1.882442588854731369e-01
2.042267359214847477e+00
3.295655030109095662e+00
3.435863822749024354e+00
2.571231079237776829e+00
1.294567067992622444e+00
2.515686832738441847e-01
-2.569336461453100018e-01
-3.660599672860906928e-01
-4.142920951684879727e-01
-6.134902801042625420e-01
-8.919338018118191380e-01
-1.010187239180492469e+00
-8.182619292962233226e-01
-4.189848485534941602e-01
-9.866927181429963056e-02
-9.034166992477821179e-02
-3.755289417958472820e-01
-6.964907255581245238e-01
-7.743087320176433863e-01
-5.544467166073177022e-01
-2.711960206316003097e-01
-2.625298387438578240e-01
-6.692014950468307966e-01
-1.256926120726504337e+00
-1.521028168501400657e+00
-1.023650746280570178e+00
2.685557483923699529e-01
1.893655557997881544e+00
3.131121551302902262e+00
3.418379318772562403e+00
2.674672805710354595e+00
1.324266668157753957e+00
1.423845635250764463e-02
-7.794778782651696769e-01
-1.001651373027654168e+00
-9.731038706883585743e-01
-1.099809884123815307e+00
-1.542954605213880948e+00
-2.077825437106968209e+00
-2.239998726590621381e+00
-1.661161723169824800e+00
-3.632765257914805090e-01
1.197715518075447960e+00
2.377932926893701726e+00
2.718958487419330439e+00
2.197416848996290195e+00
1.190795964154242270e+00
2.037958435143021330e-01
-4.373899821113282904e-01
-7.141552757221680814e-01
-8.113595989819072374e-01
-9.013331282992648186e-01
-1.001413133679873724e+00
-1.002350206765876939e+00
-8.115116414290377556e-01
-4.672338899530022460e-01
-1.231856879468775645e-01
7.520769759705964175e-02
1.077530676752087302e-01
8.845143725469539753e-02
1.630356788790360834e-01
3.849625194767740677e-01
6.710242485083874886e-01
8.655057844239277820e-01
8.536967048296222327e-01
6.346563348317346698e-01
3.067109157595547808e-01
-8.406448775939823204e-03
-2.374968287951335078e-01
-3.767603707436421590e-01
-4.632570983179450930e-01
-5.324612690331189668e-01
-5.940904149001013934e-01
-6.326523759997801921e-01
-6.201570659916404438e-01
-5.294079903712447521e-01
-3.465516255800932810e-01
-8.424698406062752776e-02
2.107298090642525379e-01
4.667259031378663270e-01
6.160695768905710690e-01
6.290705740568566240e-01
5.296360458941420379e-01
3.794600089633434203e-01
2.409681373608341393e-01
1.456196788535734365e-01
8.933430787243668014e-02
5.451223456614096019e-02
3.699553102001890137e-02
5.371148992331724326e-02
1.242904392317012996e-01
2.428847765640733680e-01
3.660200776870671246e-01
4.307133652750526620e-01
3.928877176569778307e-01
2.575982764509743839e-01
7.462405733741259151e-02
-1.034104227499957063e-01
-2.725506336357115256e-01
-4.953539181942180347e-01
-8.575086495870885006e-01
-1.379063599206247215e+00
-1.940224093020814111e+00
-2.290152606204807206e+00
-2.161696755547164450e+00
-1.437410824876542703e+00
-2.585187085347253610e-01
1.011310598863783827e+00
1.962846071685509619e+00
2.352209102180136124e+00
2.208135031136187365e+00
1.768661516727480620e+00
1.302292563324943364e+00
9.470470153925971690e-01
6.749082327531115144e-01
3.839850557514916662e-01
2.453779937509503739e-02
-3.466137167539214969e-01
-6.156023961008950662e-01
-7.084669493450760358e-01
-6.488703628725116523e-01
-5.346852603529326231e-01
-4.632141781664739222e-01
-4.701036849031319242e-01
-5.233236135194593297e-01
-5.618575815769277781e-01
-5.379374162938538317e-01
-4.329654059176823999e-01
-2.504232286958016362e-01
-8.179146479894094934e-03
2.576665455412544548e-01
4.882369205018555203e-01
6.152923809647563580e-01
5.943802528529560369e-01
4.355090828446377960e-01
2.039088805733884069e-01
-1.526042042054184811e-02
-1.647850631756659079e-01
-2.412896114902231548e-01
-2.821776854811546276e-01
-3.274785626233146507e-01
-3.880411437427005450e-01
-4.422569546776019545e-01
-4.576750459606159227e-01
-4.149409973114154271e-01
-3.146309879160024692e-01
-1.671441709240408802e-01
1.790467385829888625e-02
2.285963546291902015e-01
4.374271664866343223e-01
5.962934263674719571e-01
6.541100437544017376e-01
5.898629612754828777e-01
4.344678765023469169e-01
2.581461125139529189e-01
1.274231270802169413e-01
6.471121728746281887e-02
4.553981208363200306e-02
3.711440046846153917e-02
4.235401975970698452e-02
1.036645836396412612e-01
2.550973703982600815e-01
4.631831382322667556e-01
6.170177099975687751e-01
5.917922723766199100e-01
3.434154701937811582e-01
-4.508495751415866892e-02
-4.127053471976591670e-01
-6.329902117544446982e-01
-6.993861391766376112e-01
-7.111959468928978900e-01
-7.721492002912547781e-01
-8.913038520105266427e-01
-9.758741576027041287e-01
-9.237186394271281742e-01
-7.308288671424996163e-01
-5.111086469317935865e-01
-4.027820636011819055e-01
-4.416210006626568596e-01
-5.187930620897196476e-01
-4.707668429077024319e-01
-2.282604155678527036e-01
1.111761886517241282e-01
3.646328337030056987e-01
4.427050719203827200e-01
4.734916368359478045e-01
7.497080537009677137e-01
1.513660735814242209e+00
2.727185169130709408e+00
3.994616077296147871e+00
4.703663367013618313e+00
4.307959355460813100e+00
2.600354654346682892e+00
-1.475624533319468412e-01
-3.225579612671507945e+00
-5.687256211816055007e+00
-6.666773300328795671e+00
-5.731114598033038021e+00
-3.136498519086105663e+00
1.702979614930169028e-01
2.893483328559816048e+00
3.974813569102972899e+00
3.132068840979173707e+00
1.015384480900471953e+00
-1.157830746387985332e+00
-2.298095813844341695e+00
-2.043301404709962910e+00
-8.852786499243965324e-01
2.382730605842067195e-01
5.890106648947645018e-01
7.059441808692024090e-02
-7.999775282039959245e-01
-1.316714707920152660e+00
-1.070933903416215527e+00
-1.693434423456627869e-01
9.147190668357751964e-01
1.691851153225558235e+00
1.940192587890386067e+00
1.755247282257447861e+00
1.394539384299969820e+00
1.075415324826518804e+00
8.702332991225578684e-01
7.315873202624195715e-01
5.798034929269919591e-01
3.680684730752419309e-01
9.390688458034046615e-02
-2.179248987484565525e-01
-5.269753991012190442e-01
-7.790752785923393819e-01
-9.185250417220199859e-01
-9.182067468402630439e-01
-8.045365790188618860e-01
-6.460336465328641031e-01
-5.057119630676774058e-01
-3.984509130896601303e-01
-2.975702079896869190e-01
-1.880676325052288433e-01
-1.105365736188141934e-01
-1.388056189614907954e-01
-2.979508327905066034e-01
-5.007640225260745481e-01
-5.832784535375430401e-01
-4.352194311201867949e-01
-1.193676799383406872e-01
1.433676235127731013e-01
1.435594776137611439e-01
-1.170737811245619042e-01
-3.754350639659805866e-01
-2.831768753669431371e-01
3.033173311110728410e-01
1.148651025145879245e+00
1.742298038878727695e+00
1.632332486246817149e+00
7.536678021070348787e-01
-4.924593612620451477e-01
-1.469817972903214587e+00
-1.685606370851253200e+00
-1.058293395523763669e+00
8.280643327015946298e-02
1.224842695502929901e+00
1.946801431339467481e+00
2.077703809920580014e+00
1.693547949015492105e+00
1.019574913754133672e+00
3.244498963822360915e-01
-1.595265272164777537e-01
-3.028486938859096256e-01
-1.352733417279422534e-01
1.447255273550252519e-01
2.510581291468770848e-01
-3.165123756213605866e-02
-7.023815044027814647e-01
-1.519305499675541071e+00
-2.132388613908670738e+00
-2.293415696768741352e+00
-2.000114227896596653e+00
-1.475432205321098644e+00
-1.003518870428985243e+00
-7.457602266217598919e-01
-6.652232066864512960e-01
-5.977588139727887384e-01
-3.985628604235602612e-01
-4.839975609681240742e-02
3.502528033665711638e-01
6.664147564292544068e-01
8.409875358951801605e-01
9.202028681672599353e-01
1.007871891353021798e+00
1.181526040594649274e+00
1.435110954320300447e+00
1.683615071211936876e+00
1.820391258290342318e+00
1.786781124523828534e+00
1.610040706435559965e+00
1.385890726628239644e+00
1.214347444577207558e+00
1.127386449817531888e+00
1.058242566042861599e+00
8.819118460309485208e-01
5.083920822259747618e-01
-3.673569633039258653e-02
-6.148567862480613933e-01
-1.075322587351170256e+00
-1.386201503162181714e+00
-1.681863614554099939e+00
-2.161823191096566177e+00
-2.894554884397784189e+00
-3.679850215286959436e+00
-4.108690191412823545e+00
-3.819070271747236234e+00
-2.778927381161185650e+00
-1.373662853591331334e+00
-1.990552681632464793e-01
3.192511605645302897e-01
2.118589293221325720e-01
-5.827645144983412129e-02
7.667383986575049271e-02
8.892211432797516579e-01
2.167813699366493818e+00
3.365648803928136701e+00
3.967821052920368352e+00
3.811281552069910816e+00
3.146220512669986480e+00
2.426526975938095632e+00
2.003290918581976499e+00
1.937001843089438236e+00
2.029876990467186726e+00
2.012574310130148092e+00
1.726566158652794059e+00
1.180059263951538817e+00
4.742183769800077386e-01
-3.045175145454257493e-01
-1.125206169603885975e+00
-1.966577493232110285e+00
-2.754511514835775277e+00
-3.369385949034822580e+00
-3.737325738402854203e+00
-3.922584256634705113e+00
-4.110562781044190039e+00
-4.451666098785306502e+00
-4.867771573780214744e+00
-4.990812116920547936e+00
-4.331614282073391387e+00
-2.604569458224530010e+00
7.756677543824697096e-03
2.854051734593813450e+00
5.109804245317274507e+00
6.192626996536802153e+00
6.034369968163995068e+00
5.047984255839500278e+00
3.836624542406636973e+00
2.853043972601632561e+00
2.219464072867093574e+00
1.780165262223200706e+00
1.298788444813225640e+00
6.440561607802599564e-01
-1.428606917969492685e-01
-9.027970104887892422e-01
-1.466181234970740821e+00
-1.740589099215285707e+00
-1.743696986997178344e+00
-1.583858847848573559e+00
-1.405138917055438030e+00
-1.317120980409920872e+00
-1.337215933320016870e+00
-1.379058496653234211e+00
-1.305721728871090725e+00
-1.026299212377796088e+00
-5.747050896686459742e-01
-1.084000043182389295e-01
1.847572580873330095e-01
2.129510606016478125e-01
4.746535189540024291e-02
-1.260582167641695617e-01
-1.429316665544745901e-01
1.825351806869235372e-02
2.223312719418781835e-01
2.888291860319068816e-01
1.451027308506822322e-01
-9.954663041652314637e-02
-2.236614470372884078e-01
-6.169522439839320027e-02
3.553064549023688401e-01
7.975378564302567641e-01
9.831709489754933973e-01
7.729157884217247032e-01
2.733540587086445983e-01
-2.260129684218671331e-01
-4.388749142777264023e-01
-2.622405044088280679e-01
1.717140814955591122e-01
6.019747707967643136e-01
8.223422865834615347e-01
8.104800666905807027e-01
7.137107517376155563e-01
7.086994829765477233e-01
8.443720424610711150e-01
9.888966475743449225e-01
9.228353712114080176e-01
5.091720885851602763e-01
-1.890089416001743405e-01
-9.337610072172790598e-01
-1.462210058190663631e+00
-1.648342551651503562e+00
-1.557574653401388343e+00
-1.361464049782090679e+00
-1.189286528541523058e+00
-1.038159453671160470e+00
-8.096682100987920849e-01
-4.341592361177407655e-01
2.856377800632692310e-02
4.031233939993828508e-01
5.220599457224552875e-01
3.604142319629013436e-01
6.841737144401026371e-02
-1.320879598234846186e-01
-1.111934106957399027e-01
7.540198824296048818e-02
2.421748523118470442e-01
2.401191056696145298e-01
1.011902742164567659e-01
3.768819601396128371e-02
2.837292709152841041e-01
8.930699582549523896e-01
1.649925779423606187e+00
2.170462704615492733e+00
2.131967380981055094e+00
1.473028627575373006e+00
4.315884402237435413e-01
-5.946388000343163505e-01
-1.262594731377446156e+00
-1.436787295962795863e+00
-1.206980873400807397e+00
-7.941700673954797951e-01
-4.247932413841425392e-01
-2.416115631203887837e-01
-2.720720960138478528e-01
-4.408862104279959171e-01
-6.116983832414126798e-01
-6.515849444078726238e-01
-5.036482906040119500e-01
-2.299456222156271989e-01
1.712437330689930981e-02
9.692066235384527717e-02
-5.778942233701872544e-03
-1.477438667104437608e-01
-1.211885988876426623e-01
1.793488957683075924e-01
6.454609536736273245e-01
1.002092408863052286e+00
9.973001477985776742e-01
5.951474113475174743e-01
1.351887462806200535e-02
-4.363354977278752767e-01
-5.877621469764708895e-01
-5.377165365110243567e-01
-5.374357357234095245e-01
-7.354188448358913721e-01
-9.912492338729450569e-01
-9.396844974197418043e-01
-2.847831306209611668e-01
8.998332066882677172e-01
2.121795232514504193e+00
2.747951947170398146e+00
2.424449132269616669e+00
1.324838448751519238e+00
3.034076711175370811e-02
-8.726856282795016906e-01
-1.172492366447975387e+00
-1.103726956385335134e+00
-1.073661660951635399e+00
-1.279771002660192947e+00
-1.534502567605752876e+00
-1.435598083672990466e+00
-7.356167689672478138e-01
3.949649382882067794e-01
1.426994837967197727e+00
1.812924658778945153e+00
1.352385419339012351e+00
3.186863810562287069e-01
-7.300046265006127078e-01
-1.303885850605515540e+00
-1.251106930118188965e+00
-7.808498789152262809e-01
-2.599331963677309343e-01
5.363811073743168789e-02
1.586590321410996651e-01
