BVP Signal
-4.943594702159270771e-03
-2.404062100552460668e-02
-4.307731559282679257e-02
-6.183417880348431039e-02
-8.009171097691569763e-02
-9.763041021647445028e-02
-1.142217088453954810e-01
-1.296073421346567445e-01
-1.435225107421557456e-01
-1.556954922116723650e-01
-1.658492521927668051e-01
-1.737144348486721612e-01
-1.790427352394849680e-01
-1.815942226455826980e-01
-1.811854177459605586e-01
-1.776694258966144413e-01
-1.709457277096252392e-01
-1.610157379867307448e-01
-1.479079529618111399e-01
-1.317731460983879721e-01
-1.128284961566556888e-01
-9.135772867316949153e-02
-6.776658132124790956e-02
-4.248731814613045110e-02
-1.605026770020162585e-02
1.096997346345724572e-02
3.797261151598253087e-02
6.431668110724693410e-02
8.936186109523917842e-02
1.124922222829325275e-01
1.331024228358335115e-01
1.506478769075460800e-01
1.646626314184773121e-01
1.747179911311519673e-01
1.805411542701483851e-01
1.819116034254563974e-01
1.787410071809933110e-01
1.710846444749834494e-01
1.590541590128151384e-01
1.429568168357223390e-01
1.231549071492305941e-01
1.001354152639505751e-01
7.449912043206563528e-02
4.688345607650210023e-02
1.803174662263721389e-02
-1.128973764638415908e-02
-4.029387168064064995e-02
-6.817759954040576720e-02
-9.416086591324965283e-02
-1.175263647669096412e-01
-1.375783381746069345e-01
-1.537495386304092437e-01
-1.655555830714454113e-01
-1.726038064857863263e-01
-1.747018655020511069e-01
-1.717081915457839558e-01
-1.636991547028191496e-01
-1.508689011575277128e-01
-1.335228680562533243e-01
-1.121695413176053285e-01
-8.736077221602531195e-02
-5.980593688954234655e-02
-3.028522235953000699e-02
3.780941135054496569e-04
3.129492422778207966e-02
6.157514774172957728e-02
9.035580517785268828e-02
1.167860120880238051e-01
1.400946235990564170e-01
1.596132558724869532e-01
1.747223605726899720e-01
1.850060270208662150e-01
1.901163011804522518e-01
1.898754303078762362e-01
1.842897814192712147e-01
1.734371386246964242e-01
1.576417662411865594e-01
1.372968795125900920e-01
1.129502107163763702e-01
8.528989601533924769e-02
5.504894518664082970e-02
2.308938330705226361e-02
-9.698896249355222487e-03
-4.240013863031274338e-02
-7.407891712922201610e-02
-1.038263290176882070e-01
-1.308055661490555299e-01
-1.542045784477141246e-01
-1.733587951074682665e-01
-1.876983326434820687e-01
-1.967577591730390874e-01
-2.002987572015591522e-01
-1.981403510942703061e-01
-1.903467128638976491e-01
-1.771139169160321492e-01
-1.587624359857945366e-01
-1.358387210552850499e-01
-1.089373883769629292e-01
-7.882772653606931468e-02
-4.635719653871689383e-02
-1.242114123971760353e-02
2.201227248807988146e-02
5.597354528698808562e-02
8.852173546308061969e-02
1.187286145174470398e-01
1.457515245784548608e-01
1.688576086469360527e-01
1.873661055987574930e-01
2.008125818985555811e-01
2.088044680945335407e-01
2.111282843284546795e-01
2.077634565834729496e-01
1.987637939561561484e-01
1.844386109286163533e-01
1.651683698894086394e-01
1.414922414633714709e-01
1.140929911785531214e-01
8.369938096516917059e-02
5.117195230309037196e-02
1.739974341058190405e-02
-1.669956210259031237e-02
-5.018657765494856371e-02
-8.214603398860284567e-02
-1.117281461060921910e-01
-1.381059650970817843e-01
-1.605902989504578993e-01
-1.785800279568131588e-01
-1.915722458546371687e-01
-1.992766883124552635e-01
-2.014569933633929000e-01
-1.981083486115886583e-01
-1.893500129655273367e-01
-1.754208349826929525e-01
-1.567760140050455941e-01
-1.339178007814398608e-01
-1.075225395612363355e-01
-7.834426062019334003e-02
-4.719152184762652469e-02
-1.495553817134852997e-02
1.746642583721699088e-02
4.918243324066155775e-02
7.930422994406510773e-02
1.070088565772232131e-01
1.315567875772254702e-01
1.522517085520920799e-01
1.685784262697270774e-01
1.800820075321095393e-01
1.864655847897064289e-01
1.876018225564418385e-01
1.834319617367849709e-01
1.741334987647946420e-01
1.599500213587945197e-01
1.412821447619833359e-01
1.186719519265002909e-01
9.271229127172546380e-02
6.414285583330900375e-02
3.373642876828533699e-02
2.319095271671144098e-03
-2.924278635981676297e-02
-6.009218877744473136e-02
-8.939937510619820615e-02
-1.163481183648771844e-01
-1.402247586830878689e-01
-1.603809825710134918e-01
-1.762514451958627215e-01
-1.874499578240950703e-01
-1.936373938077339540e-01
-1.946845654600957432e-01
-1.905743667268661179e-01
-1.814052102914598397e-01
-1.674837198801412408e-01
-1.491637584930529115e-01
-1.269808730166850919e-01
-1.015515128003203343e-01
-7.355966896733004412e-02
-4.379138271478816291e-02
-1.304594535375692109e-02
1.784977808336100924e-02
4.806002913687347500e-02
7.678997772893758622e-02
1.032968866051832690e-01
1.268713008985817015e-01
1.469464709779932099e-01
1.630033607098052562e-01
1.746579625254896517e-01
1.816704736555577182e-01
1.838623349100932391e-01
1.812665257383468953e-01
1.739753923898956223e-01
1.622293606495927576e-01
1.464016929347118634e-01
1.269172993210366807e-01
1.043511565688219345e-01
7.931302157112900264e-02
5.248288114131074988e-02
2.459358798750427982e-02
-3.617249890904628180e-03
-3.140291413238849305e-02
-5.802046636004249552e-02
-8.278621147237859301e-02
-1.050540979631880423e-01
-1.242371884205911436e-01
-1.398759294483211957e-01
-1.515460518222661035e-01
-1.589888018313009577e-01
-1.620335017881965045e-01
-1.606090837355127476e-01
-1.548233774701656684e-01
-1.448273427564385207e-01
-1.309462242700741297e-01
-1.135827718278820120e-01
-9.321784450650649756e-02
-7.044991650058578248e-02
-4.589883762631245812e-02
-2.025194888622508516e-02
5.779235682003231421e-03
3.148972896160761453e-02
5.618285408601227798e-02
7.918044072271053502e-02
9.988964432662505999e-02
1.177468126281788485e-01
1.322886628965584399e-01
1.431586451785654968e-01
1.500510144389572698e-01
1.528372373242437299e-01
1.514390910673820978e-01
1.459164708909079511e-01
1.364526443841796999e-01
1.232849744435791095e-01
1.068091352017426221e-01
8.745868788279272110e-02
6.576025810975434649e-02
4.231025245442723848e-02
1.772587944852926228e-02
-7.325609067259795243e-03
-3.217032289404494344e-02
-5.615061740222145048e-02
-7.861924177850350415e-02
-9.896647530770164014e-02
-1.166635615170314028e-01
-1.312067714779426020e-01
-1.422206003551667597e-01
-1.493975887934033131e-01
-1.525172336058299716e-01
-1.515146658130129831e-01
-1.463651083443312517e-01
-1.372136168631336306e-01
-1.242806699551947391e-01
-1.078753339800896383e-01
-8.843957447223119162e-02
-6.644459742236849542e-02
-4.246732774188641257e-02
-1.712340271638924938e-02
8.944192530473283470e-03
3.505803859899382646e-02
6.054423607609662333e-02
8.475591185609977762e-02
1.070566507673502699e-01
1.268735292571477880e-01
1.437008529096397147e-01
1.570721768611589575e-01
1.666602318509741998e-01
1.721780987548771069e-01
1.734654289469818311e-01
1.704744507206605586e-01
1.632147265339249642e-01
1.518649252903516711e-01
1.366457769591233606e-01
1.179018867360438483e-01
9.607037601335496890e-02
7.163205516367648906e-02
4.517580792497674635e-02
1.731220432906549478e-02
-1.130026115689224814e-02
-3.997318146941849365e-02
-6.802217214728495387e-02
-9.477250813699733545e-02
-1.195586251092593949e-01
-1.417847691253925069e-01
-1.608922926637678663e-01
-1.763898895643370712e-01
-1.879064981182207161e-01
-1.951068088935982714e-01
-1.978204639115014873e-01
-1.959504195404736526e-01
-1.895061431303292909e-01
-1.786563076546068829e-01
-1.636116681646447857e-01
-1.447500818609344098e-01
-1.225113394600093886e-01
-9.741519134226793442e-02
-7.008172014604276134e-02
-4.115028678616104718e-02
-1.132093176962591097e-02
1.868881850830214630e-02
4.816976319768528914e-02
7.642148201920159756e-02
1.027647840410725044e-01
1.266004979984283185e-01
1.473541308823907436e-01
1.645528050992418057e-01
1.778136410628147202e-01
1.868089599399124223e-01
1.913752120545927360e-01
1.913911288445394043e-01
1.868778847494718676e-01
1.779626053117545903e-01
1.648342368170442884e-01
1.478355483249365054e-01
1.273436145220124827e-01
1.038427737428436332e-01
7.788425222880054899e-02
5.005211710092851568e-02
2.099877486359505441e-02
-8.613072101723934226e-03
-3.810796539369760982e-02
-6.680408757167262401e-02
-9.404308771174416104e-02
-1.192086255244405035e-01
-1.417024689477441035e-01
-1.610235687774602131e-01
-1.767142477770958786e-01
-1.883990943868858181e-01
-1.958252100913049076e-01
-1.987781364597313305e-01
-1.972064241452043953e-01
-1.911195357637273384e-01
-1.806318345920424895e-01
-1.659887798101377099e-01
-1.474738251233144171e-01
-1.255094728903930479e-01
-1.005615072122642700e-01
-7.316257513402915635e-02
-4.391551353619208703e-02
-1.343682548504600283e-02
1.761742012765079440e-02
4.858246483371234103e-02
7.880785193264761013e-02
1.076557437843325693e-01
1.345111878926865123e-01
1.588296344556161810e-01
1.800867640087950583e-01
1.978494684441200469e-01
2.117522214905430689e-01
2.214821336566339394e-01
2.268580975379800302e-01
2.277315093579393435e-01
2.240805567349338223e-01
2.159622860783426690e-01
2.034965338451374672e-01
1.869348104016609891e-01
1.665583905709899781e-01
1.427605004793125743e-01
1.159926945276546217e-01
8.675287920839287736e-02
5.562051638991388075e-02
2.319002802878247088e-02
-9.898054378797316311e-03
-4.298345703267858475e-02
-7.540724483949431955e-02
-1.065125838503281352e-01
-1.356525534036495395e-01
-1.622357996085981302e-01
-1.856925818806112183e-01
-2.055220069568279850e-01
-2.213088791665198118e-01
-2.326751873067481879e-01
-2.393910049813245955e-01
-2.412742770159900241e-01
-2.382631801670180294e-01
-2.304215693758326355e-01
-2.178636388565898807e-01
-2.008727444902724535e-01
-1.797783827212768304e-01
-1.550183091930152079e-01
-1.271253318445919600e-01
-9.666490929941332078e-02
-6.429430903767771599e-02
-3.069051370401147671e-02
3.443461462887015267e-03
3.738545444275377660e-02
7.042465065563771609e-02
1.018805338613920086e-01
1.310843754728272248e-01
1.574438831803199601e-01
1.804142198056053470e-01
1.995089458643256597e-01
2.143643634486276928e-01
2.246491912679600689e-01
2.301772482485820448e-01
2.308379049540641992e-01
2.266054003022073271e-01
2.176031122612214763e-01
2.039909628360976890e-01
1.860775800642084643e-01
1.642364276458790073e-01
1.389142228782313804e-01
1.106656897106727822e-01
8.006876594316707230e-02
4.778368265787983488e-02
1.450018703315360084e-02
-1.907354380738569485e-02
-5.220652355161464059e-02
-8.417345633316827835e-02
-1.142819758703305238e-01
-1.418519371208111779e-01
-1.662698798896927177e-01
-1.869917528747805924e-01
-2.035156384884152792e-01
-2.154869785724238818e-01
-2.225937505827915719e-01
-2.246634971052800522e-01
-2.216457862386722044e-01
-2.135554357287478000e-01
-2.005971251239341835e-01
-1.830225146786218227e-01
-1.612257789943836728e-01
-1.357057131587303955e-01
-1.070118844108779721e-01
-7.581754057064055141e-02
-4.282046142702063130e-02
-8.773276352520349708e-03
2.553775138673286191e-02
5.933089871763292528e-02
9.183508994863459618e-02
1.222893760463519275e-01
1.500085896959968412e-01
1.743471652264177718e-01
1.947310380790664708e-01
2.107115910663284464e-01
2.218774146664909963e-01
2.279870213684813407e-01
2.288732112031697796e-01
2.244797847338758090e-01
2.149136311583443870e-01
2.003267193765007337e-01
1.810517202758696598e-01
1.574874818173307434e-01
1.301309508299275108e-01
9.960008910930687187e-02
6.654225924423912142e-02
3.170584376741913957e-02
-4.130710957513987480e-03
-4.016486141280085909e-02
-7.556909252381738273e-02
-1.095256462968420968e-01
-1.412579119719911402e-01
-1.700038315974224390e-01
-1.950894353321583896e-01
-2.159174506794359627e-01
-2.319494763813140237e-01
-2.428211310877119722e-01
-2.482143055872195192e-01
-2.479874430131875918e-01
-2.421280945985219146e-01
-2.307107398168568579e-01
-2.140236263494538771e-01
-1.924041361110032933e-01
-1.663585474038201950e-01
-1.364966964655974502e-01
-1.034888468683357460e-01
-6.812950650516486073e-02
-3.123444960349564675e-02
6.333044238061275033e-03
4.368570655907252909e-02
7.995453421704001862e-02
1.143029059596681885e-01
1.459135274089669865e-01
1.740801265314173563e-01
1.981453342128365602e-01
2.175538255681508937e-01
2.318996611340997105e-01
2.408256853517850571e-01
2.441819263360791026e-01
2.418947288704622056e-01
2.340290315717427072e-01
2.208200331648385029e-01
2.025548863210427930e-01
1.797110521771679292e-01
1.528246085509138708e-01
1.225314301407979534e-01
8.957037418429630860e-02
5.470440291655455367e-02
1.876914612877444294e-02
-1.738297965235604398e-02
-5.290408039910780152e-02
-8.695019608812280809e-02
-1.187049449671723489e-01
-1.474363606156183226e-01
-1.724379824717312271e-01
-1.931316338630543472e-01
-2.090325886441600500e-01
-2.197363499950656385e-01
-2.250363284462884861e-01
-2.247750843657788378e-01
-2.189916872298129369e-01
-2.078453213207300254e-01
-1.915895377396004129e-01
-1.706723267691529489e-01
-1.455833006398347396e-01
-1.169584187468754727e-01
-8.550837910743618042e-02
-5.198792960670969854e-02
-1.722774048975700412e-02
1.793386715754283905e-02
5.265851852144282086e-02
8.610873522126225033e-02
1.174942106795148211e-01
1.460935064484312762e-01
1.712165541429681859e-01
1.923181416361212093e-01
2.089069242260799819e-01
2.206131938522151170e-01
2.272160469662453663e-01
2.285477062971308926e-01
2.246414042419779822e-01
2.155931630821029121e-01
2.016315873958228200e-01
1.831215124381644077e-01
1.604739461226161457e-01
1.342490580202196637e-01
1.050458769088794264e-01
7.353600892274364531e-02
4.045369291179284205e-02
6.544307556246124757e-03
-2.741896378188120320e-02
-6.066016841094236389e-02
-9.243794217876913355e-02
-1.220360601633255493e-01
-1.487798940556486482e-01
-1.720982833537542112e-01
-1.914491582695163618e-01
-2.064297432316696268e-01
-2.167221539893987581e-01
-2.220937578824060399e-01
-2.224875095242175305e-01
-2.178890368008372658e-01
-2.084596497645830881e-01
-1.944503691747059837e-01
-1.761972638985191408e-01
-1.541830994435456903e-01
-1.289212392453636669e-01
-1.010339983449028423e-01
-7.118986161684542902e-02
-4.008449541856584641e-02
-8.452851196464751526e-03
2.297149272596463870e-02
5.347979090354939430e-02
8.237359316109872653e-02
1.090123771062135316e-01
1.328262005721655981e-01
1.532795000725375167e-01
1.699733982823178335e-01
1.825526095633155932e-01
1.907773197191941494e-01
1.945258568719106518e-01
1.937264227444400189e-01
1.884726140655192395e-01
1.789028704538124792e-01
1.652700847632807557e-01
1.479255103772015856e-01
1.272606662796811339e-01
1.037799704561315206e-01
7.801340763200625972e-02
5.054729481588687845e-02
2.200856150202809558e-02
-6.969266239608751246e-03
-3.573835772749613116e-02
-6.365194395188404630e-02
-9.009798631257984192e-02
-1.144856438732319293e-01
-1.362644618671893793e-01
-1.549673478249225522e-01
-1.701517474815250341e-01
-1.814947028817446295e-01
-1.887343297525257979e-01
-1.916885914376864064e-01
-1.903128881314805065e-01
-1.845986226571411648e-01
-1.746892404665725818e-01
-1.607931998795754103e-01
-1.432005976928268365e-01
-1.223193776814195388e-01
-9.858463831485772544e-02
-7.253072482919348252e-02
-4.472704937848429041e-02
-1.577422390252669615e-02
1.368932145310691739e-02
4.302486763729148483e-02
7.160267218612663409e-02
9.879738330832449344e-02
1.240278156202889448e-01
1.467577793361574678e-01
1.664814367722472210e-01
1.827976733558609179e-01
1.953354235118514304e-01
2.038269031231504658e-01
2.080927163685889758e-01
2.080039538010668709e-01
2.035761020228238072e-01
1.948606640272124990e-01
1.820273340027805109e-01
1.653307412843892099e-01
1.450749441889548352e-01
1.216828317377848523e-01
9.560307908522387710e-02
6.736397277536861072e-02
3.754172731801395935e-02
6.734063870100441551e-03
-2.441813388178619079e-02
-5.526925661652085792e-02
-8.517895441887690655e-02
-1.135098921578644171e-01
-1.396559369260174932e-01
-1.630646964098404761e-01
-1.832047370651611606e-01
-1.996505979875655701e-01
-2.120225308368361150e-01
-2.200271022512553798e-01
-2.234950492155917956e-01
-2.222963641129237500e-01
-2.164640157185199754e-01
-2.060898891907622099e-01
-1.913697824272210524e-01
-1.726249740217429274e-01
-1.502133085806110491e-01
-1.246233115452018148e-01
-9.638272586235237249e-02
-6.607848488443912593e-02
-3.435756317650245917e-02
-1.876138987656303381e-03
3.068560581699669026e-02
6.264355394964531143e-02
9.334130288196408609e-02
1.221460772613117973e-01
1.484544760978658284e-01
1.717494318660271746e-01
1.915378555459238685e-01
2.074307470751909910e-01
2.191136270247134865e-01
2.263305353200904535e-01
2.289669947085949953e-01
2.269429041971454120e-01
2.203121592400583140e-01
2.092091623396309941e-01
1.938331225788618162e-01
1.745145421687289422e-01
1.516128296297380995e-01
1.255937296535524494e-01
9.697643751377604815e-02
6.631961598812959047e-02
3.424898085415364196e-02
1.400624395477428202e-03
-3.156389095906656644e-02
-6.397280012316293452e-02
-9.516992918751818187e-02
-1.245215201705419661e-01
-1.514096691366665914e-01
-1.752938332578493630e-01
-1.956622568275997454e-01
-2.120832557472656088e-01
-2.242214400078607062e-01
-2.317814389017091581e-01
-2.346213453462487886e-01
-2.326472003510784425e-01
-2.258833051589393404e-01
-2.144734101438586782e-01
-1.986087509387606809e-01
-1.786350230907242653e-01
-1.549387260094180763e-01
-1.280015395419449864e-01
-9.838589034948524992e-02
-6.668116145656488580e-02
-3.354998242128464508e-02
3.302725843611440532e-04
3.426815020041523024e-02
6.756222706789530297e-02
9.952695633076619197e-02
1.295166058827081912e-01
1.568993778623850033e-01
1.811257675947848256e-01
2.016956424301203921e-01
2.181697268890714358e-01
2.302322176742251369e-01
2.375998718507524865e-01
2.401342994467326464e-01
2.377699967329237607e-01
2.305263120868552007e-01
2.185666539374034878e-01
2.020901153618086532e-01
1.814405674818078684e-01
1.570228772964795960e-01
1.293136836548034185e-01
9.889188516454303080e-02
6.635831402443265192e-02
3.239055228522327856e-02
-2.307371592597792787e-03
-3.701753645370942092e-02
-7.100540615264704092e-02
-1.035448553307848213e-01
-1.339515615399626547e-01
-1.615560096825307268e-01
-1.857625653837149671e-01
-2.060498995538901923e-01
-2.219419294132218279e-01
-2.331154893669153960e-01
-2.392904982354868704e-01
-2.403298710578840036e-01
-2.362173330665082727e-01
-2.270029562269489376e-01
-2.129237022068929397e-01
-1.942618289635969497e-01
-1.714392278628218413e-01
-1.449768199029949911e-01
-1.154444376729683308e-01
-8.352721888237596426e-02
-4.993231319116966938e-02
-1.541438337940843895e-02
1.924382277817391143e-02
5.326816126329940448e-02
8.590280412497028339e-02
1.164041136550392902e-01
1.441108064350046514e-01
1.684032073324710221e-01
1.887369617288876811e-01
2.046953167912805571e-01
2.158997298015932764e-01
2.221437538536377154e-01
2.232936955360533826e-01
2.193280765034522628e-01
2.103847127578512277e-01
1.966458055356869739e-01
1.784683410187859198e-01
1.562711274540030670e-01
1.305650678398004305e-01
1.019708442400851789e-01
7.113469224959878545e-02
3.878756712512715366e-02
5.684396156885826792e-03
-2.740786816450404423e-02
-5.971023226061870220e-02
-9.045831468576422119e-02
-1.189425989049295862e-01
-1.444714884876968086e-01
-1.664476337940540562e-01
-1.843529806769179658e-01
-1.977290134268743227e-01
-2.062869066665257989e-01
-2.097819293247636385e-01
-2.081364586538978767e-01
-2.013909418725605971e-01
-1.896663464603154103e-01
-1.732749715885588404e-01
-1.525722602856704746e-01
-1.280618821578282107e-01
-1.003352774231683481e-01
-7.003529141880096565e-02
-3.790694024948750018e-02
-4.711762558280475216e-03
2.875475505002551488e-02
6.168072601395530735e-02
9.327572502959423362e-02
1.227858579573163078e-01
1.494769848329530471e-01
1.727226171405634725e-01
1.919421691839049149e-01
2.066529888316095687e-01
2.165109202856831672e-01
2.212182908042045482e-01
2.206715759305312718e-01
2.148365732401266992e-01
2.038114014360120074e-01
1.878512516926384712e-01
1.672612829036372595e-01
1.425266407116783651e-01
1.141862893604553009e-01
8.287626557886419720e-02
4.932940051022012551e-02
1.430207652687450620e-02
-2.137948081058397426e-02
-5.687365938414733202e-02
-9.134488614045765953e-02
-1.239626676547408018e-01
-1.539262417953322082e-01
-1.805223597556202819e-01
-2.030642024180469851e-01
-2.209999004286834490e-01
-2.338725865648978441e-01
-2.413110868550347454e-01
-2.431485193502274655e-01
-2.392686229438721335e-01
-2.297608559791705918e-01
-2.148361647572160082e-01
-1.948053130256545695e-01
-1.701778788890655758e-01
-1.415057779892221201e-01
-1.094910483590029737e-01
-7.490971856778626259e-02
-3.858129781678125425e-02
-1.397741740848938707e-03
3.574354175292578789e-02
7.195514244598635867e-02
1.063549506783954823e-01
1.381195924145555698e-01
1.665084879516975369e-01
1.908185806091441672e-01
2.105147745663573655e-01
2.251225156782540315e-01
2.343074127701971210e-01
2.379007543627671972e-01
2.357943870144073029e-01
2.281038012336352172e-01
2.150122512797668362e-01
1.968497795029949815e-01
1.740921706395540669e-01
1.472648526582879258e-01
1.170489769181779771e-01
8.416467874600709609e-02
4.940081222606908240e-02
1.360352382573661728e-02
-2.237678165882210635e-02
-5.768231682160250562e-02
-9.145875121775581817e-02
-1.229142522443565783e-01
-1.513008565408535677e-01
-1.759295297431646421e-01
-1.962521725228945080e-01
-2.117589042361428253e-01
-2.221156976805833683e-01
-2.270920540590122272e-01
-2.265600719137981778e-01
-2.205958582294945680e-01
-2.093238783540358194e-01
-1.930628962270749538e-01
-1.722274294757125124e-01
-1.473191962553720702e-01
-1.189851847808484353e-01
-8.790013021222287115e-02
-5.482979139858246143e-02
-2.057680398100571184e-02
1.404920820731610578e-02
4.822895470264124129e-02
8.115508410156237196e-02
1.120878947257484548e-01
1.403129636747984521e-01
1.652033914215907118e-01
1.862353022644214207e-01
2.029303835884231355e-01
2.149833914505385191e-01
2.221423034464802271e-01
2.242906893136063506e-01
2.214461697126888229e-01
2.136815608469173622e-01
2.012464207625176971e-01
1.844365298558698352e-01
1.636616419074625739e-01
1.394261489863737880e-01
1.122701465593705927e-01
8.282996543710746673e-02
5.176208397160525498e-02
1.975668326696952692e-02
-1.247262417481245778e-02
-4.421992496255883198e-02
-7.479906586647502853e-02
-1.035336665100954345e-01
-1.298167926854817134e-01
-1.530823545686860188e-01
-1.728231367155429465e-01
-1.886489433268088711e-01
-2.002019162378542161e-01
-2.072728940718279178e-01
-2.097260095803177848e-01
-2.075166658385693141e-01
-2.007519594624977977e-01
-1.895770341658050695e-01
-1.742914286642999189e-01
-1.552582994469987043e-01
-1.329151439348468799e-01
-1.078031291350481924e-01
-8.048447892526780501e-02
-5.159232845313888038e-02
-2.178350290812895718e-02
8.278278330756339010e-03
3.792123183999023678e-02
6.648450552370983868e-02
9.335671719300914217e-02
1.179431376083762417e-01
1.397211843697568900e-01
1.582392975660977807e-01
1.730865986770629972e-01
1.839861251908719852e-01
1.906977478835650275e-01
1.930998031703725637e-01
1.911685889053922338e-01
1.849338986530926210e-01
1.745729798509023101e-01
1.602984928995501157e-01
1.424344574167739075e-01
1.213821936261631484e-01
9.758472249941979593e-02
7.158167037993767856e-02
4.393189477218775729e-02
1.524465964283581998e-02
-1.384155486029354024e-02
-4.268637951994604107e-02
-7.064638838352427230e-02
-9.708403020740369316e-02
-1.214119760175544904e-01
-1.430679032454699739e-01
-1.615464011224433394e-01
-1.764364609268966877e-01
-1.873579542802210618e-01
-1.940735039655461791e-01
-1.964049969737982071e-01
-1.942748363729938088e-01
-1.877450944313604486e-01
-1.769187704901347136e-01
-1.620606859584738380e-01
-1.434918290279219577e-01
-1.216218547665928740e-01
-9.696387331947964316e-02
-7.005603392855583311e-02
-4.151940183718491606e-02
-1.199809977069696276e-02
1.784901753727293275e-02
4.734865648425028162e-02
7.583897361359687173e-02
1.027007612325228081e-01
1.273287679930895644e-01
1.491929465891622120e-01
1.678251828694043990e-01
1.828038773119909366e-01
1.938371025844782825e-01
2.006661788157284021e-01
2.031581140242416095e-01
2.012668353981590386e-01
1.950076186971434478e-01
1.845385338032305977e-01
1.700503928868363768e-01
1.518524696684417363e-01
1.303227321441568498e-01
1.058878481215832501e-01
7.906959339883026794e-02
5.040816114699700479e-02
2.050130187877083343e-02
-1.002550001492192797e-02
-4.054003044445765591e-02
-7.039922129606025758e-02
-9.896502605407027364e-02
-1.256384715050537504e-01
-1.498373372094424505e-01
-1.710339096609940768e-01
-1.887759429020048896e-01
-2.026417045381214699e-01
-2.123408498084841667e-01
-2.176295386665885734e-01
-2.183693145284714698e-01
-2.145441684153904793e-01
-2.061827147176009123e-01
-1.934758795215472393e-01
-1.766628937898795937e-01
-1.560861409660417864e-01
-1.321886805540367360e-01
-1.054460558424623884e-01
-7.643339129204704263e-02
-4.574982766014528551e-02
-1.402944396805559137e-02
1.806505575233208552e-02
4.987514688006447483e-02
8.075681642525749104e-02
1.100731929064185100e-01
1.372449226625405971e-01
1.617323144412989300e-01
1.830403040732171693e-01
2.007783531347051842e-01
2.145831395889835347e-01
2.242107511920030105e-01
2.294863574970567865e-01
2.303019513058913170e-01
2.266800611683762456e-01
2.186742779537470815e-01
2.064635100285951153e-01
1.902874339962657146e-01
1.704471236695959957e-01
1.473442612798826212e-01
1.214027009598807050e-01
9.312848496230777262e-02
6.306083623070826705e-02
3.176736777851034421e-02
-1.452537230733803864e-04
-3.206693383817026816e-02
-6.338456642988782308e-02
-9.348502506049966021e-02
-1.217844193531050501e-01
-1.477326918482447238e-01
-1.708023258734507333e-01
-1.905541824897023229e-01
-2.065769092340445923e-01
-2.185498999175986556e-01
-2.262407385602320797e-01
-2.294624048027832097e-01
-2.281741104219204286e-01
-2.223743357000933507e-01
-2.121805746826747052e-01
-1.978074730576899198e-01
-1.795185889953643255e-01
-1.577099476738043071e-01
-1.328079175577593640e-01
-1.053230884767555192e-01
-7.582372612576054882e-02
-4.489961868296193231e-02
-1.318896459881193327e-02
1.866342552348678255e-02
5.001680578770269225e-02
8.023296434536239530e-02
1.087004481303043002e-01
1.348604296543479686e-01
1.581720792667800635e-01
1.781884629558702082e-01
1.945083226946888177e-01
2.068003964799788319e-01
2.148478647399264529e-01
2.184664918881850382e-01
2.176125848367660987e-01
2.122998058311067748e-01
2.026286417722742705e-01
1.888186548039631762e-01
1.711222704094861879e-01
1.499181076253432721e-01
1.256279014914460646e-01
9.873814252961848892e-02
6.980991052813449727e-02
3.942139652205640943e-02
8.206056047962366484e-03
-2.318776432276973762e-02
-5.410771956060685117e-02
-8.389759687891236439e-02
-1.119149162490181426e-01
-1.375656076300564301e-01
-1.602710758057728779e-01
-1.795329277751197827e-01
-1.949179796329184311e-01
-2.060449921077689706e-01
-2.126759558402406269e-01
-2.146100222535235746e-01
-2.117929697643307074e-01
-2.042706843528562244e-01
-1.921626124090583532e-01
-1.757573892524499359e-01
-1.553819881312225593e-01
-1.315006517347047377e-01
-1.046561445347046482e-01
-7.544137401697501022e-02
-4.454574450629238125e-02
-1.267440473479231056e-02
1.943175591218048587e-02
5.101519458144894437e-02
8.133759570919701920e-02
1.096922297961233084e-01
1.353913712512517797e-01
1.578497478442059676e-01
1.765244827537026384e-01
1.909692061284527509e-01
2.008694029591293062e-01
2.059563782397421938e-01
2.061496758527119610e-01
2.014339720909605613e-01
1.919229289842594166e-01
1.778781588352465748e-01
1.596090616636808845e-01
1.375930297211671316e-01
1.123559871940768007e-01
8.451098013425648037e-02
5.475499722869661690e-02
2.380329166854901202e-02
-7.577369503482131452e-03
-3.861028615810867953e-02
-6.853855022476813830e-02
-9.662130104449963286e-02
-1.221524996566427934e-01
-1.445239570715073918e-01
-1.631557040727077967e-01
-1.776036832836677681e-01
-1.875162817563764961e-01
-1.926237686141246130e-01
-1.928447713715692458e-01
-1.881435482214197097e-01
-1.786666097820873433e-01
-1.646644165212337585e-01
-1.464723498987655081e-01
-1.245891674297388285e-01
-9.954726271225333711e-02
-7.199473926734310802e-02
-4.263465719892884503e-02
-1.219722390302351370e-02
1.854370826177586737e-02
4.881486823877082687e-02
7.787205279488762510e-02
1.049838345600055539e-01
1.294805891270201792e-01
1.507768130865417833e-01
1.683229315069084964e-01
1.817236032212153907e-01
1.906372600899920444e-01
1.948462760602730770e-01
1.942745865739623212e-01
1.888984241463863012e-01
1.788819103470296046e-01
1.644443769603174677e-01
1.459269735110152177e-01
1.237877211769142505e-01
9.852467516585204643e-02
7.075779235296017489e-02
4.113638581023167790e-02
1.035914017972691670e-02
-2.083549751174368359e-02
-5.171023675841893152e-02
-8.153426661659732289e-02
-1.095830752270868236e-01
-1.351959817857671664e-01
-1.577556016697209129e-01
-1.767003136770557981e-01
-1.915970729156644681e-01
-2.020474454968118616e-01
-2.078113937802752997e-01
-2.087389898297126178e-01
-2.047729944069544561e-01
-1.960342301606720072e-01
-1.826858826177086836e-01
-1.650619187162883361e-01
-1.435776008819647231e-01
-1.187250533768595406e-01
-9.112015013909544048e-02
-6.140217176809255328e-02
-3.028675429317246801e-02
1.480728049947248326e-03
3.315205282020795841e-02
6.397522556548469741e-02
9.321116613929944505e-02
1.201884583877176893e-01
1.442602903598670105e-01
1.648665928411012782e-01
1.815459531008451477e-01
1.938828478941569400e-01
2.016318275878213884e-01
2.045985144211500129e-01
2.027259104137574819e-01
1.960882568669029546e-01
1.848166590099684647e-01
1.692194801698624351e-01
1.496503415411907234e-01
1.265781293690561582e-01
1.005642051899964529e-01
7.220486985612134534e-02
4.218763043937118207e-02
1.121794980993527646e-02
-1.997422388072398261e-02
-5.064254876523309468e-02
-8.005674021900749393e-02
-1.075246200147247783e-01
-1.323691726083781883e-01
-1.540078782821525105e-01
-1.719119156398783155e-01
-1.856280794445243632e-01
-1.948482219989978725e-01
-1.993037110320384775e-01
-1.989038188086834080e-01
-1.936425043365283538e-01
-1.836183693446644671e-01
-1.690980082268444540e-01
-1.503888184201145339e-01
-1.279585013278326522e-01
-1.023383674594877946e-01
-7.412797278296048842e-02
-4.401881810764360359e-02
-1.271713175787568539e-02
1.902887089425629730e-02
5.045834744731810678e-02
8.083204634411822465e-02
1.094351760773960291e-01
1.355781337087844651e-01
1.586709727156273286e-01
1.781550239559640536e-01
1.935826735839187296e-01
2.046119466649514163e-01
2.109571932173436859e-01
2.125109271096717323e-01
2.092128246823184434e-01
2.011471099570131260e-01
1.885134963026792176e-01
1.715707414665522679e-01
1.507343072416095497e-01
1.264551498490673054e-01
9.928449338713249417e-02
6.984075724836960597e-02
3.876867668154022895e-02
6.771134054446334427e-03
-2.544108697338666111e-02
-5.716024708250960068e-02
-8.768058059585223663e-02
-1.163281549017441130e-01
-1.424902704143769516e-01
-1.655758432930189705e-01
-1.851068534256147535e-01
-2.006591542991924271e-01
-2.118937255883858728e-01
-2.186077523264048916e-01
-2.206371605287075210e-01
-2.179829413716936615e-01
-2.107119554292369301e-01
-1.989888463818794695e-01
-1.831095063956569013e-01
-1.634041836190758823e-01
-1.403308177797037426e-01
-1.143897007401604438e-01
-8.613569909784649092e-02
-5.618520701688758251e-02
-2.516368485001824543e-02
6.279414615820787249e-03
3.748955597171030329e-02
6.783616628082494993e-02
9.671137058860709845e-02
1.235316649946862633e-01
1.477933866775992255e-01
1.690156058406439010e-01
1.868081782513717481e-01
2.008531979535474465e-01
2.108809038787559098e-01
2.167504647365730563e-01
2.183528138141634933e-01
2.156933742963645928e-01
2.088540535165383516e-01
1.979691107143037310e-01
1.832904051523631672e-01
1.650957936368917800e-01
1.437538483990288829e-01
1.196839173820886393e-01
9.333860947658198515e-02
6.523321939166766559e-02
3.589378818973139318e-02
5.874454653047285826e-03
-2.425772672258416640e-02
-5.394175464206182880e-02
-8.262641697739225854e-02
-1.097693917293755539e-01
-1.348780932494621498e-01
-1.574802621243503176e-01
-1.771564813615871814e-01
-1.935579987816515302e-01
-2.063631629280325286e-01
-2.153623925308746356e-01
-2.203844493610455646e-01
-2.213440443741040986e-01
-2.182523856996086975e-01
-2.111561348290394990e-01
-2.002273257749241364e-01
-1.856742193391260898e-01
-1.677846383899518623e-01
-1.469214392611599140e-01
-1.234727781046436323e-01
-9.790251783404757546e-02
-7.069235189326267266e-02
-4.235257224009000843e-02
-1.341610705367314582e-02
1.558595227156649339e-02
4.412934399063640073e-02
7.169423457656801113e-02
9.780004571028767801e-02
1.219923687319013073e-01
1.438488641829207271e-01
1.630197724246003621e-01
1.791744894469934346e-01
1.920682368708419296e-01
2.015042282357676906e-01
2.073355115580195474e-01
2.095092258077127234e-01
2.079955604955295301e-01
2.028599187529316894e-01
1.942123643798799315e-01
1.822133546201312182e-01
1.671031729258717347e-01
1.491411732613613650e-01
1.286605401752031197e-01
1.060234112480955004e-01
8.162482747937691019e-02
5.590359844359615860e-02
2.930659490477491302e-02
2.305959460410081374e-03
-2.461839228815192182e-02
-5.099101022431817842e-02
-7.634144016350535855e-02
-1.002091617753154418e-01
-1.221734333098969949e-01
-1.418262908584841941e-01
-1.588123009645316386e-01
-1.728253608554680132e-01
-1.835897128380022114e-01
-1.909253576976211730e-01
-1.946781900371144514e-01
-1.947834034979727957e-01
-1.912466331848603762e-01
-1.841153431526013629e-01
-1.735474641737788370e-01
-1.597268918721801712e-01
-1.429217374586766731e-01
-1.234558547251391192e-01
-1.016833961357493932e-01
-7.802552394394521307e-02
-5.291597938719735938e-02
-2.681937052975477687e-02
-2.173172932381228772e-04
2.641011660265665112e-02
5.258616106397306228e-02
7.783903233053393600e-02
1.017320062698354594e-01
1.238449855257472837e-01
1.437925022190964242e-01
1.612438242408952005e-01
1.758857423657412267e-01
1.874829114105732442e-01
1.958308776417471697e-01
2.007797999651965704e-01
2.022522169526545510e-01
2.001936707916536773e-01
1.946398744226430222e-01
1.856568152145259276e-01
1.733700005143273826e-01
1.579711900606295960e-01
1.396749088750888490e-01
1.187746670190124587e-01
9.558651309125187900e-02
7.047416669320513694e-02
4.384592092869317448e-02
1.612428055452480580e-02
-1.222635982818083555e-02
-4.073216646574859268e-02
-6.890891764213939730e-02
-9.626424964750814051e-02
-1.223131340064949335e-01
-1.465913464046053882e-01
-1.686423201034777664e-01
-1.880584888752049322e-01
-2.044646694711456103e-01
-2.175240457062205257e-01
-2.269858210662653031e-01
-2.326221987256431589e-01
-2.343099471410365897e-01
-2.319838162708002249e-01
-2.256403581425248661e-01
-2.153918297151886652e-01
-2.013782642118200350e-01
-1.838523235040133152e-01
-1.631189176885848302e-01
-1.395344360152547258e-01
-1.135360601480535636e-01
-8.557654331141241466e-02
-5.616032099609230555e-02
-2.581146639491390532e-02
4.941303824297138547e-03
3.556318705358536836e-02
6.552588838952458361e-02
9.433560811121405321e-02
1.215109052967267844e-01
1.466160574738264999e-01
1.692660180168061301e-01
1.890996453389993670e-01
2.058424349954713906e-01
2.192453774301418856e-01
2.291292627974302887e-01
2.353798679895562906e-01
2.379127026631362440e-01
2.367341765088258887e-01
2.318739912984150164e-01
2.234286844754846124e-01
2.115470587654380286e-01
1.964051037852257431e-01
1.782495187521257740e-01
1.573433438589002531e-01
1.340010218321075475e-01
1.085707302687134446e-01
8.142011978841055819e-02
5.295962693338594762e-02
2.360808884405295877e-02
-6.192128342898464699e-03
-3.598578567310194154e-02
-6.531654006097220577e-02
-9.372621681261471271e-02
-1.207597026867174295e-01
-1.459864014158062384e-01
-1.689873543479320228e-01
-1.893743008314318355e-01
-2.068071058259549067e-01
-2.209632282825096938e-01
-2.316015013188286176e-01
-2.385129786890618220e-01
-2.415537685529148826e-01
-2.406654699283187204e-01
-2.358186019592694582e-01
-2.270981797798561908e-01
-2.146273287907389249e-01
-1.986039011246522046e-01
-1.793082179720734692e-01
-1.570462831929257674e-01
-1.322109425288747753e-01
-1.052189526903901523e-01
-7.652560007386924323e-02
-4.662188814898687167e-02
-1.600354623507960206e-02
1.482249086840779773e-02
4.534837821826896015e-02
7.508773103034233065e-02
1.035708923800755799e-01
1.303488416444970321e-01
1.550276523493257508e-01
1.772281775431837347e-01
1.966357738766595642e-01
2.129779989931665785e-01
2.260181009057664336e-01
2.355981709472755870e-01
2.415791895883776796e-01
2.438975523250473121e-01
2.425310629526350736e-01
2.374964796641724496e-01
2.288827668597909204e-01
2.167961817009987635e-01
2.014128804526334193e-01
1.829412550528947135e-01
1.616271482968354989e-01
1.377747208007584767e-01
1.117025465626449443e-01
8.378569629730200918e-02
5.442105388093078366e-02
2.403214775104452194e-02
-6.922648923967954226e-03
-3.797840751681706012e-02
-6.864949304108616812e-02
-9.844411110932428655e-02
-1.268763164099090401e-01
-1.534665938834139931e-01
-1.777465851323875579e-01
-1.992915981795049529e-01
-2.176909650792312745e-01
-2.325943483567095016e-01
-2.437071037562745790e-01
-2.507708291976058490e-01
-2.536399201436788653e-01
-2.521991707816609862e-01
-2.464413336604410754e-01
-2.364428730750781915e-01
-2.223310830144537287e-01
-2.043653344938127780e-01
-1.828356306429273492e-01
-1.581307777816686466e-01
-1.307038475842815795e-01
-1.010410054376332245e-01
-6.970024956668598171e-02
-3.725188050374370063e-02
-4.289529685931593034e-03
2.858064902498881621e-02
6.076489406513899127e-02
9.169278804922686987e-02
1.208053413474849402e-01
1.476095321650751080e-01
1.716429713330488438e-01
1.924992682996605753e-01
2.098589895009870254e-01
2.234291007591934219e-01
2.330301984364144818e-01
2.385270683248000012e-01
2.398578813010525668e-01
2.370564030874081629e-01
2.301848039228462650e-01
2.194131213392405411e-01
2.049467320689751515e-01
1.870536787483688679e-01
1.660705712898666586e-01
1.423545782952141958e-01
1.163313767250835906e-01
8.844537262724970483e-02
5.917165147270071757e-02
2.901349553917113855e-02
-1.521865499634844632e-03
-3.191767275568862389e-02
-6.165649989687420340e-02
-9.024023952765442003e-02
-1.171857193048443935e-01
-1.420306975354717616e-01
-1.643684490511018725e-01
-1.838078991728634981e-01
-2.000321279368387217e-01
-2.127723416389766808e-01
-2.218062571346174905e-01
-2.270136992883602101e-01
-2.282999500254369041e-01
-2.256773896095765619e-01
-2.192167027049505834e-01
-2.090443197913957052e-01
-1.953891279981269935e-01
-1.785028188350787082e-01
-1.587233310091357708e-01
-1.364277880466372439e-01
-1.120244973454039283e-01
-8.596981819393587076e-02
-5.872647918126731870e-02
-3.077060086423280549e-02
-2.582848437902296457e-03
2.537238464742995470e-02
5.265184085997426378e-02
7.882512946237191231e-02
1.035177997795187488e-01
1.263742999783201704e-01
1.470889876309682265e-01
1.654105986712715581e-01
1.811094074734759252e-01
1.940307342007232816e-01
2.040411923518405946e-01
2.110578975167378690e-01
2.150441848987321991e-01
2.159819140211683142e-01
2.139079562563349080e-01
2.088728609372725864e-01
2.009637073880554958e-01
1.902956551975412691e-01
1.769990845358316578e-01
1.612433777470185792e-01
1.432073281412541421e-01
1.231035572972368486e-01
1.011665274066433085e-01
7.764771220060479040e-02
5.283561221532975805e-02
2.702721996410839544e-02
5.516153713084684385e-04
-2.624477277046205481e-02
-5.300334239040369044e-02
-7.934329629214234569e-02
-1.048807541417086930e-01
-1.292268083556838976e-01
-1.519905102368968863e-01
-1.727929042529371406e-01
-1.912735588242311380e-01
-2.070823255667738338e-01
-2.199208982925619504e-01
-2.295114575778022248e-01
-2.356285692247033214e-01
-2.381144772837555101e-01
-2.368377457875361358e-01
-2.317730129616623058e-01
-2.229300534698110403e-01
-2.103979821454479149e-01
-1.943519870340717492e-01
-1.749982775796657397e-01
-1.526491874943709526e-01
-1.276465237945217102e-01
-1.003930601720323945e-01
-7.134712659090824971e-02
-4.098275988575307560e-02
-9.818507156633016209e-03
2.161785367240668526e-02
5.279571215333252882e-02
8.318231478373477872e-02
1.122581767933613084e-01
1.395394753426121293e-01
1.645535621368159618e-01
1.868884590093824460e-01
2.061712408459925872e-01
2.220698390515039311e-01
2.343412109050216630e-01
2.427649702824212774e-01
2.472184331852842476e-01
2.476316874487440867e-01
2.439895766055082960e-01
2.363767909087703400e-01
2.249021565853180915e-01
2.097725396716021984e-01
1.912391919153994257e-01
1.696024486601254988e-01
1.452377566117609986e-01
1.185373131117324064e-01
8.995477917713118332e-02
5.996690085285907856e-02
2.907018178990104784e-02
-2.213488767129810630e-03
-3.336137680820829010e-02
-6.385475324010361775e-02
-9.317714813021335529e-02
-1.208399724195053093e-01
-1.463847568432463109e-01
-1.693732102874052348e-01
-1.894409027313219418e-01
-2.062455547113658805e-01
-2.195205743823678557e-01
-2.290680507718978742e-01
-2.347280761028811835e-01
-2.364557629957295404e-01
-2.342358736577502265e-01
-2.281474582349529434e-01
-2.183414235403580705e-01
-2.050071257870776931e-01
-1.884315487272882339e-01
-1.689231078986877244e-01
-1.468514619628089046e-01
-1.226253937476122491e-01
-9.666892640231644629e-02
-6.943827174314300132e-02
-4.139368487363581650e-02
-1.299315933999689587e-02
1.530667842105005484e-02
4.306537247988494188e-02
6.987206783064854598e-02
9.532600257460138726e-02
1.190768344393417638e-01
1.407971287767245117e-01
1.601950726063768315e-01
1.770331929728459208e-01
1.910894708028492983e-01
2.022059678443817454e-01
2.102492210025718733e-01
2.151257349935455365e-01
2.167931907753634091e-01
2.152253252069268874e-01
2.104569992817427737e-01
2.025430330518974420e-01
1.915803785079701893e-01
1.777113044793012242e-01
1.610957985360556843e-01
1.419547572619369313e-01
1.205263452505380972e-01
9.709287238702273004e-02
7.197653418818152071e-02
4.551637424306042429e-02
1.810111736667870466e-02
-9.868680654686594333e-03
-3.796553984694620715e-02
-6.574156391649221831e-02
-9.274579249148603988e-02
-1.185204860185977149e-01
-1.426088526625345354e-01
-1.645775152205921910e-01
-1.840081033975529134e-01
-2.005104139236012495e-01
-2.137554967780030957e-01
-2.234326466029772362e-01
-2.293223582119329196e-01
-2.312540766617182664e-01
-2.291192024224159018e-01
-2.229213140149938210e-01
-2.126930461491259305e-01
-1.985910381407759995e-01
-1.808276573213826177e-01
-1.596812923975876042e-01
-1.355305237515314620e-01
-1.087766782538385213e-01
-7.990520179512350385e-02
-4.943287588208287314e-02
-1.790427512875388677e-02
1.410061710957824510e-02
4.599977883906930520e-02
7.721245481989473525e-02
1.071594337068160763e-01
1.352919324136544199e-01
1.610937587622205402e-01
1.840706193206800290e-01
2.038077041484130936e-01
2.199138514820510037e-01
2.320782710342472743e-01
2.400624814335206580e-01
2.436688921001026187e-01
2.428227992746906927e-01
2.374814762882804242e-01
2.277095699861369504e-01
2.136528667799643677e-01
1.955066135975984110e-01
1.735913131120854214e-01
1.482564910389569113e-01
1.199489452210135421e-01
8.917713487565424868e-02
5.648511494730995564e-02
2.249253235830492303e-02
-1.216754073227614349e-02
-4.683110636228526857e-02
-8.081797024215019165e-02
-1.134588053470646785e-01
-1.441042805018215023e-01
-1.721177478787529747e-01
-1.969386705175867891e-01
-2.180411575507819888e-01
-2.349731166066149624e-01
-2.473941460144203908e-01
-2.550007366509515760e-01
-2.576503703785141264e-01
-2.552617787252166592e-01
-2.478639648646706051e-01
-2.356259315867790805e-01
-2.187587828708987825e-01
-1.976310761420095874e-01
-1.726613613815786152e-01
-1.443500563155476202e-01
-1.132848813301317592e-01
-8.007364162168939536e-02
-4.538583490899093797e-02
-9.906037836865166923e-03
2.568010094396173254e-02
6.068597834585187645e-02
9.444139370143042611e-02
1.263286083872001420e-01
1.557456705378303941e-01
1.821677531355627155e-01
2.051280816737838242e-01
2.242060572097044902e-01
2.390986467502066171e-01
2.495321467551951389e-01
2.553481856281379914e-01
2.564612725038082353e-01
2.528445332556208403e-01
2.445960150569992941e-01
2.318428080709778460e-01
2.148247266487939289e-01
1.938413324899859180e-01
1.692457204364025969e-01
1.414867920841247351e-01
1.110342908823241936e-01
7.843510869368462701e-02
4.427025253396710269e-02
9.147279498024012134e-03
-2.628638066204086465e-02
-6.137947955237516018e-02
-9.547780507166070407e-02
-1.279268881939619740e-01
-1.581019746094500522e-01
-1.854159020013373682e-01
-2.093043838888956898e-01
-2.293001243790413202e-01
-2.449683414491304334e-01
-2.559720447165729218e-01
-2.620780860092650766e-01
-2.631015150626035415e-01
-2.590247858349430388e-01
-2.498778385958235204e-01
-2.358212850987250753e-01
-2.171322912687190243e-01
-1.941392832521663392e-01
-1.673205349243950257e-01
-1.371900695510719081e-01
-1.043489097438989044e-01
-6.946321610056507834e-02
-3.321784235803093566e-02
3.657598475006155689e-03
4.042770433597033669e-02
7.637309508651360379e-02
1.107846070513717335e-01
1.429862397841833443e-01
1.723733939353075395e-01
1.983630910973762651e-01
2.204813775330126402e-01
2.383120681078917946e-01
2.515123215954902514e-01
2.598703711413554163e-01
2.632089141456961379e-01
2.614985951885335225e-01
2.547758159937676958e-01
2.431623111853795649e-01
2.269076902033473897e-01
2.062942329902477945e-01
1.817321120846614457e-01
1.536790776973646078e-01
1.226555848298692131e-01
8.926099621883726298e-02
5.411173775701025312e-02
1.788097919839381350e-02
-1.874118368809274751e-02
-5.505923370169087117e-02
-9.037192368079526028e-02
-1.239894617654131448e-01
-1.552673096633405692e-01
-1.835757779295308367e-01
-2.083589718250156708e-01
-2.291265439693043193e-01
-2.454345191297458151e-01
-2.569783053362821867e-01
-2.634904521522170029e-01
-2.648412972654137221e-01
-2.610039768094625789e-01
-2.520189654527852929e-01
-2.380955534053327827e-01
-2.194822783220230222e-01
-1.965625862060804974e-01
-1.698043473344416909e-01
-1.397264398381565242e-01
-1.069548189930269178e-01
-7.213534776658980796e-02
-3.596680076561165063e-02
8.245384831624437416e-04
3.751429995503517689e-02
7.338196452239362233e-02
1.077158180198905663e-01
1.398637240401478798e-01
1.692004231346402321e-01
1.951628683958029353e-01
2.172809651612601645e-01
2.351160792550592848e-01
2.483666971008512414e-01
2.567829544783628015e-01
2.602129796751738722e-01
2.586277227823376434e-01
2.520384355768007789e-01
2.406089941248298614e-01
2.245518468143949953e-01
2.041764647127327637e-01
1.798944624464604847e-01
1.521511272634682166e-01
1.215023405946883683e-01
8.853339163201612294e-02
5.388303559472200355e-02
1.823730471550153581e-02
-1.770994843643548117e-02
-5.324539507725456478e-02
-8.765399248095154250e-02
-1.202505217447266544e-01
-1.503719628193383728e-01
-1.773902974310050396e-01
-2.007667876802646800e-01
-2.199880401561239707e-01
-2.346630669993977902e-01
-2.444773235791490584e-01
-2.491934907993436643e-01
-2.487373257227165069e-01
-2.430749695974038782e-01
-2.323419406334465975e-01
-2.167624348435752690e-01
-1.966465034657826627e-01
-1.724559823561451766e-01
-1.446856051935243026e-01
-1.139514529465245063e-01
-8.092249237197451928e-02
-4.630569030443222600e-02
-1.086433310116965978e-02
2.463431142819670280e-02
5.942645291606323682e-02
9.275080549481742875e-02
1.238913268922847005e-01
1.521884709810245873e-01
1.770133407922494240e-01
1.978635649622854931e-01
2.142782977786876486e-01
2.259126005414682781e-01
2.325430393020657682e-01
2.339995896719513357e-01
2.302943151757240181e-01
2.214900724617368533e-01
2.077849807160067341e-01
1.894962656869362549e-01
1.669931262466469168e-01
1.407947259397024919e-01
1.114557685591555936e-01
7.961924530848851767e-02
4.599340113650289552e-02
1.130645439919487211e-02
-2.366583310020666658e-02
-5.814163570037589324e-02
-9.135550174844497828e-02
-1.225523257197294741e-01
-1.510159458348724615e-01
-1.761129684717143151e-01
-1.972363679218259724e-01
-2.139163047111686256e-01
-2.257547667481492049e-01
-2.324511451947464113e-01
-2.338767135271225817e-01
-2.299484114782248678e-01
-2.207795917292356136e-01
-2.065696983713848911e-01
-1.876261201337496298e-01
-1.644159113434935926e-01
-1.374432918937467663e-01
-1.073504668396710326e-01
-7.482970555153369008e-02
-4.061913113211121362e-02
-5.513810280545618919e-03
2.968898212684955781e-02
6.419825112743682283e-02
9.722707941057621983e-02
1.280446493216514103e-01
1.559787024289494006e-01
1.803958095350684521e-01
2.007996978813387512e-01
2.167338482627526042e-01
2.278732812670709040e-01
2.340083555463319254e-01
2.349913735643068824e-01
2.308554464181238330e-01
2.216788898891993154e-01
2.076811724966301509e-01
1.891856949356206519e-01
1.665720195700906014e-01
1.403576025018583862e-01
1.110895702318725475e-01
7.940094288773834330e-02
4.597772372227687532e-02
1.152566511768316967e-02
-2.320918050934400734e-02
-5.747757107914601427e-02
-9.054726930073835056e-02
-1.216952288205742083e-01
-1.502390992963033300e-01
-1.755683327276276462e-01
-1.970981536990362160e-01
-2.143724261912920981e-01
-2.269917190058932110e-01
-2.346569070773836807e-01
-2.372167227325238659e-01
-2.345650507643274874e-01
-2.267841428848186291e-01
-2.140258296953468364e-01
-1.965582584737196603e-01
-1.747934878684290760e-01
-1.491832696732155183e-01
-1.203215712041706964e-01
-8.884575198503125160e-02
-5.545034021945270675e-02
-2.088927956403634212e-02
1.407853266038161175e-02
4.868592604240985083e-02
8.216640548053343041e-02
1.138014123275487288e-01
1.429142487491893987e-01
1.688680420107554481e-01
1.911450329100530254e-01
2.092598765691958129e-01
2.228578306520915819e-01
2.316799422075408454e-01
2.355356097257426118e-01
2.344031400038444346e-01
2.283010281059376645e-01
2.173955691838788118e-01
2.019440170388174249e-01
1.822688204407273416e-01
1.588274901945724848e-01
1.321058860879666397e-01
1.026862857159913378e-01
7.120055876469903733e-02
3.830871639821339936e-02
4.719590158042387407e-03
-2.885336913416797211e-02
-6.169908604454095447e-02
-9.310817220539102657e-02
-1.224067766289703707e-01
-1.489733045793497634e-01
-1.722107466132365150e-01
-1.916371048358004314e-01
-2.068136171326068751e-01
-2.174046697332226996e-01
-2.232017456989308091e-01
-2.240440359270257087e-01
-2.199541661579050844e-01
-2.110127062230907624e-01
-1.974280869629987945e-01
-1.795410609629831122e-01
-1.577383395951711953e-01
-1.325566042664606814e-01
-1.045718572899314025e-01
-7.443323778940819091e-02
-4.285345360151411598e-02
-1.055552538508201799e-02
2.171223689355239461e-02
5.319947618905686987e-02
8.319469768680567978e-02
1.110148418382651547e-01
1.360197062570137894e-01
1.576763586152479524e-01
1.754813746086784365e-01
1.890685749370220603e-01
1.981560015489680637e-01
2.025423973113715248e-01
2.021938228356405798e-01
1.971164748105783682e-01
1.874793487479194110e-01
1.735351641504346287e-01
1.556146907467440832e-01
1.341842767691005800e-01
1.097387685356274456e-01
8.287520447889665243e-02
5.423428948262838667e-02
2.448412607984981615e-02
-5.667290928583382237e-03
-3.551226012822232547e-02
-6.436251599964053216e-02
-9.153814846836720587e-02
-1.164136549209903171e-01
-1.384303029073885860e-01
-1.570632738094963621e-01
-1.719242868430008453e-01
-1.826690247185249194e-01
-1.890724994124582947e-01
-1.910326879010393608e-01
-1.884997742990847935e-01
-1.815983580717455970e-01
-1.705004680999011035e-01
-1.554967564605571062e-01
-1.369805496583337001e-01
-1.153843692227217443e-01
-9.125068013843766479e-02
-6.514620101438460542e-02
-3.768185836927966798e-02
-9.500662402580396099e-03
1.875685803419365610e-02
4.645827296687452673e-02
7.297765072460207780e-02
9.774523373090175660e-02
1.202256794457379485e-01
1.399313708563828529e-01
1.564736627655324286e-01
1.694905224231778584e-01
1.787407554614279803e-01
1.840452106428320522e-01
1.852967312078814821e-01
1.825128874830760639e-01
1.757423970527557111e-01
1.651618633426647220e-01
1.510029188522008792e-01
1.335635490915007273e-01
1.132381996733543561e-01
9.044363044693982945e-02
6.567857624743088374e-02
3.947100255434717042e-02
1.237640507658036709e-02
-1.501610993361908973e-02
-4.211647487036916659e-02
-6.833956058982694481e-02
-9.310326280429072343e-02
-1.158645056776421434e-01
-1.361202598653001583e-01
-1.533965468824856626e-01
-1.673208680881159149e-01
-1.775502911412626117e-01
-1.838476662068930789e-01
-1.860670218454544833e-01
-1.841153731811435712e-01
-1.780525308511912430e-01
-1.679764231754770076e-01
-1.541081529097255431e-01
-1.367579669524890684e-01
-1.162840511684602174e-01
-9.316028686077645893e-02
-6.788447812751814692e-02
-4.101844523123174963e-02
-1.316277053712159098e-02
1.507393211963189289e-02
4.306742344333175376e-02
7.019577361463895382e-02
9.587323123186240748e-02
1.195328228807386040e-01
1.406525866181096984e-01
1.587884689054834264e-01
1.735213768737591256e-01
1.845496130066697771e-01
1.916222030788289898e-01
1.945705443198153528e-01
1.933453531505437972e-01
1.879321890642617898e-01
1.784580255139227301e-01
1.651011189433184423e-01
1.481236058879602802e-01
1.278896355608122315e-01
1.047917273556413786e-01
7.932305483010110292e-02
5.200707636276419299e-02
2.340975884122115797e-02
-5.859502354929595203e-03
-3.518678914337516200e-02
-6.394868619562808776e-02
-9.152152748217487477e-02
-1.173162055044744828e-01
-1.407732817067196274e-01
-1.613653752019785503e-01
-1.786596657308253122e-01
-1.922495289270184926e-01
-2.018406135065233808e-01
-2.072195221594645975e-01
-2.082351357887220478e-01
-2.048879211271103506e-01
-1.972146925903694725e-01
-1.853899794012538738e-01
-1.696716116420403375e-01
-1.503782776076558469e-01
-1.279526341485919538e-01
-1.028625877932608512e-01
-7.565895202173032741e-02
-4.693436124199661108e-02
-1.729928753671670927e-02
1.260550488466500099e-02
4.213968768670266207e-02
7.068635561114045007e-02
9.763923800095163086e-02
1.224363222965719755e-01
1.445795089550577506e-01
1.635960043378652529e-01
1.791252458986560547e-01
1.908478523063265042e-01
1.985326794063609068e-01
2.020554494475933494e-01
2.013297746637572050e-01
1.964112396737459909e-01
1.873994629683563562e-01
1.744894770672736628e-01
1.579733784349300341e-01
1.381778704210889219e-01
1.155413139400510020e-01
9.053120861136548791e-02
6.367464102103428947e-02
3.554960867300414884e-02
6.746096987121155686e-03
-2.211458251767629835e-02
-5.040647163909141304e-02
-7.752052741270260006e-02
-1.028599034555709724e-01
-1.258565810880785119e-01
-1.460137739494820341e-01
-1.628557756281810431e-01
-1.760139723910192910e-01
-1.851844017752172500e-01
-1.901337521530209740e-01
-1.907729065700849713e-01
-1.870488545227045885e-01
-1.790618458794293322e-01
-1.669896549884378745e-01
-1.510881818223723805e-01
-1.317467956281966335e-01
-1.093836549200641051e-01
-8.452247486085598394e-02
-5.773134027103608845e-02
-2.960979016170145819e-02
-8.024196117975487819e-04
2.804409413701414167e-02
5.629084348886394251e-02
8.330283876667973764e-02
1.084868927821980855e-01
1.313002458508309989e-01
1.512272156600653894e-01
1.678601600942556116e-01
1.808258532547994957e-01
1.898479697506992581e-01
1.947483393512619287e-01
1.953927128439546523e-01
1.917920990057040420e-01
1.839969931265717229e-01
1.721653550957656376e-01
1.565465816689385337e-01
1.374315835807081998e-01
1.152275266647831697e-01
9.036869877380843130e-02
6.336061953992429274e-02
3.475967319231890174e-02
5.140591052078376244e-03
-2.487907315294609484e-02
-5.467553802955450737e-02
-8.362819845233372684e-02
-1.111185097398582483e-01
-1.365527358880972986e-01
-1.593881201698843508e-01
-1.790996234079386684e-01
-1.952577172322698673e-01
-2.074812892565675027e-01
-2.154627697569255484e-01
-2.190199931579129289e-01
-2.180061772902220640e-01
-2.124297573806019357e-01
-2.023650913959891273e-01
-1.879801807433550964e-01
-1.695768927391163305e-01
-1.474915817670986729e-01
-1.221927571183439309e-01
-9.419563405100533915e-02
-6.407310209620814545e-02
-3.246728466775522515e-02
-3.108063581064302028e-05
3.255279824487271323e-02
6.459429588826272328e-02
9.542614988818209909e-02
1.244040889280529083e-01
1.509086265165845986e-01
1.744071398347837309e-01
1.943925852118430220e-01
2.104575693731061126e-01
2.222791340603902932e-01
2.295870724359326820e-01
2.322612956232114612e-01
2.302196060475124595e-01
2.235112310702532246e-01
2.122789106118206370e-01
1.967242062604060426e-01
1.771890835999196390e-01
1.540467822296048284e-01
1.277744374477641776e-01
9.891114595031141876e-02
6.803106825400903612e-02
3.577849478402245209e-02
2.808884930671801117e-03
-3.020085687916460038e-02
-6.256343308141686099e-02
-9.360910358267973685e-02
-1.226982042689765684e-01
-1.492067896131212823e-01
-1.725964755472286782e-01
-1.923656351556289890e-01
-2.080919247422875484e-01
-2.194659342377375533e-01
-2.262166458894551146e-01
-2.282348603598052805e-01
-2.254695875372602631e-01
-2.179815632096225864e-01
-2.059650999986255004e-01
-1.896566922876052885e-01
-1.694453833175255109e-01
-1.457660563096623285e-01
-1.191341544206740988e-01
-9.014602593684928333e-02
-5.941717718377964585e-02
-2.761989119201319065e-02
4.560833260676022682e-03
3.644320709301640537e-02
6.734816289058334626e-02
9.661715356562725066e-02
1.236525879211827217e-01
1.478750927290460315e-01
1.687964996364436088e-01
1.859933031145259708e-01
1.990988413628307363e-01
2.078828850097106107e-01
2.121491497228764067e-01
2.118396672741588438e-01
2.069787645096936024e-01
1.976612323563555207e-01
1.841233200693871419e-01
1.666332274064732388e-01
1.455807423371271447e-01
1.214162130367715253e-01
9.464005704976929945e-02
6.583699972548151536e-02
3.560687383708244225e-02
4.595609813608819705e-03
-2.653210724692600664e-02
-5.711536267997238681e-02
-8.649867601658937921e-02
-1.140383622352144632e-01
-1.391523586738750429e-01
-1.612816528845112396e-01
-1.799410968303341851e-01
-1.947334889037473649e-01
-2.053005292864718556e-01
-2.114332357357065761e-01
-2.129690890825722271e-01
-2.098651561514402741e-01
-2.021980898570066298e-01
-1.900938699052321379e-01
-1.738381562663107172e-01
-1.537586694954536926e-01
-1.302850366101271640e-01
-1.039324764712278304e-01
-7.524644856925816194e-02
-4.485429978479421598e-02
-1.340007996320891070e-02
1.845143503283784570e-02
5.002091548027354923e-02
8.064226917940703343e-02
1.096825483118218786e-01
1.365211656007793428e-01
1.606135831959693561e-01
1.814604450421960780e-01
1.986194421793932852e-01
2.117628522357955234e-01
2.205932524509000292e-01
2.249480844480794550e-01
2.247319821810355722e-01
2.199290260573992239e-01
2.106568345231618622e-01
1.970664207491519826e-01
1.794446401599790741e-01
1.581350407937360258e-01
1.335500471765815045e-01
1.061992477580324667e-01
7.661388426740274593e-02
4.540223107915131173e-02
1.319898276225285605e-02
-1.934214723336396755e-02
-5.154491544040212814e-02
-8.273776705999158487e-02
-1.122755330917020594e-01
-1.395228822877882802e-01
-1.639034096637159432e-01
-1.848993854000334225e-01
-2.020315990696326947e-01
-2.149504284419379574e-01
-2.233428848685716783e-01
-2.270230640035275083e-01
-2.259113615955495868e-01
-2.199894122997678170e-01
-2.094101128190559158e-01
-1.943680784388855387e-01
-1.751916167116985279e-01
-1.523029116521371074e-01
-1.261742064407216646e-01
-9.739497864322330112e-02
-6.657803338794990311e-02
-3.439571960518379712e-02
-1.555309809839068580e-03
3.123358108832658894e-02
6.325750125469613294e-02
9.380915022627890620e-02
1.222352478816601945e-01
1.479096732985633600e-01
1.702653885689330016e-01
1.888344966161817351e-01
2.031808348898486993e-01
2.130146878788748421e-01
2.181078005552615218e-01
2.183344796030517454e-01
2.137131866979958272e-01
2.043049831694882523e-01
1.903411535534859089e-01
1.721128990557041494e-01
1.500103386706635455e-01
1.245403359324983583e-01
9.624118237645595819e-02
6.575933140607101435e-02
3.377244095171480498e-02
9.945585511357338260e-04
-3.182419053335663883e-02
-6.393694830513285687e-02
-9.461409833083675447e-02
-1.231338788044855359e-01
-1.488419691593631244e-01
-1.711402340020717339e-01
-1.894811352978810204e-01
-2.034608646763693129e-01
-2.127139353038308145e-01
-2.170310065293205859e-01
-2.163119803069537550e-01
-2.105379378002402713e-01
-1.998814002412677149e-01
-1.845592185265700347e-01
-1.649499278211206121e-01
-1.415268934388084765e-01
-1.148274428396596214e-01
-8.551514095727935638e-02
-5.427662955589833416e-02
-2.186316298148041626e-02
1.094264855856628971e-02
4.336211441637101427e-02
7.462346189085568293e-02
1.039677611473755897e-01
1.307159649286049607e-01
1.542230508093794250e-01
1.739295725394356951e-01
1.893959142438746968e-01
2.002253111607867342e-01
2.062017688496238232e-01
2.071734375569435072e-01
2.031178665214879442e-01
1.941646817896719723e-01
1.804941249662203595e-01
1.624690638636897555e-01
1.405067717622968670e-01
1.151296233628905930e-01
8.696375078929996505e-02
5.666420861668053366e-02
2.497346410399668010e-02
-7.345781923853832857e-03
-3.951810269954277033e-02
-7.075754011313772907e-02
-1.002978909936821372e-01
-1.274316872688819879e-01
-1.514705586511109758e-01
-1.718345526675325585e-01
-1.880192980239339118e-01
-1.995939590321696433e-01
-2.063014995713016719e-01
-2.079287422574177258e-01
-2.044463980606731346e-01
-1.959327223421054309e-01
-1.825600905690077380e-01
-1.646866331801699890e-01
-1.427114297342984561e-01
-1.171855989769370471e-01
-8.873454884871957715e-02
-5.803671378993151275e-02
-2.585818672388111999e-02
7.023607735078681372e-03
3.981157585735337762e-02
7.170151770668664604e-02
1.019250856916589648e-01
1.297639987513052040e-01
1.545277954148460697e-01
1.756539093324219758e-01
1.926258134335348260e-01
2.050445136988225947e-01
2.126485651323376802e-01
2.152303885880566536e-01
2.127820640245578765e-01
2.053560851652325991e-01
1.931457635398853845e-01
1.764828339381188660e-01
1.557504117436935287e-01
1.314932205216048644e-01
1.042968422875201195e-01
7.483066310430559753e-02
4.383324750847863993e-02
1.205705525567302150e-02
-1.971101998193154972e-02
-5.068072987468202201e-02
-8.009870068356965411e-02
-1.072372307910053335e-01
-1.314165444406227012e-01
-1.520707687972749911e-01
-1.686665614753704301e-01
-1.808294055584507842e-01
-1.882774075924905643e-01
-1.908280333744114543e-01
-1.884945016533892681e-01
-1.813377570600517297e-01
-1.696158750101080526e-01
-1.536831637871038381e-01
-1.339869236012551368e-01
-1.111278894067923018e-01
-8.573696184498952322e-02
-5.854688467095328641e-02
-3.033127541859373388e-02
-1.874145322658185564e-03
2.602619879231826694e-02
5.258422405922625470e-02
7.708741822293552204e-02
9.885053678449190473e-02
1.172887130736542938e-01
1.319340579157570748e-01
1.423721343383674010e-01
1.483906385709004294e-01
1.498389377835994685e-01
1.467250916457243648e-01
1.392124868512410740e-01
1.275267886581965826e-01
1.120906231173665613e-01
9.337685954317476167e-02
7.197077236058568861e-02
4.855003098912241688e-02
2.381667222640462822e-02
-1.464589773791935556e-03
-2.651952377419240781e-02
-5.059645779495605677e-02
-7.295941567164673791e-02
-9.291825669945666388e-02
-1.098916998415492008e-01
-1.233305972859775890e-01
-1.328480022893107348e-01
-1.381511682379378547e-01
-1.390503372059008758e-01
-1.355578119569924300e-01
-1.277349795062437954e-01
-1.158452236619956360e-01
-1.002500741497647924e-01
-8.140372301861331650e-02
-5.991257304499293668e-02
-3.641176889977590370e-02
-1.162986461829101925e-02
1.366744974180721106e-02
3.871307253838607992e-02
6.273807944619022581e-02
8.499062768389643863e-02
1.048093203195692158e-01
1.215659874220581804e-01
1.347433446744978891e-01
1.439527747310477002e-01
1.488620440558402758e-01
1.493500259994906543e-01
1.453594619765866403e-01
1.369918411088219268e-01
1.245033686369207970e-01
1.082097309966342791e-01
8.861305058694822490e-02
6.626229771524140555e-02
4.180378576547526259e-02
1.596349345332293002e-02
-1.051710199868237383e-02
-3.685857492597748031e-02
-6.227824162472633124e-02
-8.603824369056647936e-02
-1.074316598254445171e-01
-1.258068812736338749e-01
-1.406425081110939113e-01
-1.514536584656089313e-01
-1.579302646001743970e-01
-1.598633029688114604e-01
-1.571485350664613423e-01
-1.498862879349929234e-01
-1.382254062219859247e-01
-1.225098395191445977e-01
-1.031778602353370100e-01
-8.075266446132471632e-02
-5.589630405447056083e-02
-2.929569492361527860e-02
-1.714304088733274029e-03
2.605430771587622513e-02
5.322423121183825212e-02
7.902020038382449874e-02
1.026867973853672067e-01
1.235683072928738802e-01
1.410452194911140655e-01
1.546111330773385362e-01
1.638903309619086091e-01
1.685634468169489031e-01
1.685207745500733600e-01
1.637158007414100114e-01
1.542593267940981228e-01
1.404148178738366115e-01
1.225053498008085162e-01
1.010404467045173671e-01
7.657655603528921995e-02
4.977130034438112527e-02
2.136475066706106096e-02
-7.884230202734413342e-03
-3.716973050565050563e-02
-6.568021575250523880e-02
-9.263894189487761888e-02
-1.172931037316599368e-01
-1.389407310039408872e-01
-1.569991864526222025e-01
-1.709201767976502861e-01
-1.803242757490763071e-01
-1.849292784472426898e-01
-1.845582206153331684e-01
-1.792387955590258319e-01
-1.690483133691704498e-01
-1.542677867093427968e-01
-1.352763644565711798e-01
-1.125477495647372872e-01
-8.670965317004913908e-02
-5.841975307902753933e-02
-2.843599836276796550e-02
2.443987476769143158e-03
3.341303279604616178e-02
6.365099988087838390e-02
9.235053642775113703e-02
1.187756788417864418e-01
1.422168429971994441e-01
1.620618185536816247e-01
1.778104189634972798e-01
1.890145136191189734e-01
1.954209419259068381e-01
1.968355591793373716e-01
1.932203794513847328e-01
1.846883107915302524e-01
1.714155514453987172e-01
1.537770622126741205e-01
1.321985582045876739e-01
1.072282321214363121e-01
7.951366668891593492e-02
4.973520545228292400e-02
1.865858883891357081e-02
-1.293484597760081317e-02
-4.425818321875728267e-02
-7.452082189908662557e-02
-1.029619756085787680e-01
-1.288913282151474826e-01
-1.516415959240884903e-01
-1.706722440759206594e-01
-1.855154762766464405e-01
-1.957920069539734187e-01
-2.012941271177753622e-01
-2.018579487653363869e-01
-1.975078029685220782e-01
-1.883584701554925356e-01
-1.746234797043922649e-01
-1.566766284491442063e-01
-1.349273085762980884e-01
-1.099173159280620732e-01
-8.224130930564235720e-02
-5.253779475337194693e-02
-2.150499235467624726e-02
1.015394949500729449e-02
4.173261920063670027e-02
7.252487615511629682e-02
1.018639918579562625e-01
1.291283910521920653e-01
1.537240823068564688e-01
1.751632731330861059e-01
1.929908629263050734e-01
2.068508842167968154e-01
2.164827512641739893e-01
2.216718331367314998e-01
2.223492263170517846e-01
2.184844923532821004e-01
2.101590950791818457e-01
1.975449337844999709e-01
1.808591377498039166e-01
1.604400798968791397e-01
1.366541108358816092e-01
1.099492718735628483e-01
8.082900436787637810e-02
4.982302180923538215e-02
1.752024180650373075e-02
-1.547994567200758342e-02
-4.855869563290546309e-02
-8.108624349021113786e-02
-1.124434347475642276e-01
-1.420320270914285921e-01
-1.692643481383170334e-01
-1.936165604738601387e-01
-2.145957439700122982e-01
-2.317679467384482495e-01
-2.447947284229900489e-01
-2.533678382584543254e-01
-2.573146296438751368e-01
-2.565174869780905698e-01
-2.509524462545337231e-01
-2.407227202510839326e-01
-2.259692802529477684e-01
-2.069807071530641585e-01
-1.840957436378738155e-01
-1.577352397825212416e-01
-1.284136835985907610e-01
-9.666912032270989774e-02
-6.311727209631423641e-02
-2.839507239206203251e-02
6.843989549934134664e-03
4.193056521628184263e-02
7.620424778017179102e-02
1.090376338823299818e-01
1.398144065671693692e-01
1.679819814426747604e-01
1.930390771739134703e-01
2.145252270434594433e-01
2.320913401120309749e-01
2.454169400753309915e-01
2.542933393348293936e-01
2.585874144126429353e-01
2.582230137535104775e-01
2.532537837040798601e-01
2.437636949973006062e-01
2.299517279022358918e-01
2.120820748706637726e-01
1.904715528787331025e-01
1.655376224013430653e-01
1.377191366161768793e-01
1.075316124414916197e-01
7.552686771396598109e-02
4.228178473450500824e-02
8.413451719953321528e-03
-2.545671979967477350e-02
-5.870315728845423853e-02
-9.069925926107304248e-02
-1.208434440729097836e-01
-1.485680075066712347e-01
-1.733244230209219916e-01
-1.946500973425199510e-01
-2.121127876292709935e-01
-2.253651456411657206e-01
-2.341562364436229338e-01
-2.382767510688231782e-01
-2.376698777709014276e-01
-2.323242661069270798e-01
-2.223457957242301886e-01
-2.079521762991819456e-01
-1.894073261679950493e-01
-1.671183024219445590e-01
-1.415281605397610831e-01
-1.131649240820401525e-01
-8.262468161699085267e-02
-5.052433989488441801e-02
-1.753405238876845629e-02
1.566709188650742754e-02
4.840453304412625779e-02
8.000685004787060073e-02
1.098282501270397282e-01
1.372824019501112380e-01
1.618014529728790396e-01
1.829147435974030067e-01
2.002066676214396823e-01
2.133275580017333362e-01
2.220538806113084296e-01
2.261945891420596988e-01
2.256987671649534621e-01
2.205820552228171527e-01
2.109389619333351118e-01
1.969904030962632002e-01
1.789884136795235059e-01
1.573081935474507642e-01
1.323739007797147538e-01
1.046687554405826837e-01
7.475545395848973151e-02
4.321326995579978514e-02
1.067738469883090791e-02
-2.219906378205815933e-02
-5.475759022602127990e-02
-8.633367016142573513e-02
-1.162731332088142722e-01
-1.439663166535048999e-01
-1.688185018773417090e-01
-1.903053279382512508e-01
-2.079692655015121794e-01
-2.213958211805293341e-01
-2.303083114718038615e-01
-2.344678066213537471e-01
-2.337678071521583911e-01
-2.282074814940323604e-01
-2.178492383993296255e-01
-2.029244947754323958e-01
-1.837047658133891259e-01
-1.605922564663753438e-01
-1.340766790217819970e-01
-1.046949146256262175e-01
-7.308932037043136543e-02
-3.992190225356787026e-02
-5.900547011702159117e-03
2.824130734089905573e-02
6.177716733162590124e-02
9.399442142498157238e-02
1.241914686717619926e-01
1.517393659651067594e-01
1.760439661706556524e-01
1.965805402848760375e-01
2.129353513204807480e-01
2.247296755400406965e-01
2.317406413144147415e-01
2.338078129117592274e-01
2.308768963434640331e-01
2.230358867959850167e-01
2.104152666297102736e-01
1.933104192468332871e-01
1.720721580632036396e-01
1.471451948499858664e-01
1.190799591413454483e-01
8.845527472487491050e-02
5.594433270002802105e-02
2.224609018882231504e-02
-1.191329093224143335e-02
-4.578192129819187023e-02
-7.861511138010371380e-02
-1.096960435158524511e-01
-1.383185318649048090e-01
-1.638504408784584865e-01
-1.857184914953719235e-01
-2.034031741735803089e-01
-2.165304386644500423e-01
-2.247644528375932760e-01
-2.279276774732069133e-01
-2.259482112635872730e-01
-2.188371612798658550e-01
-2.067924820927558027e-01
-1.900549944016690085e-01
-1.690247442444700599e-01
-1.441908105370183213e-01
-1.161052039741099773e-01
-8.543851666475055229e-02
-5.288239858569801499e-02
-1.918733101521596235e-02
1.486911455514613664e-02
4.851621635673801503e-02
8.099442052533845082e-02
1.115583526812442550e-01
1.395443136796285510e-01
1.643219181930469230e-01
1.853466057829378788e-01
2.021884217062313027e-01
2.144595669104190638e-01
2.219447141195804996e-01
2.244871588410638497e-01
2.220535994860985962e-01
2.147490824115201868e-01
2.027262949494927358e-01
1.863042885164725715e-01
1.658496942609387625e-01
1.418257457614969241e-01
1.147866498276287894e-01
8.531381026767395626e-02
5.406855466555837708e-02
2.173020249898340028e-02
-1.100432485929676331e-02
-4.342420956578481317e-02
-7.483152936379047770e-02
-1.045652133413173396e-01
-1.319770460329869333e-01
-1.564973010269329334e-01
-1.776084723274094779e-01
-1.948497944197925547e-01
-2.078884849197777940e-01
-2.164248493611216628e-01
-2.203039838121422234e-01
-2.194518040696802341e-01
-2.138750767787361284e-01
-2.037329395683412092e-01
-1.892203345491146882e-01
-1.706747521237401699e-01
-1.485002648080732401e-01
-1.231644721534705389e-01
-9.523537314071386928e-02
-6.529997352712778313e-02
-3.400739306020093833e-02
-2.030467217247262923e-03
2.995522576274763094e-02
6.127051986097517555e-02
9.124652399699076377e-02
1.192672059084587677e-01
1.447355216720434545e-01
1.671231169411410700e-01
1.859783215917706345e-01
2.008863429938162470e-01
2.115672663812208087e-01
2.177813113553246915e-01
2.194019908601537172e-01
2.164090557418981708e-01
2.088320571425666961e-01
1.968541898357660802e-01
1.806981267253902623e-01
1.606983254179173704e-01
1.372772803878367642e-01
1.108983372292305786e-01
8.213113430760286826e-02
5.156804886066788940e-02
1.985580601325775268e-02
-1.232301422815899883e-02
-4.428191807681045034e-02
-7.532692384548071718e-02
-1.047680715287030440e-01
-1.319632776473742830e-01
-1.562973151970827312e-01
-1.772091418978560262e-01
-1.942399282750392198e-01
-2.069621167035483045e-01
-2.150987149355804706e-01
-2.184433139899883969e-01
-2.168922141923057545e-01
-2.105036491164866685e-01
-1.993795731164819118e-01
-1.838022730634394641e-01
-1.641247001806958872e-01
-1.407944859179501296e-01
-1.143845212880967299e-01
-8.549553121382985621e-02
-5.482426741905728484e-02
-2.309801596828774811e-02
8.939235336189815806e-03
4.052494236664831717e-02
7.090795009702530183e-02
9.938760494992630867e-02
1.252804016339146287e-01
1.479894898255744162e-01
1.669989325752066767e-01
1.818447901497667607e-01
1.922267241781875358e-01
1.978883923691485691e-01
1.987244366597391010e-01
1.947479178636894459e-01
1.860411111327848199e-01
1.728678966691676588e-01
1.555344940417780486e-01
1.344828387486917687e-01
1.102441749407339910e-01
8.339723152197793532e-02
5.462508752740403983e-02
2.462957675120622941e-02
-5.846646640772341919e-03
-3.603867071639739461e-02
-6.519517778906869232e-02
-9.259094296266333346e-02
-1.175163822491133991e-01
-1.393579912037918589e-01
-1.575475043721021040e-01
-1.716064748682741559e-01
-1.811975856522747563e-01
-1.860279015729682517e-01
-1.859996146166653375e-01
-1.810916701728116085e-01
-1.714102394261043938e-01
-1.572291336879489132e-01
-1.388690984527757022e-01
-1.168272811106348674e-01
-9.165849169817257003e-02
-6.399908652139195409e-02
-3.457566913243979856e-02
-4.129892367023805036e-03
2.655442508563819748e-02
5.668424290854713610e-02
8.549677229089544528e-02
1.122573540933275160e-01
1.362666374433707528e-01
1.569392706432551354e-01
1.737224694384723878e-01
1.861989479044113549e-01
1.940572540058813078e-01
1.970587870596274827e-01
1.951566385266452208e-01
1.883505951944752232e-01
1.768085173649753816e-01
1.608084528774891830e-01
1.407015226500037131e-01
1.169998156772432962e-01
9.024920465492139443e-02
6.110466400556681388e-02
3.028096873693407465e-02
-1.480520622728583036e-03
-3.338962156243817370e-02
-6.465375827764020811e-02
-9.450280223042920036e-02
-1.221777138594342393e-01
-1.469752853716961849e-01
-1.682797888384380269e-01
-1.855098514848538271e-01
-1.982462716639123712e-01
-2.061339558258845350e-01
-2.089466971128145778e-01
-2.066274208873345730e-01
-1.991742922817299477e-01
-1.868019663553897036e-01
-1.697966906302421364e-01
-1.485757301405746800e-01
-1.237007339801847738e-01
-9.577344062925854939e-02
-6.552772515182252178e-02
-3.373270966098072116e-02
-1.194293217172904577e-03
3.124758485472793959e-02
6.276416239385511353e-02
9.256795882723037328e-02
1.198865859328666766e-01
1.440471017696668132e-01
1.644539285418399333e-01
1.805791172939789357e-01
1.920733867275699058e-01
1.986330601928418815e-01
2.001364771675830379e-01
1.965808399063476708e-01
1.880530896224633652e-01
1.748376303181938263e-01
1.572628417943330303e-01
1.358150783442821641e-01
1.110670774673947203e-01
8.364859928229899377e-02
5.429446837050021235e-02
2.375606875744218360e-02
-7.177691734211927299e-03
-3.770133478412533712e-02
-6.703271747431029104e-02
-9.442626210092493200e-02
-1.191587232081264547e-01
-1.406225695352883442e-01
-1.582562953662770833e-01
-1.716087091220233618e-01
-1.803727778770320700e-01
-1.842935986969088114e-01
-1.833250378132442737e-01
-1.774903484020509126e-01
-1.669561555935799302e-01
-1.520464103427218994e-01
-1.331362818222898703e-01
-1.107747862550051421e-01
-8.555877049326124362e-02
-5.816650274745725074e-02
-2.935129835123716224e-02
1.229221852521653058e-04
2.946651764599075157e-02
5.788776458427614957e-02
8.464334412109629502e-02
1.090274587651964000e-01
1.303834956286689106e-01
1.481855259111758139e-01
1.619431335649914039e-01
1.713247591969644101e-01
1.761021857576771654e-01
1.761360747272055216e-01
1.714823527415963444e-01
1.622427514096517753e-01
1.486970939856632479e-01
1.312222895314311133e-01
1.102726837558494211e-01
8.644506259939588322e-02
6.036354067662035028e-02
3.273967357101215114e-02
4.324455426693563781e-03
-2.412400315487165520e-02
-5.183682150833756469e-02
-7.805571996132806833e-02
-1.020917224323081574e-01
-1.232839257103398034e-01
-1.410614620132706332e-01
-1.549706369670783568e-01
-1.646053871792098611e-01
-1.697545153739758172e-01
-1.702718461241809755e-01
-1.661587526671433612e-01
-1.575778264009566332e-01
-1.447487867818053886e-01
-1.280874638217234240e-01
-1.080641651179493068e-01
-8.525551978566751898e-02
-6.033573719664891977e-02
-3.400153721772318505e-02
-7.011633473063733774e-03
1.986401434097990679e-02
4.587714793896219279e-02
7.029628902661314016e-02
9.242986581693139747e-02
1.116928064537779375e-01
1.275304961790197367e-01
1.395356881640342217e-01
1.473966202315439289e-01
1.508896103380833742e-01
1.499839000892957408e-01
1.446949102420252709e-01
1.352228044152558040e-01
1.218680589141228066e-01
1.050152584219212759e-01
8.520312803728710693e-02
6.300089841947281721e-02
3.907949315806605317e-02
1.415559773197617999e-02
-1.103961561050386189e-02
-3.575288347623854779e-02
-5.923917485347350576e-02
-8.081402591638277288e-02
-9.981764972019563364e-02
-1.156778390265184864e-01
-1.279358792086653651e-01
-1.361804586324735500e-01
-1.401944981447483529e-01
-1.398255415558895820e-01
-1.350697130355762443e-01
-1.260847877950671825e-01
-1.130860926282916956e-01
-9.648593704989294473e-02
-7.675111997248579288e-02
-5.445470548241285180e-02
-3.026686847346499176e-02
-4.879812003261985165e-03
2.095398951634901835e-02
4.647137741159102636e-02
7.093295380047331955e-02
9.361761191090611778e-02
1.138452421993354780e-01
1.310445675003388266e-01
1.446752843359759011e-01
1.543461162843950407e-01
1.597619315627852310e-01
1.607161940545054624e-01
1.571955665748950848e-01
1.492328585800632157e-01
1.370452193107318806e-01
1.209494576549780542e-01
1.013461283868363483e-01
7.878860611819865634e-02
5.386050845172063450e-02
2.724641191996959866e-02
-3.238723530756965063e-04
-2.810567217619287100e-02
-5.533173357042915630e-02
-8.124260838619302982e-02
-1.051367527512781230e-01
-1.263361672416624393e-01
-1.442478462902863356e-01
-1.583884528389565283e-01
-1.683210796693865863e-01
-1.737988349797335852e-01
-1.746379163328828366e-01
-1.708027023727077820e-01
-1.624180989220260218e-01
-1.496679269350615904e-01
-1.329378873489909518e-01
-1.126696430167166557e-01
-8.942011181918423091e-02
-6.385108779379795874e-02
-3.665179831711908032e-02
-8.588188669652573048e-03
1.955887738662731579e-02
4.701794369730788459e-02
7.302479933309814764e-02
9.685066402268829866e-02
1.178609563184115222e-01
1.354489637874589647e-01
1.491492873173848044e-01
1.585873264141720029e-01
1.634765972499644116e-01
1.637221024800342706e-01
1.592754520930836637e-01
1.502790978804618427e-01
1.369782720367180295e-01
1.197100329623689702e-01
9.897839525179419340e-02
7.532220829056184008e-02
4.940387494368954358e-02
2.194112320687412188e-02
-6.317468177401627805e-03
-3.457636721444914962e-02
-6.204129255586080666e-02
-8.794894173655568026e-02
-1.115492764129917963e-01
-1.321646966802899059e-01
-1.492106818125270573e-01
-1.621465670905109513e-01
-1.706138323332754281e-01
-1.743146314491499371e-01
-1.731043448085172465e-01
-1.670036364877718338e-01
-1.560977387886950118e-01
-1.406943854235760960e-01
-1.211633564261029306e-01
-9.801294154831861893e-02
-7.187692935320662280e-02
-4.342803084890724946e-02
-1.345014504095845553e-02
1.724922916809201387e-02
4.784543882006590809e-02
7.750083573701638251e-02
1.054036050962471327e-01
1.308115095876799805e-01
1.530051005549439014e-01
1.713945231909675682e-01
1.854728725943125822e-01
1.948214052770768090e-01
1.992124000085734870e-01
1.984660092130670628e-01
1.926054106781227571e-01
1.817627210163779983e-01
1.661744546156150026e-01
1.462662550597562949e-01
1.225053124097507662e-01
9.551401519684488139e-02
6.598417156840731546e-02
3.465983213605482172e-02
2.364386526651924766e-03
-3.007104416933826727e-02
-6.180920537588258795e-02
-9.201198438836412363e-02
-1.198931342621750440e-01
-1.447327849022202184e-01
-1.658486279861822732e-01
-1.827179372237544286e-01
-1.948714863386833418e-01
-2.019883182609095162e-01
-2.039067289801540506e-01
-2.005321405802513168e-01
-1.920028323061247488e-01
-1.785225739194874206e-01
-1.604551985243593548e-01
-1.383089485625721982e-01
-1.126447633616794730e-01
-8.417649509451050061e-02
-5.365261065576895638e-02
-2.187875182720931677e-02
1.029617276175510271e-02
4.203063331701560601e-02
7.250547076588526041e-02
1.009134891262882527e-01
1.265417529427649845e-01
1.487374634393050510e-01
1.669235877679675073e-01
1.806869225298876058e-01
1.896572047587353205e-01
1.936553004020749036e-01
1.926042744817778041e-01
1.865336668035507683e-01
1.756652234674037638e-01
1.602653403969800383e-01
1.407756785798709720e-01
1.177162032277318526e-01
9.168035046840972146e-02
6.337278667325089987e-02
3.351707962956035347e-02
2.892921822276021265e-03
-2.770000276455211741e-02
-5.747642415128811910e-02
-8.566947506962321879e-02
-1.115343777534549552e-01
-1.344262174386143538e-01
-1.537342564772675724e-01
-1.689617612812858993e-01
-1.797339250942796562e-01
-1.857341380939529774e-01
-1.868499611214158307e-01
-1.830272483878477019e-01
-1.743725440699086249e-01
-1.611367497671594151e-01
-1.436334241025810088e-01
-1.223603363301278280e-01
-9.785925452859567386e-02
-7.077638143277106830e-02
-4.183667277393483125e-02
-1.178561530855097572e-02
1.858229754201064232e-02
4.846718887963069600e-02
7.709843679324300536e-02
1.037241332361605595e-01
1.276404768013205682e-01
1.482478927436410021e-01
1.649778183332158421e-01
1.774163150046399184e-01
1.852319278720838402e-01
1.881944599974415544e-01
1.862559506545003740e-01
1.794147136522175612e-01
1.678634715086429474e-01
1.518817596313876972e-01
1.318494052832459851e-01
1.082975500738113800e-01
8.179070007270387854e-02
5.301437677186000147e-02
2.269871868235763535e-02
-8.393462934202393366e-03
-3.945798099626601774e-02
-6.969415932993956730e-02
-9.833070545764993620e-02
-1.246079829139096068e-01
-1.478420544697349459e-01
-1.674295982839443253e-01
-1.828158666785958952e-01
-1.936198225991822841e-01
-1.995111611687354625e-01
-2.003208184861454688e-01
-1.960239667873248659e-01
-1.866685136654531452e-01
-1.725179523344113341e-01
-1.538891569575134288e-01
-1.312507243405665047e-01
-1.051852077767538723e-01
-7.632374780514220025e-02
-4.541764301587544045e-02
-1.324090990068676338e-02
1.939584494957142385e-02
5.165912612909459578e-02
8.273433302675774204e-02
1.118486348946712838e-01
1.382471875015871265e-01
1.612864850600579381e-01
1.803823409024419844e-01
1.950402574376089715e-01
2.049266690555638926e-01
2.097524826439416679e-01
2.094258660230472469e-01
2.039429637031920373e-01
1.934166067946407330e-01
1.781350012794110371e-01
1.584303946899965621e-01
1.348062525120445609e-01
1.078297084912840653e-01
7.814424519389748247e-02
4.648968790331802631e-02
1.362245384346129351e-02
-1.965172778223490957e-02
-5.251335909172806515e-02
-8.416351820465348132e-02
-1.138251043819527158e-01
-1.407495076915102616e-01
-1.642943223619947879e-01
-1.838496638273503514e-01
-1.989342476886976629e-01
-2.091813393714410940e-01
-2.142932852524865872e-01
-2.141788102749542233e-01
-2.087997594707624582e-01
-1.982941089009265800e-01
-1.829315899388924693e-01
-1.630553373965205888e-01
-1.391918035100854489e-01
-1.119072667569879359e-01
-8.188281270207353746e-02
-4.987147859730008126e-02
-1.665114198246510011e-02
1.694904580192510210e-02
5.009637885852473438e-02
8.198582914080887463e-02
1.118273985289462147e-01
1.388854212600083571e-01
1.625216217260490037e-01
1.821303092021188397e-01
1.972652975132917208e-01
2.075515993891622335e-01
2.127285666787392115e-01
2.127067493447957203e-01
2.074457503289365568e-01
1.971069369624434131e-01
1.819271219343169821e-01
1.622598788681923199e-01
1.386055246568658195e-01
1.115028710213379903e-01
8.162802176707634194e-02
4.969944023500835056e-02
1.648610556289208801e-02
-1.718967137618609975e-02
-5.050459039699786018e-02
-8.264137050320297107e-02
-1.127877171219808794e-01
-1.401974763433629922e-01
-1.641831632484899717e-01
-1.841089609965396723e-01
-1.994956969610245379e-01
-2.099069609728117236e-01
-2.150761205053086378e-01
-2.148630353743118115e-01
-2.092147420749266573e-01
-1.982969177681735418e-01
-1.823265875748961706e-01
-1.617015534442431957e-01
-1.369325904412593831e-01
-1.086002596209420940e-01
-7.743149292786866145e-02
-4.418039090258322338e-02
-9.673154770537178981e-03
2.522660928770348310e-02
5.966008786568126332e-02
9.277761199208910126e-02
1.237433044731685028e-01
1.518121689508275252e-01
1.762801245217528179e-01
1.965364096022276796e-01
2.121094866690946545e-01
2.225743914212445496e-01
2.277081769122676069e-01
2.273637434181514649e-01
2.215331687006738548e-01
2.103827193411483831e-01
1.941324101462040264e-01
1.732024978759881262e-01
1.480761567274800350e-01
1.193455252274636808e-01
8.771729247558145148e-02
5.392644917675802618e-02
1.879560121662168098e-02
-1.683140550517537443e-02
-5.210602339321397658e-02
-8.617556394126528463e-02
-1.182116526337090162e-01
-1.474627237081783671e-01
-1.732010202297873391e-01
-1.948227112500600378e-01
-2.118159330188712497e-01
-2.237471302735303258e-01
-2.303796119321971370e-01
-2.315258323845229005e-01
-2.271939333741309075e-01
-2.175139244355431267e-01
-2.027098757044386579e-01
-1.832032734277961594e-01
-1.594580861654634474e-01
-1.320872861338039383e-01
-1.017814120711629799e-01
-6.927654833276167268e-02
-3.538872744134016757e-02
-9.427758307822640266e-04
3.323264034105406772e-02
6.630802598980840845e-02
9.749804215939869567e-02
1.260830574096855894e-01
1.513732610938436918e-01
1.728186827169757578e-01
1.899222367852728133e-01
2.023042890408899286e-01
2.097315888343651846e-01
2.120225837909443245e-01
2.091938964017180103e-01
2.013251161281816304e-01
1.886273760848346248e-01
1.714495070466700022e-01
1.501867749106352012e-01
1.253867786478601309e-01
9.763753296390600966e-02
6.760275414911617875e-02
3.601271569059349975e-02
3.610603274641854821e-03
-2.882712724856342085e-02
-6.051970968797291961e-02
-9.071687223464337813e-02
-1.186909233177763090e-01
-1.437543498849977730e-01
-1.653216765241199981e-01
-1.828365278312142905e-01
-1.958840193343903135e-01
-2.041371206745598021e-01
-2.073570819168986112e-01
-2.054904701810962853e-01
-1.985291815617114541e-01
-1.866527631828090172e-01
-1.701384009722130553e-01
-1.493545611595471501e-01
-1.248301090319805795e-01
-9.712735985503323510e-02
-6.692763606980746405e-02
-3.496367758824343863e-02
-1.997867535849755585e-03
3.116378212573940598e-02
6.371660116475447166e-02
9.488359034051137286e-02
1.238993638274459297e-01
1.500636372121217366e-01
1.727569412211185373e-01
1.913991131539605484e-01
2.055689548492868057e-01
2.148968433924644816e-01
2.191499119224161463e-01
2.182378367038958489e-01
2.121303075076381717e-01
2.009994510495397846e-01
1.850730863777541313e-01
1.647195833849021684e-01
1.404303669381253838e-01
1.127454884441198291e-01
8.234331876801656569e-02
4.993349366415016782e-02
1.628774570730746191e-02
-1.777659166426621279e-02
-5.144197638783094134e-02
-8.389302832444832381e-02
-1.143214045069925744e-01
-1.419917051871595615e-01
-1.662137692912955267e-01
-1.863668052374453654e-01
-2.019757383785348859e-01
-2.126059502180314698e-01
-2.180120960200771507e-01
-2.180471477917533818e-01
-2.126787608757330084e-01
-2.020755953697229990e-01
-1.864551798553695516e-01
-1.662326305110853608e-01
-1.419088210623962454e-01
-1.140744046460112487e-01
-8.345199430798469487e-02
-5.078870917106150656e-02
-1.691031067512181740e-02
1.732995427232449093e-02
5.108340549733329794e-02
8.350704565057828765e-02
1.137780275879823888e-01
1.411648965125489874e-01
1.649671498743664477e-01
1.845974833103756763e-01
1.995860772360091850e-01
2.095226278164882272e-01
2.142009765599343640e-01
2.134723572328293129e-01
2.073554388526663850e-01
1.960148614272679835e-01
1.796847558029818770e-01
1.587992221173626928e-01
1.338403311144127916e-01
1.054204540658901235e-01
7.424731948832956341e-02
4.106542050142243661e-02
6.707416427976457124e-03
-2.797946821081869970e-02
-6.214019844042004831e-02
-9.491516559608023651e-02
-1.254790319147510158e-01
-1.530789467653489166e-01
-1.769878059781916924e-01
-1.966209652562735111e-01
-2.114677103839335548e-01
-2.211248827672244732e-01
-2.253772756217364281e-01
-2.240609254598519562e-01
-2.172348650108522072e-01
-2.050549781677653005e-01
-1.878036908871938138e-01
-1.659487541920144638e-01
-1.400022022516103914e-01
-1.106419907866001973e-01
-7.860575296737762341e-02
-4.468950234446904257e-02
-9.761038868553645331e-03
2.530772321156898874e-02
5.964626412636554742e-02
9.238710008115615102e-02
1.227271177589778217e-01
1.499297274162398608e-01
1.733048191848575448e-01
1.923254206224045137e-01
2.065117260438048274e-01
2.155437432465864001e-01
2.192402150314547715e-01
2.174955057463543728e-01
2.104227389549331306e-01
1.981892114087207557e-01
1.811301166334620683e-01
1.597030279012735254e-01
1.344284391668066903e-01
1.059794672539668969e-01
7.506041112987218988e-02
4.245459884137414708e-02
8.993529343908349821e-03
-2.448683207801141681e-02
-5.714257259676817219e-02
-8.813696457569834830e-02
-1.167033878959577303e-01
-1.421117417253908721e-01
-1.637095212640539144e-01
-1.809794604044505650e-01
-1.934464387999444979e-01
-2.008318526441401908e-01
-2.029424889221780326e-01
-1.997173891980850158e-01
-1.912885353810429567e-01
-1.778409461125718405e-01
-1.597708593790856946e-01
-1.375510900192888075e-01
-1.117609439957387568e-01
-8.311015380399768004e-02
-5.233547279873600189e-02
-2.026071715015246438e-02
1.226557244587135609e-02
4.439814472345413043e-02
7.529513553351704913e-02
1.041399116748640136e-01
1.302096067463183460e-01
1.528103753018705824e-01
1.713757830514979486e-01
1.854495350344176341e-01
1.946465548820951463e-01
1.987889799637876653e-01
1.977518836053091811e-01
1.915932940051095767e-01
1.805040490294816946e-01
1.647544205975153830e-01
1.448077721157677855e-01
1.211696545400151592e-01
9.447598055369163528e-02
6.544194042893840269e-02
3.481697173432300729e-02
3.419826609299819742e-03
-2.792336826125568772e-02
-5.839778938229876759e-02
-8.719492746872306577e-02
-1.135566032559086336e-01
-1.368122050672013479e-01
-1.563236623211932130e-01
-1.716158487826277834e-01
-1.822844573972559057e-01
-1.880507197426525556e-01
-1.888182727352566981e-01
-1.845452753921968947e-01
-1.754134696702064622e-01
-1.616857873407862578e-01
-1.437538972365062229e-01
-1.221664800551948565e-01
-9.751144406231257444e-02
-7.051175028117157018e-02
-4.193013218079615773e-02
-1.256291942513641097e-02
1.675913813434241895e-02
4.521658981029546415e-02
7.203784367991772353e-02
9.646818432208639771e-02
1.178551976948999103e-01
1.356345299695372597e-01
1.493071915509219805e-01
1.585648410068217773e-01
1.631487717323051034e-01
1.629826837033816200e-01
1.581221329190810598e-01
1.487067599188100220e-01
1.350802112385520448e-01
1.176315380708412572e-01
9.689731544602256386e-02
7.350347939489540461e-02
4.812056434864257770e-02
2.150939702329500436e-02
-5.556839347257647166e-03
-3.229580056609683558e-02
-5.792101818096194454e-02
-8.168635162679831196e-02
-1.029156361517418877e-01
-1.209613389387547144e-01
-1.353236645519719783e-01
-1.455668668161449186e-01
-1.513742023829811045e-01
-1.526011064115302962e-01
-1.491556458336650570e-01
-1.411628022313671516e-01
-1.288261074599889033e-01
-1.124776002280333254e-01
-9.260538252842231977e-02
-6.973819812367133830e-02
-4.454612665167265173e-02
-1.774102411187017392e-02
9.922018314489203239e-03
3.764380246785012374e-02
6.463097585028132475e-02
9.011918962983442305e-02
1.133557015515609251e-01
1.336743001748743054e-01
1.504829435024777617e-01
1.632490363127615807e-01
1.716131872290748983e-01
1.752616881152933292e-01
1.740557068113906536e-01
1.679822938959756318e-01
1.571138404823261281e-01
1.417293340024490811e-01
1.221549184944854816e-01
9.887944460465296348e-02
7.248995097150583156e-02
4.363170813171442924e-02
1.306791127272288050e-02
-1.841843285049723361e-02
-5.000081025725162248e-02
-8.083117213133862722e-02
-1.100830965629889385e-01
-1.369677703773733435e-01
-1.607182115175674608e-01
-1.806903022000657111e-01
-1.962932894040325116e-01
-2.070511366988981306e-01
-2.126531084280856854e-01
-2.128433414493470510e-01
-2.075975681774606119e-01
-1.969755111949171300e-01
-1.811896941273155037e-01
-1.606374236702968472e-01
-1.357702437142247198e-01
-1.072341003044833263e-01
-7.573325546511927575e-02
-4.205755915389948474e-02
-7.083803499902445455e-03
2.830062991522230842e-02
6.318366823088156226e-02
9.665080736820216845e-02
1.278446665432542984e-01
1.559566280334155897e-01
1.802315849859002228e-01
2.000713896513621470e-01
2.149209043148728737e-01
2.244061153390657370e-01
2.282828534542271914e-01
2.264037518056932208e-01
2.188554713373793703e-01
2.057797670166102988e-01
1.875212193927067172e-01
1.645463515183114289e-01
1.374055800156018803e-01
1.068190356067027225e-01
7.353958152706796536e-02
3.841865846417512331e-02
2.356971616230801869e-03
-3.373707866498344699e-02
-6.894249041288841306e-02
-1.023485476533844279e-01
-1.331223750241003201e-01
-1.604652512498365158e-01
-1.836747802873019975e-01
-2.021868154436725906e-01
-2.154879594240641794e-01
-2.232845522426470386e-01
-2.253627619874614962e-01
-2.216689089780976285e-01
-2.123421657194709544e-01
-1.975841721832287401e-01
-1.778250767316738312e-01
-1.535643225052817085e-01
-1.254261273103569607e-01
-9.416091689032959899e-02
-6.055011782602226500e-02
-2.546828248936125472e-02
1.018871272081276619e-02
4.552521772123057503e-02
7.964579464868572212e-02
1.116847234591839821e-01
1.408656237318482440e-01
1.664390736534815951e-01
1.877923033385889007e-01
2.044101182987893006e-01
2.158617337527285185e-01
2.219203743766752224e-01
2.224095441612733981e-01
2.173537736103922091e-01
2.068980266533224921e-01
1.912845497409880191e-01
1.709521191276855701e-01
1.463820653270489491e-01
1.182090838541690059e-01
8.714465998428783111e-02
5.395117283423920412e-02
1.947712411508167873e-02
-1.541854756226914216e-02
-4.986350271260468064e-02
-8.298076483948535476e-02
-1.139363233076475107e-01
-1.419576551742364745e-01
-1.663046015838029745e-01
-1.863878703446544272e-01
-2.016736362771459345e-01
-2.117666695050073045e-01
-2.164379325151643552e-01
-2.155218608008842573e-01
-2.090921267104472181e-01
-1.972960564329120925e-01
-1.804440055550904642e-01
-1.590105274912123612e-01
-1.335258349259493826e-01
-1.046968252023659923e-01
-7.327499587873290143e-02
-4.008660060223474125e-02
-6.021117839201964306e-03
2.803006182687797082e-02
6.117578441607554596e-02
9.253095738662793501e-02
1.212903249737287276e-01
1.467054522049654752e-01
1.680973363035669077e-01
1.849552738476566149e-01
1.968131675530264968e-01
2.034037034346465045e-01
2.045782387207020492e-01
2.002981315315545408e-01
1.907464731972470517e-01
1.761574494258880685e-01
1.569641059899858360e-01
1.336988305008220967e-01
1.069763998201274241e-01
7.755072043733421405e-02
4.620003896638522067e-02
1.377464207582444929e-02
-1.884588868984366297e-02
-5.079303339550819002e-02
-8.121415431328272982e-02
-1.092778878487979527e-01
-1.342618413020642831e-01
-1.554841809967159039e-01
-1.723840958913195331e-01
-1.845452809883217360e-01
-1.916115831208717868e-01
-1.934561137429670064e-01
-1.900228687641263847e-01
-1.814250640616182353e-01
-1.679456195481132397e-01
-1.499304020450377417e-01
-1.279268815956162986e-01
-1.025343363528539720e-01
-7.445643687395514521e-02
-4.448477497930269919e-02
-1.342845039302928423e-02
1.785946987166659589e-02
4.852096016858745142e-02
7.774004670914594350e-02
1.047306062679810440e-01
1.287597199326563913e-01
1.492235611054871236e-01
1.655542894822317479e-01
1.773550234127015401e-01
1.843305506009156047e-01
1.862869624927437351e-01
1.832338654182719684e-01
1.752293340423024814e-01
1.625270404019852621e-01
1.454780623273153606e-01
1.245236809277685819e-01
1.002569848283995368e-01
7.330141875107466787e-02
4.438443921261656100e-02
1.427629787866818711e-02
-1.623523192620096936e-02
-4.633770693668565199e-02
-7.522669618996220831e-02
-1.021512106772289874e-01
-1.263809160498148842e-01
-1.472716209886028860e-01
-1.642815588338418509e-01
-1.769179069512668012e-01
-1.848775780806982960e-01
-1.879167105572622232e-01
-1.859492387583899231e-01
-1.790466679889023416e-01
-1.673462508076628275e-01
-1.511980779714496015e-01
-1.310081080033826118e-01
-1.073158461562650490e-01
-8.077280158790448028e-02
-5.206710883166089376e-02
-2.198518344852953832e-02
8.667732798022020901e-03
3.907717143452069108e-02
6.842226954365020208e-02
9.591305037827604907e-02
1.208353432815444939e-01
1.424996009434871813e-01
1.603525889196109333e-01
1.739218800188579994e-01
1.828283414971661192e-01
1.868797802543154252e-01
1.859311055700373083e-01
1.800380926497049117e-01
1.693562671449342916e-01
1.541455123825042905e-01
1.348407358242590393e-01
1.119156733887655408e-01
8.598933490651738953e-02
5.774074140792673226e-02
2.789748405934026898e-02
-2.744507500208877120e-03
-3.338417709215207863e-02
-6.322065630589607244e-02
-9.145487825943238169e-02
-1.173431470855589159e-01
-1.402073307123240520e-01
-1.594088830318716177e-01
-1.744664987923997546e-01
-1.849485965843903901e-01
-1.905728081307306865e-01
-1.912051284326764800e-01
-1.867799433400471054e-01
-1.774545510188308417e-01
-1.634456404105616711e-01
-1.451279281640091567e-01
-1.230081062232629141e-01
-9.764574750101603917e-02
-6.974446692536337422e-02
-4.003847744820317189e-02
-9.316310550707862514e-03
2.159550853273958793e-02
5.188034426409801614e-02
8.074751866169838088e-02
1.074200029421663871e-01
1.312207143124267950e-01
1.515316658648004911e-01
1.678170668890191786e-01
1.797054142465110138e-01
1.868690977021289223e-01
1.891773256582726104e-01
1.865967566649331943e-01
1.792060732484371810e-01
1.672711390995821334e-01
1.511020267701157493e-01
1.311817110535073438e-01
1.080645583596536174e-01
8.237593951863442232e-02
5.484076835403275951e-02
2.619896624518011641e-02
-2.769218353790445231e-03
-3.127103839945499786e-02
-5.854323759180993930e-02
-8.385733989380900200e-02
-1.065152008225720426e-01
-1.259425350225129581e-01
-1.416047726797669826e-01
-1.531001279294129380e-01
-1.601582780991279154e-01
-1.625742175399735867e-01
-1.603565224804999190e-01
-1.535712101259307238e-01
-1.424477004669477687e-01
-1.273512977674177982e-01
-1.087076027476669982e-01
-8.710709312763043055e-02
-6.317657969525569683e-02
-3.762357083831296967e-02
-1.121183190456342960e-02
1.529086936691221449e-02
4.110984705530098399e-02
6.547666168640406403e-02
8.769678680366148338e-02
1.071193078923023401e-01
1.231668185052580688e-01
1.354084181535224474e-01
1.434542736555576292e-01
1.471055088355787410e-01
1.462574731057254551e-01
1.409202844189529902e-01
1.312950618713918660e-01
1.176293064405244393e-01
1.003550500162242731e-01
7.998027205637009418e-02
5.709270392666540572e-02
3.239142203429712374e-02
6.593611730877982358e-03
-1.953134210128706222e-02
-4.519757159710387218e-02
-6.964489454401351365e-02
-9.214329513877618505e-02
-1.119933841762844051e-01
-1.286215104136194942e-01
-1.414944107785310878e-01
-1.502179459949097295e-01
-1.545351276123013151e-01
-1.542578946257322781e-01
-1.494228713971396116e-01
-1.401268706897109695e-01
-1.266375891594627989e-01
-1.093642190434099826e-01
-8.877761043252929696e-02
-6.551629248549228901e-02
-4.025516596239753220e-02
-1.374522317827371262e-02
1.320974583816331843e-02
3.980763855470519780e-02
6.525298067694684789e-02
8.876039181644196363e-02
1.096366045928700156e-01
1.272424228078203601e-01
1.410231235941896977e-01
1.505915020644974234e-01
1.556064154045882775e-01
1.559375473468856965e-01
1.515581195920928659e-01
1.425644550651987974e-01
1.292568330524378195e-01
1.119839344976098772e-01
9.128387010674030022e-02
6.777223101209994827e-02
4.213981334999419848e-02
1.518193972032234884e-02
-1.229255354027331340e-02
-3.944428350186698906e-02
-6.542534953653945939e-02
-8.943622085648253450e-02
-1.107339129343539591e-01
-1.286172768495415231e-01
-1.425523791195572876e-01
-1.520581194859709218e-01
-1.568224428058382636e-01
-1.566992285621405245e-01
-1.516213179138090894e-01
-1.417765564035988468e-01
-1.274200554697217380e-01
-1.089868551312387912e-01
-8.706033519831185563e-02
-6.228145592755754412e-02
-3.544571719364658646e-02
-7.380073566433123511e-03
2.104344230011705175e-02
4.892173157570636755e-02
7.537558639979058395e-02
9.958458873127355726e-02
1.207515699269174347e-01
1.382262294079409648e-01
1.514439384631161289e-01
1.599509435839627236e-01
1.635120406981401264e-01
1.619484699930479887e-01
1.553268971546561683e-01
1.438337944928003154e-01
1.277837784615362404e-01
1.077027329336516237e-01
8.416218772515328406e-02
5.790053983720552799e-02
2.972365475875676788e-02
4.816377793339845365e-04
-2.891425843544869270e-02
-5.755564082693120920e-02
-8.457293314837800724e-02
-1.091124509305649859e-01
-1.304172795768673010e-01
-1.478431231548066049e-01
-1.608044172058713250e-01
-1.689412608991560094e-01
-1.719631675599570253e-01
-1.697710260750586175e-01
-1.624527751039497314e-01
-1.501750428556990757e-01
-1.333543420171689475e-01
-1.124713094649154310e-01
-8.815664986214777343e-02
-6.116424775881634801e-02
-3.228426177364472627e-02
-2.401269748574207108e-03
2.758413621239083971e-02
5.678360477429737763e-02
8.431736970587883073e-02
1.093541029833704215e-01
1.311777184824302611e-01
1.491070322863983222e-01
1.626413790301104167e-01
1.713847941194044100e-01
1.750574589795844682e-01
1.736071340965816556e-01
1.670371977626289584e-01
1.555811875736559657e-01
1.395843553796775882e-01
1.195008448441754745e-01
9.596345073778578261e-02
6.964054615122297620e-02
4.132204399586947297e-02
1.184643189851970757e-02
-1.793115120610603436e-02
-4.713272925764282195e-02
-7.489274369277237886e-02
-1.004195342930669088e-01
-1.229491654294020408e-01
-1.418267957398934576e-01
-1.565239943742209316e-01
-1.665717707518742374e-01
-1.717256069928748963e-01
-1.718092610138315102e-01
-1.668250059988068135e-01
-1.569488486113198022e-01
-1.424269074781028266e-01
-1.237260219135466188e-01
-1.013690282405682319e-01
-7.600381269985620469e-02
-4.838046208582824637e-02
-1.927577030979851780e-02
1.046518481431300135e-02
3.998703976840350949e-02
6.845881246887387805e-02
9.506638833699328217e-02
1.190440315642572466e-01
1.397401925609587092e-01
1.565367485052503449e-01
1.689828055867433898e-01
1.767240315046206267e-01
1.795113770081082361e-01
1.773011470568303383e-01
1.700998154830260511e-01
1.581213321001858074e-01
1.416799448828523489e-01
1.211900937407324186e-01
9.722991559346619295e-02
7.041133380404238085e-02
4.146524312823879344e-02
1.117006016410734826e-02
-1.967102253594199546e-02
-5.022088967184101804e-02
-7.964902944512834704e-02
-1.071722703114394715e-01
-1.320257206789564319e-01
-1.535317098407488756e-01
-1.711132014897642217e-01
-1.842443192341591263e-01
-1.925935520329829509e-01
-1.958888144505419315e-01
-1.940236759107334119e-01
-1.870522341305686509e-01
-1.750983665243638909e-01
-1.585065216404309418e-01
-1.376778784515179099e-01
-1.131541926031479767e-01
-8.559162636679218394e-02
-5.568567366570185972e-02
-2.423502946504432765e-02
7.942150365101416365e-03
4.001402851005828043e-02
7.113954266109052960e-02
1.005070273603000386e-01
1.273747718932380646e-01
1.510246107051653464e-01
1.708710601768734794e-01
1.864050055443581266e-01
1.972112050882797729e-01
2.030569391081801511e-01
2.037563746551433186e-01
1.993261443721300874e-01
1.898804900026501430e-01
1.756422589812044743e-01
1.570110897007248596e-01
1.344269056570315257e-01
1.084822866556163362e-01
7.983104734157984994e-02
4.918220827706702714e-02
1.732020441683278927e-02
-1.496276417323830210e-02
-4.686247950027802589e-02
-7.757237151924016583e-02
-1.063318974866247213e-01
-1.324333997189557077e-01
-1.552050018827839384e-01
-1.741143086153796316e-01
-1.886723102055989920e-01
-1.985279099616785170e-01
-2.034630851582938105e-01
-2.033249132404368331e-01
-1.981677747063255723e-01
-1.881005937380585413e-01
-1.733869723623479575e-01
-1.544158695756837618e-01
-1.316328141930094842e-01
-1.056343986333440066e-01
-7.705012467976471435e-02
-4.658625455941534099e-02
-1.500119427958544749e-02
1.693923525839988176e-02
4.845409500743613068e-02
7.876568950405886393e-02
1.071495311129747469e-01
1.329117990150203987e-01
1.554175187100079736e-01
1.741460180487827691e-01
1.886101639347030345e-01
1.984823053228413348e-01
2.035116137079857612e-01
2.035511012135573505e-01
1.986222453286795309e-01
1.887908904239889440e-01
1.743061260160238268e-01
1.554909445872480200e-01
1.327659246968102835e-01
1.066844932300769072e-01
7.783099143310519274e-02
4.690019476996803993e-02
1.462345973531642418e-02
-1.823761320667044439e-02
-5.088684367563461874e-02
-8.253326903276358983e-02
-1.124159586331987537e-01
-1.397854604114345811e-01
-1.639684171641803689e-01
-1.843645840347873377e-01
-2.004242649330847947e-01
-2.117622789257297411e-01
-2.180390198721842698e-01
-2.190764306397767203e-01
-2.148268387762904408e-01
-2.053196442368250829e-01
-1.907924759223906253e-01
-1.715324752619969972e-01
-1.479856948675634665e-01
-1.207058186040765313e-01
-9.030244240394624811e-02
-5.751143782275930372e-02
-2.309188480159343748e-02
1.214689613615266284e-02
4.736730751610729317e-02
8.174434571314863340e-02
1.144781274590749021e-01
1.447840610186348076e-01
1.719744050585969020e-01
1.954082216352906465e-01
2.145312970477638581e-01
2.289296694123308107e-01
2.382317503421523541e-01
2.422525326402326096e-01
2.408824197075746243e-01
2.341318966492572096e-01
2.221742682697291360e-01
2.052288645807805456e-01
1.836919020252369417e-01
1.580194295988601727e-01
1.287601106380523719e-01
9.656807643082715442e-02
6.212249367218303231e-02
2.618363723917926933e-02
-1.046640810998680782e-02
-4.703476494215733106e-02
-8.271823306655698427e-02
-1.167288838355895197e-01
-1.483327419414102177e-01
-1.768132873184603548e-01
-2.015475914751349296e-01
-2.219879581037192962e-01
-2.376472912253269620e-01
-2.482036930433033917e-01
-2.533778903221181045e-01
-2.530589271573295829e-01
-2.472494537629195410e-01
-2.360363380044170900e-01
-2.196979577811556394e-01
-1.985559902056053261e-01
-1.730879338571807424e-01
-1.438594023375620035e-01
-1.114940344121992388e-01
-7.672593142487166284e-02
-4.030791733645339159e-02
-3.040031574758628174e-03
3.425578672937001912e-02
7.077068521437129833e-02
1.057171502027329790e-01
1.383238805911398694e-01
1.679092372724226845e-01
1.938283852619514525e-01
2.155246802266984618e-01
2.325605978489491132e-01
2.445414037914006578e-01
2.512480491706016172e-01
2.525218331952140405e-01
2.483301023905627458e-01
2.387831408969143254e-01
2.240409711073739762e-01
2.044393320224697774e-01
1.803649517554992698e-01
1.523114724127206943e-01
1.208743784323110804e-01
8.668203263950613469e-02
5.046147501026787552e-02
1.296289187656046726e-02
-2.503101445270461411e-02
-6.271155081413631871e-02
-9.927798927156122888e-02
-1.339540412232907707e-01
-1.659740614771861578e-01
-1.946505438366434027e-01
-2.193485895103114980e-01
-2.394963181453125256e-01
-2.546659166818227016e-01
-2.644679095225006549e-01
-2.686860784758340337e-01
-2.672020580270423329e-01
-2.599977069705370347e-01
-2.472460199423782146e-01
-2.291653315926109324e-01
-2.061561902800114754e-01
-1.787052566070598258e-01
-1.473811844472843746e-01
-1.128837027357790512e-01
-7.593745702603807435e-02
-3.734878559113084806e-02
2.044381418212365409e-03
4.140012901846603505e-02
7.987126845734843217e-02
1.166238413828984688e-01
1.508931261009723301e-01
1.819394757362956805e-01
2.091129746130066525e-01
2.318650350180653519e-01
2.496946842122868271e-01
2.622764745142367460e-01
2.693374638451567216e-01
2.707483758301032495e-01
2.665162014649988254e-01
2.567092213494368003e-01
2.415861710515653793e-01
2.214547377024327357e-01
1.967554908352879828e-01
1.680348552921362426e-01
1.358852518653573815e-01
1.010195986407526059e-01
6.417615641987461927e-02
2.614708920048192109e-02
-1.223948499113558519e-02
-5.015763684794327659e-02
-8.678800909279904552e-02
-1.213196013163029274e-01
-1.530127676712926821e-01
-1.811682301997767919e-01
-2.051558642773043672e-01
-2.244774175606725208e-01
-2.386729391560085123e-01
-2.474621152767617627e-01
-2.506496913551103933e-01
-2.481561406539276593e-01
-2.400864668653155398e-01
-2.265937280339387350e-01
-2.080266985437120297e-01
-1.848116042696470451e-01
-1.574726166603672706e-01
-1.266649660335370520e-01
-9.307168214961025754e-02
-5.747012078608526586e-02
-2.066787141908710268e-02
1.651480398296278906e-02
5.324340602890931251e-02
8.869618516919774986e-02
1.221073217037694780e-01
1.527296942502358590e-01
1.799040269862655084e-01
2.030540114986337796e-01
2.216548213339196716e-01
2.353451282376635145e-01
2.438078684271489660e-01
2.468770615031470883e-01
2.445065894412120633e-01
2.367212005955005028e-01
2.237338343354592363e-01
2.058021188349841157e-01
1.833311723097328927e-01
1.568243160233826483e-01
1.268415117666005787e-01
9.406894861610592962e-02
5.921755662195077319e-02
2.306565514551300877e-02
-1.357101924910203428e-02
-4.987403204794632616e-02
-8.502055782302722631e-02
-1.181958865452727714e-01
-1.486511356220026614e-01
-1.756689856280513884e-01
-1.986085364129052677e-01
-2.169504243243766117e-01
-2.302165322589057317e-01
-2.381167548553561608e-01
-2.404360620844340768e-01
-2.370944272025516109e-01
-2.281917797753686972e-01
-2.138826029081747904e-01
-1.945332211682934132e-01
-1.705806675774841352e-01
-1.425793143822955411e-01
-1.112148897659770430e-01
-7.720569451581582587e-02
-4.137562966513930185e-02
-4.576606290373819164e-03
3.232260483632476422e-02
6.843738190078174632e-02
1.029006997597092798e-01
1.349069637043309733e-01
1.636704762706997496e-01
1.885136953293593542e-01
2.088445410118389134e-01
2.241396767224785869e-01
2.340598562743876343e-01
2.383127348569238357e-01
2.367896285980912729e-01
2.295036991125991577e-01
2.165591489352549637e-01
1.982636762751583959e-01
1.749710109714062156e-01
1.472026815746492190e-01
1.155734919776039149e-01
8.076351414735194467e-02
4.357508453253489122e-02
4.831929897886944048e-03
-3.458366981607996493e-02
-7.376271212322649262e-02
-1.118076633454045954e-01
-1.478394132748483969e-01
-1.809971430191592567e-01
-2.105225450928229769e-01
-2.356989450464017644e-01
-2.559186998446723038e-01
-2.707189277745665201e-01
-2.796913026397693791e-01
-2.826508976235637682e-01
-2.794884259129433168e-01
-2.702571922152650075e-01
-2.551917452825906985e-01
-2.345889255981508104e-01
-2.089619687038428708e-01
-1.788853262918648213e-01
-1.450515954953137676e-01
-1.082639988602960290e-01
-6.935291216838335160e-02
-2.922555703748308531e-02
1.119551011757002890e-02
5.099963561030684822e-02
8.928557053131336296e-02
1.251880253135171372e-01
1.579402046175635288e-01
1.868040726560926679e-01
2.111841144043329344e-01
2.305790307505398706e-01
2.445744582181227367e-01
2.529503979676780423e-01
2.555341762926269800e-01
2.523455446010696157e-01
2.435109373413208989e-01
2.292518162879154664e-01
2.099674662685146187e-01
1.860962271517888067e-01
1.582220786576683524e-01
1.269964569338760674e-01
9.312451491742324006e-02
5.739572503956991145e-02
2.061166146052817449e-02
-1.639757130655095096e-02
-5.279171338905008781e-02
-8.775638427096121852e-02
-1.205114654782661887e-01
-1.503008590449084192e-01
-1.764765814587625492e-01
-1.984282734292648342e-01
-2.156566725552848673e-01
-2.277858335003770662e-01
-2.344945937211431186e-01
-2.356590763969319546e-01
-2.312132063390719416e-01
-2.212433937310684939e-01
-2.059782217499077639e-01
-1.857062900270767258e-01
-1.608985331843899580e-01
-1.320709392422987349e-01
-9.984730616377834878e-02
-6.493583382603684839e-02
-2.807065140850451002e-02
9.949108995566113833e-03
4.831380753020386720e-02
8.622032280530955717e-02
1.228699457010371532e-01
1.574957610896259297e-01
1.894028105311242882e-01
2.179185158547118917e-01
2.424872568718221544e-01
2.626181806126712814e-01
2.779003187929616203e-01
2.880720245069774421e-01
2.929104908216926262e-01
2.923607363193809761e-01
2.864457045521957568e-01
2.752835107304578699e-01
2.591413557921367072e-01
2.383233159669329027e-01
2.132784269723497772e-01
1.845120124733368172e-01
1.525976988772610454e-01
1.181989472475359904e-01
8.199735644167116533e-02
4.473414413335063955e-02
7.169014391290140509e-03
-2.993781047115096072e-02
-6.582554145068364448e-02
-9.974875663570514917e-02
-1.310245381662440423e-01
-1.589903425648957480e-01
-1.830747941267008017e-01
-2.027911592897213566e-01
-2.177066048897948747e-01
-2.275568061600097280e-01
-2.321226858289446859e-01
-2.313418241090241523e-01
-2.252739690344749413e-01
-2.140509235806629107e-01
-1.979925481262068132e-01
-1.774622708324895548e-01
-1.529622293111529974e-01
-1.250853050691240753e-01
-9.447075011257144439e-02
-6.185900790567067098e-02
-2.800793552813862775e-02
6.291627919769695459e-03
4.023103609912143108e-02
7.301978033608746976e-02
1.039017213996404898e-01
1.321376920759924634e-01
1.570872281701063411e-01
1.781559831687098416e-01
1.948353908677478152e-01
2.067508679215284140e-01
2.135691290822463451e-01
2.151363740321667883e-01
2.113690432805581665e-01
2.023017160727293984e-01
1.881237510311732919e-01
1.690701919085677574e-01
1.455499405739306695e-01
1.180289302091344084e-01
8.706767551484428935e-02
5.333077154922083452e-02
1.750861649835400158e-02
-1.962574963225183211e-02
-5.727793523441526702e-02
-9.464380237859870704e-02
-1.309102082728568206e-01
-1.652823267350456149e-01
-1.970270393129123221e-01
-2.254309777619454280e-01
-2.498868814587122955e-01
-2.698699127877066672e-01
-2.849236613658465700e-01
-2.947719304224847292e-01
-2.991843343580082859e-01
-2.981121077656148088e-01
-2.916249169427356236e-01
-2.798814109483220847e-01
-2.632357325057608222e-01
-2.420851655165829897e-01
-2.169798604156678579e-01
-1.885534014323830831e-01
-1.574908716350371662e-01
-1.245720057920625123e-01
-9.058993722955932526e-02
-5.636037264173765493e-02
-2.270867868676695878e-02
9.571608071171411325e-03
3.973665473630738632e-02
6.706749863059968675e-02
9.096916832049117829e-02
1.108957191521842134e-01
1.264104591020274171e-01
1.372192551022095586e-01
1.430779295160533593e-01
1.439406714650601771e-01
1.398274745026384380e-01
1.308934654041227219e-01
1.174418443181490801e-01
9.982545542231413549e-02
7.856635061488148608e-02
5.423356020670766497e-02
2.748500426526145901e-02
-9.395818517425880145e-04
-3.028197022824397067e-02
-5.973309548868677155e-02
-8.847485183849190804e-02
-1.157102617963161606e-01
-1.406587287301959144e-01
-1.625774779143420723e-01
-1.808249505702048676e-01
-1.947891290553054322e-01
-2.040048875074568224e-01
-2.081025719621028558e-01
-2.068053879105733461e-01
-2.000407244133961537e-01
-1.877861217072949174e-01
-1.702262617673482303e-01
-1.476586846567160549e-01
-1.204812695842036874e-01
-8.927643443052168948e-02
-5.466481040331228058e-02
-1.740118388929978721e-02
2.169888992474433564e-02
6.178769929988980891e-02
1.019680615772102783e-01
1.413454898845447616e-01
1.790672558653980673e-01
2.142978754267730324e-01
2.462697135677913707e-01
2.743033166537554024e-01
2.977762257670875101e-01
3.163158998685595691e-01
3.296260917043802863e-01
3.374105728385785596e-01
3.393731148351406546e-01
