BVP Signal
-4.981383743503958739e-03
-2.039330998747899970e-02
-4.167592538322587026e-02
-6.324706824076871403e-02
-8.175910254848221814e-02
-9.769041906364542283e-02
-1.134757354731394524e-01
-1.294633838670490034e-01
-1.442840230463495466e-01
-1.565686327199347638e-01
-1.660175782364931019e-01
-1.736399308036866151e-01
-1.792143918151631043e-01
-1.821047210137856642e-01
-1.817153722346633582e-01
-1.778486657030916573e-01
-1.710402408015459230e-01
-1.611783319353919108e-01
-1.481478936419990400e-01
-1.319664614264354219e-01
-1.128761345393456683e-01
-9.132235439242356034e-02
-6.773744081259794325e-02
-4.241314079292328454e-02
-1.590462545496378055e-02
1.113362808295252637e-02
3.824175033595177825e-02
6.454823994847852520e-02
8.970113089085926528e-02
1.128508017669609814e-01
1.334377096567474774e-01
1.510633770769715944e-01
1.649405585551819986e-01
1.751061597846826079e-01
1.808574535400034045e-01
1.821949382132702078e-01
1.790099187896276034e-01
1.711963148941620938e-01
1.592140783064863729e-01
1.429851748664612843e-01
1.231658260708034386e-01
1.000438103907649590e-01
7.433757851796697624e-02
4.667428713380621097e-02
1.772157098427143418e-02
-1.159749772112791781e-02
-4.070980886548740407e-02
-6.855084806796141184e-02
-9.461579623474590528e-02
-1.179687232746971792e-01
-1.380089719929210867e-01
-1.541977114344805500e-01
-1.658933278770166331e-01
-1.729717408761937136e-01
-1.749417523194898572e-01
-1.719355758784286148e-01
-1.638247465858197471e-01
-1.509002018714527549e-01
-1.334932369701762045e-01
-1.119924661491210199e-01
-8.716935103738025770e-02
-5.946505568138484021e-02
-2.993132204389690326e-02
8.400374597970520704e-04
3.179910189168620727e-02
6.209768827238039413e-02
9.095544000042703192e-02
1.173153763154951290e-01
1.406838043511252356e-01
1.600921872567641624e-01
1.752138093387881068e-01
1.854329542466983116e-01
1.904456703825773700e-01
1.901508481943136875e-01
1.843875042035711120e-01
1.735131615083913836e-01
1.575566207068620495e-01
1.371528590199375397e-01
1.126651935111757097e-01
8.490838153280165501e-02
5.459910310313569048e-02
2.251322907513200744e-02
-1.026619492957499963e-02
-4.308754366543982028e-02
-7.471261046098524872e-02
-1.045196509525165990e-01
-1.314739120858925414e-01
-1.548139130482411030e-01
-1.739610198367518290e-01
-1.881385901086822243e-01
-1.971833712551728790e-01
-2.005473579436253539e-01
-1.983201843103586937e-01
-1.903806459301501386e-01
-1.769944096066496109e-01
-1.585432685605359104e-01
-1.354208206197090869e-01
-1.084745204242637678e-01
-7.818590033093836267e-02
-4.567476747830562234e-02
-1.162240622801236772e-02
2.286661310501907074e-02
5.683738101194542314e-02
8.945197832161282114e-02
1.195689438412700090e-01
1.466248168176343680e-01
1.695797260779693949e-01
1.880674836051393628e-01
2.014004422964885410e-01
2.092447920189129673e-01
2.114703307358506423e-01
2.078551088999016916e-01
1.988022625217572281e-01
1.842549403057533730e-01
1.648793001530500790e-01
1.410271643192411162e-01
1.134658224350733047e-01
8.299592300059956129e-02
5.030080399853260886e-02
1.652008954964751669e-02
-1.770653857925076624e-02
-5.116751796286525544e-02
-8.316798363089042412e-02
-1.127283362170409808e-01
-1.390323338848241941e-01
-1.614874937930035059e-01
-1.793002057472349309e-01
-1.922443003433828568e-01
-1.997386764003976634e-01
-2.018204197227039254e-01
-1.982872864400179735e-01
-1.893367408993577583e-01
-1.752764589610329993e-01
-1.563826491150775988e-01
-1.334574916102910513e-01
-1.068461471874041779e-01
-7.759298135101999616e-02
-4.630661570583397002e-02
-1.397380190575839287e-02
1.845877283921804404e-02
5.026223373500270097e-02
8.030328625703893330e-02
1.080410353783208405e-01
1.324488532512822780e-01
1.531062766637374672e-01
1.693176882949524731e-01
1.806548758645831476e-01
1.869271270903311855e-01
1.877915757783949202e-01
1.835445795788959444e-01
1.740017350319774947e-01
1.596807852817355711e-01
1.408179021886422078e-01
1.180056996222857979e-01
9.195434069683910971e-02
6.318687102696896041e-02
3.275052929630948434e-02
1.189898258133915282e-03
-3.037414868888357183e-02
-6.126416612274401818e-02
-9.056834633023165548e-02
-1.174360557661821569e-01
-1.412881580469786680e-01
-1.612595342806735221e-01
-1.770671776174647383e-01
-1.880465307462993174e-01
-1.941018371888384164e-01
-1.949549992379380758e-01
-1.906084291054688795e-01
-1.812892049524352789e-01
-1.670809155396384971e-01
-1.486562793313660480e-01
-1.262387172198979057e-01
-1.006789053971551273e-01
-7.254154552880154316e-02
-4.262810899939518949e-02
-1.185443066006388636e-02
1.914558398590659322e-02
4.930970243350388249e-02
7.807271001734050753e-02
1.044696044733523232e-01
1.279978019603354722e-01
1.479613266033286412e-01
1.638491551367570187e-01
1.753825032272164908e-01
1.821155665848530059e-01
1.842076532126353250e-01
1.813504819551186587e-01
1.738905340413167133e-01
1.619324725206230109e-01
1.458579985500379483e-01
1.262622706815654250e-01
1.034600011713004974e-01
7.835440690153940013e-02
5.135745488813470150e-02
2.340801118562541028e-02
-4.855606476116746881e-03
-3.268606978883624448e-02
-5.924588997385693556e-02
-8.401214557348624101e-02
-1.061360833392783198e-01
-1.252603539290779167e-01
-1.407129886454268619e-01
-1.522508409247169958e-01
-1.595116996629746264e-01
-1.623234249821504382e-01
-1.607414027252332400e-01
-1.546631283831744474e-01
-1.445438915031430072e-01
-1.304127610470938725e-01
-1.128887004164914609e-01
-9.235700976566771359e-02
-6.939854136915199478e-02
-4.479934633451748693e-02
-1.900762317091657036e-02
7.012812585862542719e-03
3.278462435617624654e-02
5.742387373465461520e-02
8.037827888190503256e-02
1.010197435274056699e-01
1.187173276263081279e-01
1.331585684185929708e-01
1.437777737557685009e-01
1.505514131534619049e-01
1.530973399550444869e-01
1.515046713553745150e-01
1.457694236299457435e-01
1.360447721180783887e-01
1.227325207544111840e-01
1.060079776888428749e-01
8.654749447239369620e-02
6.465772182338500040e-02
4.111284314588838085e-02
1.643953223335756914e-02
-8.688461176659161012e-03
-3.350463608976717717e-02
-5.752066129334004740e-02
-7.986249410283523253e-02
-1.001760559611529072e-01
-1.177059023259221793e-01
-1.321120453861383548e-01
-1.429653453514553030e-01
-1.498833993209848225e-01
-1.528460022635784177e-01
-1.515305170870274165e-01
-1.462184418236976147e-01
-1.368040159147074497e-01
-1.236473292053086870e-01
-1.070444686762181546e-01
-8.736355957400264438e-02
-6.526265247764646837e-02
-4.109698746367101974e-02
-1.569925842380354847e-02
1.048136846385515700e-02
3.658599949272313412e-02
6.208276501107688056e-02
8.626638584890546080e-02
1.084298723776378620e-01
1.281887329588973501e-01
1.447491369666091821e-01
1.580253445880094032e-01
1.673633431618960221e-01
1.726441071663338545e-01
1.737172752779888307e-01
1.703692763369817065e-01
1.629421359130046043e-01
1.512640367375100992e-01
1.358411584103396408e-01
1.168474410432684685e-01
9.478023659024578662e-02
7.018894178533668926e-02
4.353897972578964909e-02
1.560346777938880630e-02
-1.313004282099589429e-02
-4.178695578205698230e-02
-6.987235879862832566e-02
-9.653142133516742773e-02
-1.212364312652872839e-01
-1.433493543945756621e-01
-1.622081381882320705e-01
-1.775743992376889735e-01
-1.887349212935349463e-01
-1.957570246768407796e-01
-1.981610689876300846e-01
-1.959601553166067101e-01
-1.892694678903924510e-01
-1.779999426346096925e-01
-1.627780207813613877e-01
-1.435904564838232644e-01
-1.211294188521251924e-01
-9.581495210750921865e-02
-6.826727699104198632e-02
-3.924212307588495485e-02
-9.284272241611907228e-03
2.072558949340944090e-02
5.025121714036620557e-02
7.837529114054898882e-02
1.046831735485819342e-01
1.283469639227631798e-01
1.489044932370494900e-01
1.659248067030101581e-01
1.788095836549988549e-01
1.876419208313440112e-01
1.918162638465940040e-01
1.915692542156132716e-01
1.867390236423750183e-01
1.774256821799712336e-01
1.640821134050955421e-01
1.466933018656420007e-01
1.260131454383870975e-01
1.022334174497114695e-01
7.607221860655824508e-02
4.808867658151701890e-02
1.888483540769844704e-02
-1.076297746083923479e-02
-4.032609820929743127e-02
-6.893676629887827978e-02
-9.616549119662631817e-02
-1.211264269261829452e-01
-1.435139112272526829e-01
-1.626274513901048435e-01
-1.780103976046709946e-01
-1.895051027928493781e-01
-1.964567853332546687e-01
-1.992349510710834104e-01
-1.972754451241194584e-01
-1.908331866550495581e-01
-1.800635337348464871e-01
-1.649400322701828625e-01
-1.462600563919412566e-01
-1.239424199824222805e-01
-9.877111412427634629e-02
-7.115299230729336954e-02
-4.169475571057751351e-02
-1.112117967232476023e-02
2.003964454649553167e-02
5.100854197730178563e-02
8.125617812194091405e-02
1.099567457892371147e-01
1.367760838715753324e-01
1.608684540019124087e-01
1.819434197593744196e-01
1.994941351907381644e-01
2.129909268767174457e-01
2.225487854011254929e-01
2.274565810387363940e-01
2.280697655774681643e-01
2.240565826777493608e-01
2.154840969590101074e-01
2.027718662997967380e-01
1.857260667928924691e-01
1.651249386482520343e-01
1.409905359218226462e-01
1.139285102056399046e-01
8.448571368862119180e-02
5.311248793153816594e-02
2.057111511423459493e-02
-1.263377638614825160e-02
-4.573411017055388494e-02
-7.818798300326304518e-02
-1.091294157985527868e-01
-1.382384225849060122e-01
-1.646118826632921861e-01
-1.878177528331200774e-01
-2.074428340582690211e-01
-2.227204522855731894e-01
-2.339226665893960888e-01
-2.401669253541671711e-01
-2.416702742884807575e-01
-2.382914423417862304e-01
-2.298677817387457800e-01
-2.170662761260847562e-01
-1.995746741672738134e-01
-1.781644133997103419e-01
-1.530625527490194759e-01
-1.248076503872503074e-01
-9.415881146034986438e-02
-6.153815493710781959e-02
-2.782648548131131869e-02
6.421790938021032513e-03
4.034378658067921952e-02
7.339339123549191990e-02
1.046897465464066146e-01
1.337724178727872915e-01
1.599275847197317857e-01
1.825428797660978986e-01
2.014337229932185447e-01
2.157785440786170739e-01
2.258028230496512134e-01
2.308846804019544785e-01
2.310613716648323712e-01
2.264875421451442716e-01
2.168768948898662785e-01
2.029986168600080854e-01
1.846146719590144036e-01
1.624063747983703065e-01
1.367715924489421586e-01
1.081423102424411975e-01
7.738818202289056425e-02
4.486634421330145533e-02
1.150011697408536739e-02
-2.217408096270957751e-02
-5.523950133687475367e-02
-8.718803873427730111e-02
-1.171378732101813896e-01
-1.444849405285393851e-01
-1.686943636284622960e-01
-1.889487645378176983e-01
-2.052491095502901597e-01
-2.167137828283539069e-01
-2.234212520758497855e-01
-2.250471727138023681e-01
-2.214258897626691924e-01
-2.129939761053945557e-01
-1.994460869685998061e-01
-1.815104197242448092e-01
-1.592688535035227670e-01
-1.333412459129743877e-01
-1.043728665975543757e-01
-7.285296152961003024e-02
-3.971676400262245249e-02
-5.491513674369447387e-03
2.881857288285132046e-02
6.264334209676500342e-02
9.499199101400197798e-02
1.253106708309111861e-01
1.528080975823970789e-01
1.767610440751092860e-01
1.968809752861028495e-01
2.122816070109955766e-01
2.231284945725376667e-01
2.287094909902075146e-01
2.290524096403601384e-01
2.242129277319655500e-01
2.139512206679952677e-01
1.990282836573643022e-01
1.791982089794035560e-01
1.552224078973923616e-01
1.274724793381157018e-01
9.653986643390942424e-02
6.327408292209815710e-02
2.818339707921901222e-02
-7.728729068095132118e-03
-4.386061735133522932e-02
-7.915446575012641262e-02
-1.130543231390108844e-01
-1.445513605823353087e-01
-1.730113369525488609e-01
-1.977941139847330110e-01
-2.180701821414346986e-01
-2.337629750438262599e-01
-2.439978950731581109e-01
-2.489069054237071921e-01
-2.481068531133217570e-01
-2.415688636462220429e-01
-2.296878776080750195e-01
-2.123134616793085350e-01
-1.902781579466018835e-01
-1.637122264600250066e-01
-1.334277001259693840e-01
-1.000987481727441536e-01
-6.441952202281267525e-02
-2.739552366168288358e-02
1.031362281200936051e-02
4.761181670220070161e-02
8.384798390478802321e-02
1.179338548640329609e-01
1.493422956484290742e-01
1.771579646047389267e-01
2.007576852811937818e-01
2.197656281792103039e-01
2.333999465952742991e-01
2.419289121107267571e-01
2.446199755997179315e-01
2.417445038492406773e-01
2.333126973898263512e-01
2.193803516416309995e-01
2.007108619598850507e-01
1.772624076803356041e-01
1.499919977212273992e-01
1.192826261109119768e-01
8.599097444666262136e-02
5.093677197889440178e-02
1.481902618466870297e-02
-2.132285699328518441e-02
-5.685334017836728149e-02
-9.067529006335642294e-02
-1.222703081074601461e-01
-1.506272900693588490e-01
-1.752564642835326703e-01
-1.955132220455837455e-01
-2.107887744844636757e-01
-2.210400004992864320e-01
-2.256032559042837338e-01
-2.248327660403992845e-01
-2.183982342091572160e-01
-2.066011874272661031e-01
-1.898419554438514900e-01
-1.682596264247760154e-01
-1.428138174714457254e-01
-1.137088165245154353e-01
-8.195575724395774697e-02
-4.817808310014806694e-02
-1.323365974655333135e-02
2.195121744505391242e-02
5.668699497180008928e-02
8.994806202817384744e-02
1.211794536061950589e-01
1.493611288742210941e-01
1.741958706923963929e-01
1.948189366542096845e-01
2.108747623374465086e-01
2.220866049971859657e-01
2.279430427960782990e-01
2.288225170990467183e-01
2.242149105102991813e-01
2.146076998899377197e-01
2.000772661298972910e-01
1.809251755266782224e-01
1.578935181151920331e-01
1.311417509792691116e-01
1.016440029541612472e-01
6.980779841357193094e-02
3.652307410981515956e-02
2.506250573774890245e-03
-3.150099349603170673e-02
-6.464992237696107202e-02
-9.631142055961655624e-02
-1.255981454213189463e-01
-1.520930507528250042e-01
-1.749273980269220319e-01
-1.938829839908109975e-01
-2.083437203199471899e-01
-2.180166443284149436e-01
-2.228934652674422479e-01
-2.225365092954885160e-01
-2.174718742604708210e-01
-2.073980832420663223e-01
-1.928204200298589965e-01
-1.740889692895327689e-01
-1.514867490487238066e-01
-1.259361508490558224e-01
-9.764734186445050979e-02
-6.758815674489503100e-02
-3.629025958470445679e-02
-4.575054517057204617e-03
2.683529059335746508e-02
5.726898215510474455e-02
8.594860060025988346e-02
1.123808514906595168e-01
1.357570226833987037e-01
1.559165212573022652e-01
1.721004204047423825e-01
1.842022525901139685e-01
1.919281809802522165e-01
1.950042651928792781e-01
1.937778632281485502e-01
1.878597992747156886e-01
1.778253270525212981e-01
1.636628294938423100e-01
1.457857842752314226e-01
1.247725932292535755e-01
1.008362032765465766e-01
7.484428339870893843e-02
4.709977045444049826e-02
1.843101482421924397e-02
-1.063457648150141488e-02
-3.939328723045827652e-02
-6.720950431582166373e-02
-9.351931118649203789e-02
-1.175965996076838022e-01
-1.391362853856465409e-01
-1.573468707490176255e-01
-1.721854714116998475e-01
-1.830266062061116639e-01
-1.896991495689384633e-01
-1.921865285260689338e-01
-1.900869129891630260e-01
-1.839630539879111293e-01
-1.734453024714970870e-01
-1.590304745276148735e-01
-1.409816594520884592e-01
-1.195530936433633895e-01
-9.553944891252377780e-02
-6.911223116687598145e-02
-4.110145013759419763e-02
-1.195803980048203152e-02
1.757018173183728937e-02
4.692124836692793816e-02
7.541125683267031754e-02
1.024207690474719379e-01
1.274528545256023715e-01
1.497540995025856692e-01
1.692018660866742574e-01
1.849885531699895780e-01
1.970700827368605801e-01
2.050513889600623640e-01
2.086340498207891747e-01
2.080925657833435083e-01
2.029489431084274820e-01
1.937394728517168041e-01
1.803281665311515514e-01
1.630390742146685668e-01
1.423654710882280572e-01
1.184405512230309598e-01
9.205561866506088708e-02
6.347351174385834627e-02
3.343197308945428103e-02
2.464358030081425024e-03
-2.873282560738714062e-02
-5.957140050090247579e-02
-8.937327342684904530e-02
-1.174534443111749510e-01
-1.433780835974256540e-01
-1.662692161926808410e-01
-1.860977986120009309e-01
-2.019888282774929822e-01
-2.137738794663502362e-01
-2.212454792290220740e-01
-2.238824138869901781e-01
-2.222159474314607530e-01
-2.156414039376948200e-01
-2.046471504276071440e-01
-1.893425118104379301e-01
-1.698962476537509425e-01
-1.470815558305176851e-01
-1.209561508507658173e-01
-9.237184945397462765e-02
-6.174886475150528908e-02
-2.980591594955138424e-02
2.791529947649987187e-03
3.537657122886368050e-02
6.725613325964084621e-02
9.781669411853805007e-02
1.262811996526092273e-01
1.523399059788977938e-01
1.751069306277327209e-01
1.944742171774595796e-01
2.098178722336983548e-01
2.208008253487014905e-01
2.275049419018363994e-01
2.293068706230952380e-01
2.267454354259479388e-01
2.194058314625007000e-01
2.075952108717082911e-01
1.916761364767112508e-01
1.716231781943848012e-01
1.483149223245871506e-01
1.217748363200239770e-01
9.276911756529368502e-02
6.180732668263101692e-02
2.948345914351900576e-02
-3.473340360467331439e-03
-3.648649704870095267e-02
-6.880209179564998612e-02
-9.988389372311742842e-02
-1.288594065033578095e-01
-1.555127133383263360e-01
-1.789033401101619569e-01
-1.987624223516290534e-01
-2.146591000494110779e-01
-2.259867725586920395e-01
-2.330464375993300807e-01
-2.350605976086518334e-01
-2.324199640240887654e-01
-2.249553071154654083e-01
-2.127075283417801943e-01
-1.963073087849585563e-01
-1.755870199593774772e-01
-1.513932284707504849e-01
-1.239352288347746744e-01
-9.386592410253347118e-02
-6.186886570953226139e-02
-2.847194052680545456e-02
5.511099733386187922e-03
3.949922095291468621e-02
7.266077023604643192e-02
1.044995773440995923e-01
1.341058772367761665e-01
1.611777093499342228e-01
1.849217626871100251e-01
2.048696705439486121e-01
2.208263498800104863e-01
2.320195797048605346e-01
2.388353840331847722e-01
2.405643731217064207e-01
2.374114510120591270e-01
2.294857837016828772e-01
2.165926866053274891e-01
1.995879795364885467e-01
1.782015258131492419e-01
1.532093402271416382e-01
1.249894135826002950e-01
9.406348438614065000e-02
6.125442994499885607e-02
2.701370648819159670e-02
-7.776871582210317588e-03
-4.253316999047250524e-02
-7.634763104120731447e-02
-1.087356355241657774e-01
-1.387604299714690348e-01
-1.659423484293147122e-01
-1.896493483645275147e-01
-2.091870541269612027e-01
-2.245246873518468300e-01
-2.348163213660093285e-01
-2.402802094465844029e-01
-2.404947713470716453e-01
-2.354592111246632258e-01
-2.255492278423715247e-01
-2.105457162124825810e-01
-1.912610377737614109e-01
-1.677248881491846255e-01
-1.406592003004134839e-01
-1.106693915671402850e-01
-7.830474810347320958e-02
-4.449865960078559779e-02
-9.789618677571776395e-03
2.484524461404426232e-02
5.881190352196839083e-02
9.114757897916223039e-02
1.213594027022555921e-01
1.486016309292814697e-01
1.722931063745972990e-01
1.920533356592126761e-01
2.071174135338189337e-01
2.177098535472372087e-01
2.230673065045430392e-01
2.233924918399832205e-01
2.186240948546240848e-01
2.087152697670573986e-01
1.943379830900920646e-01
1.753327825475984314e-01
1.525363269607495631e-01
1.262306585662759661e-01
9.712849242291589358e-02
6.597392172192853566e-02
3.333220777208539820e-02
1.656457042564576931e-04
-3.297128449140031281e-02
-6.506134396337100168e-02
-9.560359532262718840e-02
-1.236524728888841740e-01
-1.486915997074092499e-01
-1.700948784563443561e-01
-1.872055480581258091e-01
-1.999234293276558050e-01
-2.075352407646133268e-01
-2.102665550743830769e-01
-2.077265362365792734e-01
-2.000656088630820562e-01
-1.875742403170308492e-01
-1.702691061846347553e-01
-1.489537942797700409e-01
-1.237415799746303391e-01
-9.550411142085261929e-02
-6.476929615613580271e-02
-3.231720533113163069e-02
1.008475481595948881e-03
3.455243588441634511e-02
6.730393227389511179e-02
9.872652717258736943e-02
1.277474330116955548e-01
1.540316822491971105e-01
1.766513497339363414e-01
1.951273042517001066e-01
2.091208924323031126e-01
2.179664011474113650e-01
2.219262825461544852e-01
2.203822136149241884e-01
2.136566158790107195e-01
2.017480084908780114e-01
1.848310466966021359e-01
1.635451521673931818e-01
1.380097716359318938e-01
1.091166866288354187e-01
7.726077191142302625e-02
4.335001529655442554e-02
8.078992607990810593e-03
-2.771122650257924064e-02
-6.312238881590062634e-02
-9.744446625730353306e-02
-1.296245597093772517e-01
-1.591898246878531431e-01
-1.850765145038277548e-01
-2.069434242233357812e-01
-2.240570924551935905e-01
-2.359341720159534028e-01
-2.425037704873123368e-01
-2.431820103175929837e-01
-2.384136818332920071e-01
-2.278571894237899076e-01
-2.119548504778498987e-01
-1.910693048418639073e-01
-1.655179618576430589e-01
-1.362511642242500987e-01
-1.035917959964723356e-01
-6.861820739365158406e-02
-3.196845805540039775e-02
5.325217189367743853e-03
4.243940670754819955e-02
7.847772013126350088e-02
1.124794798532848389e-01
1.438147354579283332e-01
1.714431020968467667e-01
1.951182748870351757e-01
2.139017901412993694e-01
2.275894095687517882e-01
2.358228342620715678e-01
2.382599715430075982e-01
2.352596299878186303e-01
2.264395374843094499e-01
2.124494554683282466e-01
1.933496053133166026e-01
1.697113491645844130e-01
1.422280575054769292e-01
1.113204927470129724e-01
7.804916735375592995e-02
4.290179046292927345e-02
6.978131426079347416e-03
-2.904308247485342873e-02
-6.418736091905172247e-02
-9.765666216276164269e-02
-1.287011638618043297e-01
-1.564225290090241471e-01
-1.804308829818088433e-01
-1.998110795048879118e-01
-2.145208499343667641e-01
-2.238872393944188466e-01
-2.278157738379444353e-01
-2.263366734159487637e-01
-2.191876925117258179e-01
-2.070955626036354857e-01
-1.898342719859280603e-01
-1.681782464843060709e-01
-1.425369730510860078e-01
-1.134808760207284550e-01
-8.199780861504307738e-02
-4.850530967081145839e-02
-1.410258788352997117e-02
2.061976079869697054e-02
5.465926197494277994e-02
8.736504187542276645e-02
1.179020758290102999e-01
1.455844984892269156e-01
1.698875936477361737e-01
1.900647760168250322e-01
2.060538759900465977e-01
2.171300620261329972e-01
2.234133295764368365e-01
2.246221447651809977e-01
2.207289449161454753e-01
2.121516403925627348e-01
1.987025001591346540e-01
1.811649943309836530e-01
1.596023860820603435e-01
1.346852090476518549e-01
1.070259425394239905e-01
7.708059555378909966e-02
4.577750982740225183e-02
1.355293578804543653e-02
-1.867460409294675883e-02
-5.035667469655751016e-02
-8.066057463895018320e-02
-1.090676991504278270e-01
-1.348760590919738656e-01
-1.575079145741905828e-01
-1.766346202092402562e-01
-1.915445106174548107e-01
-2.024107680996489189e-01
-2.085512490113138329e-01
-2.101038395564892580e-01
-2.070379235292072462e-01
-1.992266104886623590e-01
-1.873544202807749803e-01
-1.711804567911359709e-01
-1.514637631425380104e-01
-1.284749610268545728e-01
-1.027629527742686399e-01
-7.508661496484958509e-02
-4.583653518768801560e-02
-1.589970657358577566e-02
1.424640737207178570e-02
4.375567285691753239e-02
7.214510257010149641e-02
9.864800892024899737e-02
1.227870751761697687e-01
1.440378662298149037e-01
1.618110375942222734e-01
1.760346593303240836e-01
1.860334402386248920e-01
1.919912336773836881e-01
1.935214183577888547e-01
1.906546216989889464e-01
1.836504938155383293e-01
1.723292283707258954e-01
1.573807129417356676e-01
1.387456776331362773e-01
1.170476089926053009e-01
9.272109004260292719e-02
6.621041432574645280e-02
3.828922273760042294e-02
9.349110514563552243e-03
-1.977453379637705497e-02
-4.861015356904561935e-02
-7.632285674566641198e-02
-1.025009436402603280e-01
-1.263872644417677327e-01
-1.474592296306650452e-01
-1.653481457247859554e-01
-1.793483715847731808e-01
-1.895932636482706157e-01
-1.953724063665380206e-01
-1.968125806172276171e-01
-1.937983939890979279e-01
-1.862291712285530365e-01
-1.746467018542890992e-01
-1.588658594539070212e-01
-1.395831149341462685e-01
-1.170208179318277253e-01
-9.174755313267418666e-02
-6.442269223793717359e-02
-3.550960506270833816e-02
-5.827972290403340971e-03
2.411927231232430593e-02
5.348882591070383552e-02
8.181650752975680452e-02
1.082784922803256278e-01
1.324636123668952448e-01
1.537655956475211250e-01
1.716283847716600919e-01
1.859417025544621849e-01
1.960011957696130569e-01
2.020523540731170020e-01
2.036056019689141960e-01
2.007321807822666226e-01
1.936366987114117588e-01
1.821224076415694504e-01
1.669192729721007407e-01
1.478839617184803390e-01
1.256523489417221140e-01
1.006283212584094811e-01
7.323896443145938573e-02
4.425803942393174983e-02
1.405933724285288178e-02
-1.655728637132432984e-02
-4.709391590787988940e-02
-7.673250775732558260e-02
-1.050734494721821954e-01
-1.312975881603147543e-01
-1.549417759340910861e-01
-1.755346573476397887e-01
-1.923731008139932253e-01
-2.055431748568429251e-01
-2.142338043955504534e-01
-2.186079258232928590e-01
-2.183910088276263539e-01
-2.134411036174608256e-01
-2.042459974571076420e-01
-1.904793021573360223e-01
-1.728619496245326903e-01
-1.514712012160060739e-01
-1.268067774880774212e-01
-9.953021776550532995e-02
-6.997546539853823078e-02
-3.899591176546008536e-02
-7.046496148911163097e-03
2.508707483547258088e-02
5.684339631093947298e-02
8.744985385396890354e-02
1.164497092061867051e-01
1.431324884430323630e-01
1.669606747267908808e-01
1.876462583332189626e-01
2.044189733156739075e-01
2.175025355157706453e-01
2.261542502032692359e-01
2.304350656027726874e-01
2.303515794706533226e-01
2.255361968757214619e-01
2.167652711167924184e-01
2.035492530590730098e-01
1.865140431174099056e-01
1.659096371727313002e-01
1.419727330116936082e-01
1.155264598888734173e-01
8.669164182335459268e-02
5.626725107485665983e-02
2.470820174102950073e-02
-7.316137466452939109e-03
-3.923815198545120564e-02
-7.037777752975359069e-02
-1.001970847005256293e-01
-1.280983100069797431e-01
-1.534028301207582823e-01
-1.759250533221277668e-01
-1.947969912118818481e-01
-2.100465362890177878e-01
-2.210981475478448754e-01
-2.277050892017324912e-01
-2.300511858270560539e-01
-2.275745592136899642e-01
-2.208829374690335356e-01
-2.096681043498485608e-01
-1.942975567333042886e-01
-1.752197926612553136e-01
-1.525001565913826629e-01
-1.270166490135162252e-01
-9.892531202661017375e-02
-6.899397708672726226e-02
-3.777451572721050171e-02
-5.905297808701014464e-03
2.595460477957485870e-02
5.717340642002136097e-02
8.707589347709107641e-02
1.151738465476044859e-01
1.406456376312164580e-01
1.634193247735087617e-01
1.826041421500280149e-01
1.980584489473299348e-01
2.094723208071524179e-01
2.163549405754291999e-01
2.191289952350539139e-01
2.171366120094145313e-01
2.108426865293266117e-01
2.001908676001540599e-01
1.853134422060592479e-01
1.668566613891824535e-01
1.447608037900042777e-01
1.198367088614623044e-01
9.234289822733775244e-02
6.295201048663021104e-02
3.226868976266732136e-02
8.737004578864907001e-04
-3.051316488807782543e-02
-6.132273831740279318e-02
-9.075271989156170893e-02
-1.183994568609472303e-01
-1.433741741866076114e-01
-1.654300922546147745e-01
-1.838569792233358813e-01
-1.982372303142274361e-01
-2.084474573118790253e-01
-2.138475540827147470e-01
-2.148054099434628661e-01
-2.108191687455580055e-01
-2.021684581272068515e-01
-1.890481113814009295e-01
-1.715105835595699124e-01
-1.503463582676935750e-01
-1.256009886449027113e-01
-9.812081670657890609e-02
-6.837259701451947613e-02
-3.710462948008703965e-02
-5.069769707919433155e-03
2.707140975325997984e-02
5.844255506419379631e-02
8.847163024208989923e-02
1.162162438602801634e-01
1.413308373058025091e-01
1.629336348549624836e-01
1.806786825282219733e-01
1.941272337835210360e-01
2.028015550310135195e-01
2.068511705303854309e-01
2.057696099657589373e-01
1.999471997888102315e-01
1.892875375196667875e-01
1.741163552259711589e-01
1.549364606961475266e-01
1.319665831589636185e-01
1.060758454659509742e-01
7.759806995935797369e-02
4.746066675848620298e-02
1.626241159461239150e-02
-1.517162978555028352e-02
-4.604051533088560078e-02
-7.568873120970701085e-02
-1.031996318219339376e-01
-1.281362257298729601e-01
-1.496002949743087673e-01
-1.673572767375397508e-01
-1.807479296485157150e-01
-1.894888999843168942e-01
-1.934810490038868236e-01
-1.923635226965674239e-01
-1.865970673972260907e-01
-1.759065700124658738e-01
-1.608398051234510018e-01
-1.416655066104020866e-01
-1.188376024796278518e-01
-9.315485992176715524e-02
-6.497300274386104413e-02
-3.528339037850204696e-02
-4.590974628887672243e-03
2.612628389119326516e-02
5.624530153561389800e-02
8.495427305019255526e-02
1.114943761656282673e-01
1.353575171656719311e-01
1.557078376520660556e-01
1.723894488971678129e-01
1.846635881246217192e-01
1.924699619633975234e-01
1.955185332849274371e-01
1.936585892387820695e-01
1.871888319761452757e-01
1.759224134150890739e-01
1.604786860815142768e-01
1.409358327960524848e-01
1.179057665861499016e-01
9.192984658433255019e-02
6.352032391598380623e-02
3.353927016832654318e-02
2.469902481508162717e-03
-2.872748114222996307e-02
-5.951764436177819917e-02
-8.897714077812599043e-02
-1.165588371054294969e-01
-1.415277183437930186e-01
-1.632132527457310633e-01
-1.812859777460835708e-01
-1.949820376623063733e-01
-2.044066132374695033e-01
-2.089221198119272649e-01
-2.085985613268481753e-01
-2.034368359154233308e-01
-1.933533768513207574e-01
-1.789777479161507867e-01
-1.602129947559258194e-01
-1.378126082673347685e-01
-1.121248268312514396e-01
-8.382212779983971851e-02
-5.365065661227344518e-02
-2.218426880105548241e-02
9.655543932872788504e-03
4.130179139324884063e-02
7.179070627423445039e-02
1.006335550023442493e-01
1.269469077202590446e-01
1.502402977571585252e-01
1.699563296564625126e-01
1.854943278523142336e-01
1.967982281200775785e-01
2.032373792559360459e-01
2.050402694593970732e-01
2.019031120228720888e-01
1.939846375542954027e-01
1.816042532049209068e-01
1.647959824457266298e-01
1.443250957703725579e-01
1.203245705332719462e-01
9.360546348292644869e-02
6.467829944358483019e-02
3.425020889388065426e-02
3.118811763943768467e-03
-2.812432778287116478e-02
-5.854566669124765949e-02
-8.764681912300417710e-02
-1.144599173752878923e-01
-1.386545507167893931e-01
-1.594014431293827583e-01
-1.762570086094004118e-01
-1.889177036994685310e-01
-1.967817925728950201e-01
-2.001208987824100727e-01
-1.983693942808442134e-01
-1.918577225546397869e-01
-1.806177950048500902e-01
-1.648322294679507305e-01
-1.451577254403647044e-01
-1.217034051337401168e-01
-9.534496490656821366e-02
-6.646794929028360110e-02
-3.591347995683377703e-02
-4.359688798106095553e-03
2.746471761596122607e-02
5.871988959882513959e-02
8.880791588191998265e-02
1.168036429500580869e-01
1.423281789871179426e-01
1.644872250842795980e-01
1.830185145123811585e-01
1.973546908331674510e-01
2.070975039389529593e-01
2.122882679998659428e-01
2.124127421403890215e-01
2.079345441299254027e-01
1.985735094921677879e-01
1.846991698909178359e-01
1.666928155211160889e-01
1.447251638509815530e-01
1.196704004403451316e-01
9.171575469922804702e-02
6.173333538744214810e-02
3.026642235521683627e-02
-1.933014570749715111e-03
-3.413800138630568998e-02
-6.568731827155595282e-02
-9.579387258897545387e-02
-1.239427530355994844e-01
-1.492691515701880522e-01
-1.715938670011965261e-01
-1.900732217421273462e-01
-2.045210963702590867e-01
-2.146169480091035253e-01
-2.199330478749712547e-01
-2.208440874053253511e-01
-2.168083742617138987e-01
-2.083467688324524558e-01
-1.954418081543825014e-01
-1.783471330119709986e-01
-1.577437299597285736e-01
-1.336857747472625091e-01
-1.070688424983047282e-01
-7.820306108205141160e-02
-4.781811511164307110e-02
-1.656757802417544931e-02
1.495880196330241080e-02
4.604842268510406234e-02
7.613538116451984417e-02
1.045142412054602399e-01
1.308013616127931267e-01
1.542180682703967187e-01
1.746652831169854814e-01
1.914706659632390839e-01
2.044041609026151507e-01
2.134098039612049025e-01
2.179272593651389034e-01
2.185204957239464951e-01
2.146216549789107808e-01
2.066092371225408675e-01
1.946883201907817218e-01
1.787837396529989853e-01
1.598071303695362821e-01
1.375451811454918571e-01
1.127574394206052877e-01
8.583022616783345105e-02
5.720028523267822740e-02
2.760656082598886979e-02
-2.588179559162320093e-03
-3.270587047888823956e-02
-6.224549994818573406e-02
-9.056048488339549229e-02
-1.173072645449546314e-01
-1.417497314690202848e-01
-1.636568034455784804e-01
-1.825056970561082792e-01
-1.978481286994673849e-01
-2.097645520687397847e-01
-2.175403028012996010e-01
-2.215287381162294178e-01
-2.213383354203162789e-01
-2.169999147922612170e-01
-2.089164271452073063e-01
-1.967631816181836801e-01
-1.813172920961936274e-01
-1.624841259355314371e-01
-1.407518969176935475e-01
-1.166735105365385439e-01
-9.044423167001336417e-02
-6.286644340506641893e-02
-3.422677575934533756e-02
-5.151587203428009687e-03
2.383650287209002419e-02
5.218104412693642946e-02
7.948286212269570217e-02
1.051171754626163135e-01
1.287299898037738144e-01
1.499465705404839089e-01
1.681739939185659671e-01
1.836149111595951622e-01
1.954853016697372659e-01
2.039400147450304013e-01
2.087878458340532983e-01
2.097333415227130571e-01
2.073506896694071733e-01
2.010750983634124744e-01
1.914735596502218362e-01
1.785512114902012837e-01
1.624407915192395968e-01
1.438010598585578448e-01
1.225352693433969242e-01
9.934151580698438733e-02
7.446168591028237693e-02
4.835577504768917567e-02
2.155742661486229061e-02
-5.529962761809642524e-03
-3.241176925015089305e-02
-5.859602318928162218e-02
-8.357973950854594158e-02
-1.070549385245861268e-01
-1.283360782157164370e-01
-1.473829643944791212e-01
-1.635517599855677573e-01
-1.766183278628322417e-01
-1.865281747926627320e-01
-1.926759813973473179e-01
-1.955331257811898926e-01
-1.945258681052537408e-01
-1.898870479277959544e-01
-1.818048133172796288e-01
-1.700663577403591364e-01
-1.554683264249460128e-01
-1.377584112927312254e-01
-1.175287130789682832e-01
-9.514801207780637649e-02
-7.088003301235046294e-02
-4.544331640021628815e-02
-1.906846377705526119e-02
7.648484071827554853e-03
3.426346144966837398e-02
6.023499216014763236e-02
8.524918818615140337e-02
1.086699518797938496e-01
1.302570757098157062e-01
1.495790836641906763e-01
1.661498979227870043e-01
1.800925985202736779e-01
1.906613062757406829e-01
1.981031620054815312e-01
2.020624058433435066e-01
2.023611718930434233e-01
1.994095479905693691e-01
1.926712394268424444e-01
1.827611024097753334e-01
1.694975145258969529e-01
1.530849986047019273e-01
1.340366932349933426e-01
1.122645082600822464e-01
8.846968656157902511e-02
6.279261848555230119e-02
3.569865003586142338e-02
7.691022667650260214e-03
-2.082320659305028979e-02
-4.937347656774146443e-02
-7.740802799034932069e-02
-1.044774435769993126e-01
-1.301515755014153175e-01
-1.537311000344797896e-01
-1.752192552175119988e-01
-1.937532269849631672e-01
-2.092099382941838837e-01
-2.213099187709744453e-01
-2.294470063851572483e-01
-2.341150527339105336e-01
-2.344997748996857090e-01
-2.309561498385190315e-01
-2.234575511505548229e-01
-2.118392633568902395e-01
-1.968650307370827801e-01
-1.781949568691568730e-01
-1.565257289261351159e-01
-1.321338809779362689e-01
-1.053298938106294047e-01
-7.688353946345614920e-02
-4.702336630919031618e-02
-1.642215185751793455e-02
1.440416989021997551e-02
4.495115024829099415e-02
7.470797550452937252e-02
1.030662672012154502e-01
1.297779077731687769e-01
1.542042663802385694e-01
1.760150767809596783e-01
1.950697998584813853e-01
2.106769728587384871e-01
2.231829470259445447e-01
2.319337810854242288e-01
2.369847106992195584e-01
2.384925631471593865e-01
2.359448054508361259e-01
2.301342474932216997e-01
2.205283904450558163e-01
2.075396937620257176e-01
1.914918454625020583e-01
1.722244303978681668e-01
1.506292947477815281e-01
1.265069155346086049e-01
1.004204047577069991e-01
7.280066009839800123e-02
4.389612092085762307e-02
1.432087227252690914e-02
-1.557262508104026444e-02
-4.536061396566157256e-02
-7.450988093452312611e-02
-1.025254166824191016e-01
-1.291928757722922982e-01
-1.537215972507874062e-01
-1.760485749690292312e-01
-1.955942001405300557e-01
-2.119240835979889215e-01
-2.251932549636669889e-01
-2.345401405409753282e-01
-2.403566343941995198e-01
-2.421720045794992782e-01
-2.398912596773540296e-01
-2.339651916037071011e-01
-2.238541960256342223e-01
-2.103204091559132127e-01
-1.931925177064753585e-01
-1.727880436359546246e-01
-1.497310813752051883e-01
-1.240024311267738655e-01
-9.643295688226645457e-02
-6.724865389469811272e-02
-3.696412140980775279e-02
-6.194487979981788683e-03
2.464492449196488411e-02
5.506728421749898517e-02
8.447810344947466465e-02
1.125301905849144246e-01
1.387678155963666116e-01
1.625934717799609186e-01
1.841412305527335980e-01
2.025508922101569576e-01
2.179042129537640538e-01
2.299423316800079664e-01
2.381787741927904600e-01
2.432290073856533952e-01
2.442518924143864401e-01
2.417326306743526609e-01
2.355845309298426060e-01
2.256288633558660717e-01
2.126273728552978970e-01
1.960853406313141645e-01
1.766686322369470930e-01
1.544931792308513185e-01
1.297341651253234862e-01
1.030627302185099792e-01
7.453577537326226687e-02
4.473410806676816204e-02
1.406959642836908692e-02
-1.704136674093557208e-02
-4.811016376809536255e-02
-7.854476533913089253e-02
-1.080849303801533212e-01
-1.360014648095574097e-01
-1.618951959674738428e-01
-1.854791698523525767e-01
-2.059124320293229948e-01
-2.234050456422721764e-01
-2.370837881041806816e-01
-2.468669703546524097e-01
-2.527080612127872161e-01
-2.539580656628185884e-01
-2.513032651954755781e-01
-2.440704528381742733e-01
-2.326575898459085634e-01
-2.173116969541443455e-01
-1.979175897916006510e-01
-1.754237831028143679e-01
-1.496743170332282269e-01
-1.213958033322221353e-01
-9.109418268227795212e-02
-5.920667551951379337e-02
-2.649118759252128835e-02
6.567325323154613037e-03
3.935810390325285291e-02
7.126036950870243136e-02
1.016451042432485324e-01
1.302017623729815332e-01
1.561054661741617389e-01
1.792409591543060454e-01
1.990294759016945081e-01
2.150732957721308847e-01
2.275372064574369690e-01
2.356527087892637262e-01
2.398982074857234359e-01
2.398504932265603240e-01
2.355677978634134750e-01
2.275208325433168977e-01
2.153044359114393014e-01
1.997674453078484291e-01
1.807498212969800289e-01
1.587104009517155412e-01
1.342193819687206580e-01
1.073679683063992751e-01
7.898455046485568232e-02
4.928917420864145638e-02
1.887243170110237261e-02
-1.172340522651078853e-02
-4.199554622142848137e-02
-7.150370903866466732e-02
-9.961791896503147115e-02
-1.259667266352769155e-01
-1.501063516253767216e-01
-1.714018424940750851e-01
-1.900062533873662640e-01
-2.050357955033774160e-01
-2.166017854773816254e-01
-2.244341141074136792e-01
-2.281447447390015648e-01
-2.283243916523111650e-01
-2.242766576443865623e-01
-2.165842038638569611e-01
-2.052321719622755558e-01
-1.902715156684136044e-01
-1.725020925208519962e-01
-1.516888265079881781e-01
-1.286353611240863559e-01
-1.035975026074499039e-01
-7.695564003431874800e-02
-4.943668005159133905e-02
-2.126112593932764222e-02
6.957498879693543165e-03
3.476930040374425629e-02
6.178299322969957319e-02
8.757228697704322329e-02
1.116579086610078320e-01
1.339495220660561481e-01
1.538867503376041834e-01
1.713432434874188892e-01
1.862364674277584564e-01
1.980350450994666223e-01
2.072195316138720766e-01
2.131666519580135977e-01
2.160799159765250388e-01
2.160965083713438650e-01
2.127773509133382979e-01
2.069402244450216366e-01
1.979949421440324875e-01
1.863568420745553844e-01
1.722575798926371526e-01
1.554798049519011405e-01
1.368235837723676962e-01
1.159816400907380529e-01
9.339720116300090358e-02
6.939708605212550896e-02
4.408956808393495186e-02
1.798189145701238612e-02
-8.680736702157389184e-03
-3.560592308915717930e-02
-6.230816847655006041e-02
-8.842273286524876541e-02
-1.137382454014525812e-01
-1.375357208561205080e-01
-1.597886978206652653e-01
-1.798728196810709945e-01
-1.973903656089701364e-01
-2.123885443268337947e-01
-2.239956404951480851e-01
-2.325349404807367515e-01
-2.374157885493848874e-01
-2.384878121284658703e-01
-2.360423123479559182e-01
-2.294704434756460465e-01
-2.194281821200453342e-01
-2.056112532908097590e-01
-1.882639548687595754e-01
-1.678857690156917992e-01
-1.443994780012117785e-01
-1.185820940297845627e-01
-9.058869632487862034e-02
-6.092455841761645896e-02
-3.018536207453838272e-02
1.202389185441542219e-03
3.270402520756393594e-02
6.369597083660638592e-02
9.376025277408156500e-02
1.223476726428677774e-01
1.488073297048946586e-01
1.731274443160818743e-01
1.943877116170417418e-01
2.125801964826791735e-01
2.273067989104672060e-01
2.380761143003992664e-01
2.453307349834982221e-01
2.482430089578638865e-01
2.472760560058409052e-01
2.422468367185611204e-01
2.330679295980219168e-01
2.204241360652461346e-01
2.039017284042868028e-01
1.842538296110177443e-01
1.615763075347286248e-01
1.361925875629212412e-01
1.088048661778043824e-01
7.955022571466019432e-02
4.913981810895282076e-02
1.799383274060967208e-02
-1.338138291084310649e-02
-4.442612148054969623e-02
-7.456963805842589665e-02
-1.034811086525495999e-01
-1.304628713495123438e-01
-1.551695507282473407e-01
-1.772747927683799851e-01
-1.960877604067220725e-01
-2.118541811214451620e-01
-2.237761737707055776e-01
-2.319402317294431415e-01
-2.362978729356450536e-01
-2.363832672220201048e-01
-2.329762845210721633e-01
-2.254362536892200453e-01
-2.143121288636604116e-01
-1.998235720349086364e-01
-1.819317238116877622e-01
-1.615899986212177286e-01
-1.385832809615656913e-01
-1.136360077886902631e-01
-8.715163670176608035e-02
-5.944016228044202155e-02
-3.120913316320858555e-02
-2.730345125567100462e-03
2.550548812847673250e-02
5.301241881425947100e-02
7.940155362678638640e-02
1.043974857867882855e-01
1.274141312064417109e-01
1.484461426066335243e-01
1.669749805136202525e-01
1.827707823975985024e-01
1.959430780626025270e-01
2.058169121510194655e-01
2.128624181022506223e-01
2.165648333191690367e-01
2.169577270897213306e-01
2.143554556315122039e-01
2.082324867331613039e-01
1.993150335180307597e-01
1.872189754628195979e-01
1.722231692061230168e-01
1.547111541113371513e-01
1.345269229352108742e-01
1.123674124523295348e-01
8.821038086984525628e-02
6.246927578264101916e-02
3.557546117274518888e-02
7.841362525370626502e-03
-2.031793073680021600e-02
-4.838366344309309730e-02
-7.600719499446920158e-02
-1.027018175733726002e-01
-1.278351944671640428e-01
-1.513930037762688807e-01
-1.724333296049248010e-01
-1.908952909039579038e-01
-2.063128291409003223e-01
-2.181128693348889924e-01
-2.266231550237841619e-01
-2.309459655673063994e-01
-2.314316694166311805e-01
-2.278116395208338307e-01
-2.199350772042125701e-01
-2.083764129220604389e-01
-1.927312160485319392e-01
-1.736863081217001614e-01
-1.513319603895157406e-01
-1.260305395213600632e-01
-9.842967207340962144e-02
-6.878706447074579844e-02
-3.779926128156076148e-02
-5.949160462911863567e-03
2.614572612959126241e-02
5.796566176744691323e-02
8.876528858547644285e-02
1.182376124600357514e-01
1.456011075334431304e-01
1.704016970065363734e-01
1.923588177718582592e-01
2.106258920544221702e-01
2.254904818436906933e-01
2.360774361135102306e-01
2.424081715281948823e-01
2.444493128185679098e-01
2.416713110991830504e-01
2.348480201924902921e-01
2.233360005520761971e-01
2.076741360199166331e-01
1.880750361097960344e-01
1.646301178218977646e-01
1.381859231965543722e-01
1.087656632946732427e-01
7.715022966274424909e-02
4.381857739319180989e-02
9.421604310507654401e-03
-2.540636781490149612e-02
-5.994559449613837132e-02
-9.358442042100510727e-02
-1.256383406657861079e-01
-1.553185630365710723e-01
-1.823655582095976557e-01
-2.057638853003013468e-01
-2.254506942719080864e-01
-2.407487449475026464e-01
-2.512630988487076222e-01
-2.571690716781107611e-01
-2.577275869077578219e-01
-2.535462839006928926e-01
-2.442402582555084911e-01
-2.300927180933264871e-01
-2.116322325912190494e-01
-1.887817996881229754e-01
-1.625408382451827560e-01
-1.330086208317708685e-01
-1.009634900030719762e-01
-6.706770671975305353e-02
-3.188149089331536457e-02
3.771136339048533626e-03
3.929881737268529213e-02
7.395776664084971475e-02
1.071832513561977035e-01
1.381336298231193305e-01
1.666510518928545626e-01
1.917947291102534702e-01
2.133513834676981358e-01
2.309622019028340634e-01
2.439855300434992935e-01
2.528915966725971409e-01
2.567955316190553283e-01
2.561239605201732772e-01
2.507420626858564705e-01
2.405326577028335522e-01
2.262573852306533628e-01
2.075037303800728594e-01
1.850943830878551966e-01
1.591675044488242985e-01
1.301647263589102987e-01
9.882255748032686693e-02
6.541818193861541342e-02
3.076040655774881644e-02
-4.654894188193892460e-03
-4.008664365771099497e-02
-7.499347387729761449e-02
-1.085305010207037318e-01
-1.403021649240415447e-01
-1.694936223140614262e-01
-1.955191377555491605e-01
-2.181121942459331720e-01
-2.363201614736144540e-01
-2.503988591493228055e-01
-2.594897845149772286e-01
-2.635749941904845794e-01
-2.627176758672173373e-01
-2.564075891831830711e-01
-2.454922260261427902e-01
-2.294769258245379917e-01
-2.089985609494849905e-01
-1.844499036522261326e-01
-1.560545162697341559e-01
-1.248469779980967143e-01
-9.099523119020519468e-02
-5.542941860410657839e-02
-1.875891318182031087e-02
1.823043330862485559e-02
5.487080224813500884e-02
9.035122061202825738e-02
1.240486951164286727e-01
1.553212966087014757e-01
1.833639817548153306e-01
2.080827850678098889e-01
2.284825523503970501e-01
2.446191875796928650e-01
2.559776150444915688e-01
2.622232191787186029e-01
2.637449610010785261e-01
2.598611473400596061e-01
2.512758530679366498e-01
2.377454821723100631e-01
2.195844805113973952e-01
1.974211835645354740e-01
1.712189355245059830e-01
1.419550290146050775e-01
1.098105586368483821e-01
7.555187284693236360e-02
3.982950913948092586e-02
3.265138099252771695e-03
-3.339701588936011545e-02
-6.948426603352300668e-02
-1.042423772170088386e-01
-1.371357581169612982e-01
-1.672208427941846154e-01
-1.943801603695684277e-01
-2.176098563951060494e-01
-2.366554593368756232e-01
-2.512046456180540011e-01
-2.605365274743411952e-01
-2.652310549228023007e-01
-2.643913402124313250e-01
-2.584812704514288240e-01
-2.475135808395019787e-01
-2.314474499810014740e-01
-2.111910676249306729e-01
-1.865105047807949779e-01
-1.583361147074471287e-01
-1.270339543316075515e-01
-9.322411076980349764e-02
-5.775804886894858603e-02
-2.114261275571975573e-02
1.575170980873713891e-02
5.229280945015321591e-02
8.764190207163770341e-02
1.213076041844506070e-01
1.523692487534118178e-01
1.805216651628772095e-01
2.050358503499935259e-01
2.254047168648903032e-01
2.415803368590966338e-01
2.527362574116968075e-01
2.592985808818517590e-01
2.606576685544018113e-01
2.569511318475383166e-01
2.484678966383297716e-01
2.349058486786770872e-01
2.171773719599562891e-01
1.950519624457538459e-01
1.692389617091674403e-01
1.402252013045084400e-01
1.083985632710301739e-01
7.467848200880788934e-02
3.942960349596365960e-02
3.529598498376460003e-03
-3.243624840767313222e-02
-6.759984830520693322e-02
-1.014866052613459385e-01
-1.331780082292734757e-01
-1.621532197572487233e-01
-1.878460789560802979e-01
-2.094561275013813728e-01
-2.270601933664326832e-01
-2.396895513909963471e-01
-2.474983399840507137e-01
-2.501255279714975077e-01
-2.473717573588578023e-01
-2.397501225339709330e-01
-2.268302265761220071e-01
-2.093929073432744814e-01
-1.874751603390426291e-01
-1.616331802675651519e-01
-1.325775228253914806e-01
-1.006716472940671347e-01
-6.689430335679689976e-02
-3.173171464688674670e-02
3.863633990815129593e-03
3.926863289856518530e-02
7.357112072820287674e-02
1.061705922835812638e-01
1.362868386604815241e-01
1.632010298700710682e-01
1.865774818540889557e-01
2.055199946532999533e-01
2.201518952566259291e-01
2.297085243554168876e-01
2.341755391349656379e-01
2.335584478924291330e-01
2.275158376280747574e-01
2.167991453184444639e-01
2.010285914677749919e-01
1.809165423231910153e-01
1.567730035075644290e-01
1.290404199996345591e-01
9.861499729924280699e-02
6.581248585976930132e-02
3.163450075910306802e-02
-3.379738530471715352e-03
-3.826652921408690844e-02
-7.241261559641168355e-02
-1.049254780985461183e-01
-1.351069900205581487e-01
-1.623402928770162901e-01
-1.857639866989569954e-01
-2.052406860180436832e-01
-2.198596693337844521e-01
-2.296441593564375605e-01
-2.341575973028270363e-01
-2.332235775877510298e-01
-2.271830971356046946e-01
-2.157021858864839325e-01
-1.995244754156065836e-01
-1.786428160525566078e-01
-1.536966587068483436e-01
-1.253182159001644258e-01
-9.396904586191931474e-02
-6.064694867361511421e-02
-2.583937168754400077e-02
9.435636790922845296e-03
4.455159364043651676e-02
7.855200919512521363e-02
1.108301129436636279e-01
1.405772264129050708e-01
1.670909459775141992e-01
1.899923598451314644e-01
2.084191669690395876e-01
2.225329571379055515e-01
2.315313932201081282e-01
2.354835324123580875e-01
2.343392151771329646e-01
2.278516209355471167e-01
2.167392678434068576e-01
2.006555610858117844e-01
1.803531384759985146e-01
1.560891336483149761e-01
1.283663172133318597e-01
9.800239271080765646e-02
6.535606855903756951e-02
3.138422257857664821e-02
-3.394246563327939052e-03
-3.805173620333431039e-02
-7.200740324886377441e-02
-1.043795883973587385e-01
-1.345628643381727163e-01
-1.618936037996630828e-01
-1.856067838027434802e-01
-2.055203693208701998e-01
-2.207446644838206296e-01
-2.313795056571747444e-01
-2.368665930827736910e-01
-2.371082704609766001e-01
-2.323351598017758812e-01
-2.222047906556489649e-01
-2.074810006596224943e-01
-1.880149346673407884e-01
-1.644640805182815413e-01
-1.373608080442747237e-01
-1.071315261902630045e-01
-7.475528214253812642e-02
-4.064134357303156309e-02
-5.770809298262759984e-03
2.924157009057699527e-02
6.348033123062238325e-02
9.636046184220063704e-02
1.270441658502584614e-01
1.548915775401752959e-01
1.794277569276017947e-01
1.998440743480351944e-01
2.162224253799611695e-01
2.277211230401711695e-01
2.344383718098961289e-01
2.361666080530333556e-01
2.327067964907919562e-01
2.246275835551387323e-01
2.115654081034155087e-01
1.942597702676158167e-01
1.728250872533343419e-01
1.477692542941283493e-01
1.198104879935212586e-01
8.926779192366962601e-02
5.707279840963877526e-02
2.367477155030946190e-02
-1.004124849278482078e-02
-4.348473890171570405e-02
-7.583212887509113709e-02
-1.064818838624320696e-01
-1.347399639962882367e-01
-1.599040849271693987e-01
-1.816616041765790612e-01
-1.991810387841537744e-01
-2.125198110909246041e-01
-2.210123880035931854e-01
-2.246121695973442023e-01
-2.233516194868951366e-01
-2.169338520391791980e-01
-2.060441569797007433e-01
-1.904121607411510264e-01
-1.707190851828586653e-01
-1.473233655554561650e-01
-1.206777471540213809e-01
-9.169210181805095838e-02
-6.070033978234382066e-02
-2.868912615132959698e-02
3.795502812474066401e-03
3.584296325405372796e-02
6.685264661979495315e-02
9.602566283617450238e-02
1.227124578865247395e-01
1.463939997941202942e-01
1.663333081009228109e-01
1.824536335409654153e-01
1.940185731926989121e-01
2.010966376912827758e-01
2.033944012068583662e-01
2.008379238069866179e-01
1.938020246299979599e-01
1.820761457369530489e-01
1.663717995779291636e-01
1.467491414600918531e-01
1.238399047701538302e-01
9.822931634803311329e-02
7.036484070949967917e-02
4.115149686161079234e-02
1.102037283331749190e-02
-1.910242923468441142e-02
-4.868286713711794667e-02
-7.689419659576618438e-02
-1.031878291691345900e-01
-1.269165823282186190e-01
-1.474687662653215714e-01
-1.645615683463006462e-01
-1.775168403346759904e-01
-1.864687452518877797e-01
-1.908564790803420341e-01
-1.907874379273931664e-01
-1.863124381196875901e-01
-1.773354562161625902e-01
-1.645578181680391328e-01
-1.478149154481391281e-01
-1.278492513507858419e-01
-1.049908448024448049e-01
-7.978902235907867069e-02
-5.300109650628877234e-02
-2.502590002585054416e-02
3.283763819368049411e-03
3.146699301908675167e-02
5.872179994198027664e-02
8.461345917834353636e-02
1.084386305745448920e-01
1.297653882524894831e-01
1.481583400451319810e-01
1.630833486189272596e-01
1.745437120772440620e-01
1.819446655551557601e-01
1.854905795695136195e-01
1.848997077487176954e-01
1.802165656838784491e-01
1.717572506752798323e-01
1.593798319212608450e-01
1.437460637921547379e-01
1.248617882577548466e-01
1.033046998620795465e-01
7.951932618807773523e-02
5.392575106646936567e-02
2.723307449336722502e-02
-1.670265232033025377e-04
-2.751958724011793408e-02
-5.439056629323257841e-02
-8.000900620177893441e-02
-1.040275842335990630e-01
-1.257429376797083442e-01
-1.446960490360026941e-01
-1.605779019547797226e-01
-1.727238546883199943e-01
-1.813338841483962405e-01
-1.857247511397927542e-01
-1.860429467314065333e-01
-1.822216869561606445e-01
-1.741535224592629105e-01
-1.624026772879089697e-01
-1.467799594842525701e-01
-1.279461571072886827e-01
-1.061359441789206104e-01
-8.186615812378704449e-02
-5.577205529761433689e-02
-2.827823576308591269e-02
-1.450457824855636534e-04
2.815362439031300970e-02
5.583226126125643424e-02
8.247122658735178691e-02
1.072913674745533952e-01
1.299100364811432706e-01
1.497691917740197332e-01
1.663275718566611383e-01
1.795085909079208453e-01
1.886290187020951969e-01
1.939099376296562482e-01
1.949131051957924687e-01
1.916770657963540736e-01
1.844274281029205098e-01
1.729650692638447229e-01
1.579719816572211222e-01
1.393482098544342185e-01
1.176812630674683724e-01
9.338723207898746992e-02
6.687425426278605090e-02
3.888531561131397529e-02
9.803474020718641602e-03
-1.960224547056584402e-02
-4.883992166366249443e-02
-7.712013637946944777e-02
-1.040520479934385900e-01
-1.288537258320144041e-01
-1.510669623604095624e-01
-1.702601419404605465e-01
-1.857651056588804639e-01
-1.976755394752978678e-01
-2.052504035152004080e-01
-2.086376073920706564e-01
-2.076277112102272171e-01
-2.021103001256748244e-01
-1.925683508971926250e-01
-1.787491006894584289e-01
-1.613344155018431314e-01
-1.404540296604559757e-01
-1.166194224169019578e-01
-9.046095104851172020e-02
-6.235488322060807331e-02
-3.310476279454163673e-02
-3.171155677863746192e-03
2.666982546362450107e-02
5.590940537895774942e-02
8.378905422011631576e-02
1.098805711405587832e-01
1.335379167928007482e-01
1.542448283930960007e-01
1.717692892100431412e-01
1.854232582952022590e-01
1.953990818268120100e-01
2.010952602273547163e-01
2.025864190401336362e-01
1.999197696589693207e-01
1.928688061690018996e-01
1.821041625250022500e-01
1.673421484211968235e-01
1.492057490079323478e-01
1.279690958083876118e-01
1.040187362735019994e-01
7.808198759781606602e-02
5.044324302841018265e-02
2.189829658290184250e-02
-7.104062777696415476e-03
-3.578784175798327416e-02
-6.369132693881532359e-02
-9.006523832363216853e-02
-1.144006884130735480e-01
-1.361838245716763540e-01
-1.547442365203236803e-01
-1.700094991433489244e-01
-1.812230666052404571e-01
-1.884668105236105562e-01
-1.913707907083733728e-01
-1.898262968402895656e-01
-1.841349131103011683e-01
-1.740231407404105313e-01
-1.601366799213702896e-01
-1.424624183438552294e-01
-1.215454822146830455e-01
-9.790366690411143880e-02
-7.192330061433671595e-02
-4.441611252322880121e-02
-1.578161866728523821e-02
1.314871321615515565e-02
4.188399929599792570e-02
6.962505262766040259e-02
9.591862420846299087e-02
1.200849515299219905e-01
1.415612733578984206e-01
1.600624964344270762e-01
1.748459282776509693e-01
1.860989276229054190e-01
1.931181529686066545e-01
1.959641114268162176e-01
1.946076328921833021e-01
1.887962167210851527e-01
1.791547198295646015e-01
1.653504187111018986e-01
1.479914319983766935e-01
1.272914080847430407e-01
1.036242274784672235e-01
7.767186879571132130e-02
4.971254333659436142e-02
2.051959551820380784e-02
-9.466993754023923097e-03
-3.948095052025357710e-02
-6.904796944621013899e-02
-9.739352684330984666e-02
-1.240233112054153902e-01
-1.483438032086668024e-01
-1.696675355810808028e-01
-1.878505129879556035e-01
-2.020470698094211370e-01
-2.123416459648636845e-01
-2.181981920368776529e-01
-2.194556124987055989e-01
-2.163159309688362786e-01
-2.083689050674699117e-01
-1.962632560093874601e-01
-1.798060005940502748e-01
-1.594859618883603392e-01
-1.357706817678530353e-01
-1.089398366376691518e-01
-7.984517104335644988e-02
-4.881653504647257003e-02
-1.667623144286904668e-02
1.600674701914529124e-02
4.843537129998075341e-02
8.007329286311758165e-02
1.101267416222867779e-01
1.379995166532247963e-01
1.632052449781401515e-01
1.849344995240363998e-01
2.032276198012760160e-01
2.171992224991634579e-01
2.268695204962318246e-01
2.319686440248911463e-01
2.321725893701058197e-01
2.279792143798993198e-01
2.188940201011413400e-01
2.055381616143027168e-01
1.879452976631382777e-01
1.664546228358796953e-01
1.417490707415758333e-01
1.139933426740727396e-01
8.405629336158856879e-02
5.232493369377586023e-02
1.957705212813926066e-02
-1.357668719495379317e-02
-4.640406933537624679e-02
-7.827713679968785476e-02
-1.085144428832468255e-01
-1.364006934194000320e-01
-1.615680472236230569e-01
-1.831448289022486464e-01
-2.011089838452082557e-01
-2.147180998854598677e-01
-2.238019396700905439e-01
-2.283189297322361089e-01
-2.277863604661639618e-01
-2.228240110111954220e-01
-2.129754352209144441e-01
-1.987658896810604592e-01
-1.804738919645981210e-01
-1.583015206630061789e-01
-1.331660431622256335e-01
-1.051647364819811581e-01
-7.520407809740109473e-02
-4.377568825821792631e-02
-1.163384358900590443e-02
2.055261283146686546e-02
5.210596609390336087e-02
8.232267309235020980e-02
1.106580222987003093e-01
1.363151985894902884e-01
1.591078848129433010e-01
1.781867822745877294e-01
1.934569398724177158e-01
2.044810210478471280e-01
2.109248515903408838e-01
2.130503708189928347e-01
2.103251880113739813e-01
2.032973928260032870e-01
1.917931131237517461e-01
1.761431481760044049e-01
1.568594100530748547e-01
1.340339316772983791e-01
1.085267331311270400e-01
8.055399867699319927e-02
5.090569140705031304e-02
2.012990901529798649e-02
-1.109648575859162323e-02
-4.209384467806986940e-02
-7.224628853346300172e-02
-1.007930258109686755e-01
-1.273098984429774649e-01
-1.509181822868869427e-01
-1.715099477064495337e-01
-1.882738344350194937e-01
-2.009697351932511755e-01
-2.094157112171127488e-01
-2.130585943904597102e-01
-2.124295718710733638e-01
-2.069157522939537308e-01
-1.969755904135890856e-01
-1.827344459850626657e-01
-1.643276669888614483e-01
-1.425488550988843750e-01
-1.174185569446021815e-01
-8.979328145516493609e-02
-6.008067941527786560e-02
-2.898681902633752638e-02
2.809534964992019268e-03
3.468186197493387801e-02
6.590174661738919248e-02
9.589752161045278500e-02
1.238720569489915602e-01
1.495198409899936298e-01
1.719802157792892916e-01
1.910898368237160527e-01
2.062835064176703759e-01
2.171789054698169963e-01
2.238736873215916301e-01
2.257527600534804391e-01
2.232948859772199701e-01
2.161424107123499083e-01
2.045534676992545320e-01
1.889042112244174176e-01
1.691701899306290446e-01
1.461839962158996697e-01
1.200088220505860781e-01
9.138434472111361950e-02
6.082458527689149630e-02
2.892894423399039461e-02
-3.582947825558032914e-03
-3.612425105617837751e-02
-6.792824607064051889e-02
-9.846512582029806615e-02
-1.268481086605354746e-01
-1.528539826319130213e-01
-1.755541176718374285e-01
-1.946481330134545717e-01
-2.097327056475292717e-01
-2.202055129618042395e-01
-2.263580038393130378e-01
-2.274668999121946533e-01
-2.238996648480675034e-01
-2.155414269076361133e-01
-2.024774050056043495e-01
-1.853306993872532171e-01
-1.640273755776349707e-01
-1.394072703051668638e-01
-1.117385047827849920e-01
-8.174020360338069002e-02
-5.007888863249936040e-02
-1.736693784158020032e-02
1.558237473479221445e-02
4.817172418798831846e-02
7.952577439580708896e-02
1.091862731856589330e-01
1.362331097851586792e-01
1.603613954419893239e-01
1.808473543525358218e-01
1.972325577066884328e-01
2.093810866933955017e-01
2.166235018672237334e-01
2.193302486979414323e-01
2.169652164829540264e-01
2.097947933635134210e-01
1.980024073884700808e-01
1.815896287772306716e-01
1.613729085799572305e-01
1.373191068292060613e-01
1.102726013541257266e-01
8.067063322493772670e-02
4.921684077918048184e-02
1.668786700435137549e-02
-1.631162226873638516e-02
-4.888114369760494099e-02
-8.045181716478144729e-02
-1.100613263380191831e-01
-1.373231007035300988e-01
-1.613220307332653702e-01
-1.816521266980775373e-01
-1.978205202108157812e-01
-2.092594652373112873e-01
-2.160735339325965121e-01
-2.176481973490338451e-01
-2.143215291380331511e-01
-2.059210297657048105e-01
-1.926793830676296615e-01
-1.750878311142670674e-01
-1.532615143021499038e-01
-1.280688503524359256e-01
-9.979569877367186481e-02
-6.933421337481410207e-02
-3.730851877788687876e-02
-4.506853190417589583e-03
2.822976962590884736e-02
6.024024999900645660e-02
9.057421408862120771e-02
1.187508793123903256e-01
1.438161895000501789e-01
1.654870065218345399e-01
1.830225210670261005e-01
1.960533830961525559e-01
2.044136207575717179e-01
2.076004100225889715e-01
2.060338313743473315e-01
1.992776916509786111e-01
1.877824118019428556e-01
1.717290157910164317e-01
1.514169860732969830e-01
1.276225279319146977e-01
1.005544461528546929e-01
7.116995699589601099e-02
3.993118771476873718e-02
7.768694438016997272e-03
-2.463595573435229877e-02
-5.648642293903524680e-02
-8.692916641417203216e-02
-1.153820758574564120e-01
-1.408934684912830360e-01
-1.631665492210791490e-01
-1.813236447626957459e-01
-1.951413989251911674e-01
-2.041756480706034271e-01
-2.080971199879232958e-01
-2.070808813119947578e-01
-2.007634527732089780e-01
-1.896794084463515884e-01
-1.737796349607972080e-01
-1.535879206875747638e-01
-1.296288281755206273e-01
-1.023213628766145161e-01
-7.259590468391829976e-02
-4.088907543574160641e-02
-8.216869245030455904e-03
2.480865157855392800e-02
5.725165075636608897e-02
8.840063771075863663e-02
1.175068364575630464e-01
1.437647742424854880e-01
1.667413770810708407e-01
1.856017107547272282e-01
2.002919631730664396e-01
2.101212536877737902e-01
2.150340744825653405e-01
2.149307083144409714e-01
2.096468961757174121e-01
1.997076536669124824e-01
1.849368609740906222e-01
1.660321610487093813e-01
1.432582001472330890e-01
1.172417137272181997e-01
8.873081230188196999e-02
5.822271810011507565e-02
2.670706544800979104e-02
-5.273374460310373962e-03
-3.672574492295847814e-02
-6.703030503283707864e-02
-9.534458501867699998e-02
-1.209983087973828808e-01
-1.433994985036793346e-01
-1.618842772548354514e-01
-1.762018311022983674e-01
-1.857726743551770809e-01
-1.906456711819902172e-01
-1.905023634666708765e-01
-1.855041280020722771e-01
-1.758414316156460822e-01
-1.616622261069894373e-01
-1.436779801225595565e-01
-1.220685048727942479e-01
-9.774555967716136440e-02
-7.121202123549053020e-02
-4.327934762050100748e-02
-1.483659484452146127e-02
1.352825526184102400e-02
4.078021197113849972e-02
6.639454541468405024e-02
8.948349833674063003e-02
1.095550453194572699e-01
1.260085804115828045e-01
1.384015157168531074e-01
1.464772287281910779e-01
1.499560595255731155e-01
1.489551724371427077e-01
1.433465933073841403e-01
1.335423363183528556e-01
1.196852166977403764e-01
1.023501021725671534e-01
8.208049256900268320e-02
5.938101106969517762e-02
3.518691164633822033e-02
9.945465529609676114e-03
-1.530323674257658140e-02
-3.996765467402529914e-02
-6.325551326227678295e-02
-8.436299028513356835e-02
-1.028281210705888210e-01
-1.178898208311405793e-01
-1.292603407464912313e-01
-1.364750025587398163e-01
-1.393801323689889404e-01
-1.378407252590522769e-01
-1.319292245264419572e-01
-1.218085999075149833e-01
-1.077657225356704190e-01
-9.032835887941874364e-02
-6.985431449719368968e-02
-4.718703425719704414e-02
-2.280437226575517118e-02
2.393609305091790040e-03
2.766068077995171431e-02
5.232744473350291192e-02
7.542587180149312731e-02
9.649659383394722234e-02
1.146629327696502276e-01
1.295374240037545366e-01
1.405807815262405946e-01
1.474143104369948776e-01
1.498998440381114072e-01
1.478458745647387440e-01
1.414240247049052823e-01
1.306728431220418596e-01
1.160246712473485819e-01
9.775890997623787326e-02
7.653035291518416050e-02
5.288278506151242175e-02
2.748318749864403499e-02
1.204756787079437619e-03
-2.540334791961321864e-02
-5.130313907072107937e-02
-7.596526854317525723e-02
-9.851808783685998827e-02
-1.183044470121426550e-01
-1.348269566420744470e-01
-1.474180443680483399e-01
-1.558921501810061339e-01
-1.597994686093548999e-01
-1.591551651600055794e-01
-1.538454510586834689e-01
-1.440617671762020602e-01
-1.300558792339448488e-01
-1.121755382336423468e-01
-9.104423681122936207e-02
-6.706886010596785352e-02
-4.115172326258888236e-02
-1.380768266060962424e-02
1.400697735493967692e-02
4.157478706656097395e-02
6.815609001890851615e-02
9.281491248350383361e-02
1.150919102291116797e-01
1.340716982122901191e-01
1.494788567343758035e-01
1.606776961701436301e-01
1.673717847656058522e-01
1.694188170596125642e-01
1.666016797215703615e-01
1.591929218791924838e-01
1.471431930866617110e-01
1.309568513799250766e-01
1.108982889574261499e-01
8.761673163640369688e-02
6.170673243237129180e-02
3.380837393316348666e-02
4.833830931154588229e-03
-2.465401876128715114e-02
-5.358090869484560814e-02
-8.140243405946587241e-02
-1.071710679169515790e-01
-1.302211204154778423e-01
-1.499753116828636545e-01
-1.656874153962970830e-01
-1.771677192486560415e-01
-1.838055867721314629e-01
-1.856384043392490524e-01
-1.824207559454163741e-01
-1.742639383378428997e-01
-1.614239287403492207e-01
-1.440852221389124499e-01
-1.229280296242062365e-01
-9.824545529817382827e-02
-7.091443302881213218e-02
-4.147833633972225487e-02
-1.083072017340674237e-02
2.023481674181654838e-02
5.098303374917788344e-02
8.042225584147380535e-02
1.080220344386672582e-01
1.327684772380075540e-01
1.543250192511566310e-01
1.718964680317348892e-01
1.850804122469199842e-01
1.936191395594334952e-01
1.970704850858792934e-01
1.956918733657110332e-01
1.891555592360436300e-01
1.778843244108651578e-01
1.620137767594386768e-01
1.419674629876999106e-01
1.183791817023635423e-01
9.163553606825433628e-02
6.265606525871920962e-02
3.192691098179523818e-02
4.403957581532794152e-04
-3.117685027254201574e-02
-6.203510791204545904e-02
-9.136914602899580407e-02
-1.185397167497187210e-01
-1.426659119470908288e-01
-1.634525890787246194e-01
-1.800500869917368019e-01
-1.923768849524570557e-01
-1.999267691547888803e-01
-2.025215975709576677e-01
-2.003113563514107576e-01
-1.930080096169284887e-01
-1.812644129735326570e-01
-1.649593048342410384e-01
-1.447075871858681806e-01
-1.209798327494032294e-01
-9.420514245471915682e-02
-6.530137291145834966e-02
-3.462722510432292289e-02
-3.122168433860372794e-03
2.867524597235772410e-02
5.990365679686232570e-02
9.002353656523640058e-02
1.182855337269219098e-01
1.440857885793582760e-01
1.670119981102704543e-01
1.862954602893771294e-01
2.020199288668512172e-01
2.133887423470838263e-01
2.204859598932521481e-01
2.230991850078454797e-01
2.209657198945859657e-01
2.146260933093493417e-01
2.036269993463094563e-01
1.886378937792063115e-01
1.696892093689493786e-01
1.471175514372116133e-01
1.216033640876860306e-01
9.327530992304340629e-02
6.297372443901458339e-02
3.104550640387195720e-02
-1.810512866005850596e-03
-3.501419454726353853e-02
-6.789255274899377857e-02
-9.990540636645499351e-02
-1.303672970576057744e-01
-1.586515622333035114e-01
-1.843948744201818202e-01
-2.067157354827847959e-01
-2.256862248752820599e-01
-2.404501867909126789e-01
-2.508646147624548628e-01
-2.568458331543892470e-01
-2.577810644140492990e-01
-2.543729140085239648e-01
-2.459471225102863867e-01
-2.329879987691376164e-01
-2.157253027015856306e-01
-1.941696159101191921e-01
-1.692777315177047825e-01
-1.409749833312444467e-01
-1.100975150157626620e-01
-7.715000146035355666e-02
-4.270911034317494137e-02
-7.546113686325808811e-03
2.775960355905089660e-02
6.253039116373189377e-02
9.611524263851017880e-02
1.277998909518364978e-01
1.572578021313024155e-01
1.835963723830037475e-01
2.067095160961447964e-01
2.259574002586233754e-01
2.409556975230507381e-01
2.518353378027246570e-01
2.578390316596055332e-01
2.595034158380015721e-01
2.563585926856581376e-01
2.485780374361811207e-01
2.365847685275782042e-01
2.201123969640092493e-01
2.000620772359909538e-01
1.763220994793165131e-01
1.495238547705655952e-01
1.202093222464426514e-01
8.872487951795884897e-02
5.588749314399572149e-02
2.209999724782216873e-02
-1.190919941112954933e-02
-4.558382890982413949e-02
-7.814944834596099232e-02
-1.092689824369511287e-01
-1.380546553423570300e-01
-1.641213384426816468e-01
-1.869848458968532412e-01
-2.059045816163919129e-01
-2.211067239599772138e-01
-2.316295846235227329e-01
-2.376937840367301935e-01
-2.390237390312545673e-01
-2.353915804483622809e-01
-2.274116650594316669e-01
-2.145991274678102911e-01
-1.977104366300336258e-01
-1.768165881606520440e-01
-1.523518067158243783e-01
-1.250581777417997809e-01
-9.517312819241774413e-02
-6.360086374152473798e-02
-3.078525820109734301e-02
2.467731254337104246e-03
3.556712249819062727e-02
6.773581920266649736e-02
9.843510416335557456e-02
1.269742978859710048e-01
1.527096976933009220e-01
1.753769919822373291e-01
1.941260777239305346e-01
2.090968128045700980e-01
2.195825999538534301e-01
2.255157135744532693e-01
2.269639324498374799e-01
2.234696799831119018e-01
2.157605766635228295e-01
2.033927508219058322e-01
1.869183930403761629e-01
1.666476476838937848e-01
1.427584756874461513e-01
1.161550489882501869e-01
8.692285572359201296e-02
5.591473660596263384e-02
2.360693487605347585e-02
-9.273511516935013799e-03
-4.212139115714805954e-02
-7.422774774667675879e-02
-1.049396738079276803e-01
-1.336957016347283256e-01
-1.596700543789336679e-01
-1.827121622025310588e-01
-2.018809268475934005e-01
-2.170888466859593469e-01
-2.278516003559277747e-01
-2.337747270417188106e-01
-2.351362719257960587e-01
-2.313293221846700609e-01
-2.229061243742295195e-01
-2.096925135141732288e-01
-1.920019031252718222e-01
-1.703985367959611752e-01
-1.449906218863400154e-01
-1.166776828344912031e-01
-8.575562008772005806e-02
-5.305419480306031166e-02
-1.920109915145273849e-02
1.504990201366701759e-02
4.898331780895344434e-02
8.188553542241652772e-02
1.129639285101853574e-01
1.417460257818621838e-01
1.672970559857360484e-01
1.895185278199954526e-01
2.075408393220984915e-01
2.211383478818406689e-01
2.301159752979355932e-01
2.339159701671847391e-01
2.331045641657446543e-01
2.270472486515381916e-01
2.162484053755471813e-01
2.008268198911258295e-01
1.809686006286758686e-01
1.574788017711268584e-01
1.304152965402024800e-01
1.006911184003827509e-01
6.872717258598640133e-02
3.532912701448184811e-02
1.190588329242885796e-03
-3.296252122425107067e-02
-6.632978586349595751e-02
-9.827792483601111018e-02
-1.278976462693949268e-01
-1.548360167100618912e-01
-1.781334375048948815e-01
-1.975692157605221932e-01
-2.125221469927943141e-01
-2.225837308967663630e-01
-2.278266297058658685e-01
-2.276654309211168514e-01
-2.226089100563014012e-01
-2.123577329962247906e-01
-1.973021006062663507e-01
-1.778797621459584088e-01
-1.542618496007925610e-01
-1.273945209191197359e-01
-9.750643304028069891e-02
-6.554269249390635987e-02
-3.210831598413547983e-02
1.982317870472219412e-03
3.593305776085234382e-02
6.903795111225791148e-02
1.004327734654111293e-01
1.295932022788415794e-01
1.555854829901649194e-01
1.782518773759662056e-01
1.967176826182311100e-01
2.107768565056256926e-01
2.201647002328627756e-01
2.244337504450881204e-01
2.240342204742684640e-01
2.184397010202834277e-01
2.081971076319160674e-01
1.933668881025255581e-01
1.742426735526021453e-01
1.515622307763205834e-01
1.254428828705448640e-01
9.681812621627969295e-02
6.605925301324633292e-02
3.398281356448648594e-02
1.248960836607981156e-03
-3.145278198572078882e-02
-6.337205991152529416e-02
-9.390919893375705707e-02
-1.222547824410341183e-01
-1.480554246736456303e-01
-1.704473882803795859e-01
-1.892987139456503154e-01
-2.039667705149995069e-01
-2.141643704863978592e-01
-2.199035405785308428e-01
-2.206524914108184410e-01
-2.169617998441767392e-01
-2.084228270249436354e-01
-1.954572945788730642e-01
-1.783827086181584143e-01
-1.573201000422464468e-01
-1.331699898226222090e-01
-1.060107715646424198e-01
-7.670911663487314791e-02
-4.576188438877978881e-02
-1.387518934064621914e-02
1.824560802179538838e-02
4.997317492867443117e-02
8.055913830213370930e-02
1.094840562686311414e-01
1.359121322451530556e-01
1.596500550589075307e-01
1.798367154817167579e-01
1.962935015812082851e-01
2.086199810031471591e-01
2.163767833898617154e-01
2.198419151644042668e-01
2.184170541021449030e-01
2.125674198765180600e-01
2.021441185309378885e-01
1.873703102439726598e-01
1.687829597608416499e-01
1.464063045426292065e-01
1.210697209547954289e-01
9.300257949920159861e-02
6.295906899333977846e-02
3.152151156045265856e-02
-6.513578844853512573e-04
-3.282612707952060893e-02
-6.438103178444878893e-02
-9.449607961064879214e-02
-1.227038151508949015e-01
-1.480972432463656396e-01
-1.704426342843393671e-01
-1.889465355578442418e-01
-2.032629356443586555e-01
-2.131743660417857456e-01
-2.181134044932595550e-01
-2.184867094548062494e-01
-2.137506346663048951e-01
-2.043075059513715930e-01
-1.902888290043077968e-01
-1.718864013162578752e-01
-1.498810286187096663e-01
-1.243799982454340675e-01
-9.629899585195100808e-02
-6.608955816252690130e-02
-3.459155509197794215e-02
-2.518913194286001578e-03
2.940355337281015669e-02
6.033374530585533524e-02
8.968239211691579615e-02
1.165490907766988105e-01
1.405891870653926679e-01
1.609581373173998020e-01
1.774016912456223005e-01
1.894449808443301186e-01
1.967465845851060768e-01
1.994052507165050003e-01
1.970233260728213032e-01
1.900570452123745979e-01
1.783740881708409109e-01
1.624298326549490912e-01
1.426406147841831618e-01
1.193407644667643930e-01
9.338012594375937059e-02
6.508764830413289737e-02
3.543242060505394364e-02
4.944393069495275905e-03
-2.548575971167243992e-02
-5.514603766484964253e-02
-8.334011557635929990e-02
-1.092083174321923505e-01
-1.323197944668821902e-01
-1.517909321322117311e-01
-1.674788159710330071e-01
-1.786773552647021313e-01
-1.852117091325326537e-01
-1.869441415962902198e-01
-1.836275139713377524e-01
-1.757059174466534535e-01
-1.629756723170638633e-01
-1.460534230688201596e-01
-1.251823131810581580e-01
-1.009614480586871477e-01
-7.409334285585864044e-02
-4.508847606650091822e-02
-1.491687021957467836e-02
1.589684413757205469e-02
4.631340642592206291e-02
7.577409368860311967e-02
1.033790901718267402e-01
1.284585251793473881e-01
1.504544674352787659e-01
1.685991135990450307e-01
1.827362167460452880e-01
1.921734270250203269e-01
1.969507826203128198e-01
1.967535908902290909e-01
1.915891723745948294e-01
1.817097852829534510e-01
1.670992804162274858e-01
1.484214824208165140e-01
1.258091398529533333e-01
1.000213562620199947e-01
7.156288978286154401e-02
4.114867759337323405e-02
9.602203712467005658e-03
-2.246121972820000826e-02
-5.404148094439787525e-02
-8.458861957050960168e-02
-1.130770776205435729e-01
-1.390565145130430169e-01
-1.616765092320144037e-01
-1.803753385188058000e-01
-1.947882226020535013e-01
-2.042740860201124886e-01
-2.089766786703557699e-01
-2.083600729229533044e-01
-2.026791491417069269e-01
-1.919494788059145640e-01
-1.763897300461867157e-01
-1.566026065903457221e-01
-1.327890519111609158e-01
-1.058441663395950916e-01
-7.620023512498144691e-02
-4.479900165161386505e-02
-1.235593376437810025e-02
2.030245108562772974e-02
5.225232594437369954e-02
8.284124184360602827e-02
1.110748243724322543e-01
1.364984228320842430e-01
1.582304920130417070e-01
1.759340624775426187e-01
1.890705132585054626e-01
1.972941892799963126e-01
2.005924176630073386e-01
1.986374022377120629e-01
1.918574470035575297e-01
1.801187980732183169e-01
1.639527774304617991e-01
1.437263230599146457e-01
1.199033071042082121e-01
9.334212793421897691e-02
6.442892306573773376e-02
3.420209242124550020e-02
3.205710794199838343e-03
-2.758722960066914420e-02
-5.746587783599721444e-02
-8.567954100678272511e-02
-1.113857763834948389e-01
-1.341123134680815843e-01
-1.530358404204724965e-01
-1.679762701993781915e-01
-1.782899229987932321e-01
-1.838751879235687725e-01
-1.845569361032051436e-01
-1.802554110841366464e-01
-1.713290667971737735e-01
-1.577340095659908181e-01
-1.401402382768795474e-01
-1.187785840840454299e-01
-9.439081628470226415e-02
-6.761235673561884207e-02
-3.907448171616569738e-02
-9.738237020187282683e-03
1.986000709327196551e-02
4.867400741453659085e-02
7.615949946722350150e-02
1.014380224637462524e-01
1.239070075147230832e-01
1.430100515521746107e-01
1.581277181482814709e-01
1.690664248352441446e-01
1.753198124314767625e-01
1.769978452910457856e-01
1.738456158453771938e-01
1.660832660604004973e-01
1.539146888683373682e-01
1.375811320096048673e-01
1.177638244197039274e-01
9.470454823314169990e-02
6.929419429041457079e-02
4.200851827870027977e-02
1.370831129723504987e-02
-1.484145346706785586e-02
-4.297946119399714132e-02
-6.976573327149737658e-02
-9.469056215075355443e-02
-1.168649500691294196e-01
-1.358980650002931390e-01
-1.511342696846470213e-01
-1.622194018986805875e-01
-1.688827649123736674e-01
-1.708666189272464442e-01
-1.683117520218683771e-01
-1.610912538990727227e-01
-1.496457171269570674e-01
-1.341169770230394853e-01
-1.150929087163769793e-01
-9.310192668465216981e-02
-6.869253363971457305e-02
-4.275658229543481681e-02
-1.578316633973052621e-02
1.121425520662327514e-02
3.766431056174826542e-02
6.272592816415484274e-02
8.569054469449433054e-02
1.060167902945668428e-01
1.230009279577977954e-01
1.363454640158295872e-01
1.455423249319293122e-01
1.505091473509165279e-01
1.510004229982233326e-01
1.471140406355649355e-01
1.389474041510657121e-01
1.267346714088098958e-01
1.109911705144519256e-01
9.197243466674229206e-02
7.049325669783429449e-02
4.695841003564696359e-02
2.223958175528503722e-02
-2.973843740722834084e-03
-2.801958999885295273e-02
-5.195484752757704300e-02
-7.431443136694967921e-02
-9.418737954890452069e-02
-1.111726525376781072e-01
-1.246533648215082113e-01
-1.342151721492982896e-01
-1.396307761578357565e-01
-1.406255454674743832e-01
-1.372948541797400501e-01
-1.295808581817524119e-01
-1.178465377122013269e-01
-1.022807328284123241e-01
-8.346713138664260678e-02
-6.187921061939780087e-02
-3.814050089776696573e-02
-1.306685763514769949e-02
1.281839626693533074e-02
3.849731032148172999e-02
6.346249107578214033e-02
8.681190755283284266e-02
1.079068350418169314e-01
1.261974655549467084e-01
1.409696911064025060e-01
1.519994013402196642e-01
1.587364856326868578e-01
1.611549128991355273e-01
1.590265367593629575e-01
1.524294789092399682e-01
1.415348802138530482e-01
1.265516470525246129e-01
1.080226512229270353e-01
8.624438698627948097e-02
6.199714339240097738e-02
3.575035951115741739e-02
8.368766528203022692e-03
-1.947000640290413170e-02
-4.703349628088511480e-02
-7.342516373111514227e-02
-9.812080580417016640e-02
-1.201953264523162590e-01
-1.392731752316484772e-01
-1.546458030260255412e-01
-1.659367670641032355e-01
-1.728552213568566864e-01
-1.750900746484558845e-01
-1.727541611020002588e-01
-1.656943076321676644e-01
-1.542951343601616510e-01
-1.386919592459430195e-01
-1.194349324279736779e-01
-9.701451993517425099e-02
-7.200424357414247911e-02
-4.524242115696978928e-02
-1.725358471541954541e-02
1.093778708531414554e-02
3.878063047981349099e-02
6.533974477920770352e-02
8.994116257825995886e-02
1.119547212381529488e-01
1.306200804143574368e-01
1.456360367607286710e-01
1.563584151967999936e-01
1.627257529323385687e-01
1.643784993396670835e-01
1.613499924361104787e-01
1.537203106878284042e-01
1.416132897228966903e-01
1.255539449020514065e-01
1.057250147463826562e-01
8.291217810451842474e-02
5.751791907840064777e-02
3.041065539413913624e-02
2.277103311646776901e-03
-2.616208702381039863e-02
-5.393020799452315911e-02
-8.050559610647975428e-02
-1.048410372075303382e-01
-1.265181681475163189e-01
-1.447220858595313353e-01
-1.589509120161937961e-01
-1.688552189593369723e-01
-1.739457305481106331e-01
-1.742901051351249675e-01
-1.695866926327275481e-01
-1.601298576156447717e-01
-1.459925845540513134e-01
-1.276086868820839881e-01
-1.054642408081092469e-01
-8.005860839859049727e-02
-5.223372218643188014e-02
-2.251361955657300851e-02
8.053238925966044182e-03
3.886952596833737061e-02
6.892903757234172812e-02
9.747981031327350443e-02
1.238017693730515956e-01
1.469906487670078477e-01
1.666786120342950428e-01
1.820262796773526037e-01
1.929008655799036853e-01
1.987848728031759715e-01
1.995479339042851019e-01
1.952265011708184117e-01
1.857237672477629054e-01
1.715759411225426800e-01
1.528065909440995684e-01
1.301250847975304326e-01
1.039463261517698522e-01
7.501687327440538511e-02
4.411697194986109738e-02
1.191216084791825447e-02
-2.057146577008137425e-02
-5.272435941585620900e-02
-8.345372623173270832e-02
-1.122019191652524617e-01
-1.380441841378566292e-01
-1.603444266363764914e-01
-1.785874417424858918e-01
-1.921007709778623507e-01
-2.008231243427780477e-01
-2.042067586465782791e-01
-2.024297430691192057e-01
-1.953596336887742368e-01
-1.832351349611778812e-01
-1.664828717552785664e-01
-1.453476703664551006e-01
-1.206778423850726478e-01
-9.283610429825420174e-02
-6.280773106076935342e-02
-3.123438897852298668e-02
9.908250408170032886e-04
3.296470417048384671e-02
6.400105123383109662e-02
9.307739807939040266e-02
1.196943554089199141e-01
1.429184832761001833e-01
1.624074563299295615e-01
1.775140252616382863e-01
1.878877673786996105e-01
1.933912603779105455e-01
1.936821944970152920e-01
1.891510056377471716e-01
1.795577559907386989e-01
1.654344543376481957e-01
1.470249814572914537e-01
1.248342834920510847e-01
9.961009579915988676e-02
7.175678642187523215e-02
4.228003200445677734e-02
1.167818554498351730e-02
-1.902722068240672929e-02
-4.919130815699882670e-02
-7.798563011280409962e-02
-1.046010486815383278e-01
-1.285041050409434504e-01
-1.488470941646826973e-01
-1.653872423787017265e-01
-1.774275064088451370e-01
-1.848555830280593226e-01
-1.873727322205612222e-01
-1.848930962866127126e-01
-1.776374796224888808e-01
-1.655604300590670930e-01
-1.492735443534482509e-01
-1.289211525219060017e-01
-1.052471279115056169e-01
-7.876999646680184208e-02
-5.018574520378545067e-02
-2.036724834904553999e-02
1.011285466613371861e-02
4.020317316607477376e-02
6.937856430736351332e-02
9.663757388898359946e-02
1.214582244417882761e-01
1.431101261264072222e-01
1.609594448629250441e-01
1.747235109645344231e-01
1.837553259058261612e-01
1.882033057125643283e-01
1.875883102608289776e-01
1.821063030412735928e-01
1.718342145217833794e-01
1.569462026890107997e-01
1.380421233362849609e-01
1.153006903814494666e-01
8.956329020250781980e-02
6.124426398588268122e-02
3.124152859615345404e-02
2.265063643441603269e-04
-3.101361172933363164e-02
-6.156716600097870279e-02
-9.084036986142501879e-02
-1.178060643814351494e-01
-1.420628693693267164e-01
-1.627025772162069284e-01
-1.793410551121529528e-01
-1.914873658446696048e-01
-1.986887838816533969e-01
-2.009892645256150800e-01
-1.979871179740745335e-01
-1.900657321208520656e-01
-1.771397715384340210e-01
-1.596518344332394090e-01
-1.380423784351055005e-01
-1.127337390617179913e-01
-8.458583444448403155e-02
-5.404198567083168953e-02
-2.212340630113577428e-02
1.057561912946916594e-02
4.305636042582275391e-02
7.460242859917826097e-02
1.044117500118736941e-01
1.316098624638487591e-01
1.557382783397739945e-01
1.758673085940186120e-01
1.919077431501410580e-01
2.031010048265073920e-01
2.093178857954608452e-01
2.104282348078513887e-01
2.062024644181219002e-01
1.971173086719136269e-01
1.829791251279733189e-01
1.644404287096959960e-01
1.417515809800861670e-01
1.155316466315810531e-01
8.649626731877535502e-02
5.517851636849409325e-02
2.255743858375112640e-02
-1.081014971234407762e-02
-4.386785370535776357e-02
-7.602691096326569253e-02
-1.063292000531307763e-01
-1.341040528382718700e-01
-1.586972364162871907e-01
-1.793223129750472766e-01
-1.957608888283173254e-01
-2.072443857529114586e-01
-2.138320702038520038e-01
-2.150950946829306987e-01
-2.110587051379457235e-01
-2.019371428666200396e-01
-1.876868182333727986e-01
-1.690371487183347232e-01
-1.460679771102091073e-01
-1.196055434270638373e-01
-9.017106358109253095e-02
-5.851291199259080894e-02
-2.552127763436117663e-02
8.174340067360671286e-03
4.152067389859272900e-02
7.393854964288187892e-02
1.043625302310789982e-01
1.323342623364461845e-01
1.569611168740374096e-01
1.776844169896756587e-01
1.941138676011175124e-01
2.055868432961018011e-01
2.122501299654248330e-01
2.135155453507544820e-01
2.096459145549295633e-01
2.005940873266809088e-01
1.865418698489492433e-01
1.680543452964683993e-01
1.452568418423985652e-01
1.190200953341793710e-01
8.969193899576066720e-02
5.818827659190911605e-02
2.516970469070489019e-02
-8.547473264133881310e-03
-4.205169357758445359e-02
-7.468536170132319962e-02
-1.053900339222040017e-01
-1.336992229299517332e-01
-1.585949009939393028e-01
-1.797011861474590855e-01
-1.963354615322355223e-01
-2.080085774514031649e-01
-2.146350561142179592e-01
-2.156748939621765393e-01
-2.115217478556040975e-01
-2.018648282390394511e-01
-1.871294800316116724e-01
-1.676408695502198953e-01
-1.437367019321236783e-01
-1.163034393997547933e-01
-8.566331389985980260e-02
-5.286553319787800492e-02
-1.849429872564604949e-02
1.642449292210748646e-02
5.112463660114814623e-02
8.473876957586272407e-02
1.163291348392555130e-01
1.453188756474740884e-01
1.706855754987004758e-01
1.922006961638774158e-01
2.089741768257886989e-01
2.207910008530199197e-01
2.273315619613194560e-01
2.282599488969165036e-01
2.239149774049986608e-01
2.139636348671352661e-01
1.990117865107907946e-01
1.791524593949173905e-01
1.549474339156505787e-01
1.270627250877571224e-01
9.596134235972353377e-02
6.265098320278315869e-02
2.765578112676669170e-02
-7.947114706452200472e-03
-4.348956188903529280e-02
-7.798048381847846877e-02
-1.106626372364542948e-01
-1.407632895091778802e-01
-1.674210385826149505e-01
-1.902414587973431381e-01
-2.083406788426877543e-01
-2.216913131238462120e-01
-2.296404434583472765e-01
-2.321375836649287039e-01
-2.292076060844036034e-01
-2.206683318132567351e-01
-2.072245087434539390e-01
-1.887248833540938475e-01
-1.659722915274611243e-01
-1.393781654458537134e-01
-1.096082700402462862e-01
-7.758646706333267862e-02
-4.383538402103599740e-02
-9.441917770461268761e-03
2.499677683406151610e-02
5.842789249062996931e-02
9.025567366238437805e-02
1.195892268144324450e-01
1.457824164829529812e-01
1.683066673787514400e-01
1.864415720369781149e-01
2.001419075544998705e-01
2.087216873772891890e-01
2.123427508056968949e-01
2.107463666397206559e-01
2.040082291582365204e-01
1.925247283435157775e-01
1.762553447723353706e-01
1.560012958306877529e-01
1.319013750878325619e-01
1.047663916264909567e-01
7.517187746213201127e-02
4.378059887771218461e-02
1.149785317586293765e-02
-2.112673158638738238e-02
-5.306839543534454251e-02
-8.381487654216390748e-02
-1.123768943335086284e-01
-1.382980075080092464e-01
-1.608082811399435541e-01
-1.793260137134591037e-01
-1.935786229864335517e-01
-2.028713629386854900e-01
-2.074569756772308149e-01
-2.067484499024244415e-01
-2.009939035987999001e-01
-1.902734574333657669e-01
-1.746873834204327736e-01
-1.549591921462819266e-01
-1.311476519588481160e-01
-1.041479872908715187e-01
-7.438327724325415058e-02
-4.270372324172636708e-02
-9.856654197124713537e-03
2.342920313501167112e-02
5.621518935327636524e-02
8.789917241552477889e-02
1.174602819298286305e-01
1.444855353919293761e-01
1.680415207986898640e-01
1.877397546993704591e-01
2.030516496400336102e-01
2.134686839797577396e-01
2.190364490523362406e-01
2.192249922009607555e-01
2.144032401719487002e-01
2.043768679852123460e-01
1.894827335300561522e-01
1.701331887312868274e-01
1.465746612352439582e-01
1.196613842065919753e-01
8.970749441367334431e-02
5.767544236385491185e-02
2.415109432149832591e-02
-9.949371163419151731e-03
-4.383792049999485352e-02
-7.674130642116581968e-02
-1.077068505347645450e-01
-1.362013600050264173e-01
-1.612029633804985540e-01
-1.824874937423551224e-01
-1.991806767085158580e-01
-2.109934467464431029e-01
-2.176738497364839042e-01
-2.188102487483306602e-01
-2.147996490261865343e-01
-2.052712357854262759e-01
-1.907896434288434140e-01
-1.715223396149906099e-01
-1.479815622182618085e-01
-1.209023808293158142e-01
-9.071576982569586056e-02
-5.845208410134983268e-02
-2.464683672136059461e-02
9.607323884045490536e-03
4.364685128348069765e-02
7.650535756994437941e-02
1.073736141286828483e-01
1.355826452608339394e-01
1.602060020689431707e-01
1.809577643751493770e-01
1.969680194066741330e-01
2.081561873109739058e-01
2.140384643491409777e-01
2.144739339572929171e-01
2.096233793856276950e-01
1.992926417408532602e-01
1.841334039777363651e-01
1.641270698277505213e-01
1.400027198280385243e-01
1.122475234197877481e-01
8.150648574033000915e-02
4.870924849836426318e-02
1.440887930529834854e-02
-2.028263863128315636e-02
-5.476064718825039701e-02
-8.791691031513743093e-02
-1.191464455382177934e-01
-1.475303613719965712e-01
-1.723220643623873949e-01
-1.930533637023174043e-01
-2.088982120722475133e-01
-2.198732516372594037e-01
-2.252805860460994625e-01
-2.252253018279840036e-01
-2.196083240321952124e-01
-2.084732139191590172e-01
-1.923791655773245957e-01
-1.713629539208937069e-01
-1.462915024655470075e-01
-1.175221515067075839e-01
-8.594657044371498134e-02
-5.232634528902689597e-02
-1.743870465774263745e-02
1.768729626148897796e-02
5.238168689865718708e-02
8.553480315953712609e-02
1.165822148602671526e-01
1.445256622615140596e-01
1.688599210570581044e-01
1.889208616314932698e-01
2.041535700080190918e-01
2.144195740820703522e-01
2.191696988299078608e-01
2.187078861647918093e-01
2.127136486870700172e-01
2.015512615644757810e-01
1.854963243798886385e-01
1.648269829847591739e-01
1.403944881852697835e-01
1.124400678933451941e-01
8.199113523803269743e-02
4.958168310320640315e-02
1.617223445284282635e-02
-1.741509360399789291e-02
-5.041840468152561372e-02
-8.183413968340208511e-02
-1.110949940961840077e-01
-1.371864116185783633e-01
-1.597621345598720100e-01
-1.779881139704333204e-01
-1.915329232200009002e-01
-2.000547097775040029e-01
-2.031988967119401912e-01
-2.011944769032830149e-01
-1.937440675750478902e-01
-1.813771101576999167e-01
-1.641765221186325396e-01
-1.427196709126923035e-01
-1.176250785775004859e-01
-8.938704228629204551e-02
-5.901699331102785995e-02
-2.701922815574073211e-02
5.491187428569466178e-03
3.786541490000143451e-02
6.913963388969504575e-02
9.851032011553871592e-02
1.253050115529549258e-01
1.486518042828771369e-01
1.681962122037061746e-01
1.831732283729064492e-01
1.934894193507980809e-01
1.986753519916000521e-01
1.986909549837637956e-01
1.936041157580996597e-01
1.833863836235623268e-01
1.686457309171899288e-01
1.494166461961048409e-01
1.264940861573093933e-01
1.003015517806857687e-01
7.159879828117780842e-02
4.123702709557998392e-02
9.814770582592613479e-03
-2.159815840465650894e-02
-5.242539264102857866e-02
-8.162751862844631889e-02
-1.086227419375203618e-01
-1.326018563165839714e-01
-1.529366714779603620e-01
-1.691797683561355736e-01
-1.807592242719708309e-01
-1.876158613927506602e-01
-1.893358330691986557e-01
-1.861212360029337876e-01
-1.779105617700275921e-01
-1.650356045724536425e-01
-1.479243339353061848e-01
-1.269137745855315469e-01
-1.028618292641726301e-01
-7.615991295954585572e-02
-4.782392447572779426e-02
-1.848154745433829363e-02
1.098909014362740161e-02
3.969040531311261027e-02
6.699942693286298212e-02
9.194832928721925758e-02
1.140749708725350559e-01
1.326000628512068735e-01
1.471802935369447007e-01
1.573505321640850385e-01
1.628729873515761262e-01
1.636729252948126989e-01
1.596585213456156449e-01
1.511902570282416258e-01
1.382867994964250558e-01
1.215812049350982194e-01
1.013819729119917190e-01
7.840476294229836718e-02
5.336110390250303759e-02
2.682208203726647866e-02
-1.848585634318250515e-04
-2.716266290838696001e-02
-5.305928954173791401e-02
-7.730957936253898821e-02
-9.914238084996132572e-02
-1.178508113727206735e-01
-1.330425869799958249e-01
-1.440755394439389714e-01
-1.508325206233465110e-01
-1.529286801203507684e-01
-1.504184193976818018e-01
-1.432728574495037710e-01
-1.317313999862367024e-01
-1.161260303513288877e-01
-9.682029937367266081e-02
-7.451280588197631283e-02
-4.961326345828145912e-02
-2.308018161645396249e-02
4.563982107986641612e-03
3.237640866410838869e-02
5.958188540423068474e-02
8.552080637506148664e-02
1.091994267370348659e-01
1.302362904981096414e-01
1.477175718364005796e-01
1.613575685938755666e-01
1.706158996576030706e-01
1.751489674954685716e-01
1.749224229536492925e-01
1.696778096094095634e-01
1.597724795961169009e-01
1.451581962290089400e-01
1.263459847134288938e-01
1.036747058006994571e-01
7.777031049310233202e-02
4.930738395220329168e-02
1.891084302142685691e-02
-1.245246611976077999e-02
-4.420264633149337263e-02
-7.521178287525227824e-02
-1.049286513050458891e-01
-1.323570895229561062e-01
-1.567599278048390499e-01
-1.775830788192548915e-01
-1.939629514186132497e-01
-2.057741154593573374e-01
-2.123027236997727385e-01
-2.135510601443715850e-01
-2.093133022510020314e-01
-1.996066477625712543e-01
-1.847944402087586258e-01
-1.649819426002895606e-01
-1.409020242687702151e-01
-1.128954733015215262e-01
-8.186032011551672150e-02
-4.844863947531111159e-02
-1.357533167873040819e-02
2.183320762921468414e-02
5.699224428649135588e-02
9.077053638403517755e-02
1.225755840942053393e-01
1.512724956588456793e-01
1.764089808855728303e-01
1.971415929230429243e-01
2.129179237197427466e-01
2.234929407736312157e-01
2.282703982973276202e-01
2.275746719364376280e-01
2.209766766203525301e-01
2.088889606604682481e-01
1.915175788460143358e-01
1.692365454230217447e-01
1.428507150041244955e-01
1.127036378213867041e-01
7.986176681544285283e-02
4.489212843329995484e-02
8.898750642352598605e-03
-2.733198483084565977e-02
-6.284868362381680618e-02
-9.665938750533398238e-02
-1.280848050459215681e-01
-1.560487409487994748e-01
-1.801788147607242263e-01
-1.995380104581278569e-01
-2.138608484022281042e-01
-2.226873275049005563e-01
-2.257191287117565892e-01
-2.231372115382615762e-01
-2.146691228223552572e-01
-2.009262243966895567e-01
-1.819356594041771358e-01
-1.583862209549649347e-01
-1.308596509591267998e-01
-9.996129834510822376e-02
-6.672709793112073517e-02
-3.170629059839841224e-02
3.915995539076094767e-03
3.948669083465697338e-02
7.391057081933259665e-02
1.064446094785134744e-01
1.362614787746787015e-01
1.625015270416632074e-01
1.847420344594394859e-01
2.021145151592624589e-01
2.146295474379346369e-01
2.216047546164486015e-01
2.230708285207659292e-01
2.189888939109625454e-01
2.093165858046243943e-01
1.946645505850324587e-01
1.749882830350539820e-01
1.511296430391849410e-01
1.234399892440495999e-01
9.274353777414609534e-02
5.983614368218673901e-02
2.540078998791493736e-02
-9.482432242574927866e-03
-4.419465716815490497e-02
-7.759073701099852838e-02
-1.090815347106837696e-01
-1.376775368369120012e-01
-1.627429403520076479e-01
-1.836568649760096095e-01
-1.997345054351004900e-01
-2.108308196792176292e-01
-2.163374056979831539e-01
-2.164477549540398948e-01
-2.108918431028255491e-01
-1.999391833642644722e-01
-1.839194373621991230e-01
-1.630805270082319736e-01
-1.382857633725668722e-01
-1.098371394906639265e-01
-7.878512480636404303e-02
-4.574221953312892358e-02
-1.168508298027935710e-02
2.245840876628760197e-02
5.592881427418611162e-02
8.763088923949159670e-02
1.169893062616482182e-01
1.429612804127959880e-01
1.651696638454387966e-01
1.828218942547010228e-01
1.955351536475088692e-01
2.030525304774780659e-01
2.050185815746710383e-01
2.017259936753360572e-01
1.929285366444471184e-01
1.791695618347519392e-01
1.606317811818646357e-01
1.379130116513714588e-01
1.117140553982812756e-01
8.254746151263527010e-02
5.147649018080174138e-02
1.903959842919011186e-02
-1.362043444028286990e-02
-4.581690078939226751e-02
-7.660465254091944343e-02
-1.051213446185416123e-01
-1.307424261750900207e-01
-1.525765928504469737e-01
-1.702998227750093241e-01
-1.831984181330938433e-01
-1.911606690642754514e-01
-1.938345934011384275e-01
-1.912077209434315528e-01
-1.834449052050327322e-01
-1.706043011617843774e-01
-1.533405890456890075e-01
-1.318237363044064137e-01
-1.069196682449474051e-01
-7.914399055434903629e-02
-4.933047324538875067e-02
-1.838564882847397441e-02
1.304449513329930532e-02
4.384699105063462332e-02
7.346231457436366852e-02
1.008384876981423678e-01
1.254626256945668983e-01
1.465670655942197531e-01
1.635742647597252519e-01
1.761728063670627287e-01
1.838331088237809274e-01
1.866707647077321397e-01
1.843305017401979384e-01
1.771069565375412713e-01
1.650766631222257974e-01
1.485989873035162279e-01
1.282331757480796031e-01
1.043213076232990255e-01
7.775895705501953414e-02
4.897938531174308996e-02
1.898373548054590326e-02
-1.159133901877634071e-02
-4.188443664127913801e-02
-7.102509106552432061e-02
-9.840603874134701279e-02
-1.230641581195461021e-01
-1.446073154282889184e-01
-1.622154308442654846e-01
-1.756050151334311582e-01
-1.843111775421407417e-01
-1.880730664737972901e-01
-1.869125812729655334e-01
-1.806449197007663487e-01
-1.697209592247755638e-01
-1.541361420197882026e-01
-1.345142286603631943e-01
-1.112586407033313851e-01
-8.500706001458080419e-02
-5.658576275591936655e-02
-2.654077561877696279e-02
4.069772054345083268e-03
3.468248974785848038e-02
6.423894841543419110e-02
9.213559232809297173e-02
1.175448174960314757e-01
1.397315204367144958e-01
1.582704788203512236e-01
1.724255798246781546e-01
1.821448256793833931e-01
1.868797640326667897e-01
1.866930148192592898e-01
1.815123632911383456e-01
1.714392202980751234e-01
1.569114462658988685e-01
1.380658541795141414e-01
1.156621508250413322e-01
9.003199714621636096e-02
6.204393421001926090e-02
3.232741873195901089e-02
1.661456611591232476e-03
-2.903742931306930314e-02
-5.915783068017889390e-02
-8.765456443226432581e-02
-1.140348624211592748e-01
-1.373701171411907118e-01
-1.571951757435762764e-01
-1.729205270778325088e-01
-1.840471305597507212e-01
-1.904517301277876551e-01
-1.917031151474360151e-01
-1.880785198201103126e-01
-1.793766364259614943e-01
-1.659973362082704795e-01
-1.482398380452241982e-01
-1.265071136354026238e-01
-1.016000425099267968e-01
-7.389201275209869579e-02
-4.439211328749841090e-02
-1.366096030114767601e-02
1.732041558135736375e-02
4.779860849456337574e-02
7.699897842005562487e-02
1.040316069026914064e-01
1.283717061878434373e-01
1.491678933743001978e-01
1.661420614982598853e-01
1.786503213035906812e-01
1.865156864051981667e-01
1.895160725716625305e-01
1.875453848675456836e-01
1.808660166210655507e-01
1.694410460370046612e-01
1.538710524851737427e-01
1.343503022083493981e-01
1.115957657533317160e-01
8.618674730494482739e-02
5.875188013539500709e-02
3.022561767233597485e-02
1.134384263502333234e-03
-2.748116768703413176e-02
-5.505485526988734835e-02
-8.071394607629613083e-02
-1.038123611883004782e-01
-1.237732517057144738e-01
-1.399630288221098695e-01
-1.521053445386698066e-01
-1.597205630974819213e-01
-1.628380502735023438e-01
-1.611980731019735380e-01
-1.550218082169070033e-01
-1.444386924123666760e-01
-1.297594676385623036e-01
-1.116014827199462434e-01
-9.024516642582341985e-02
-6.660672475269230342e-02
-4.112699992558994933e-02
-1.474103546583260815e-02
1.182511759921625605e-02
3.787734438323479835e-02
6.246318458670864493e-02
8.510305294689231304e-02
1.049090735478986486e-01
1.214944846154008828e-01
1.342712178621650598e-01
1.428927740026999516e-01
1.471437574741299437e-01
1.468442831425045003e-01
1.421128128130117185e-01
1.329626007697781165e-01
1.198280848890931061e-01
1.029147602680443307e-01
8.289402413249188917e-02
6.024807422678543634e-02
3.565686755633697136e-02
9.971094256746415585e-03
-1.627010345213840761e-02
-4.201970020090312063e-02
-6.674971428140434593e-02
-8.956259901482266361e-02
-1.098060988622054646e-01
-1.269351552644953085e-01
-1.402837877221510543e-01
-1.495994509138043327e-01
-1.544401740894374986e-01
-1.547829472550174279e-01
-1.504808657509881797e-01
-1.417300244429121059e-01
-1.287096941464860311e-01
-1.118216162613225456e-01
-9.162456735656340778e-02
-6.856142045620526593e-02
-4.352667223634938687e-02
-1.702606157534000339e-02
9.934134221833632039e-03
3.666979680213841575e-02
6.237887858051044399e-02
8.615134227866731720e-02
1.074749202674996490e-01
1.254832528354318244e-01
1.398188035548371955e-01
1.499196886570892395e-01
1.555112482951724606e-01
1.564155024932412652e-01
1.525713320764166547e-01
1.441334922407812580e-01
1.312589605633270873e-01
1.144621579201553774e-01
9.405011931968404459e-02
7.083804840475171893e-02
4.535423920645170748e-02
1.843811554694005372e-02
-9.015543859604253224e-03
-3.636656995247213031e-02
-6.250771525309067878e-02
-8.688442243532329412e-02
-1.085580398736737118e-01
-1.269079208760463540e-01
-1.413853016162677223e-01
-1.514168727324665675e-01
-1.567875647170272890e-01
-1.572000358775001994e-01
-1.527358162271871822e-01
-1.433857630045561882e-01
-1.295489383917955983e-01
-1.115062191855215046e-01
-8.990660706218434051e-02
-6.541691221048373528e-02
-3.867359491996716359e-02
-1.073477144037082720e-02
1.780684340907635888e-02
4.579284651553334334e-02
7.251198946177969673e-02
9.709002813052418357e-02
1.186266523489929586e-01
1.366340018337553752e-01
1.503273800369403501e-01
1.594433076840829910e-01
1.635624580638721237e-01
1.625955707762598568e-01
1.565200384792583277e-01
1.455386545055885328e-01
1.299727013677163534e-01
1.102438325982808970e-01
8.708175639704299198e-02
6.098097812958519492e-02
3.298791432723976319e-02
3.742825528900515369e-03
-2.574070098692390202e-02
-5.451150660707403117e-02
-8.185858992705746795e-02
-1.066790007869413692e-01
-1.284635704874782236e-01
-1.463381004841461663e-01
-1.598499864825805861e-01
-1.685564668381615283e-01
-1.721284991477886051e-01
-1.705269129074062362e-01
-1.636973509681378391e-01
-1.519823413651990862e-01
-1.355591096291916542e-01
-1.151005242686080621e-01
-9.104959144214794242e-02
-6.425708020717472990e-02
-3.552661052846731171e-02
-5.600538570272872718e-03
2.439349355482558698e-02
5.383529319711329031e-02
8.157950773604649708e-02
1.069891058117103527e-01
1.292409854844056571e-01
1.476085628847932929e-01
1.616955681201772688e-01
1.709170498013863337e-01
1.751931813889648637e-01
1.742438322392494965e-01
1.682313519284912018e-01
1.572342744473554932e-01
1.416628706919140501e-01
1.219685818005626365e-01
9.867050448221842407e-02
7.262767048125146063e-02
4.436139743664503643e-02
1.497381174092261846e-02
-1.489889641432255024e-02
-4.425794658363569473e-02
-7.221902023907826595e-02
-9.811427511812326197e-02
-1.209548206580359359e-01
-1.403260685988837464e-01
-1.554469025482279054e-01
-1.660400849674092405e-01
-1.717104460885913730e-01
-1.722961153998556483e-01
-1.678389636745055147e-01
-1.583646049689826640e-01
-1.443430136640928008e-01
-1.259520091535568931e-01
-1.039460009157983922e-01
-7.876894538779596888e-02
-5.128108023969718543e-02
-2.226616488017187090e-02
7.560626001677124564e-03
3.712367102523509571e-02
6.586108913481486526e-02
9.266776134773839491e-02
1.170272907528932538e-01
1.381187745479929840e-01
1.553251276822844862e-01
1.682890861271208460e-01
1.764386946032440728e-01
1.797984345618103552e-01
1.780219278452844223e-01
1.713288525661212369e-01
1.597683309678710195e-01
1.436928991238892173e-01
1.235722330498291166e-01
9.982171882324197831e-02
7.326898213394120174e-02
4.438121117274529404e-02
1.417987507424608995e-02
-1.673374693746029762e-02
-4.739836447143826181e-02
-7.699607562850141473e-02
-1.048351936911415816e-01
-1.299380700796258503e-01
-1.518980158001393410e-01
-1.698212713546449759e-01
-1.834687663608446373e-01
-1.922896852580258387e-01
-1.960340853851407772e-01
-1.946969828081029641e-01
-1.880756410812915169e-01
-1.766536278777434688e-01
-1.603890171584183566e-01
-1.399250432210131234e-01
-1.156596193556080898e-01
-8.825892662248228937e-02
-5.853642802439933124e-02
-2.708260782693427265e-02
5.057469710766482329e-03
3.728965912199247446e-02
6.852634616132009804e-02
9.817924437971101148e-02
1.253444416718539067e-01
1.493231733490427704e-01
1.696182506134973900e-01
1.854768454027832802e-01
1.968314761850692152e-01
2.030607039839294192e-01
2.042599938669044657e-01
2.002680220319121296e-01
1.911738332708107224e-01
1.773883473033449620e-01
1.589969486274564192e-01
1.367736817181537390e-01
1.109939901904487825e-01
8.251185291368516583e-02
5.194588912010770360e-02
2.006482973567253608e-02
-1.223254240512805513e-02
-4.431372867533085735e-02
-7.515006344576610764e-02
-1.042248553506856523e-01
-1.305592201460352153e-01
-1.537328067976375390e-01
-1.730310885495454087e-01
-1.879541484820084762e-01
-1.983052302917104326e-01
-2.035324749594578098e-01
-2.039502336889776890e-01
-1.991436983101611546e-01
-1.894738640398196949e-01
-1.751234399679089671e-01
-1.563549716644645482e-01
-1.339281755179033140e-01
-1.080483714221747160e-01
-7.965574527599070254e-02
-4.921699438323540177e-02
-1.764943890632390822e-02
1.435271647912028659e-02
4.601530058980396465e-02
7.646744571785640820e-02
1.051487803248233738e-01
1.310981335759441035e-01
1.540185386736782069e-01
1.730426228320730009e-01
1.879135156461512468e-01
1.982033867936855431e-01
2.035363418273539449e-01
2.040728345509005837e-01
1.994105258398027880e-01
1.900223247968453599e-01
1.758264985931990987e-01
1.572714341592116316e-01
1.348259911128207866e-01
1.088514270699622588e-01
8.020627868961041629e-02
4.928429627551358938e-02
1.706636899436761445e-02
-1.588841236719523708e-02
-4.861996661380954543e-02
-8.044868539040944677e-02
-1.105855498135383530e-01
-1.381610367182710131e-01
-1.627425820597248607e-01
-1.833415130284126726e-01
-1.999036363814132855e-01
-2.115971230796283575e-01
-2.182531110405644403e-01
-2.197491657715526792e-01
-2.157238251654740036e-01
-2.067360390648690371e-01
-1.924596640633745026e-01
-1.735347957988104262e-01
-1.502358329461666031e-01
-1.230867521623941752e-01
-9.289578299739864597e-02
-6.012359941592471113e-02
-2.577674676415905863e-02
9.556030708732871082e-03
4.483010888795821436e-02
7.941704466163931886e-02
1.123421184159503206e-01
1.429131385630132978e-01
1.704579125639215653e-01
1.941224781982703318e-01
2.137354934421065999e-01
2.283980820168155235e-01
2.381804522498370547e-01
2.425950439065236441e-01
2.415259472488487935e-01
2.352554502475769360e-01
2.234877368890747507e-01
2.069827748323568306e-01
1.856682986334596275e-01
1.602119505742449213e-01
1.311666724120698069e-01
9.901857568617833394e-02
6.472070320300674084e-02
2.874653098145052432e-02
-7.902639947045986268e-03
-4.461071651015857675e-02
-8.037594247768933831e-02
-1.146434021644769929e-01
-1.464791358566782387e-01
-1.752063357116659115e-01
-2.003249991498685656e-01
-2.209263354941111146e-01
-2.371109917847044890e-01
-2.479423919989435787e-01
-2.535056446719713974e-01
-2.535847524171409018e-01
-2.479519340009664341e-01
-2.372259550332692368e-01
-2.210525676069127754e-01
-2.002335983068059821e-01
-1.749583859136658315e-01
-1.458253996397692598e-01
-1.136417294740054706e-01
-7.886046203169227997e-02
-4.250107506281464165e-02
-5.138165821877149764e-03
3.221493815428277951e-02
6.893027139681884297e-02
1.040218317889800570e-01
1.368986099760132191e-01
1.667777658772860994e-01
1.929046431801226813e-01
2.150415362625563986e-01
2.322433035991485761e-01
2.447075612247020526e-01
2.517221585860222044e-01
2.532703488287827431e-01
2.495037436081436466e-01
2.400514412150258625e-01
2.257643497915823305e-01
2.063245822025860932e-01
1.824572628365932481e-01
1.545953148417752443e-01
1.231579801814037811e-01
8.914199058691163469e-02
5.288117896947130969e-02
1.539505138253299821e-02
-2.271524332379415423e-02
-6.046687446616327843e-02
-9.725395625425620194e-02
-1.321176669469746601e-01
-1.643698335285250500e-01
-1.933814602904342372e-01
-2.182241847228220122e-01
-2.388546850684344913e-01
-2.542409141438787823e-01
-2.644390321530820098e-01
-2.690178790686553190e-01
-2.677103331067333114e-01
-2.609824176068833435e-01
-2.483631711260392005e-01
-2.306477264376980696e-01
-2.078374115976606151e-01
-1.805084716331107897e-01
-1.494075186543762923e-01
-1.149126428104535330e-01
-7.809384256606449748e-02
-3.946650646276951557e-02
-5.905463662125159940e-05
3.941220216644430313e-02
7.796920110508420709e-02
1.149235017017557897e-01
1.493989876140476014e-01
1.806147565525481613e-01
2.081302030643782941e-01
2.309698014703131519e-01
2.492420620403447695e-01
2.620442512768540455e-01
2.693632899952095316e-01
2.711211073523649429e-01
2.669186126041922513e-01
2.575644416738965270e-01
2.425453297075232939e-01
2.226315309873074799e-01
1.980917972576038411e-01
1.693653864537915110e-01
1.374007898647310322e-01
1.024839166977280502e-01
6.568203842076725252e-02
2.755904620957894124e-02
-1.089291017497306946e-02
-4.897317082547614220e-02
-8.575467838086847649e-02
-1.204847112148801358e-01
-1.524457583690719265e-01
-1.807359847254190743e-01
-2.051178073344706032e-01
-2.245878788326769460e-01
-2.391536725123861729e-01
-2.482164132761635056e-01
-2.515718874419783369e-01
-2.494682288816600924e-01
-2.414597798112367855e-01
-2.283228930851666227e-01
-2.098809320042611670e-01
-1.867856842993591560e-01
-1.596166955459290548e-01
-1.287664340200034285e-01
-9.531031550716617673e-02
-5.963631369751198896e-02
-2.282568980933552538e-02
1.447492242001957585e-02
5.129551441769708564e-02
8.692552165012645826e-02
1.205319273091144394e-01
1.513156671303013123e-01
1.787915650506148868e-01
2.020168460049389658e-01
2.210266330055671302e-01
2.349041783297409758e-01
2.436271501670392858e-01
2.469916421072110846e-01
2.446856466364930593e-01
2.372920937141462239e-01
2.243895232176106869e-01
2.066975693972752381e-01
1.843609971801654090e-01
1.578984341896447208e-01
1.280851920011463752e-01
9.528541186912203864e-02
6.052114440636746640e-02
2.430340773708677959e-02
-1.233592994724436176e-02
-4.875050785197043712e-02
-8.397531706246641470e-02
-1.172820421293689630e-01
-1.479212962240849250e-01
-1.750088282924887606e-01
-1.982320525461884753e-01
-2.166242881412051013e-01
-2.301786069629149500e-01
-2.382383881284793614e-01
-2.406702592719900669e-01
-2.375800319947485861e-01
-2.286560858922354056e-01
-2.146139354990043713e-01
-1.952868182795368113e-01
-1.714152078957478231e-01
-1.434613961115868142e-01
-1.120217316973711741e-01
-7.806401272426144455e-02
-4.210512760773688079e-02
-5.273905360840158707e-03
3.181390593912158948e-02
6.800185484037779560e-02
1.027067195486759399e-01
1.349071422380183627e-01
1.638440319960836611e-01
1.889949342529182452e-01
2.093876434330883551e-01
2.250810845324442422e-01
2.351449889975296692e-01
2.396540892159859659e-01
2.383800502749471306e-01
2.311469809616766291e-01
2.185296042030162589e-01
2.002637881510351825e-01
1.771824373861541346e-01
1.494821670366994759e-01
1.178807477647034752e-01
8.315772357180284402e-02
4.590618611290686601e-02
7.196682214376082243e-03
-3.233384678034711968e-02
-7.154291708883642187e-02
-1.097600482400160615e-01
-1.458719557794316835e-01
-1.792253646491590580e-01
-2.089462282188736530e-01
-2.342276465956993903e-01
-2.547492286285009122e-01
-2.695784706431045841e-01
-2.788929717783732443e-01
-2.819983114129458457e-01
-2.789837852782519612e-01
-2.699962231897132803e-01
-2.548977707758499633e-01
-2.345975169437992669e-01
-2.089958519436840856e-01
-1.790331208321938039e-01
-1.452608165576425581e-01
-1.084395584091912834e-01
-6.960425544619464056e-02
-2.941245099242584260e-02
1.100247028874923316e-02
5.091423432018338247e-02
8.919768864221921945e-02
1.252661160833024034e-01
1.580726124104963048e-01
1.870522224250830146e-01
2.115822231569706169e-01
2.309441030984257237e-01
2.451924136431511414e-01
2.535258066735227578e-01
2.562799972583090780e-01
2.531424255118849276e-01
2.442566903199928086e-01
2.301445637024743807e-01
2.107141457481578883e-01
1.869460155473534058e-01
1.589640542254560640e-01
1.276675432352700756e-01
9.372528210641517532e-02
5.782141032245025070e-02
2.095999083404365138e-02
-1.626706132057953447e-02
-5.276954824317137138e-02
-8.799690348553568242e-02
-1.208590115268108889e-01
-1.509369354289002985e-01
-1.773282871826751261e-01
-1.994346193850478066e-01
-2.169864343324490186e-01
-2.291056625966700899e-01
-2.362248729120373092e-01
-2.375065188087237544e-01
-2.332336740579146195e-01
-2.234979805466843494e-01
-2.081697738821715049e-01
-1.882249702134433100e-01
-1.634166855904495286e-01
-1.347171294697107058e-01
-1.025602462682568827e-01
-6.760770576909536089e-02
-3.084154291961205274e-02
7.232444577603303060e-03
4.557595632385158524e-02
8.355116777940363448e-02
1.201974183770380122e-01
1.549386279612896544e-01
1.868591531159466967e-01
2.154772603231140948e-01
2.401460234829944085e-01
2.602452619613986329e-01
2.757322019497117083e-01
2.858265812449474197e-01
2.908425069526359152e-01
2.903302429004988028e-01
2.843859818192013833e-01
2.733745158174896162e-01
2.571005868266542649e-01
2.364368346145893085e-01
2.113482799564936343e-01
1.825707455206861951e-01
1.506801019600434444e-01
1.161962100089866112e-01
8.002868729640333356e-02
4.270405489195194804e-02
5.137126433902849953e-03
-3.204039337060926584e-02
-6.787003380322875756e-02
-1.019108736549458882e-01
-1.331699249872340118e-01
-1.611410445888417087e-01
-1.852843512577351248e-01
-2.048092514775490258e-01
-2.198887325173082274e-01
-2.295855590763205001e-01
-2.341477653370045431e-01
-2.333084314034539197e-01
-2.269980816090351183e-01
-2.158252551006047959e-01
-1.995005374175566892e-01
-1.789129899517329925e-01
-1.542027202823201826e-01
-1.261036009567446659e-01
-9.533866962922821209e-02
-6.244330199176451046e-02
-2.843044967649810406e-02
6.172714577159250232e-03
4.028486762380273367e-02
7.339389880972080338e-02
1.044703371364279487e-01
1.329888303582862363e-01
1.582258259691540214e-01
1.794322603150648732e-01
1.964822532188419402e-01
2.084585278553450216e-01
2.156345294949946201e-01
2.173878497091239481e-01
2.137524558501917582e-01
2.049789234821437489e-01
1.907771100526733932e-01
1.720587011930954091e-01
1.486178941673079734e-01
1.212335003752063045e-01
9.043255257913962453e-02
5.669700266323651761e-02
2.108643578177815670e-02
-1.600241060991525188e-02
-5.353061594790808897e-02
-9.083109950288736911e-02
-1.269833037539687126e-01
-1.613005706689953911e-01
-1.929421056617464103e-01
-2.212580122934717508e-01
-2.456510491437686738e-01
-2.654416445021379189e-01
-2.805013953281516592e-01
-2.901548526960375796e-01
-2.945173732776744657e-01
-2.933177738324328487e-01
-2.866435509071258991e-01
-2.748647169332283369e-01
-2.579948520609516294e-01
-2.368087663494122808e-01
-2.115304737146637137e-01
-1.830008169485655145e-01
-1.518354266714556644e-01
-1.187900777951718112e-01
-8.476123387148248867e-02
-5.041361894634910357e-02
-1.677626087517225528e-02
1.560230846089716295e-02
4.569007288979598513e-02
7.307175967687484786e-02
9.692264385335214172e-02
1.167329303664494944e-01
1.322226982591345745e-01
1.427445972933565344e-01
1.486018595792426567e-01
1.492011559842421065e-01
1.449053988729662734e-01
1.357454600125649335e-01
1.219074343323409693e-01
1.041504168537610298e-01
8.247993229353411948e-02
5.792075738822788367e-02
3.076832132181106516e-02
2.013345397726240549e-03
-2.766577390970770267e-02
-5.753972630473658256e-02
-8.655027899909217837e-02
-1.142558255997583316e-01
-1.394326494000908134e-01
-1.618078799785416244e-01
-1.803734806327719209e-01
-1.946530135228408120e-01
-2.042842927721049695e-01
-2.084424969398088745e-01
-2.070670130179381729e-01
-2.008465824758918217e-01
-1.899810357738611621e-01
-1.729194476174482631e-01
-1.490660107239971666e-01
-1.207204204520078150e-01
-9.121840825412075304e-02
-6.038900738933428158e-02
-2.355545778993839434e-02
2.014120362016313948e-02
6.348967689529949610e-02
9.871481369351187141e-02
1.292241601666290762e-01
1.672753214680273715e-01
2.146492992410529155e-01
2.539763381522099905e-01
2.689158728753078265e-01
2.712070607589502913e-01
2.926694517381918104e-01
3.412902024706596649e-01
3.733137262384502719e-01
3.287581720690759823e-01
1.994190666775192966e-01
5.011323683129109696e-02
