BVP Green Neck Signal
1.581278570144561968e-02
2.440102041367445129e-02
3.385273086785182961e-02
4.289541445667086061e-02
5.091620127961718478e-02
5.784734553805687129e-02
6.400172450440834437e-02
6.925485569964917598e-02
7.334028461554811806e-02
7.603684802928023512e-02
7.722812965021270959e-02
7.709898913679509580e-02
7.561443324528717425e-02
7.274353186832760443e-02
6.848865327727760022e-02
6.291402223076657252e-02
5.622096164280540598e-02
4.855518815519303810e-02
4.003808402186533055e-02
3.084113660028575329e-02
2.119126014178160725e-02
1.129058798255258220e-02
1.423982216687493321e-03
-8.245572779864212762e-03
-1.747909131831668073e-02
-2.602856409203761420e-02
-3.375186483439858443e-02
-4.038163479168563330e-02
-4.587005650792998213e-02
-4.999779982856963900e-02
-5.271083679098802210e-02
-5.396991304456545679e-02
-5.367963035042214170e-02
-5.199350877146785566e-02
-4.882255324835162169e-02
-4.435767715290683810e-02
-3.867404414093447707e-02
-3.192010825710125954e-02
-2.435094329787438824e-02
-1.606372199154825278e-02
-7.375067896429938000e-03
1.568012686396658400e-03
1.047284076397395070e-02
1.913592381692452368e-02
2.733461869876738573e-02
3.482814612435720936e-02
4.147039501956835406e-02
4.703147114270415929e-02
5.144282184047492545e-02
5.452650018264440512e-02
5.625815598017519514e-02
5.657004186152431169e-02
5.546059629380904743e-02
5.300649407929483581e-02
4.921673204038316818e-02
4.428423337146378258e-02
3.826602480849959631e-02
3.139582101851504103e-02
2.383700942573377390e-02
1.579408201072232676e-02
7.537427644273465496e-03
-7.744082776116670286e-04
-8.835209646124270524e-03
-1.649137793301496541e-02
-2.348344504452792858e-02
-2.964853935265622173e-02
-3.481998024319932217e-02
-3.883522185386642511e-02
-4.163326423582994207e-02
-4.308818553434859422e-02
-4.324288120081110076e-02
-4.203055754329486360e-02
-3.953938272334606152e-02
-3.582379667822326030e-02
-3.098610898682652506e-02
-2.521645523091978550e-02
-1.860377178136116832e-02
-1.140922805227123638e-02
-3.763544809272555830e-03
4.071090434453681663e-03
1.190076571886486759e-02
1.952372976473586846e-02
2.669398444096428985e-02
3.327372890093825697e-02
3.902477276290756969e-02
4.385428853568379415e-02
4.758762248725578736e-02
5.015281754486854149e-02
5.147783445303041883e-02
5.151662941515226801e-02
5.031194002075455030e-02
4.784841525692465347e-02
4.426316994304599350e-02
3.959679926127379623e-02
3.402885773962277538e-02
2.769885909245609068e-02
2.077384071102706189e-02
1.349371571976923541e-02
5.997086296359982992e-03
-1.441266067869186908e-03
-8.670455872962570809e-03
-1.545758712720719796e-02
-2.162853782558525964e-02
-2.702912129751472090e-02
-3.148884191113156261e-02
-3.492745205648764562e-02
-3.722080872359825876e-02
-3.836485514144502562e-02
-3.829256114336260231e-02
-3.705300645284226313e-02
-3.466803358111034128e-02
-3.122362724856861740e-02
-2.685078746755556120e-02
-2.163220176554858654e-02
-1.578685425783740715e-02
-9.415669553260863980e-03
-2.767634827669814349e-03
4.002362144517666691e-03
1.069491884482093660e-02
1.707980189620172604e-02
2.303245610294493359e-02
2.830584309590023634e-02
3.281447150900637655e-02
3.637301333388742730e-02
3.889279162987833993e-02
4.029839727893209933e-02
4.051580808803934008e-02
3.957284434474846180e-02
3.743825472915175701e-02
3.421769590851723303e-02
2.994504198017919686e-02
2.477468343994526298e-02
1.882867376322376607e-02
1.227106613436600505e-02
5.319005515984655957e-03
-1.885117909653344359e-03
-9.068610114951749027e-03
-1.609014174778001724e-02
-2.269612470534932910e-02
-2.872097213693452014e-02
-3.399490468568865109e-02
-3.832741171877962483e-02
-4.164736461747504948e-02
-4.379230613653227466e-02
-4.476810078140514015e-02
-4.448788204693823745e-02
-4.297627087766400789e-02
-4.027428888288997477e-02
-3.642537951827778953e-02
-3.158321743548336835e-02
-2.581206804107118169e-02
-1.931484680135719945e-02
-1.221955141995333116e-02
-4.735931645569874116e-03
2.946052746372948908e-03
1.064559668058230081e-02
1.813580364382618576e-02
2.526394744184169011e-02
3.181215669514704525e-02
3.765357211508328639e-02
4.261588275224123534e-02
4.659982193881774537e-02
4.950028302753622933e-02
5.125535444572894284e-02
5.184861005599446238e-02
5.124858367120926905e-02
4.953973954024096238e-02
4.672384072979243741e-02
4.295239605888245826e-02
3.830835609439865730e-02
3.294569928669341397e-02
2.706342806912551829e-02
2.077821744980470203e-02
1.435878103252304257e-02
7.927648457758645906e-03
1.730966710519084555e-03
-4.063744068708002172e-03
-9.295323008008848226e-03
-1.376651137482815326e-02
-1.739613377300644123e-02
-2.002229378680453475e-02
-2.162509547646343164e-02
-2.211279982610282746e-02
-2.149712847797720372e-02
-1.978905712595683750e-02
-1.703748589499179400e-02
-1.335814961782171018e-02
-8.813103921891874554e-03
-3.599993941414893206e-03
2.188471169252924602e-03
8.320498090148606418e-03
1.464263758566647367e-02
2.096743912106246652e-02
2.706041876671802168e-02
3.280503595450981469e-02
3.794523655065036583e-02
4.239228276235190718e-02
4.595984931602099810e-02
4.853701207668387196e-02
5.005754206788004534e-02
5.041402801683227131e-02
4.963462617654906817e-02
4.766892973146165391e-02
4.459377890474629236e-02
4.044831796848265271e-02
3.533864780093681768e-02
2.939351261782686270e-02
2.274438215007512989e-02
1.558640391839685203e-02
8.065641372476894944e-03
4.117021181610580963e-04
-7.215672753678924189e-03
-1.458839182763947348e-02
-2.154334789864398303e-02
-2.789473580533858091e-02
-3.347044038837021507e-02
-3.816373274756297562e-02
-4.181235490367937735e-02
-4.440349851867521347e-02
-4.581406638537668941e-02
-4.606148467785951828e-02
-4.513846656948003466e-02
-4.307016792084099321e-02
-3.997505734556260071e-02
-3.587861614394544096e-02
-3.096507235183408244e-02
-2.531473054105973230e-02
-1.912316856054182071e-02
-1.254385529373946984e-02
-5.737752661056264025e-03
1.079671184939181953e-03
7.785305620687499838e-03
1.414601832457327256e-02
2.006120399657072839e-02
2.533445800561734407e-02
2.985833245229279134e-02
3.351991351750924220e-02
3.620227147554617997e-02
3.789037719858157072e-02
3.848163341969522422e-02
3.803101148251970820e-02
3.649273920402426596e-02
3.394545805421067541e-02
3.044734668492535615e-02
2.607527905349612748e-02
2.099510885846408992e-02
1.527416016747375899e-02
9.142390977798807439e-03
2.696542976839177812e-03
-3.829529995063047504e-03
-1.027992385149341902e-02
-1.648408081798346733e-02
-2.220870885121649374e-02
-2.736910011892995306e-02
-3.171133171406796680e-02
-3.520193161778956137e-02
-3.765657268144052827e-02
-3.899208897001696372e-02
-3.918693799827722979e-02
-3.813878150765113995e-02
-3.593852311330070215e-02
-3.253385241090422930e-02
-2.803013478557510665e-02
-2.249613616398941918e-02
-1.605240150292802648e-02
-8.848748405935901243e-03
-1.030216598886573610e-03
7.197880249115020529e-03
1.568458550012210434e-02
2.416285941608482465e-02
3.250935187601271953e-02
4.044065250487138830e-02
4.780241489938684418e-02
5.440717697978070255e-02
6.001373429973289042e-02
6.458393717935240197e-02
6.785081507878529261e-02
6.982435680228095409e-02
7.036217646518888591e-02
6.940689015388404326e-02
6.702548764766849687e-02
6.313132606623728105e-02
5.790562670752266716e-02
5.134547671666642166e-02
4.361773350769800051e-02
3.487986229992369458e-02
2.529202928555912208e-02
1.509729012702544157e-02
4.479228024084408108e-03
-6.287004969607871974e-03
-1.700531300160116818e-02
-2.735985927846236107e-02
-3.721002200324767528e-02
-4.624119053300879134e-02
-5.427228932412937745e-02
-6.114532557368361487e-02
-6.659562004295588311e-02
-7.066410274375460598e-02
-7.307773855858994139e-02
-7.388373567383361984e-02
-7.302803452545870988e-02
-7.046445377625464024e-02
-6.639145561735533552e-02
-6.072644873867186210e-02
-5.372487389461583218e-02
-4.546150100758364343e-02
-3.612129577032532901e-02
-2.596389675999946980e-02
-1.512584853258676018e-02
-3.916062876143914032e-03
7.482745561259680940e-03
1.879467093017791329e-02
2.980452357583535453e-02
4.025562800896083371e-02
4.997184494201682703e-02
5.872255591219767423e-02
6.633602079393723094e-02
7.271079035419641956e-02
7.763229536628594996e-02
8.116504305239181927e-02
8.311550076547692678e-02
8.354019479129341785e-02
8.246939935165537028e-02
7.985411921339806429e-02
7.596771424021779573e-02
7.072714329008455980e-02
6.438815192560791434e-02
5.707980638236383186e-02
4.892826891708673687e-02
4.025311387187736900e-02
3.111287561193780415e-02
2.179526339371163496e-02
1.246252952432952421e-02
3.306459313086105526e-03
-5.478849542297374586e-03
-1.373972717151538195e-02
-2.134007549945319410e-02
-2.814364771701042753e-02
-3.403897094379455812e-02
-3.900943372311624358e-02
-4.290688798423041017e-02
-4.581106189079788005e-02
-4.762933212001727035e-02
-4.839529473269778281e-02
-4.820984483644673302e-02
-4.699310676937701325e-02
-4.496401122385815241e-02
-4.206620809874010714e-02
-3.844021485646946512e-02
-3.420683906866645030e-02
-2.937439080819808854e-02
-2.416481977911802415e-02
-1.857244343232454867e-02
-1.276111597520699845e-02
-6.822320990623395587e-03
-8.458547397185746386e-04
5.043599952116534224e-03
1.076800814060813356e-02
1.621543042205556354e-02
2.131734697111369731e-02
2.594126661217831947e-02
3.009100691453935397e-02
3.360889165840282716e-02
3.648255695236615748e-02
3.865706438571933634e-02
4.003509057383664027e-02
4.071435858528407725e-02
4.054418894610439805e-02
3.961838110209801866e-02
3.791531012986930349e-02
3.544774317445333750e-02
3.234227872016658123e-02
2.856504305386070239e-02
2.427106168906743161e-02
1.949763417183445618e-02
1.437042313018143877e-02
8.997082340995880834e-03
3.482632158145916763e-03
-2.035364347431374912e-03
-7.462436590737631797e-03
-1.263431385332534906e-02
-1.749601810935077703e-02
-2.186934952296261739e-02
-2.570839002735793646e-02
-2.889537378313323038e-02
-3.132774284932200726e-02
-3.301075788809543221e-02
-3.380094747292525237e-02
-3.376485395808312417e-02
-3.281674777065923809e-02
-3.097759503909152182e-02
-2.829982851662644558e-02
-2.476640002778956670e-02
-2.051172439279931245e-02
-1.554533072436370747e-02
-1.000075883847861315e-02
-3.964381588260105019e-03
2.426372969187011886e-03
9.049908923231212571e-03
1.576309964654806078e-02
2.239951968932440973e-02
2.885153923664379727e-02
3.489420302997513212e-02
4.048312164135330071e-02
4.538838915322479517e-02
4.951690185394515276e-02
5.277261536232377703e-02
5.498346798397014956e-02
5.619460929200771615e-02
5.622978051441927805e-02
5.513549569196160571e-02
5.288321413192968723e-02
4.947238847454274446e-02
4.502453342634811506e-02
3.954095713498682885e-02
3.319317288490634260e-02
2.606617004887213165e-02
1.833969684061844546e-02
1.017068920988162262e-02
1.751404625014860422e-03
-6.725171681019844958e-03
-1.507390669482403314e-02
-2.305846326319922757e-02
-3.055109787807385249e-02
-3.729008402740764672e-02
-4.319308168603411269e-02
-4.805738825297663219e-02
-5.176181941397924036e-02
-5.426240740031777754e-02
-5.540091315082248946e-02
-5.526541314620862788e-02
-5.374217840116927991e-02
-5.091570482512053353e-02
-4.684096569025909818e-02
-4.157051191824708003e-02
-3.530646467666177790e-02
-2.810056757529177593e-02
-2.019140810919436632e-02
-1.171308525232575212e-02
-2.903750243626867025e-03
6.047007907130665799e-03
1.492297444736721997e-02
2.348794968001995456e-02
3.157576966061838991e-02
3.892111777618921520e-02
4.543097373536600370e-02
5.085875034320942734e-02
5.512151553930125236e-02
5.809358612009679623e-02
5.967029866985400222e-02
5.988639518808913653e-02
5.863821761853353631e-02
5.605243923775550530e-02
5.211790063846574728e-02
4.697709204849000175e-02
4.076587187571706350e-02
3.361060028507646680e-02
2.576428637036115576e-02
1.735337361965219594e-02
8.679330802177189982e-03
-9.835664543684369265e-05
-8.696060722749398772e-03
-1.691039612376608881e-02
-2.453546621108847886e-02
-3.131729663293945920e-02
-3.715979452350332002e-02
-4.180627784651080869e-02
-4.524470212821425641e-02
-4.729905415363759580e-02
-4.793397415938770167e-02
-4.716094109548316093e-02
-4.491471276271971624e-02
-4.137635067317294024e-02
-3.650060643932094562e-02
-3.048356840025287853e-02
-2.343154547198470980e-02
-1.551337591580549333e-02
-6.959168382924367513e-03
2.088430317324737728e-03
1.134989487373798574e-02
2.066824763366124224e-02
2.975538628763306839e-02
3.845604760735921168e-02
4.651609092240960308e-02
5.375366686878611799e-02
6.001622788302972411e-02
6.508310266164613056e-02
6.893454657635668392e-02
7.135733870500050868e-02
7.237891324683783101e-02
7.191663880908781559e-02
6.995986500779263761e-02
6.662057461791864865e-02
6.186362128616135214e-02
5.590711042354643001e-02
4.879369781849039744e-02
4.072577358538506664e-02
3.189255476250806021e-02
2.246143409565751550e-02
1.270024831004523680e-02
2.778163434933967474e-03
-7.036083671976653409e-03
-1.655936455162033624e-02
-2.553512172049755141e-02
-3.382155247965019929e-02
-4.119178569843984228e-02
-4.750582221721715015e-02
-5.265840410349427458e-02
-5.647461284145903482e-02
-5.902548266816649847e-02
-6.012990548947297342e-02
-5.987564646058844697e-02
-5.825898747227453711e-02
-5.530189947715692667e-02
-5.120275550908140461e-02
-4.593563615931170463e-02
-3.974609946250369508e-02
-3.271427602507896715e-02
-2.503352024182120203e-02
-1.691008034829739187e-02
-8.477524960046948360e-03
1.405151669572196615e-05
8.429950748405329319e-03
1.653448104556548906e-02
2.419657696183430060e-02
3.120898136820239241e-02
3.745619533707639226e-02
4.278956014862536628e-02
4.708297770134448057e-02
5.030633399221240420e-02
5.231278332794490893e-02
5.317475139627815539e-02
5.279200310708652422e-02
5.123380848568512280e-02
4.855849302420379987e-02
4.478388441836128608e-02
4.011641910671243094e-02
3.456597511918146209e-02
2.836105392245988344e-02
2.161399545243154752e-02
1.450738438391234973e-02
7.251674821636690596e-03
-2.308235985242629296e-05
-7.072680098873107210e-03
-1.378280205578095996e-02
-1.992210381461729726e-02
-2.540422039477527663e-02
-3.004724529021398846e-02
-3.374746518536375639e-02
-3.643995334152896892e-02
-3.800290765215885713e-02
-3.849505336821971990e-02
-3.781020001746815407e-02
-3.603536967722510698e-02
-3.318143255305282258e-02
-2.931571986039139752e-02
-2.457972173216489351e-02
-1.902178674810752271e-02
-1.284582886871097479e-02
-6.137850270132175559e-03
8.919589142024732589e-04
8.104984117553429637e-03
1.531684394444127011e-02
2.234416693415487362e-02
2.904952070200822467e-02
3.521453484186234245e-02
4.076325719442223938e-02
4.547930634086110036e-02
4.931358987894723933e-02
5.212853041678784660e-02
5.383528946530408144e-02
5.444322194844535001e-02
5.383582178152171438e-02
5.212675340333930429e-02
4.925225920512903144e-02
4.530959608132768823e-02
4.038854370060167287e-02
3.455159214175695936e-02
2.800409298605715733e-02
2.081427840481751834e-02
1.319935648987707009e-02
5.297711217949595090e-03
-2.682641031304802866e-03
-1.057942178168360704e-02
-1.820029613595833262e-02
-2.536209225042968321e-02
-3.193320939541527403e-02
-3.769817494987609541e-02
-4.262921149769630103e-02
-4.651441529020297616e-02
-4.933189050724348657e-02
-5.100874935454759174e-02
-5.146080120528478963e-02
-5.079493344757866902e-02
-4.889848130871955745e-02
-4.592177483182570408e-02
-4.187261758785068566e-02
-3.683743686209452195e-02
-3.098532647836602441e-02
-2.435518354774031738e-02
-1.716640636491201938e-02
-9.505734061074209984e-03
-1.559289792775644772e-03
6.522644682791648926e-03
1.457617753973645611e-02
2.244807221546552684e-02
2.998278109756353366e-02
3.701554468089873762e-02
4.345481240344660490e-02
4.909646114283328089e-02
5.393863340246420057e-02
5.779070012709325299e-02
6.061175958790991636e-02
6.237671732723575058e-02
6.294982869481523247e-02
6.248232088020129471e-02
6.082235249774144148e-02
5.808519035621670379e-02
5.431393891227315196e-02
4.952346594732240370e-02
4.392973480396193675e-02
3.751838238552981930e-02
3.049656872490537352e-02
2.297213236137999118e-02
1.510129254167865386e-02
7.060326678405490219e-03
-1.005047466961348293e-03
-8.919729584368112432e-03
-1.653744509768106594e-02
-2.366778930939432771e-02
-3.023895606304897662e-02
-3.603325811791956157e-02
-4.101680262642637409e-02
-4.505082937453366854e-02
-4.803592361588686355e-02
-5.001679792166120742e-02
-5.082153890417880071e-02
-5.058189914016592015e-02
-4.920867078012231000e-02
-4.674965210673931448e-02
-4.332404847231081935e-02
-3.888480852087397577e-02
-3.365470427016126198e-02
-2.762734823617521082e-02
-2.096058219821939420e-02
-1.379318138913866384e-02
-6.216779114933453781e-03
1.574974273274429813e-03
9.481643157079057763e-03
1.733267640854110198e-02
2.500343034107659068e-02
3.231357810335962893e-02
3.919717871518621499e-02
4.545376104326551148e-02
5.100303828829794162e-02
5.575104082890700030e-02
5.952806313843962693e-02
6.241258355870882291e-02
6.418534619142347852e-02
6.490880107592562898e-02
6.454113625700162726e-02
6.302227845070182410e-02
6.052446506193646936e-02
5.692788033127538228e-02
5.241325104859913264e-02
4.701516616727706432e-02
4.081158165415074701e-02
3.400262573224346885e-02
2.662135901475871577e-02
1.887525640549160902e-02
1.087681456083693619e-02
2.778252960296536452e-03
-5.262397783445399088e-03
-1.309597275370933539e-02
-2.060565790597248051e-02
-2.763033230060757753e-02
-3.405519067925023846e-02
-3.980777112164443632e-02
-4.471462754339719514e-02
-4.881710912438931571e-02
-5.194737632485783851e-02
-5.410619860626757205e-02
-5.530056113665317297e-02
-5.541832008680545874e-02
-5.462993135991311977e-02
-5.280597178355628252e-02
-5.006163129813227808e-02
-4.645160741423703943e-02
-4.197276231860601337e-02
-3.683085186279792811e-02
-3.099210469359694672e-02
-2.462519813962772003e-02
-1.782085493903659904e-02
-1.068856831675085717e-02
-3.376588380588249963e-03
4.004094725313556320e-03
1.131432015216348591e-02
1.842287194109471296e-02
2.517462672734059603e-02
3.149421259973486653e-02
3.718649273626591090e-02
4.220500457361339719e-02
4.640344683178029839e-02
4.969112128254969674e-02
5.206090395404061599e-02
5.336573846917751218e-02
5.368368148713553722e-02
5.292360158401628045e-02
5.114624712885540436e-02
4.841227759143325315e-02
4.473571235371417987e-02
4.029387526497675565e-02
3.511470266230014292e-02
2.939881552666130660e-02
2.325708949114176083e-02
1.686192832469087313e-02
1.039828080835532645e-02
4.001371142227548409e-03
-2.111762217512675073e-03
-7.829986437590813128e-03
-1.295111668519138837e-02
-1.738761036887838743e-02
-2.098909826099049775e-02
-2.366926526480963439e-02
-2.537074729669858489e-02
-2.602048123256259921e-02
-2.566393089944528014e-02
-2.424867207265041930e-02
-2.187640857448083787e-02
-1.856872012205175448e-02
-1.445850879275336828e-02
-9.659289097647216424e-03
-4.286111839345348867e-03
1.445732181039468059e-03
7.447802140748926297e-03
1.345094795572437246e-02
1.935112482102031850e-02
2.492496471919538117e-02
2.998254316826157520e-02
3.441567726786665116e-02
3.798736452234482974e-02
4.066027880070754996e-02
4.225347453539481102e-02
4.271881609041972006e-02
4.200565845796010167e-02
4.006851873431865885e-02
3.695986529231186368e-02
3.269213690034435127e-02
2.737891363654071028e-02
2.110139426616108177e-02
1.404273280875303898e-02
6.326014699184022774e-03
-1.806323048100968824e-03
-1.017737245629250602e-02
-1.856669579281308366e-02
-2.668995290348775626e-02
-3.441787022818365571e-02
-4.140534003548602959e-02
-4.756828613327566957e-02
-5.264017792336868340e-02
-5.644499986996273644e-02
-5.892907557035131916e-02
-5.986048940881301406e-02
-5.933946072321319432e-02
-5.720638905811208097e-02
-5.352383900329994726e-02
-4.836124858480249367e-02
-4.175509267877791642e-02
-3.391907599851590183e-02
-2.493428405967327427e-02
-1.504268268704934269e-02
-4.423132990629064648e-03
6.653845666362557393e-03
1.798147410629465787e-02
2.926731519610364235e-02
4.026930793576188883e-02
5.075570251959048151e-02
6.040560167011979620e-02
6.912075876028812849e-02
7.654949346391898279e-02
8.262465856986959956e-02
8.714061991519640726e-02
8.993605685823159723e-02
9.105772039959474096e-02
9.028863073789436533e-02
8.779772855261401554e-02
8.349685923863289783e-02
7.749016827599612689e-02
6.994870727702530433e-02
6.091598412989636391e-02
5.070985093099873720e-02
3.942863660083820165e-02
2.737315870167032761e-02
1.478022763009286845e-02
1.925635083552122446e-03
-1.091178765767081976e-02
-2.345728544932917242e-02
-3.542252745059067121e-02
-4.658830691937732027e-02
-5.662677763247592200e-02
-6.547081415939616511e-02
-7.278610054713248456e-02
-7.850766506714094983e-02
-8.251310764370828332e-02
-8.464607535916313097e-02
-8.506080358394534080e-02
-8.355616217812618374e-02
-8.033799391713319915e-02
-7.541597104992438239e-02
-6.889628661104592322e-02
-6.105356342244798451e-02
-5.191499392319458284e-02
-4.182985995258911571e-02
-3.092751520279190050e-02
-1.948785852755885797e-02
-7.774752828511121913e-03
3.999735324621014887e-03
1.554675546505384330e-02
2.665935962691059341e-02
3.707765295686060725e-02
4.663500747649311495e-02
5.508001070183164705e-02
6.233803426814293891e-02
6.819429457340506207e-02
7.258402109712110140e-02
7.546676350841108327e-02
7.671554308936943956e-02
7.649903243952299592e-02
7.468473617466223069e-02
7.145663505839024154e-02
6.689072204487397921e-02
6.106757807851709297e-02
5.429802048271989423e-02
4.659592416556392058e-02
3.828871010237822059e-02
2.952387565422509921e-02
2.053062782527627361e-02
1.157778054514943186e-02
2.810877386729885782e-03
-5.507427686542257575e-03
-1.323299079088248106e-02
-2.016112213236119846e-02
-2.619560388671195866e-02
-3.117407495866493863e-02
-3.505617763749381555e-02
-3.776200951328859134e-02
-3.925986438988400551e-02
-3.962563277902553249e-02
-3.879537534907485929e-02
-3.694679047339514966e-02
-3.407365696227407370e-02
-3.032689216318049455e-02
-2.585845367138033327e-02
-2.072682933744984801e-02
-1.518807641876325498e-02
-9.285479394054585098e-03
-3.240614714623829898e-03
2.821108925052811817e-03
8.771629844638386547e-03
1.443366573623104318e-02
1.973479898833933877e-02
2.451796753821032168e-02
2.872477050105197091e-02
3.223759985050171639e-02
3.503316739723817685e-02
3.702919076028809986e-02
3.821101259918019410e-02
3.857819919119818974e-02
3.809430880345471282e-02
3.686838100029216081e-02
3.484936432701726122e-02
3.215849464573055511e-02
2.883786579145490234e-02
2.496289443317632056e-02
2.068530864476817582e-02
1.603744020051493108e-02
1.119360073407777226e-02
6.225400529448662720e-03
1.276809082448682273e-03
-3.541584004430808549e-03
-8.124073250626438758e-03
-1.234980335271114102e-02
-1.614272622689077313e-02
-1.938818414583657820e-02
-2.205612022473647446e-02
-2.404597821088423626e-02
-2.535637457216262033e-02
-2.594114670132974601e-02
-2.579322006680609403e-02
-2.495682847628994186e-02
-2.341005698431519386e-02
-2.125690085286158215e-02
-1.850337433743756005e-02
-1.525062029945970649e-02
-1.157688114758356063e-02
-7.555700986937006342e-03
-3.318271457110253536e-03
1.074408436530223214e-03
5.482075715974552531e-03
9.833018892667383382e-03
1.399977142425595615e-02
1.790795946485850693e-02
2.145830693995769492e-02
2.456010322430969214e-02
2.717150484975608404e-02
2.918425516252907276e-02
3.062379730046610807e-02
3.139241511328827450e-02
3.150514947147023403e-02
3.096084434119543427e-02
2.973742494524347219e-02
2.793400439743991617e-02
2.551597935039137677e-02
2.259172149637746901e-02
1.920291485667720288e-02
1.542704856323225474e-02
1.137931874473348606e-02
7.115370151708737788e-03
2.767831970555406553e-03
-1.591139527106113193e-03
-5.838683265656032656e-03
-9.899112502615749210e-03
-1.366368802656215548e-02
-1.706157685612519695e-02
-2.001971893977625566e-02
-2.245473242603093778e-02
-2.436334022651821460e-02
-2.565109006200752551e-02
-2.635475766392812377e-02
-2.642691409178100567e-02
-2.587297810470347292e-02
-2.474968014263595473e-02
-2.302209700624921820e-02
-2.080504594979775551e-02
-1.808720424071476665e-02
-1.494551323945335700e-02
-1.145683095726457434e-02
-7.651718761506198438e-03
-3.648653080764507894e-03
5.197078685612579671e-04
4.761417134815898455e-03
9.006194356321923708e-03
1.317818791107389954e-02
1.721765233061457040e-02
2.103981031244715055e-02
2.459228326462417277e-02
2.781479631638076808e-02
3.062566435959067357e-02
3.303565744849065733e-02
3.493318719885223078e-02
3.633328838272395500e-02
3.719083752178996283e-02
3.746696831230696134e-02
3.722239569917251689e-02
3.637972992572860442e-02
3.501874926722264858e-02
3.313038846743975030e-02
3.074708921554484067e-02
2.795575290399165969e-02
2.475899681207244241e-02
2.126548773586534047e-02
1.751716704405019420e-02
1.359862091289242535e-02
9.590061731472428186e-03
5.569399043472754961e-03
1.609829680218029593e-03
-2.206681054926853264e-03
-5.803287031457816242e-03
-9.140114908553277281e-03
-1.211082882467830538e-02
-1.473103579464457233e-02
-1.690282874034609167e-02
-1.860966729971192182e-02
-1.985725242206305696e-02
-2.055857884329010191e-02
-2.081204670237920412e-02
-2.052271183747973043e-02
-1.973829213607479482e-02
-1.848369152265238319e-02
-1.672017162539617824e-02
-1.456741159937081920e-02
-1.196451512841248399e-02
-8.991308411057724256e-03
-5.677312911022740216e-03
-2.056516597941811936e-03
1.798592450159899707e-03
5.852142093452656485e-03
1.003020591822062144e-02
1.427965551554454850e-02
1.849665607216199881e-02
2.265735497891708389e-02
2.662189872123578785e-02
3.034719283825105043e-02
3.374254167588756903e-02
3.668044301553932685e-02
3.917240232945524980e-02
4.103787103797505720e-02
4.229214556027661998e-02
4.284091643153771500e-02
4.261290265217566875e-02
4.165748515544946684e-02
3.986340270880435466e-02
3.731943463821231488e-02
3.399829419136958519e-02
2.994252467339096960e-02
2.524566012354038241e-02
1.994411906262902323e-02
1.416787858954536052e-02
8.003780199995745928e-03
1.583486036789625868e-03
-4.975728690328374768e-03
-1.150863692189229084e-02
-1.792482605153638067e-02
-2.404200398339502442e-02
-2.973797807624318015e-02
-3.491286792377742976e-02
-3.937603562117129863e-02
-4.314173158847613154e-02
-4.600863916094891093e-02
-4.795754913836866584e-02
-4.893905536805871759e-02
-4.886105792307626761e-02
-4.781699640353598291e-02
-4.570661225560708474e-02
-4.262805130478247717e-02
-3.860291981746352685e-02
-3.369677994705802537e-02
-2.803539632416218383e-02
-2.168534814844119696e-02
-1.480952216914256658e-02
-7.515258704923304112e-03
8.154948581790173734e-06
7.641046504435481529e-03
1.517196922182475344e-02
2.246283094410014489e-02
2.933520511166417752e-02
3.559391473153616231e-02
4.115494139418079955e-02
4.578551715272491385e-02
4.945895428481926481e-02
5.200372476846086556e-02
5.336174366542729974e-02
5.352034121415827350e-02
5.239047866347593119e-02
5.008968336334532201e-02
4.656650156053503131e-02
4.196578235849404703e-02
3.636673938287794672e-02
2.990872648006677112e-02
2.278977083561434594e-02
1.513771106895242177e-02
7.218544657068475499e-03
-8.289479620539504101e-04
-8.714366098210519010e-03
-1.629582560076172845e-02
-2.332527915685188649e-02
-2.960102529742368246e-02
-3.500389550543429873e-02
-3.929048667489300206e-02
-4.246438003422660368e-02
-4.432082590983077441e-02
-4.486081810507049072e-02
-4.405344523825821534e-02
-4.186129228666006508e-02
-3.842607965780912849e-02
-3.371494779613509740e-02
-2.792381315087178253e-02
-2.112871673938859080e-02
-1.350745418928549213e-02
-5.258040729006248012e-03
3.466788103540186568e-03
1.241095636126558419e-02
2.141711075235878947e-02
3.022374564197596175e-02
3.866990051115645755e-02
4.651605270294259520e-02
5.361175311630775320e-02
5.977793588952089177e-02
6.484994227595412830e-02
6.876742785801744084e-02
7.135447249906369527e-02
7.266404052286835891e-02
7.257494132621938876e-02
7.113237038742982465e-02
6.839680723714031130e-02
6.436186422766075610e-02
5.925924064372667388e-02
5.308594933280393058e-02
4.606602394885302154e-02
3.835161184360337538e-02
3.009248196617641050e-02
2.155871199052817461e-02
1.286471820255593104e-02
4.251499978047666890e-03
-4.109160122173872304e-03
-1.204555931873986865e-02
-1.939437741106454088e-02
-2.601136544767549200e-02
-3.180612875041123611e-02
-3.665745031294451173e-02
-4.051706990509527928e-02
-4.337401531334762750e-02
-4.515681857674005983e-02
-4.597037134866320540e-02
-4.576624206481359758e-02
-4.465717529421435461e-02
-4.273201840923222805e-02
-4.002273207656063814e-02
-3.674189797877280839e-02
-3.289735098588299211e-02
-2.868448510385055231e-02
-2.420847641702194089e-02
-1.956444815933876605e-02
-1.493904056465920546e-02
-1.037365119843570473e-02
-6.024905664485043916e-03
-1.965388941547986483e-03
1.719854507797535185e-03
4.955866326580706666e-03
7.690206534187246298e-03
9.889645863711172755e-03
1.151961961920717169e-02
1.257181188702084437e-02
1.308300264736385332e-02
1.302368151193381007e-02
1.249000278527958793e-02
1.147356974002850145e-02
1.006979717526429105e-02
8.355541824999737979e-03
6.362910449620638731e-03
4.246048565322337216e-03
2.008938367781446833e-03
-1.885433534667083771e-04
-2.304097987336815347e-03
-4.250142348974313145e-03
-5.909188778112126061e-03
-7.277588687583476032e-03
-8.214000024285159768e-03
-8.736023380897203414e-03
-8.757724476976007019e-03
-8.250786578237611843e-03
-7.225061318847824515e-03
-5.627844481222710887e-03
-3.516650220487516770e-03
-8.754067222009713489e-04
2.247810942528048490e-03
5.808234947857078209e-03
9.751432415767025824e-03
1.401260413925793126e-02
1.849823678833705659e-02
2.314138688426562243e-02
2.783804653810230054e-02
3.246689003677460938e-02
3.697548415162499325e-02
4.117973747204012325e-02
4.505732803085854554e-02
4.844795977193688818e-02
5.124272436621558902e-02
5.341497106097155279e-02
5.477434925686047729e-02
5.538248827312183820e-02
5.508444281798276221e-02
5.386220081852476083e-02
5.173998997696392654e-02
4.863686378523970899e-02
4.467748614366078008e-02
3.982720129744615756e-02
3.417538711728816681e-02
2.782110110338410422e-02
2.084635225311500667e-02
1.339030306925923647e-02
5.591020902595447532e-03
-2.417519372605192278e-03
-1.046877040958172841e-02
-1.837601456032150748e-02
-2.604356750092596054e-02
-3.321964507322876237e-02
-3.983256134523503744e-02
-4.569488106873730027e-02
-5.064681589656266913e-02
-5.467669189895697779e-02
-5.754945153927744361e-02
-5.932835219147852834e-02
-5.987132340444803469e-02
-5.915674584794201885e-02
-5.725554723040973681e-02
-5.407358058204041196e-02
-4.979013235441481777e-02
-4.437407239670154713e-02
-3.796110992670323481e-02
-3.067815962295721358e-02
-2.262647890974388634e-02
-1.400775506847827534e-02
-4.948104869053662411e-03
4.339361006537220330e-03
1.369867134491272592e-02
2.288146188701465494e-02
3.177532194824110590e-02
4.011228153952531295e-02
4.773989664363771646e-02
5.450979292439230017e-02
6.017765548164411005e-02
6.476792587881533003e-02
6.800567128736717537e-02
6.990912102244975501e-02
7.039561690862468357e-02
6.938855036643565288e-02
6.703605574067585116e-02
6.322328761383133600e-02
5.815197615296710532e-02
5.185836021921076677e-02
4.449004605312267824e-02
3.626033453592528155e-02
2.728075347095760411e-02
1.782720032859396592e-02
8.053785408042605717e-03
-1.770527017772904714e-03
-1.146241566966281489e-02
-2.076686637168214875e-02
-2.951005079793573779e-02
-3.748523687059863996e-02
-4.449304785777720428e-02
-5.045772267216744322e-02
-5.514523542163064784e-02
-5.859762680118596467e-02
-6.063930209360621215e-02
-6.127295738334660735e-02
-6.053800040003198824e-02
-5.835181884071025116e-02
-5.493809665352386573e-02
-5.021963730269772552e-02
-4.438978893686465477e-02
-3.756002587811449467e-02
-2.983412534277791670e-02
-2.147381301419073324e-02
-1.254749185479387200e-02
-3.312411039557601466e-03
6.087193083025759302e-03
1.542319612437784149e-02
2.453813076778429969e-02
3.321756571239352362e-02
4.129436118979022685e-02
4.861680261573339545e-02
5.497312013477875792e-02
6.034159608365317895e-02
6.448133444781409263e-02
6.740471464446884386e-02
6.899542309183068212e-02
6.919477984733481135e-02
6.809824389496406394e-02
6.558789449843763220e-02
6.185260511925140536e-02
5.687328686936118927e-02
5.079105213450134382e-02
4.377275954865879337e-02
3.590262657426772364e-02
2.744216207085978590e-02
1.850240902288192296e-02
9.337107716241251076e-03
1.172698962794193125e-04
-8.923324834688602797e-03
-1.760997472929580129e-02
-2.573655763836487156e-02
-3.310893203968370835e-02
-3.962234961714268533e-02
-4.504040338837476953e-02
-4.939491404003451547e-02
-5.246967747553349382e-02
-5.426554706018148211e-02
-5.477779723489151209e-02
-5.390120536861663092e-02
-5.186004694344963084e-02
-4.851573963271217649e-02
-4.406094694464825212e-02
-3.857190840918932329e-02
-3.211844357284376894e-02
-2.496265334002839217e-02
-1.711949551658482199e-02
-8.839225100404040150e-03
-2.422920265251829464e-04
8.495531094531889871e-03
1.719240765852526540e-02
2.570109463627026983e-02
3.385884356235303871e-02
4.152435119478536940e-02
4.853012709901861899e-02
5.482216727283834024e-02
6.019479036845606923e-02
6.465725490718463031e-02
6.806625927766747630e-02
7.035702876804184047e-02
7.158813039217204466e-02
7.158881544843748168e-02
7.053525425741768995e-02
6.831773742684695006e-02
6.500517365762283062e-02
6.073127670454379901e-02
5.543051403231524787e-02
4.936879781197615891e-02
4.251741718769252998e-02
3.503461094300523715e-02
2.709246604065709482e-02
1.874060917737370435e-02
1.021977362399763625e-02
1.607505233369998631e-03
-6.948966245853720192e-03
-1.527957217420618588e-02
-2.327475511673442188e-02
-3.082893218595831111e-02
-3.777791866096150142e-02
-4.408919072584233101e-02
-4.963477159035327435e-02
-5.433106673797116759e-02
-5.823395706599324151e-02
-6.116343312134675525e-02
-6.323189465560513645e-02
-6.436804434610596259e-02
-6.455742961373175937e-02
-6.396086086697555517e-02
-6.243533601658243781e-02
-6.017712384370907386e-02
-5.715715456099057512e-02
-5.340990732650108264e-02
-4.911168385769613953e-02
-4.417957122477311760e-02
-3.879547895799312363e-02
-3.297082680807397748e-02
-2.675072721518731086e-02
-2.027468128222057603e-02
-1.354144853726119493e-02
-6.651751669442564768e-03
3.093555193737652226e-04
7.308319896178697844e-03
1.423682637486786175e-02
2.100324251906609055e-02
2.760549915384340192e-02
3.385711647389429840e-02
3.975129827220806600e-02
4.518930384465778827e-02
5.001910769833987913e-02
5.432809383272649284e-02
5.786100216584903755e-02
6.066257113426812286e-02
6.265350132534544536e-02
6.370850690002967387e-02
6.397224314893489028e-02
6.323619406140819355e-02
6.161346331387236586e-02
5.908585887786507729e-02
5.564171848508268903e-02
5.144102972205491509e-02
4.643634731633081159e-02
4.078471479523965160e-02
3.455737797701959046e-02
2.786390321554857788e-02
2.084439308691206014e-02
1.362025313789842935e-02
6.321536753117833717e-03
-9.061216250378202955e-04
-7.908557116663076855e-03
-1.460831213799390280e-02
-2.079139092740638767e-02
-2.643702442215385348e-02
-3.136884430441842786e-02
-3.549191416261039678e-02
-3.880782546507668962e-02
-4.111707225612816485e-02
-4.253608770701547415e-02
-4.290753894180567019e-02
-4.225727354634925548e-02
-4.064698821859877298e-02
-3.798075845739383449e-02
-3.446390693594052201e-02
-3.001492218584364199e-02
-2.477169427002167551e-02
-1.883179732937434805e-02
-1.224678588236478155e-02
-5.217936521681636533e-03
2.204018007603249923e-03
9.839664030945018819e-03
1.756821549328071996e-02
2.521612511177330831e-02
3.267670307613540492e-02
3.975790954724388315e-02
4.634111009620658916e-02
5.230124913857776836e-02
5.744614954879700974e-02
6.179077625307291544e-02
6.509825463676752189e-02
6.738553976290367897e-02
6.856359963007278846e-02
6.853745904299558822e-02
6.743470833680853538e-02
6.509847913636002126e-02
6.169233718399427802e-02
5.720904942922334924e-02
5.170154626241003915e-02
4.537119962343044710e-02
3.820905779763546228e-02
3.045257721749592555e-02
2.219151042064823262e-02
1.357328500423921926e-02
4.804821485950322435e-03
-4.002348772235424235e-03
-1.266701398414165486e-02
-2.103086863986856209e-02
-2.897310869324775870e-02
-3.635201950239191904e-02
-4.302271642904134663e-02
-4.897177336299379791e-02
-5.401713482001797850e-02
-5.816377237683084678e-02
-6.136553967214335159e-02
-6.351807425987350542e-02
-6.479328404621637061e-02
-6.501467538503151455e-02
-6.431897132936287287e-02
-6.273110534550967177e-02
-6.021460966378026913e-02
-5.701321240627750531e-02
-5.300294045223868933e-02
-4.836413058157433553e-02
-4.315410323132055914e-02
-3.738618890230158143e-02
-3.126263002953347248e-02
-2.474708893481914265e-02
-1.797208541819459923e-02
-1.102391521915566802e-02
-3.939482957982442732e-03
3.157434773082454151e-03
1.020010073640444798e-02
1.714606828227082866e-02
2.385684363627330745e-02
3.029383163378006685e-02
3.639294044921045912e-02
4.200388041392805194e-02
4.717563602412370993e-02
5.171749880333612048e-02
5.561741477687261181e-02
5.884945650075899815e-02
6.124620736900916740e-02
6.293516436043158913e-02
6.372694757173287539e-02
6.366982481326656507e-02
6.278386462601535933e-02
6.097040312347654090e-02
5.841496319421843331e-02
5.501031140863778257e-02
5.087450018856290446e-02
4.608853518508820857e-02
4.066934129774109341e-02
3.480897314188191594e-02
2.853023543204172285e-02
2.197206120941911506e-02
1.525981593596536026e-02
8.496963816512907372e-03
1.798425267009726158e-03
-4.697374095263905092e-03
-1.091994712489720298e-02
-1.674107931245700717e-02
-2.205616375186689876e-02
-2.686115209796925349e-02
-3.098024548827392130e-02
-3.446098654002313633e-02
-3.719811110442464153e-02
-3.914964404800877484e-02
-4.039555959977476907e-02
-4.078837018683356686e-02
-4.046985150007126331e-02
-3.936271642542006621e-02
-3.750085143256902398e-02
-3.498837273833887984e-02
-3.175405171745207533e-02
-2.796445572470889970e-02
-2.359218729935159617e-02
-1.872848654084378894e-02
-1.346697893878109550e-02
-7.846621026440004504e-03
-1.992328507539834620e-03
4.030581931390225456e-03
1.011119475928676410e-02
1.616419015405792456e-02
2.204784512088337617e-02
2.772207976412787919e-02
3.301501623158333010e-02
3.785169483380146360e-02
4.215234294345664157e-02
4.574167510845941753e-02
4.868349041623488971e-02
5.075776518535876636e-02
5.198299985256368827e-02
5.231265671978868603e-02
5.165085017360422637e-02
5.013093944766691679e-02
4.762284180247058907e-02
4.425019685717190843e-02
4.004109792037262305e-02
3.504033052326224751e-02
2.941937142265425506e-02
2.320517360117982028e-02
1.657679903884662007e-02
9.643568412400178175e-03
2.551331389559304951e-03
-4.550287694225821009e-03
-1.151289698621056276e-02
-1.820971607544479010e-02
-2.449312233577343595e-02
-3.022999987498859245e-02
-3.535572908970148476e-02
-3.969970041797550586e-02
-4.327914044708078278e-02
-4.596161655631551823e-02
-4.772219586055562179e-02
-4.859547721465945491e-02
-4.847110573622406826e-02
-4.750909201561923090e-02
-4.561978657570112117e-02
-4.289382355434037675e-02
-3.942353148807492547e-02
-3.518657396517152480e-02
-3.039601939442573494e-02
-2.502223552395703432e-02
-1.920608669954959602e-02
-1.305379325017878844e-02
-6.622300884971650883e-03
-7.030632207911599596e-05
6.542030422503526850e-03
1.310625313806249373e-02
1.951375773321942231e-02
2.566420223283180646e-02
3.150243211059947090e-02
3.688036096994661006e-02
4.177678881615738693e-02
4.608025149804011178e-02
4.970569963865648089e-02
5.268386985659154198e-02
5.484459339938300981e-02
5.626561254893945596e-02
5.685303888833094510e-02
5.658996157253756709e-02
5.556811362565630685e-02
5.367669121911991525e-02
5.107207304829608496e-02
4.771899883509538032e-02
4.368534218892405896e-02
3.910305029168595348e-02
3.396624744480308128e-02
2.845449392022994864e-02
2.261497217977144827e-02
1.655798770625226124e-02
1.042124597536142269e-02
4.281881457842045061e-03
-1.742352370333213711e-03
-7.539247635036864029e-03
-1.303859647906393388e-02
-1.814259061127514519e-02
-2.275423083008856762e-02
-2.688948516447920919e-02
-3.040554353438195898e-02
-3.333323117025452365e-02
-3.563518739196261387e-02
-3.724258613681943886e-02
-3.829824549761115526e-02
-3.865447607983132916e-02
-3.842916092997289423e-02
-3.762219720001946932e-02
-3.620243517945793965e-02
-3.434358266902574897e-02
-3.192783132598639440e-02
-2.908754671001547928e-02
-2.583300228699826964e-02
-2.215803530236035504e-02
-1.819576654471113247e-02
-1.388944273890439091e-02
-9.331017789188081682e-03
-4.555475467547644500e-03
4.177280578410219256e-04
5.508439427047182729e-03
1.067616530523886678e-02
1.588598796369736568e-02
2.103987628197345403e-02
2.609161487770404395e-02
3.098967204344796680e-02
3.559626079382600949e-02
3.993315411618728050e-02
4.383344571668033873e-02
4.725056434999053145e-02
5.015201160061485974e-02
5.236481354783821540e-02
5.397494517633186217e-02
5.480366249158134806e-02
5.485590686170574437e-02
5.414229077308825577e-02
5.254970507377534905e-02
5.023115742637181136e-02
4.708243816072738008e-02
4.318979744526769970e-02
3.862998576593641709e-02
3.341087227149827643e-02
2.770451826369014006e-02
2.154149649551725595e-02
1.504807695148570670e-02
8.352243296129732361e-03
1.557333555035470430e-03
-5.216739819865184175e-03
-1.182710729377022679e-02
-1.819449616920497739e-02
-2.418148505153495248e-02
-2.967464900958824078e-02
-3.464962277613449493e-02
-3.892756391265274341e-02
-4.253828952877249103e-02
-4.536546416696894679e-02
-4.735811583205939979e-02
-4.857596376258760396e-02
-4.887411142556732924e-02
-4.838271899355744976e-02
-4.702125430364118008e-02
-4.482393912942948810e-02
-4.188823665810116614e-02
-3.815596646827927596e-02
-3.379451726432243508e-02
-2.878861829249647689e-02
-2.323811733136114249e-02
-1.724783143502722424e-02
-1.087586702857877910e-02
-4.253416042179965564e-03
2.528686296621937991e-03
9.355412605961326705e-03
1.611907457768756158e-02
2.266526712186577031e-02
2.895502908575613848e-02
3.478730842361270337e-02
4.010036444894628238e-02
4.479127312909814140e-02
4.869452590346663723e-02
5.187036796441774067e-02
5.409318056508846673e-02
5.540596494722554999e-02
5.574380542352000423e-02
5.503759334263247371e-02
5.341727877046693884e-02
5.076195032446763344e-02
4.721982909532339290e-02
4.280546215736301396e-02
3.759469641343010649e-02
3.174741013363278908e-02
2.530978156428029952e-02
1.846858230360825387e-02
1.132697544761639488e-02
4.054221211142171669e-03
-3.219686839265861050e-03
-1.031946609024782940e-02
-1.713185701824291446e-02
-2.349914455105308470e-02
-2.927585135475043940e-02
-3.441100474859869196e-02
-3.870248728895891999e-02
-4.218933237510541501e-02
-4.470956636500535153e-02
-4.623568667677782629e-02
-4.679735415233739204e-02
-4.626362163930614058e-02
-4.480791324851378377e-02
-4.231361888041866581e-02
-3.888241838055214727e-02
-3.459174678255215463e-02
-2.943793184263339760e-02
-2.363087694998914148e-02
-1.715764264827940311e-02
-1.018624957207968536e-02
-2.820362202917278335e-03
4.811025394885304167e-03
1.257245818726170777e-02
2.032169838189271105e-02
2.792045568142420553e-02
3.524058391052529993e-02
4.208841561902706974e-02
4.843126726036245389e-02
5.402435569229746548e-02
5.883205259938789622e-02
6.271858115241882303e-02
6.553660838008260048e-02
6.734462822981863994e-02
6.792243723707920566e-02
6.736869281000833209e-02
6.559674275094729001e-02
6.260130051472910517e-02
5.851366654813107415e-02
5.326733515478795922e-02
4.706520900844887723e-02
3.993828289231747541e-02
3.203485887787502207e-02
2.352864445321469281e-02
1.454784538488119658e-02
5.297804912115100170e-03
-4.053732212654866801e-03
-1.330507393890419110e-02
-2.229531375794988404e-02
-3.078282554650620464e-02
-3.869061201856197063e-02
-4.576719194401714097e-02
-5.190671619961244321e-02
-5.701674985590185485e-02
-6.088530757302254570e-02
-6.363184724481998900e-02
-6.501305799040105193e-02
-6.510536478893098888e-02
-6.390523127873515286e-02
-6.135071362119125238e-02
-5.767060206486807061e-02
-5.275501954624674250e-02
-4.681327779816747692e-02
-3.991955675962845229e-02
-3.217662310895952338e-02
-2.380996406124684731e-02
-1.488747744351129679e-02
-5.631078287371082958e-03
3.819781081738749407e-03
1.327269357184608298e-02
2.257985983212037681e-02
3.153073550299592687e-02
4.000928957663911489e-02
4.782468790531511915e-02
5.481327317259990228e-02
6.092610706868112347e-02
6.591468549708152935e-02
6.983426238138376596e-02
7.248935561213837309e-02
7.385053300180649538e-02
7.396256199354343808e-02
7.267032234254169887e-02
7.018759588617168310e-02
6.639576649088348159e-02
6.143156584148325161e-02
5.541796633892977220e-02
4.837567869421194322e-02
4.058249684643157329e-02
3.206656685574804655e-02
2.305651388787514564e-02
1.371880597360751290e-02
4.227855271466327697e-03
-5.221820704062792723e-03
-1.444749903561753576e-02
-2.327789223584691633e-02
-3.155693424661733248e-02
-3.907533092815426712e-02
-4.581756281803693598e-02
-5.152855359175365080e-02
-5.621008080318451450e-02
-5.975657706632073185e-02
-6.204905215207739966e-02
-6.322817094897657808e-02
-6.308257950046994300e-02
-6.178432483276515008e-02
-5.928711284255738789e-02
-5.560983739740474330e-02
-5.095444520623233775e-02
-4.523278427244944999e-02
-3.868582667452337420e-02
-3.133538694421965365e-02
-2.330761189911555870e-02
-1.477996400656076195e-02
-5.823139377886674822e-03
3.375089105508930105e-03
1.269267248631631220e-02
2.196841572703174192e-02
3.107398621205232150e-02
3.980070018206825766e-02
4.809329969557819828e-02
5.571460274184299177e-02
6.255544078556538046e-02
6.852883483280695909e-02
7.338446169129683727e-02
7.722299878873044310e-02
7.975896204691292068e-02
8.101326247309677264e-02
8.095487318366077767e-02
7.943796705364838950e-02
7.668112301078690296e-02
7.250180043010742703e-02
6.706997217913347742e-02
6.044851093205309833e-02
5.270001819944204746e-02
4.406348378387899001e-02
3.459771031140122799e-02
2.454154765933213092e-02
1.406408352938951119e-02
3.392030290247561967e-03
-7.287884829812817100e-03
-1.771691568318582710e-02
-2.772379827119610465e-02
-3.708110039217847598e-02
-4.555953029387499464e-02
-5.308704628063863618e-02
-5.936458954272572086e-02
-6.440632442598677454e-02
-6.801099350409144095e-02
-7.010852752909414731e-02
-7.075387793668630465e-02
-6.977685276407143145e-02
-6.738411309000534588e-02
-6.347935184397857089e-02
-5.820277921103950147e-02
-5.169660822944183165e-02
-4.400675551761147608e-02
-3.542083696138056959e-02
-2.599974860512749286e-02
-1.600979073619616944e-02
-5.625447345237743341e-03
4.921927082351813289e-03
1.542438501619825160e-02
2.566062298351189097e-02
3.540359745652908730e-02
4.449387113001843086e-02
5.264953257408319653e-02
5.985115791241488181e-02
6.579775885393858437e-02
7.044680276452294776e-02
7.369527303512454774e-02
7.538633028156271898e-02
7.566632557203790965e-02
7.432615713569487581e-02
7.153690718961755457e-02
6.729009212337977441e-02
6.164965428994020891e-02
5.484769726556447400e-02
4.688393475148469602e-02
3.804952289304054658e-02
2.844795139027549505e-02
1.831682084823964274e-02
7.874656900359086609e-03
-2.679746483316097425e-03
-1.310296089713896758e-02
-2.320296585767738645e-02
-3.272847155377743567e-02
-4.154812591091937291e-02
-4.939129985068424489e-02
-5.619931128040508983e-02
-6.175550034608098815e-02
-6.595887852687776221e-02
-6.878550527228244338e-02
-7.005746983201126266e-02
-6.992059966974663310e-02
-6.822425933046200042e-02
-6.508162428366499885e-02
-6.055869998387902742e-02
-5.468106014234547230e-02
-4.770144365921698271e-02
-3.962801747868194280e-02
-3.072207029872576697e-02
-2.111986884422889163e-02
-1.104950746652950608e-02
-7.276044108637611668e-04
9.636815637739062912e-03
1.978787626332777910e-02
2.954257079427420260e-02
3.860872650838811926e-02
4.688188839161212818e-02
5.406521587420713704e-02
6.005776536063328619e-02
6.469200419542531222e-02
6.781398522618665992e-02
6.945232757762413722e-02
6.942724659848698021e-02
6.786195552472575054e-02
6.469796462998575470e-02
6.004651823816359313e-02
5.405006826818035959e-02
4.678633081777916480e-02
3.853729746231682185e-02
2.940936040144678451e-02
1.972425684002019827e-02
9.668995260981257112e-03
-4.588594685508854201e-04
-1.039977997045727666e-02
-1.992507954624266747e-02
-2.871697481489219814e-02
-3.664369359803720805e-02
-4.338243812021064238e-02
-4.887809254070055176e-02
-5.290145429060794102e-02
-5.535703178783257794e-02
-5.623745072677678591e-02
-5.539907827310280863e-02
-5.303644239335317256e-02
-4.903975824956405272e-02
-4.359330553857254653e-02
-3.681066419000543488e-02
-2.880643216453516661e-02
-1.988380072243393915e-02
-1.012631342829095268e-02
1.429894969694435122e-04
1.074517161488689095e-02
2.140447946740430332e-02
3.188151261634560030e-02
4.195071294355307012e-02
5.136600838349934806e-02
5.995193949722030236e-02
6.746654178136639313e-02
7.383286422287266282e-02
7.882539155994162938e-02
8.242421203894192971e-02
8.451749959857778050e-02
8.505411323520738198e-02
8.412522082921540523e-02
8.163727930525258025e-02
7.779965967935549565e-02
7.260452671090220078e-02
6.621287499573878799e-02
5.881974471699813467e-02
5.050500109100045099e-02
4.157285315519608504e-02
3.212440458521509390e-02
2.240915151421920409e-02
1.263358331109221827e-02
2.977529308067829519e-03
-6.346164759160130217e-03
-1.516668524119779010e-02
-2.332790199287756647e-02
-3.068643746407747133e-02
-3.709273662425173479e-02
-4.254226192254442762e-02
-4.685567331222452447e-02
-5.007898937188395849e-02
-5.215217622420123544e-02
-5.305479347826515257e-02
-5.293992406727938971e-02
-5.169890290855931603e-02
-4.953749493055602249e-02
-4.645555912200910464e-02
-4.256496568750267606e-02
-3.804668638242028611e-02
-3.290438313678471782e-02
-2.737129932876057256e-02
-2.148735205523076217e-02
-1.542408168611945213e-02
-9.302013917003240304e-03
-3.225375939802332254e-03
2.661705733897666484e-03
8.275523842424505061e-03
1.347548381668810767e-02
1.821403239986163838e-02
2.234288712462936116e-02
2.585552722408837600e-02
2.863401926056552416e-02
3.064084440965450518e-02
3.188005876967740793e-02
3.224950127521697407e-02
3.186441206358586742e-02
3.062740165279559043e-02
2.863091896652767906e-02
2.591748760176100161e-02
2.250577532260184671e-02
1.856858866909377043e-02
1.409693719641993796e-02
9.270646292814880424e-03
4.160917355844962959e-03
-1.093320160912955759e-03
-6.353813252178347470e-03
-1.152209170939424987e-02
-1.643259945811343520e-02
-2.101126562332066017e-02
-2.508735958330533464e-02
-2.862351187246854264e-02
-3.147748596138265353e-02
-3.359267484280199778e-02
-3.492685796338078352e-02
-3.539047916997990761e-02
-3.504222168650010516e-02
-3.380004952408796615e-02
-3.173431721725060439e-02
-2.885801222053120327e-02
-2.521404771039477063e-02
-2.091120004293251997e-02
-1.598758206193125198e-02
-1.058364906334728801e-02
-4.778351539974870499e-03
1.285956766553798293e-03
7.497157513521568103e-03
1.370868818393413194e-02
1.979760892759232366e-02
2.562794785379768348e-02
3.105183093348855283e-02
3.598520430724921892e-02
4.025699983806768634e-02
4.383498530719559527e-02
4.657640408633566265e-02
4.843202882723625369e-02
4.937220779345331823e-02
4.931672047498848743e-02
4.834769197301443111e-02
4.639840321025176517e-02
4.356608712955305218e-02
3.989460220819457392e-02
3.546356402353607884e-02
3.042277707131118766e-02
2.484134298282080627e-02
1.890856900307802402e-02
1.272906489163442081e-02
6.499076153920557188e-03
3.415480629916801264e-04
-5.568032296185427416e-03
-1.107854572262223156e-02
-1.607702635711570280e-02
-2.038911376503045256e-02
-2.398326694963926614e-02
-2.669747111736499659e-02
-2.852134574973769557e-02
-2.938985401088215280e-02
-2.927032651709432151e-02
-2.822716064454358978e-02
-2.621455440358568326e-02
-2.336448945720316986e-02
-1.968764585624872485e-02
-1.530989977137833455e-02
-1.034327944853573669e-02
-4.882791867835736474e-03
8.879859959805801173e-04
6.884660754116695217e-03
1.290844982242034082e-02
1.885535751775593155e-02
2.454895553590346821e-02
2.986656310264768771e-02
3.468000822562400387e-02
3.884390111468581652e-02
4.229867400630342444e-02
4.489611493909710649e-02
4.664134080305898378e-02
4.742504262363773926e-02
4.724661648675747283e-02
4.611266600324309684e-02
4.400464249578937836e-02
4.104260410372878587e-02
3.721552085445144209e-02
3.266614475924017880e-02
2.747254809666415179e-02
2.176795260960315628e-02
1.570463108221220594e-02
9.403012491834283892e-03
3.047260862416422116e-03
-3.241794646669885274e-03
-9.271861915691893136e-03
-1.494278880987586974e-02
-2.007782770551247084e-02
-2.458165386445032574e-02
-2.834705781736120492e-02
-3.125990724978271185e-02
-3.332175409998944238e-02
-3.441310248236854885e-02
-3.459380477014351030e-02
-3.381715561804807257e-02
-3.212235214555515805e-02
-2.959426141867264534e-02
-2.623807651405868704e-02
-2.221981730410924408e-02
-1.756689221454437594e-02
-1.243439989639790258e-02
-6.928166207860370768e-03
-1.167036134787478689e-03
4.695747597715341747e-03
1.056478969882650859e-02
1.627562898106397343e-02
2.174887954675483806e-02
2.681578299990948488e-02
3.143277352875376018e-02
3.545306581607965413e-02
3.880191966255840119e-02
4.143887633849956120e-02
4.323049724389564641e-02
4.425783917676175128e-02
4.437725263983860469e-02
4.364333472350812038e-02
4.205825623991740758e-02
3.959767017042385706e-02
3.640729575936370310e-02
3.243603946600319421e-02
2.783238152368175053e-02
2.265148729942904546e-02
1.698844782413406335e-02
1.099276136795840006e-02
4.740273216320820340e-03
-1.610349513537208052e-03
-7.952164012180623978e-03
-1.413570908945879084e-02
-2.006256086564568372e-02
-2.557476114539299072e-02
-3.060162305299841609e-02
-3.501615266720212172e-02
-3.871823783715951095e-02
-4.169366259916036654e-02
-4.379541384183908981e-02
-4.509032487879043039e-02
-4.547595590727607218e-02
-4.496606549188522650e-02
-4.361938174997627427e-02
-4.137358975330242272e-02
-3.839117084492817134e-02
-3.462987926574019604e-02
-3.019896854053541121e-02
-2.519007828231564425e-02
-1.964826861643659273e-02
-1.373175651421791599e-02
-7.490273610508160068e-03
-1.054924255703206491e-03
5.474419796192161146e-03
1.196784605416911784e-02
1.835250263349660904e-02
2.447042697675142625e-02
3.024468022183287794e-02
3.556822172456618192e-02
4.029326283863135516e-02
4.443356074921434029e-02
4.778355302089856704e-02
5.036125878953152946e-02
5.206809618570101827e-02
5.282636828441203414e-02
5.271135472975176095e-02
5.158251234388272488e-02
4.955744006460340023e-02
4.659680696669506184e-02
4.275474371512236194e-02
3.814481357551126328e-02
3.278357369563864726e-02
2.684067894352289152e-02
2.038185037837302038e-02
1.357081963791516993e-02
6.525832491967813349e-03
-5.820061020522480921e-04
-7.627072341123536034e-03
-1.444494577712993749e-02
-2.086742023582495789e-02
-2.681227130713089921e-02
-3.205176553546887352e-02
-3.658938208070872111e-02
-4.022119359814795014e-02
-4.288741481678165490e-02
-4.456516239505736721e-02
-4.509751445354856503e-02
-4.462465621674455152e-02
-4.299073696770645825e-02
-4.028653012676455814e-02
-3.655124630085099247e-02
-3.179162421892450796e-02
-2.619410379389527921e-02
-1.975662643861943527e-02
-1.266528740440640843e-02
-5.021715610711286609e-03
3.005374079732544678e-03
1.126352959749293142e-02
1.957794211764482539e-02
2.777071014224605922e-02
3.568633413682870126e-02
4.309539131852804794e-02
4.992089643653103981e-02
5.590313295821530692e-02
6.097672318470725994e-02
6.498021838778621218e-02
6.777295154255549847e-02
6.937371773835682154e-02
6.959671669533398775e-02
6.854143138727974982e-02
6.612560047916545003e-02
6.239997962083344840e-02
5.747752017821168569e-02
5.137125192209644753e-02
4.430117881858407214e-02
3.633397921438732969e-02
2.768625455448399733e-02
1.852826701191086223e-02
9.069858136391349690e-03
-4.826139586253655120e-04
-9.918992716526846276e-03
-1.900835886573018149e-02
-2.759182136802305549e-02
-3.539686625462261371e-02
-4.237340085871055262e-02
-4.825420244762752831e-02
-5.296389518489820480e-02
-5.641525999435337280e-02
-5.845182797713800726e-02
-5.919184851368178291e-02
-5.845810757177562211e-02
-5.637996317645019295e-02
-5.296304587528447017e-02
-4.826066023333465405e-02
-4.247070873684895276e-02
-3.560526259299943985e-02
-2.791210137619056300e-02
-1.948633549165756235e-02
-1.055237095771442875e-02
-1.286984706790849503e-03
8.110653241374145284e-03
1.742365644746614317e-02
2.648155281921055204e-02
3.502503956781417849e-02
4.295719400778715003e-02
4.999374555456415070e-02
5.607362702395915499e-02
6.099601339428625812e-02
6.462499961994817854e-02
6.696074694207503064e-02
6.779543795217404800e-02
6.726417871544627947e-02
6.522756078459941709e-02
6.176503237161509730e-02
5.697116453734732411e-02
5.084624962742038956e-02
4.365342532954820387e-02
3.541091154144269948e-02
2.637095751436361116e-02
1.669602664452621635e-02
6.601512030986855795e-03
-3.676332186059248774e-03
-1.393550248147951143e-02
-2.391757843575091635e-02
-3.344885732739215356e-02
-4.223650933244028904e-02
-5.020453171905392420e-02
-5.706130783900510706e-02
-6.271601394565862186e-02
-6.704691269476399651e-02
-6.987212959412388014e-02
-7.129245675002916782e-02
-7.109327249101628221e-02
-6.940618851888068208e-02
-6.620292013710435408e-02
-6.151478998526913045e-02
-5.554877630510918207e-02
-4.827997220820043345e-02
-3.997671881455931719e-02
-3.072211643554648500e-02
-2.072404083395940066e-02
-1.019992486836972072e-02
6.765870545771233979e-04
1.166025965165835843e-02
2.255844578218001856e-02
3.312630074854074763e-02
4.320042603752549670e-02
5.250534068414942912e-02
6.095648084730191651e-02
6.829555050219748846e-02
7.440138560868927997e-02
7.919483879480962440e-02
8.245841653244767588e-02
8.431567333281909937e-02
8.454476466489904696e-02
8.323865448635706099e-02
8.041765542914744436e-02
7.606025306127356389e-02
7.042889779467177702e-02
6.346503831740618606e-02
5.543377559785858666e-02
4.645476082367500092e-02
3.672829666478349964e-02
2.650119811736949965e-02
1.594593922751791348e-02
5.336309948484845370e-03
-5.142458394930115445e-03
-1.520318488795279963e-02
-2.471474793242364743e-02
-3.338391523544119444e-02
-4.109492121930519160e-02
-4.766115790552506726e-02
-5.290084107076299669e-02
-5.682929974909217696e-02
-5.921034833977688316e-02
-6.015179633931154457e-02
-5.953294974839709597e-02
-5.739400479098945296e-02
-5.385113868454778630e-02
-4.886488114323842002e-02
-4.269016165278304020e-02
-3.533121197535503411e-02
-2.702707476156972558e-02
-1.792710452435463883e-02
-8.224336294245758461e-03
1.835596296835439144e-03
1.208684670556693305e-02
2.222968108893402100e-02
3.212539496273363049e-02
4.143801351072005923e-02
5.007207587918231784e-02
5.773192230393532631e-02
6.423361688100517886e-02
6.947977614642050770e-02
7.317946631403796087e-02
7.543502582349941032e-02
7.596591754947792929e-02
7.482085892037991515e-02
7.199047097282539054e-02
6.742229712291621102e-02
6.134386630685746689e-02
5.370031060839930426e-02
4.474886942053171723e-02
3.461201156837821064e-02
2.351761823199276583e-02
1.172537001586169969e-02
-5.387282410204592698e-04
-1.296279041685557964e-02
-2.531023312010410170e-02
-3.722671586833257995e-02
-4.853162240381318770e-02
-5.885459917853487488e-02
-6.803733335318662423e-02
-7.582391786185181670e-02
-8.198106040610111944e-02
-8.648417839606534208e-02
-8.905063827373538299e-02
-8.978999510168685083e-02
-8.854646452566640458e-02
-8.536592770674500397e-02
-8.037645397129580815e-02
-7.355172643507797148e-02
-6.520073455987761279e-02
-5.535276425886624663e-02
-4.429337683669780368e-02
-3.223798979295067202e-02
-1.942654128097591817e-02
-6.169857758439811768e-03
7.296471128978111731e-03
2.064362375522101750e-02
3.364125950515625685e-02
4.592837509156033615e-02
5.737111631318761451e-02
6.760293677392906209e-02
7.646975721148881189e-02
8.378725499079063554e-02
8.930439536677202417e-02
9.309287231228649540e-02
9.485902726052493350e-02
9.472284024857371976e-02
9.260844701030641890e-02
8.854349630464299070e-02
8.274487008960565437e-02
7.517322214696772753e-02
6.616090240841250580e-02
5.579053330249611475e-02
4.436177688878480130e-02
3.213477262200793022e-02
1.935599889009742558e-02
6.376051677956483255e-03
-6.573399699385048742e-03
-1.911240399467423190e-02
-3.104538818399648833e-02
-4.199337894583100861e-02
-5.180549126009127703e-02
-6.019318116249343376e-02
-6.695081450982219573e-02
-7.202074454533720360e-02
-7.512854822295514379e-02
-7.642185381523020071e-02
-7.568765975345195796e-02
-7.303161917673538228e-02
-6.854046177647760141e-02
-6.220395197411374144e-02
-5.437896659970514746e-02
-4.503364433996678851e-02
-3.451327598504666527e-02
-2.300269637812251203e-02
-1.074948055697216506e-02
1.899269015127403107e-03
1.475422182747703967e-02
2.745527002714764214e-02
3.978392800346368385e-02
5.140980763960324718e-02
6.214936753233715749e-02
7.170554751344672406e-02
7.991762394058619934e-02
8.660396231123163036e-02
9.157747216035685978e-02
9.485713516503259390e-02
9.623368361252605807e-02
9.583106632555055127e-02
9.357594453085192610e-02
8.955213423295327324e-02
8.393925731024694248e-02
7.675163517669855717e-02
6.831834216419832573e-02
5.871668292767137642e-02
4.824438153230013737e-02
3.715113280467383094e-02
2.565241942469163872e-02
1.408530328549406629e-02
2.646407254258271915e-03
-8.362819685132324640e-03
-1.872669289816135396e-02
-2.819981823265262436e-02
-3.662758591313823586e-02
-4.379746161483227818e-02
-4.961826035547751979e-02
-5.397819262633758719e-02
-5.679476868279814683e-02
-5.815110989740619740e-02
-5.793572211737751942e-02
-5.633042411085213697e-02
-5.333727956784592439e-02
-4.911857902414941413e-02
-4.387876410315090514e-02
-3.768751996408417626e-02
-3.087365621079491904e-02
-2.352039272101770842e-02
-1.594314666410597686e-02
-8.324818063977610857e-03
-8.693017669853028012e-04
6.147268088457492202e-03
1.261168834022420755e-02
1.825382010132155924e-02
2.299018753782868657e-02
2.663521480942874706e-02
2.910888529326509724e-02
3.033470454422796531e-02
3.026374902026961536e-02
2.892383799907614211e-02
2.630744383083051877e-02
2.254808610750645009e-02
1.767666732604885813e-02
1.190633830416166355e-02
5.345067452885755160e-03
-1.785909651288102029e-03
-9.250553481511122542e-03
-1.689252227906178419e-02
-2.437105078093547428e-02
-3.156455394075834142e-02
-3.814426805380893848e-02
-4.394458297832280758e-02
-4.876735078409301372e-02
-5.237266030203370504e-02
-5.471082911779762137e-02
-5.556783936666455370e-02
-5.496756630947684241e-02
-5.281879602876424218e-02
-4.913879621854783109e-02
-4.400842570848864654e-02
-3.748701538738749561e-02
-2.975706775944651425e-02
-2.094899403435584659e-02
-1.129825025068673799e-02
-1.004844384744312327e-03
9.645118233460907992e-03
2.042516499012363151e-02
3.103973950173204155e-02
4.122344724599158461e-02
5.073989791118957426e-02
5.929399350152264603e-02
6.673910970106064489e-02
7.280692882626520201e-02
7.740031990620824254e-02
8.036398241641143358e-02
8.162299167265781030e-02
8.118274748719618572e-02
7.899689762170815366e-02
7.521174537978314589e-02
6.984779658297748939e-02
6.312438722976562722e-02
5.519207072498955036e-02
4.627619754383457962e-02
3.666969814359603841e-02
2.656977968341267538e-02
1.634308867727299330e-02
6.199294686473691418e-03
-3.520372326732223653e-03
-1.257827218555036472e-02
-2.072191042740835487e-02
-2.770555519844955863e-02
-3.338156547191609147e-02
-3.755244796554840780e-02
-4.019212385393193532e-02
-4.116762433637095875e-02
-4.053777184343798634e-02
-3.829723675072423117e-02
-3.456171693984011473e-02
-2.949617937644590307e-02
-2.320492835801466966e-02
-1.600370603023761051e-02
-8.017431547148566248e-03
3.951355847985425079e-04
9.005306552264960573e-03
1.754825401727170761e-02
2.567264602078486377e-02
3.321900695873319931e-02
3.983974756715828736e-02
4.538962153821608780e-02
4.965382269227319734e-02
5.247488062259976493e-02
5.378309950198158218e-02
5.349084707626125534e-02
5.161709782045226236e-02
4.818805889308548640e-02
4.331900536620164610e-02
3.711010462923600151e-02
2.979280304438259100e-02
2.152733471985639191e-02
1.259959789947009447e-02
3.278040176731828251e-03
-6.198554100081896112e-03
-1.546088491406425944e-02
-2.431913885509225451e-02
-3.241774916882478319e-02
-3.955670289538837370e-02
-4.550366848553223653e-02
-5.003532371116764521e-02
-5.306081931537931506e-02
-5.441907219097068260e-02
-5.412163529936343809e-02
-5.211335115490883796e-02
-4.847692968420876103e-02
-4.328162307100394401e-02
-3.669517596041732554e-02
-2.889726059259707311e-02
-2.008837138216520990e-02
-1.057336759287196698e-02
-5.436775494697364264e-04
9.615063667845858558e-03
1.969824176031007706e-02
2.936076476710991826e-02
3.831423603207345652e-02
4.635253434136578365e-02
5.314229269746148510e-02
5.859323308437627831e-02
6.243890406935741211e-02
6.461987151571808863e-02
6.503645140506170153e-02
6.364179989331082699e-02
6.051520486899361617e-02
5.565594725036568380e-02
4.927176100223407129e-02
4.144429892368441115e-02
3.244340905598153135e-02
2.246972880353520496e-02
1.180192262073935863e-02
7.544709022621002431e-04
-1.043420187144568183e-02
-2.137941828985522388e-02
-3.187854349585046709e-02
-4.155673273354063002e-02
-5.023268642665033867e-02
-5.763354670149303804e-02
-6.354276977696332596e-02
-6.786897315767283223e-02
-7.039293602342162892e-02
-7.119191922706454012e-02
-7.011508319615876450e-02
-6.725850699896532281e-02
-6.268212901534647719e-02
-5.646419110822803455e-02
-4.885582413240063815e-02
-3.993617147012459845e-02
-3.001964508386966921e-02
-1.928088783805841783e-02
-8.022678456462513721e-03
3.492202771835819890e-03
1.500322914841735987e-02
2.620676504337273241e-02
3.688692365932701167e-02
4.673303229875269693e-02
5.560247301059038916e-02
6.321036766951519670e-02
6.946548485688054664e-02
7.419049347036428543e-02
7.727681917092074637e-02
7.874507255505534820e-02
7.845824582705154815e-02
7.658980951307410578e-02
7.307324335947505689e-02
6.807210366054058936e-02
6.173214023394310579e-02
5.414628562418716262e-02
4.563121038945054664e-02
3.626758398898616287e-02
2.637504366593514810e-02
1.613885169912658568e-02
5.818595829161774154e-03
-4.340714073190438810e-03
-1.413508164515245302e-02
-2.330944774630865080e-02
-3.172177213780720539e-02
-3.910928739013591615e-02
-4.544896402361642274e-02
-5.049723651911616762e-02
-5.422696093877382717e-02
-5.657650151950424644e-02
-5.743646363900911656e-02
-5.697170438670916270e-02
-5.502716298032155062e-02
-5.179596266924624270e-02
-4.729223765429713122e-02
-4.160432111972021951e-02
-3.496050284746712866e-02
-2.736841843178762848e-02
-1.910698473908358647e-02
-1.025979685953568900e-02
-1.043926581429691428e-03
8.355954985150380182e-03
1.777210618788513732e-02
2.699750114133955825e-02
3.587595355615495057e-02
4.419068664536801583e-02
5.184257255942484321e-02
5.858792643980535730e-02
6.439437655957173934e-02
6.906257476285855568e-02
7.250348633436487500e-02
7.470878654336195190e-02
7.549462443751672747e-02
7.501909846056867281e-02
7.312392004807734269e-02
6.990741895264651617e-02
6.545024635245866307e-02
5.973660952053302942e-02
5.303987001899010401e-02
4.533782102163164129e-02
3.686391177584659451e-02
2.777255784725417981e-02
1.822274297220464329e-02
8.456645453971692317e-03
-1.371987857989811002e-03
-1.104514607949737617e-02
-2.038109615343451295e-02
-2.916598768353954527e-02
-3.729589179611837724e-02
-4.453213335132914785e-02
-5.081647115037636608e-02
-5.600053165901880403e-02
-5.996663478068474384e-02
-6.277111733898907420e-02
-6.422380124875427809e-02
-6.446471547504349642e-02
-6.341498504446300977e-02
-6.112050184334151537e-02
-5.773602880369087254e-02
-5.320150765620036692e-02
-4.776771803722025533e-02
-4.143739455936146232e-02
-3.437630078049098981e-02
-2.675103741173103303e-02
-1.864274080366485134e-02
-1.027129144523264079e-02
-1.733208347222991649e-03
6.790512161651272513e-03
1.516778852914289592e-02
2.322195500573750668e-02
3.086909439723150780e-02
3.791718782899757001e-02
4.427215446096108287e-02
4.984101315957802092e-02
5.443986199556513639e-02
5.814972657776970588e-02
6.073399259994655131e-02
6.224519479650367226e-02
6.263694449301056288e-02
6.182954231650231169e-02
6.000410737325466426e-02
5.701289791241771765e-02
5.303744065127220797e-02
4.810344390009840820e-02
4.228952512508708794e-02
3.579959601827661930e-02
2.866165627870929933e-02
2.110178276608021958e-02
1.322829050628956428e-02
5.226097644163202674e-03
-2.744804416962209545e-03
-1.051330630154385243e-02
-1.792942070009653777e-02
-2.483700850445021494e-02
-3.107386910404844396e-02
-3.657730584578813837e-02
-4.115114541771712486e-02
-4.481266500817096543e-02
-4.742029083413458468e-02
-4.894668077916969340e-02
-4.943299404431195088e-02
-4.877119048248011735e-02
-4.713375060871954902e-02
-4.444171834142893185e-02
-4.081390522795107223e-02
-3.634972041189810099e-02
-3.107294315653892983e-02
-2.520287852626663591e-02
-1.875264251907405449e-02
-1.190639188963336231e-02
-4.775578815986593340e-03
2.506658338740150663e-03
9.792957486791074168e-03
1.695949830049219703e-02
2.386272155642253645e-02
3.039288005581716051e-02
3.638141162858433975e-02
4.179741246484179606e-02
4.644615753009659342e-02
5.029726679666343681e-02
5.325273111545704430e-02
5.521209974651890284e-02
5.623321173509564230e-02
5.616611337614074717e-02
5.510866369807779219e-02
5.301461378640233424e-02
4.992714459270360117e-02
4.595973349646281791e-02
4.111209214026530223e-02
3.556828901767229711e-02
2.938116885409746554e-02
2.272660160486142736e-02
1.573856125822653551e-02
8.576174435506218538e-03
1.412243144582372208e-03
-5.605485553416647906e-03
-1.227983491783965833e-02
-1.850585673594066713e-02
-2.407085794352379141e-02
-2.892044592604403261e-02
-3.288295773682831102e-02
-3.587886069778024878e-02
-3.787532625225191463e-02
-3.875023332467221471e-02
-3.860426246797704630e-02
-3.733330802775404467e-02
-3.503428854609100251e-02
-3.175198740055136526e-02
-2.753487562513720274e-02
-2.256790783459493299e-02
-1.687566876096770196e-02
-1.066640868944361553e-02
-4.034853057292243569e-03
2.827675727817182804e-03
9.777394018174158374e-03
1.665422025990376947e-02
2.327454177714484776e-02
2.952717808691571535e-02
3.519645898563662778e-02
4.023660990997153519e-02
4.444224253656714474e-02
4.775867627224902878e-02
5.009336330947793126e-02
5.133599685951611979e-02
5.154109031031557653e-02
5.058048573055248798e-02
4.855753570834556165e-02
4.544575438105012688e-02
4.130899377622963831e-02
3.627273678491051145e-02
3.037275386518769466e-02
2.380932195449049840e-02
1.666027065408451358e-02
9.122140743057310930e-03
1.342404913628775665e-03
-6.493584746282669504e-03
-1.421425259407826241e-02
-2.164954929292715533e-02
-2.860569524634301933e-02
-3.497234501988637223e-02
-4.052959079370017925e-02
-4.525131578643344643e-02
-4.894575440890062967e-02
-5.155976870024568670e-02
-5.306242185601191264e-02
-5.333694260982048407e-02
-5.251944703375437118e-02
-5.049109053008137005e-02
-4.737325085519426826e-02
-4.321591992653121828e-02
-3.807423284923668050e-02
-3.213816329551726081e-02
-2.544221936570923576e-02
-1.818934244690098220e-02
-1.048847538995605934e-02
-2.519790403359441384e-03
5.566888467674889138e-03
1.360006669999693635e-02
2.141912176484389932e-02
2.887543835599586453e-02
3.577772788842348284e-02
4.205391465049546085e-02
4.748534038076189512e-02
5.203837718894391284e-02
5.555946907472415763e-02
5.796755234823755543e-02
5.926421117895531998e-02
5.931757647617372231e-02
5.823441586737281017e-02
5.593042898844591271e-02
5.250123334324745261e-02
4.801340894340956622e-02
4.252837095710389204e-02
3.623393459657271026e-02
2.919502510271809043e-02
2.164508264151877859e-02
1.370191382454358578e-02
5.613022856184182209e-03
-2.466711045836165496e-03
-1.031757136338020894e-02
-1.771236330774370038e-02
-2.452745639850519369e-02
-3.047564077466698509e-02
-3.553933471850063974e-02
-3.945728397390810271e-02
-4.216575300841400586e-02
-4.360049694948124610e-02
-4.362970396051006616e-02
-4.237082774921618888e-02
-3.970148672304876780e-02
-3.576077429944164721e-02
-3.058418876144546397e-02
-2.428246422792496029e-02
-1.703390514434507952e-02
-8.942240314907133961e-03
-2.509551502264759787e-04
8.905786139247889865e-03
1.824655503730416434e-02
2.762732798190415187e-02
3.676338524366420946e-02
4.546982233653880379e-02
5.354820212081723430e-02
6.072030425023113021e-02
6.693184853347707020e-02
7.186729507039227305e-02
7.551801346665622250e-02
7.769330428467494110e-02
7.828675556313276218e-02
7.734492622634081549e-02
7.470495687874505186e-02
7.054372591259959469e-02
6.479006639302573034e-02
5.757637143362838439e-02
4.904485834513479248e-02
3.930092380522696993e-02
2.860749157456006844e-02
1.711050121395551321e-02
5.096503469486682661e-03
-7.220177189243793744e-03
-1.951189258203321619e-02
-3.158486529460227676e-02
-4.309303869956904176e-02
-5.379503023294436581e-02
-6.346999565788742637e-02
-7.178341531728085756e-02
-7.870356166709850665e-02
-8.388035055423963271e-02
-8.729272566925086463e-02
-8.881029151638442087e-02
-8.832495288030493830e-02
-8.597727296425396182e-02
-8.163508506328766290e-02
-7.552809792666617672e-02
-6.769144796123759134e-02
-5.832071002955618866e-02
-4.765575899562365936e-02
-3.586848083666650810e-02
-2.329535818269349440e-02
-1.014502514026460744e-02
3.217352536838917216e-03
1.656021871648961225e-02
2.950990048475603950e-02
4.183936434056119424e-02
5.323304301179097864e-02
6.340339364687629098e-02
7.220866800558682630e-02
7.929978847216818949e-02
8.470230635855061085e-02
8.812528816383088937e-02
8.955770034760729414e-02
8.898763537892934172e-02
8.631246787163318612e-02
8.179704772345326724e-02
7.533235443338169579e-02
6.720764133357620684e-02
5.754587327921123485e-02
4.657538535903620047e-02
3.462888207156823023e-02
2.188600032612866148e-02
8.756918483634853340e-03
-4.538646057908804834e-03
-1.758382342506208812e-02
-3.014545439767458632e-02
-4.185673555942114044e-02
-5.244211081627472848e-02
-6.167555579991962356e-02
-6.923552092428421345e-02
-7.507993850250449519e-02
-7.890625207182670742e-02
-8.074212172919845165e-02
-8.046842908494067359e-02
-7.808131153331747398e-02
-7.372244941703716414e-02
-6.736515475223107952e-02
-5.930859750770361982e-02
-4.961610917324589531e-02
-3.860280048803586828e-02
-2.650612228248549682e-02
-1.360323424752983915e-02
-2.616486429500332334e-04
1.327658985028887240e-02
2.659027165826455957e-02
3.945149729880728651e-02
5.145123664681654219e-02
6.238180031716200613e-02
7.192224039263905855e-02
7.982521756174439098e-02
8.595607789931536402e-02
9.004445688188951469e-02
9.215490446281039694e-02
9.206593744260159473e-02
8.987120296279751952e-02
8.558530280795656475e-02
7.928508825812316529e-02
7.122601625365218569e-02
6.147665234090735065e-02
5.040733384952020280e-02
3.819215886854157582e-02
2.522883116957213429e-02
1.181016678774030743e-02
-1.714860526478866054e-03
-1.494263569094207017e-02
-2.760973007947436705e-02
-3.926307801813201659e-02
-4.972475524331135266e-02
-5.859756802425260258e-02
-6.571389923305694103e-02
-7.086227061990858778e-02
-7.385443556080419081e-02
-7.471295132199454181e-02
-7.327569515007677226e-02
-6.971861829971773283e-02
-6.401328814089468633e-02
-5.637039767134881252e-02
-4.698692166320349306e-02
-3.605809281150237910e-02
-2.397316829523921458e-02
-1.092270246563592853e-02
2.633254800021626440e-03
1.643370051223586731e-02
3.005266281134205339e-02
4.315347329046718972e-02
5.541607558468147898e-02
6.645144887108900278e-02
7.606413848275980771e-02
8.388625893061840699e-02
8.984938412732094981e-02
9.368417038024252907e-02
9.533814776590500417e-02
9.477583045348428326e-02
9.195202272300415092e-02
8.706899681401394919e-02
8.011168965014123233e-02
7.138485846131623069e-02
6.103648540863233773e-02
4.937815848437587807e-02
3.674708395798000071e-02
2.340651189734099455e-02
9.802030635005011885e-03
-3.804533040690147999e-03
-1.697607221076606610e-02
-2.942791545048395810e-02
-4.081262255057285793e-02
-5.084803562171719138e-02
-5.930141234608043987e-02
-6.594098135602809163e-02
-7.067101110533849373e-02
-7.332950955856405717e-02
-7.397231200142402596e-02
-7.252820255224476376e-02
-6.914719497171638307e-02
-6.393270507532737568e-02
-5.704286459380830676e-02
-4.879677472973666108e-02
-3.932196718998098861e-02
-2.904263814660308293e-02
-1.816184866081029664e-02
-7.057360045334954909e-03
3.933441222413278961e-03
1.456313124483036431e-02
2.443065299133464693e-02
3.336173424721974173e-02
4.101833011382917393e-02
4.726631990925163340e-02
5.189338905061700868e-02
5.478658155993347545e-02
5.589098041927731408e-02
5.515324165082172159e-02
5.267795651313264549e-02
4.846073468781406102e-02
4.272641871581225881e-02
3.556668124903718253e-02
2.726298147152976178e-02
1.805539439324944928e-02
8.181376274055776956e-03
-1.970746939211906815e-03
-1.221301294269189208e-02
-2.211935070070628409e-02
-3.147881536007149372e-02
-3.996851689112922157e-02
-4.731311267487231520e-02
-5.334848784543196054e-02
-5.780497796794936693e-02
-6.063369097562927579e-02
-6.166582335688976235e-02
-6.091921768702045215e-02
-5.837229082021741511e-02
-5.409200183300491571e-02
-4.821219733807965979e-02
-4.084783693115960623e-02
-3.226441398720340803e-02
-2.261503727284758236e-02
-1.222658699781299652e-02
-1.325175903644425397e-03
9.771862061742252886e-03
2.076642561316795199e-02
3.140524630859171940e-02
4.135995143675670616e-02
5.043665125876667377e-02
5.834262340102630562e-02
6.495050088032784663e-02
7.004762075069596861e-02
7.354122788700243052e-02
7.535623317821064926e-02
7.544019883726303666e-02
7.387548012423264532e-02
7.064061634820420488e-02
6.592774449110491708e-02
5.980565516324774789e-02
5.250942709290824795e-02
4.424629286944710416e-02
3.521743131846326313e-02
2.575526053238989463e-02
1.603361759488595301e-02
6.416819942988356493e-03
-2.896549609226615335e-03
-1.161348944533991193e-02
-1.949171230868500942e-02
-2.634972728261803995e-02
-3.195244511302516854e-02
-3.621550619539308513e-02
-3.896912025544857494e-02
-4.021297389171279990e-02
-3.987028212107157632e-02
-3.800360079144053660e-02
-3.466661883633628816e-02
-2.995376117444613698e-02
-2.407456029371368364e-02
-1.711740058506824869e-02
-9.396476081192574326e-03
-1.047911400372869735e-03
7.609904157580989724e-03
1.633371293205525959e-02
2.490281497130338376e-02
3.297024616422618293e-02
4.040625556493045167e-02
4.686711799493850639e-02
5.224997048396162747e-02
5.632832318369285218e-02
5.895051827596485550e-02
6.007185432771619538e-02
5.955277670876837903e-02
5.747458541376025687e-02
5.377943844932095430e-02
4.859084793488605003e-02
4.199462132668307923e-02
3.415053034289760453e-02
2.526576589450843513e-02
1.552485538639470503e-02
5.222879866214818340e-03
-5.437741631862186981e-03
-1.611207593647792646e-02
-2.658594651908205084e-02
-3.653492518936544975e-02
-4.571165970719613669e-02
-5.388903381864015851e-02
-6.079070041474426978e-02
-6.631540411128014623e-02
-7.021924553292120674e-02
-7.248386190841001053e-02
-7.298475256704398118e-02
-7.171745013999210328e-02
-6.874571055316436308e-02
-6.407680545786739734e-02
-5.793170244276686642e-02
-5.036709515635851009e-02
-4.164782087287123569e-02
-3.196274146203151312e-02
-2.156024835997601835e-02
-1.074434867154309969e-02
2.709278638472539455e-04
1.114962744258417987e-02
2.167351869549121596e-02
3.153684670080969532e-02
4.054421969844360096e-02
4.844814951823750437e-02
5.508158466974920342e-02
6.029550560208661591e-02
6.396026193658484182e-02
6.607021016438313632e-02
6.652058357444211312e-02
6.542296603948116740e-02
6.276136363156047115e-02
5.869469889995576617e-02
5.337396960893724118e-02
4.692308277177101306e-02
3.965193305389648482e-02
3.167487417450932929e-02
2.334258214302333684e-02
1.485118476088096058e-02
6.467237252585866097e-03
-1.514132418986145756e-03
-8.931448822615638619e-03
-1.548707257351717922e-02
-2.106278733456024704e-02
-2.545435012736593783e-02
-2.857089225048680195e-02
-3.032104205352789336e-02
-3.066609478748337156e-02
-2.962114737960620456e-02
-2.720932873787069647e-02
-2.356781680049882879e-02
-1.874829789412674197e-02
-1.298171163017530771e-02
-6.379829406786517720e-03
8.050713290287565826e-04
8.350507616241365297e-03
1.607505255641160369e-02
2.365611875213935109e-02
3.096864612067168690e-02
3.768927794613410875e-02
4.368523301822664628e-02
4.874344400998474602e-02
5.267053603191758360e-02
5.540333451713777557e-02
5.675803449736047113e-02
5.676048914902681597e-02
5.531663902073626071e-02
5.246982210381331835e-02
4.826498162570946882e-02
4.277609201172877240e-02
3.615575345374005822e-02
2.852092098545451829e-02
2.009590269168425036e-02
1.104021035985515778e-02
1.629548404922880143e-03
-7.947005835763330112e-03
-1.740962705161759605e-02
-2.652718312165620526e-02
-3.508166596409544036e-02
-4.279703733007500510e-02
-4.954870155919909036e-02
-5.507169412590279256e-02
-5.929904003740071872e-02
-6.206397479708160303e-02
-6.329376660528207577e-02
-6.298850132416926317e-02
-6.108346034604027197e-02
-5.771758511599887898e-02
-5.287925837200664614e-02
-4.675092205929073930e-02
-3.944948573408284254e-02
-3.116658861827176566e-02
-2.213475447037258417e-02
-1.253112732218671088e-02
-2.659274106684019791e-03
7.304863573139056161e-03
1.703076259683094368e-02
2.635239184652450606e-02
3.498022008844301617e-02
4.270088229512844502e-02
4.935358478546167382e-02
5.469003311993224370e-02
5.868529285700671561e-02
6.112000719181150121e-02
6.200805173671010417e-02
6.127902000163450158e-02
5.894323544834234596e-02
5.510995449034014615e-02
4.979187222525742473e-02
4.321833067405959905e-02
3.546357794077775738e-02
2.680710523441061019e-02
1.742506324466683645e-02
7.583272596637555610e-03
-2.430991700937497682e-03
-1.241317483351042292e-02
-2.199331238751677658e-02
-3.102659356830673662e-02
-3.915037064351305218e-02
-4.622207936659505911e-02
-5.200689658353918610e-02
-5.629305927947939048e-02
-5.904692316585215262e-02
-6.004224702973033623e-02
-5.938158812893506999e-02
-5.693742686428872324e-02
-5.279256871419989172e-02
-4.704412192161641637e-02
-3.975061834963120044e-02
-3.118288145308891271e-02
-2.141940048547855482e-02
-1.076502540010303849e-02
5.915548284959456712e-04
1.234038563107285602e-02
2.423338636162674850e-02
3.598346725566520243e-02
4.728427422425400539e-02
5.792332003752546921e-02
6.754427606824779662e-02
7.604061034079989678e-02
8.307897117964033185e-02
8.855063117043718290e-02
9.230078566377207527e-02
9.416158786326392360e-02
9.420232012616114314e-02
9.225301168887316272e-02
8.847350417785881938e-02
8.285104071625602751e-02
7.552046856955273169e-02
6.668904113383435084e-02
5.647061046571615062e-02
4.519439932266536286e-02
3.302967004676909957e-02
2.032111210467753282e-02
7.324209914760002049e-03
-5.630927281205760915e-03
-1.825925516658232287e-02
-3.026593421149549948e-02
-4.134427909855650785e-02
-5.129902035235237023e-02
-5.980718914498724115e-02
-6.681585081076503452e-02
-7.204647374072303823e-02
-7.545748460797797874e-02
-7.698889318425025663e-02
-7.654860919664284447e-02
-7.433920864700743758e-02
-7.024903823851005868e-02
-6.453727105158303667e-02
-5.728506757675955186e-02
-4.870248612676850164e-02
-3.907952679517882888e-02
-2.855876149391697524e-02
-1.752037235802179557e-02
-6.138400187632574861e-03
5.217783574281471479e-03
1.632591098804880153e-02
2.688727777298322019e-02
3.663488363131943426e-02
4.537416104740474299e-02
5.281953499040849265e-02
5.890056106924826396e-02
6.335978183676357900e-02
6.619400501910130408e-02
6.727514645053393749e-02
6.659053143243452710e-02
6.422295761396698555e-02
6.013628145610681874e-02
5.457557892374308162e-02
4.755696082515724343e-02
3.935284427613033875e-02
3.014072633456558320e-02
2.014672774622451590e-02
9.695708932634983929e-03
-1.036135902044068441e-03
-1.167060209923272834e-02
-2.202650251742903006e-02
-3.175317928990151195e-02
-4.066275264304194947e-02
-4.849884529827484803e-02
-5.503113372857561247e-02
-6.016322995542058849e-02
-6.364945771847924094e-02
-6.555382978223084356e-02
-6.568727865804500909e-02
-6.411250799425455282e-02
-6.086110714392874155e-02
-5.595467421400460162e-02
-4.962919599300952278e-02
-4.190288248233231538e-02
-3.306158993617580588e-02
-2.324884554338813025e-02
-1.272206442209187355e-02
-1.742715981931841976e-03
9.472191003909870288e-03
2.061518659812096310e-02
3.148348253315563783e-02
4.176829947252128084e-02
5.130420683898792578e-02
5.980927005660802154e-02
6.714907004697813486e-02
7.313354967687667185e-02
7.761187900501639869e-02
8.056325972407248071e-02
8.181842241873446553e-02
8.149034126449540560e-02
7.948376752724657657e-02
7.590794607430534358e-02
7.087238023056531555e-02
6.443275832176932616e-02
5.687262758191627410e-02
4.825189392146463085e-02
3.887015536788047954e-02
2.891229808892642125e-02
1.862542456687971831e-02
8.285561938815478797e-03
-1.906703620132912946e-03
-1.166462966927503744e-02
-2.080930333212699726e-02
-2.907382032093565674e-02
-3.635489965461485840e-02
-4.241973222795723808e-02
-4.719155420404913537e-02
-5.057104513867030637e-02
-5.246550265907719279e-02
-5.296471917438429211e-02
-5.195764656266423087e-02
-4.961612080210914266e-02
-4.594632043601482030e-02
-4.109165210189774653e-02
-3.524316044339996512e-02
-2.847461814587068027e-02
-2.108067136450699278e-02
-1.315319188258001412e-02
-4.971209158341817827e-03
3.291122227350957996e-03
1.143156312621439533e-02
1.921773795754442432e-02
2.651335973798166906e-02
3.308285580824091299e-02
3.883882487786402549e-02
4.358212129188505923e-02
4.726594163630729040e-02
4.976688482327476515e-02
5.103557135486823382e-02
5.108401237449448906e-02
4.984875324213432213e-02
4.747235643744043831e-02
4.391518321669464486e-02
3.933960927299769150e-02
3.383772300102649844e-02
2.753500363079370433e-02
2.065863174332743454e-02
1.329754608034160006e-02
5.716094406217273050e-03
-1.956422705146912411e-03
-9.479247413735484781e-03
-1.669071254664774087e-02
-2.340604170115230531e-02
-2.943711590778324769e-02
-3.467701148961123414e-02
-3.893486542534696504e-02
-4.219115583057857222e-02
-4.429068425021152888e-02
-4.523454451849442948e-02
-4.498687103093233774e-02
-4.353553666746605433e-02
-4.098243961739884977e-02
-3.731314256906827220e-02
-3.269490799502433598e-02
-2.718005219071592191e-02
-2.093659283710958691e-02
-1.410946040299044385e-02
-6.843731454556377380e-03
6.535267560311306886e-04
8.253235583213908849e-03
1.572172935695090659e-02
2.294231283625117537e-02
2.968904002627512431e-02
3.584810464514457534e-02
4.125236889286648667e-02
4.575207673117584473e-02
4.929315971548776931e-02
5.170360460072195852e-02
5.302479104811780308e-02
5.312840632431251042e-02
5.204624774164055834e-02
4.979999501415297014e-02
4.639179031049757429e-02
4.198408139510896586e-02
3.658068015172412368e-02
3.037955252256748645e-02
2.347633047949557183e-02
1.606958698562296894e-02
8.329451865133022381e-03
4.330541535133179340e-04
-7.386883212781181901e-03
-1.499310974593832252e-02
-2.211112659707897485e-02
-2.865581406593420769e-02
-3.437507661313667084e-02
-3.915430468724225010e-02
-4.287649464254580933e-02
-4.537256624608158873e-02
-4.667668083878215302e-02
-4.662636427334503064e-02
-4.529552345781683032e-02
-4.265102929862642223e-02
-3.874002910049909043e-02
-3.368469415762248564e-02
-2.752599336442815639e-02
-2.046750059129200799e-02
-1.259754985118134371e-02
-4.146393370488872174e-03
4.737712642142909852e-03
1.381721780395421886e-02
2.289654317040870635e-02
3.177205945068486970e-02
4.017851653319762240e-02
4.799346646977437070e-02
5.491145571343604426e-02
6.086879176486087450e-02
6.562102243225352571e-02
6.904114138843785164e-02
7.107546026820224516e-02
7.154121569232023414e-02
7.055077923767291703e-02
6.795925960317020231e-02
6.387138170260596437e-02
5.834252092921286825e-02
5.145374474951265598e-02
4.341756298366833411e-02
3.433031434149957928e-02
2.446394331230904162e-02
1.398984078718426387e-02
3.211705012195422652e-03
-7.661274448040916035e-03
-1.832801871798999879e-02
-2.852855186054094674e-02
-3.803803322497957551e-02
-4.654119620030446047e-02
-5.393260595569460136e-02
-5.990422405459187860e-02
-6.438929849376254233e-02
-6.722359455128945616e-02
-6.830984787224717025e-02
-6.769251215419963552e-02
-6.527011180864154827e-02
-6.121649368069284614e-02
-5.552495027249315651e-02
-4.839039737395837981e-02
-3.997373058468892126e-02
-3.045739378884342388e-02
-2.013524110844476869e-02
-9.182950432070175265e-03
2.043100304576950851e-03
1.334447569971131294e-02
2.436364852372300410e-02
3.488045100096540813e-02
4.460580508213622675e-02
5.326228674816257946e-02
6.069702913925111021e-02
6.660874522462388592e-02
7.098674186116610274e-02
7.358221873858326878e-02
7.438702352588484612e-02
7.336284998604418461e-02
7.048646775506792195e-02
6.592685794748892603e-02
5.967279741266183490e-02
5.198803465739172680e-02
4.298174583533431736e-02
3.294500518993014743e-02
2.212293898654528815e-02
1.077723713252436155e-02
-7.306673276776054840e-04
-1.218283871507413324e-02
-2.316289761516628076e-02
-3.348562731711522689e-02
-4.278185957795593852e-02
-5.083827263429670229e-02
-5.744266294366690007e-02
-6.234228084221091204e-02
-6.551025633964004113e-02
-6.672511658140418966e-02
-6.606284409022895876e-02
-6.344482102192031125e-02
-5.895482022945258693e-02
-5.272786848451117836e-02
-4.484866089519942700e-02
-3.561450499488758026e-02
-2.514543406786149890e-02
-1.379366973592631440e-02
-1.776763320343688855e-03
1.055990615217366341e-02
2.291587501549481598e-02
3.500635761848493177e-02
4.646150951929770012e-02
5.708566343494825279e-02
6.648873002515720554e-02
7.457295804541692885e-02
8.101897691488439690e-02
8.569355510415796462e-02
8.850744578749884794e-02
8.928373508014629534e-02
8.815763625849591667e-02
8.498207210923494626e-02
7.993894609579078880e-02
7.309084233317396373e-02
6.458831827809403958e-02
5.471141273325229315e-02
4.358943239006307646e-02
3.159314177573998433e-02
1.892452903552490490e-02
5.950349548580679757e-03
-7.051146192997457748e-03
-1.975681657145364131e-02
-3.185679519520752401e-02
-4.309292051594268425e-02
-5.314810300982929225e-02
-6.187437783586972884e-02
-6.897505088932877337e-02
-7.440340191963175365e-02
-7.796486515230575953e-02
-7.961829364883954430e-02
-7.938919487852645618e-02
-7.720655038683606197e-02
-7.330003677726271150e-02
-6.763206258427906237e-02
-6.046209503371537120e-02
-5.194292985876262925e-02
-4.227323585319360533e-02
-3.179139780752260336e-02
-2.064161554998351217e-02
-9.204772582057613867e-03
2.321034886693250972e-03
1.359866608135559818e-02
2.439212119481610694e-02
3.443811493636022431e-02
4.348143349770951238e-02
5.135311523239274867e-02
5.780812104780554128e-02
6.280184064002992950e-02
6.612302735513317375e-02
6.778861878555118847e-02
6.772245950297663131e-02
6.595254275557921320e-02
6.259698649722099384e-02
5.766418019545606344e-02
5.141702355991957518e-02
4.391627718759526233e-02
3.546722637523569421e-02
2.626227144162476129e-02
1.655267927875798267e-02
6.671744779196377845e-03
-3.201824881587449559e-03
-1.267688996936608761e-02
-2.159374186649302974e-02
-2.961958918726784531e-02
-3.656424989459722275e-02
-4.223283909965377947e-02
-4.640850085464588715e-02
-4.904366010631923400e-02
-4.996360724917638108e-02
-4.922613616668540526e-02
-4.675685962280591579e-02
-4.265361682605554872e-02
-3.699969304269347392e-02
-2.992259012250561914e-02
-2.165726326168218238e-02
-1.233703530839436874e-02
-2.296132328685057677e-03
8.292405712004246449e-03
1.905793487290484423e-02
2.976910995427741596e-02
4.011792911940720296e-02
4.976927229125337193e-02
5.854108603320361259e-02
6.605911811734402339e-02
7.223039213423736171e-02
7.676260396977832579e-02
7.954148587246143154e-02
8.047750791566984918e-02
7.945171996440743289e-02
7.655527074034247648e-02
7.173219658840544743e-02
6.516177438403901456e-02
5.693049889472311109e-02
4.726670731240027734e-02
3.640085124156747232e-02
2.458605673518955703e-02
1.216584224978912131e-02
-6.045596146227825290e-04
-1.331219658646880591e-02
-2.571005722948943584e-02
-3.739440437361053748e-02
-4.810899665875431608e-02
-5.755590278876018817e-02
-6.544616618258569662e-02
-7.165110560397987272e-02
-7.589961139570394755e-02
-7.820923040757817024e-02
-7.841178979324094078e-02
-7.655942716543374937e-02
-7.270490885726166308e-02
-6.690406662377686164e-02
-5.943027222790615849e-02
-5.035201319236844164e-02
-4.002502077731906471e-02
-2.864576891618507079e-02
-1.656210522251382392e-02
-4.102895716543894164e-03
8.450549578697541184e-03
2.069489656844583289e-02
3.239436297617372118e-02
4.315812515936406912e-02
5.279181545896377559e-02
6.098950627054888773e-02
6.757192496682963567e-02
7.238254322308181055e-02
7.527173014595595069e-02
7.625924784554441449e-02
7.523933062878404576e-02
7.236449070848742504e-02
6.764057158514337476e-02
6.127417361124173900e-02
5.345564605415531467e-02
4.436864596366985047e-02
3.437742346538379817e-02
2.364845990939354672e-02
1.260210375422372853e-02
1.470100114844644004e-03
-9.398116878713308475e-03
-1.968392282734057405e-02
-2.915926794191589164e-02
-3.748690211549923768e-02
-4.452619689366772715e-02
-5.001406768144991966e-02
-5.387967632838998322e-02
-5.597751212178263269e-02
-5.628135478614931797e-02
-5.480212026122187330e-02
-5.155984277373205915e-02
-4.673667253898113050e-02
-4.037665578305477121e-02
-3.276134511434108942e-02
-2.402612846560045479e-02
-1.447938144029023780e-02
-4.379613764703147241e-03
6.027113651920660425e-03
1.636794880361674975e-02
2.646127473696153684e-02
3.590939892783308329e-02
4.454902404934456273e-02
5.207477431708809612e-02
5.827390824004115288e-02
6.301141025042164556e-02
6.606493443309759128e-02
6.744387393258548247e-02
6.699475123885541283e-02
6.478985164101480621e-02
6.082482754877728548e-02
5.520377566080077181e-02
4.808392258379795559e-02
3.959613234856594610e-02
3.002337365855464388e-02
1.952682490039202648e-02
8.463977108846746852e-03
-2.958226735890714248e-03
-1.437923391461494796e-02
-2.552501409788519512e-02
-3.612199286955804223e-02
-4.581088920012769961e-02
-5.444916052892269376e-02
-6.166441733642048784e-02
-6.739706531494937813e-02
-7.139074790780448876e-02
-7.353228819751833623e-02
-7.381395438966906197e-02
-7.208538524833917049e-02
-6.854496484201846873e-02
-6.309805889259915979e-02
-5.594487825269395254e-02
-4.721682250774598966e-02
-3.708471270896367133e-02
-2.585041280106513406e-02
-1.368162160573926922e-02
-9.364635453795811318e-04
1.215883147218302721e-02
2.523221145966932782e-02
3.803851948788614101e-02
5.023149712383286059e-02
6.153365624441967108e-02
7.170113856675947028e-02
8.041477947294355111e-02
8.758520345008202757e-02
9.290291196391470274e-02
9.634979276241201207e-02
9.777042574547975540e-02
9.712347554030702212e-02
9.449906866733213950e-02
8.983578519217827463e-02
8.338980496705095113e-02
7.518944514866372775e-02
6.551053294347986000e-02
5.457535709475930252e-02
4.262243695729203696e-02
3.002128494402435399e-02
1.699405857572513015e-02
3.946708754323104140e-03
-8.868022971665109194e-03
-2.107579023436514584e-02
-3.242786933819140349e-02
-4.262059548351422589e-02
-5.140619639756895121e-02
-5.861514872044948365e-02
-6.401044290273621984e-02
-6.760951704805213958e-02
-6.920805399777890665e-02
-6.889436588793963756e-02
-6.664937100282673776e-02
-6.256501036392862758e-02
-5.685400501519434491e-02
-4.957267548359252374e-02
-4.107408731441017369e-02
-3.148094441009577360e-02
-2.116436278374065824e-02
-1.038118825982509499e-02
5.860519463141969018e-04
1.135410621148563205e-02
2.172920278188714832e-02
3.130588060524051863e-02
3.992264840378538515e-02
4.726649125685346287e-02
5.316098644163896880e-02
5.745031337383045555e-02
5.996697622780103321e-02
6.071164068887198451e-02
5.957393359114618314e-02
5.667459375543155986e-02
5.200410383231567069e-02
4.574729287114710774e-02
3.804869241753425224e-02
2.910826369806901112e-02
1.923464098422389759e-02
8.605154715932317178e-03
-2.372349339296271793e-03
-1.349769495791449878e-02
-2.437072299669822834e-02
-3.472772124626308243e-02
-4.428279417704066023e-02
-5.269262617022026085e-02
-5.981834234742314238e-02
-6.532402254757699311e-02
-6.917820043791986229e-02
-7.115796239018741531e-02
-7.121788043020267633e-02
-6.936303699903566267e-02
-6.555498639206240596e-02
-5.998218985475918530e-02
-5.266142953991392872e-02
-4.384709086261696920e-02
-3.369640357374086015e-02
-2.248467651075335486e-02
-1.049208101666587040e-02
2.016011719239026688e-03
1.468065563489713565e-02
2.725199027869341928e-02
3.934225803410588973e-02
5.072916346790248832e-02
6.106243936678690254e-02
7.012712628872157239e-02
7.768903662489488882e-02
8.352679882447583415e-02
8.757426045004017279e-02
8.963351354574271290e-02
8.977516394550706658e-02
8.790345607686896046e-02
8.412873766377608475e-02
7.855935050445170265e-02
7.129742321600172905e-02
6.264736090881474484e-02
5.271968304530133542e-02
4.188677451471389812e-02
3.036823473295054490e-02
1.850412628813446689e-02
6.625253435594349871e-03
-5.004471718870506444e-03
-1.601382327833656208e-02
-2.618953098883034306e-02
-3.519895207459440567e-02
-4.289684946949345878e-02
-4.903240204211231634e-02
-5.349761465776126101e-02
-5.619309779188592924e-02
-5.704821194255578487e-02
-5.614896876004185633e-02
-5.344673919733436418e-02
-4.915480213615547322e-02
-4.332436821636863333e-02
-3.620690351995776990e-02
-2.802336416221848023e-02
-1.896862142838087739e-02
-9.416143893935292192e-03
4.747201723249673197e-04
1.030098676809988734e-02
1.985342366291193220e-02
2.882962417341116551e-02
3.694414989365209234e-02
4.402661895208130616e-02
4.979682926220951877e-02
5.416571038617599976e-02
5.694657226937969996e-02
5.810764817006268401e-02
5.758174787260075811e-02
5.539879418668722244e-02
5.162119788537238019e-02
4.633552907491525485e-02
3.974830585708745423e-02
3.196832057852278669e-02
2.330646042364586251e-02
1.393107467785710193e-02
4.171640935702623787e-03
-5.700303143362570393e-03
-1.543317744941671843e-02
-2.466352092049493155e-02
-3.321884070436229019e-02
-4.074617068550885624e-02
-4.710763649700987210e-02
-5.206359904059000565e-02
-5.545775732016960946e-02
-5.722065247199709104e-02
-5.723341945870810688e-02
-5.555940893636947264e-02
-5.216148695411294833e-02
-4.717997340666817141e-02
-4.069739340244628301e-02
-3.291711546518778786e-02
-2.403606366009924250e-02
-1.427448541165332596e-02
-3.943471423519522012e-03
6.754164294542478950e-03
1.743653376345917147e-02
2.790271702576153576e-02
3.780234843297362868e-02
4.688300518994691080e-02
5.491775469696447143e-02
6.161412615468606080e-02
6.687353579561168548e-02
7.044816455309139969e-02
7.231277199929772581e-02
7.234493738970966537e-02
7.054808700429066048e-02
6.697155676763527632e-02
6.165695609064156257e-02
5.481159692370561609e-02
4.651954968620031217e-02
3.708318721537108564e-02
2.667962723530903010e-02
1.564083121674261084e-02
4.256263233152834426e-03
-7.192183011978776908e-03
-1.831432358634351235e-02
-2.889261832301394037e-02
-3.852384667346425706e-02
-4.703190414732792701e-02
-5.410588207933658689e-02
-5.954838611705220996e-02
-6.322896550084382283e-02
-6.497339988033194735e-02
-6.481731614482585946e-02
-6.266080320014581762e-02
-5.863633834824323599e-02
-5.279123303499333453e-02
-4.531849613337017579e-02
-3.643356127089522611e-02
-2.633942758887982891e-02
-1.539815901757524835e-02
-3.820386247649314518e-03
7.970816867318444854e-03
1.971424857140547521e-02
3.104260982191240151e-02
4.162244950973982560e-02
5.120222674217664305e-02
5.944004039363280645e-02
6.618068331806067905e-02
7.116542882450982432e-02
7.431781121094510612e-02
7.550848499321487217e-02
7.473028827820785147e-02
7.201948346983563787e-02
6.742898745320938247e-02
6.118199447917423150e-02
5.336748367376117907e-02
4.431967692828434058e-02
3.423925800346865056e-02
2.345993054447101031e-02
1.234089164871673625e-02
1.133130938551827390e-03
-9.736403433422290490e-03
-2.003241673275370227e-02
-2.940102856527482614e-02
-3.759144332397028332e-02
-4.438655585525001779e-02
-4.958149402305707387e-02
-5.306020164452064647e-02
-5.474431468763528430e-02
-5.462160230772110381e-02
-5.271051029149384504e-02
-4.915676804100053976e-02
-4.403114928744937540e-02
-3.760994708492892968e-02
-3.007443190528557089e-02
-2.169303066412449008e-02
-1.282454545408970303e-02
-3.662447136071968895e-03
5.362590677874144382e-03
1.403445249816388275e-02
2.202953376731521876e-02
2.904949673320474449e-02
3.492864017268146326e-02
3.940067807479767648e-02
4.236685005545290372e-02
4.370859689598542708e-02
4.338458282188632775e-02
4.139897224629662809e-02
3.784265857725671589e-02
3.278876310407285999e-02
2.644922850558727168e-02
1.902403654612849077e-02
1.072302332462699362e-02
1.915579894182952662e-03
-7.220258973613139994e-03
-1.626186573906030636e-02
-2.496607845796304515e-02
-3.303136013805733906e-02
-4.009767364523109112e-02
-4.602435584348575637e-02
-5.047396663315664722e-02
-5.336409194617784679e-02
-5.451924576958575019e-02
-5.385498789588233359e-02
-5.139067665864893719e-02
-4.711670377433797852e-02
-4.117560154623785273e-02
-3.366699115043156332e-02
-2.482194699698142548e-02
-1.483530382366521003e-02
-4.015248682939218106e-03
7.369203035987125991e-03
1.900039414145350894e-02
3.053042701357017510e-02
4.169134768853809125e-02
5.210876355342890232e-02
6.155823317843425735e-02
6.973245382970601203e-02
7.643339269278452697e-02
8.147611307752876397e-02
8.471528334179311004e-02
8.609707307078720562e-02
8.555952038214743871e-02
8.318878264350168528e-02
7.900104083987646852e-02
7.319584066035628167e-02
6.590395664276478549e-02
5.737231462487211997e-02
4.788671420731922812e-02
3.766473169013562217e-02
2.710067031492194647e-02
1.641458737647258706e-02
5.992791728592124917e-03
-3.903919834682474665e-03
-1.299157401953925789e-02
-2.098008998742616552e-02
-2.770070250014984234e-02
-3.291991100273752857e-02
-3.656988070209109265e-02
-3.850941051321070396e-02
-3.876016653915773102e-02
-3.730009921701325781e-02
-3.423496068256440261e-02
-2.969498172955428381e-02
-2.379900282093598204e-02
-1.684503069744903644e-02
-8.952365144203789857e-03
-4.999609093722743453e-04
8.309995411856304845e-03
1.717225240425160337e-02
2.574011410966635036e-02
3.384264684763545195e-02
4.108729900542977542e-02
4.734762145809055800e-02
5.234316995812246520e-02
5.591614508436031084e-02
5.796521320768517616e-02
5.834519790239316162e-02
5.708699592725582916e-02
5.413963282216838202e-02
4.962027283304969172e-02
4.358960232800507262e-02
3.622906204311542033e-02
2.771228880907984291e-02
1.826625711526377524e-02
8.171092399872799394e-03
-2.351539670209616684e-03
-1.295190271354813849e-02
-2.340962022572491003e-02
-3.337795531342478694e-02
-4.262936625631245924e-02
-5.089886967386726691e-02
-5.794152864417451143e-02
-6.361112641154544056e-02
-6.770304182929373638e-02
-7.017663533300516621e-02
-7.091210963257126021e-02
-6.993880348562954430e-02
-6.726056795284007794e-02
-6.297639161790274942e-02
-5.721587007249577528e-02
-5.011440863002891710e-02
-4.192619177447258483e-02
-3.280190282611292196e-02
-2.308375765012367700e-02
-1.295476583326901285e-02
-2.748764885845309328e-03
7.262161008134625402e-03
1.684831977358792685e-02
2.565433809163144077e-02
3.356273470563566480e-02
4.023152752894866568e-02
4.557513880226363168e-02
4.939143640088392018e-02
5.155155933796880252e-02
5.206661513533175634e-02
5.079744020330775878e-02
4.791393041924310592e-02
4.335315509171716597e-02
3.730222641407572592e-02
2.989615549260577973e-02
2.129134398360548255e-02
1.180521149900147330e-02
1.566770560246495778e-03
-9.048667722467136285e-03
-1.984952814749309929e-02
-3.048547950977035029e-02
-4.070539857734943590e-02
-5.024688790071868416e-02
-5.880671092839363789e-02
-6.623687165345501504e-02
-7.223528296906252255e-02
-7.675966732700924278e-02
-7.958929110919718553e-02
-8.068664542653593286e-02
-8.002536763269890718e-02
-7.755096423829112295e-02
-7.342592070742059995e-02
-6.762443116425218004e-02
-6.037014598101760054e-02
-5.177506115939652098e-02
-4.204315466803316970e-02
-3.143247287915325316e-02
-2.012721092812920151e-02
-8.439257494315094421e-03
3.418675241128217145e-03
1.515026307051960466e-02
2.652265853557309386e-02
3.726508580615270350e-02
4.717991793417258828e-02
5.602950975472066608e-02
6.364488931338739552e-02
6.989092259857015987e-02
7.459973105020070716e-02
7.779131027420860267e-02
7.931082842555804702e-02
7.924845458051735236e-02
7.758855964535690819e-02
7.440979146448395420e-02
6.989948415239989610e-02
6.408858330561000016e-02
5.728179730539173509e-02
4.956323672399599867e-02
4.125572867288207490e-02
3.254489325691822810e-02
2.367646588294214371e-02
1.496939655579278272e-02
6.551629853273099532e-03
-1.183861250839786036e-03
-8.193858820180329947e-03
-1.414065681315903808e-02
-1.890208844779361214e-02
-2.237684319933934407e-02
-2.432755310624525394e-02
-2.488864494013583867e-02
-2.381573517237218357e-02
-2.126055839962474533e-02
-1.719810446919917482e-02
-1.166334315598235166e-02
-4.899242348975065692e-03
3.127250239719100294e-03
1.208683701714401322e-02
2.190875709774128474e-02
3.234006702520336729e-02
4.313501902403016341e-02
5.412146191015530794e-02
6.498071524987195091e-02
7.555548628180482063e-02
8.554859126303694661e-02
9.479068316154166951e-02
1.030257273075618346e-01
1.101095519064498457e-01
1.158549640514706242e-01
1.201063579696366040e-01
1.228145802193926356e-01
1.238102504815891680e-01
1.231827571215724781e-01
1.208197503814220641e-01
1.167959265751253167e-01
1.112014848282991408e-01
1.040726003536435601e-01
9.565266372296656050e-02
8.601339242852172606e-02
7.538999501447798957e-02
6.399700839513595974e-02
5.204143430361944656e-02
3.978770162070408012e-02
2.747457589843281187e-02
1.532028535480091380e-02
3.598411850113085106e-03
-7.490927991247366829e-03
-1.776789780699164142e-02
-2.698284223415510150e-02
-3.509287364915249230e-02
-4.185827692019970792e-02
-4.726961664770756855e-02
-5.126235554882796475e-02
-5.375069658635472925e-02
-5.488985940149514187e-02
-5.455387379285263350e-02
-5.297863139103901886e-02
-5.017099395589559585e-02
-4.629514841972030836e-02
-4.157915046427587691e-02
-3.606090648139202715e-02
-3.011679985326862555e-02
-2.376258603946870829e-02
-1.737035507406183357e-02
-1.105825627785085932e-02
-5.036271434882227602e-03
3.727338949757741382e-04
5.182430319746710035e-03
8.958492678091432154e-03
1.182203000067911548e-02
1.344749541890810467e-02
1.373793918326365882e-02
1.275443637478328868e-02
1.019479464429815831e-02
6.384177095531689758e-03
1.050528343076944683e-03
-5.635212058954808603e-03
-1.355176296613041370e-02
-2.275138380871663535e-02
-3.282068357406787984e-02
-4.384591940915472108e-02
-5.548599154376900044e-02
-6.756708038511893832e-02
-7.993071202843025913e-02
-9.220643938848943622e-02
-1.043040984775334967e-01
-1.158956205812926715e-01
-1.268021377596990906e-01
-1.368169617423362627e-01
-1.457196558639446415e-01
-1.533676794020695233e-01
-1.596056139622246406e-01
-1.643206275660379356e-01
-1.674208120141771339e-01
-1.688731642937358890e-01
-1.686224370295403008e-01
-1.667202068147561889e-01
-1.631798662279771717e-01
-1.580727067999002644e-01
-1.515218589234660906e-01
-1.436211855839926166e-01
-1.345351252353523819e-01
-1.244337690511427980e-01
-1.134695613219696281e-01
-1.018701131785568342e-01
-8.983409715029934406e-02
-7.750738940789618503e-02
-6.520113153106336934e-02
-5.300823245747594836e-02
-4.121740698727942298e-02
-2.999313791519145692e-02
-1.941415833530053467e-02
-9.805782151283774437e-03
-1.099745812289425889e-03
6.411926457130792505e-03
1.275891624821816166e-02
1.791419595618484739e-02
2.172162854776065258e-02
2.441971392211049821e-02
2.579566550736501693e-02
2.614989936342162341e-02
2.546328101249093617e-02
2.387166778828051991e-02
2.167807234051654167e-02
1.881493615901747019e-02
1.577397125301780931e-02
1.248368757932076176e-02
9.344305935289804604e-03
6.537071273524463697e-03
4.139440722630428893e-03
2.625024590139980827e-03
1.813918675883485331e-03
2.205223109487227089e-03
3.695506817718784923e-03
6.445972977701998688e-03
1.070427394466473385e-02
1.617295745038176830e-02
2.326307896540733694e-02
3.156012851644773853e-02
4.123776202805290447e-02
5.224576660989073418e-02
6.422184844499122247e-02
7.739074898720436912e-02
9.115411897161626587e-02
1.056460169999178800e-01
1.206044964799493219e-01
1.356766719144725242e-01
1.509065605110447850e-01
1.657414035255066753e-01
1.802191452266630745e-01
1.940440949988518349e-01
2.069372730896372470e-01
2.188833487580497117e-01
2.294731372025971827e-01
2.387449222869357235e-01
2.464928375743771216e-01
2.525772078080267269e-01
2.570557052442322687e-01
2.596968115675641342e-01
2.606679013589905392e-01
2.598878870678784647e-01
2.574282830898341756e-01
2.534712571018196692e-01
2.479593193658101991e-01
2.412518479617842548e-01
2.333273329887700920e-01
2.245024865089069455e-01
2.149993706685054684e-01
2.048993414567151783e-01
1.946697081191272050e-01
1.842247276368360331e-01
1.740629850970273895e-01
1.642644191981291191e-01
1.549902079733932458e-01
1.466065186371399709e-01
1.388827017404262454e-01
1.323391420471285718e-01
1.267697562837354908e-01
1.223649599017196804e-01
1.191751904748373919e-01
1.169007505373872574e-01
1.158725717310342407e-01
1.156251689677841726e-01
1.163546182386195060e-01
1.177043550653682491e-01
1.195182688601317128e-01
1.217597535108311257e-01
1.239057075815923475e-01
1.261435627850512886e-01
1.278180621150265539e-01
1.290411406363764502e-01
1.294311486622309049e-01
1.286412559964573710e-01
1.268313640342618454e-01
1.232703253849139896e-01
1.183751031346549076e-01
1.115602906678119510e-01
1.028323932296776599e-01
9.232205106475679934e-02
7.945400963097917768e-02
6.491093099773656561e-02
4.809520128921272730e-02
2.942217455883615329e-02
9.017889143136257474e-03
-1.340468307381991603e-02
-3.698421046071025120e-02
-6.220167169304584298e-02
-8.831541759166711136e-02
-1.152035212815612358e-01
-1.428952902667905145e-01
-1.704801261724283312e-01
-1.983428508000134038e-01
-2.255911566016860215e-01
-2.521914949370720471e-01
-2.780667160449567521e-01
-3.024165993116602613e-01
-3.256623319864070387e-01
-3.469543109620209509e-01
-3.664753708120321862e-01
-3.841848073685771303e-01
-3.995370941626830152e-01
-4.130969367301764450e-01
-4.241747764743791227e-01
-4.332482221059514860e-01
-4.403241595291991217e-01
-4.451971096103687908e-01
-4.485512601403968680e-01
-4.498383410307053021e-01
-4.498324265358463747e-01
-4.484529859165862220e-01
-4.458555726085667859e-01
-4.426602225917732336e-01
-4.384384704805953104e-01
-4.341043706532297652e-01
-4.293404123807862960e-01
-4.246159312823150622e-01
-4.202375735957042391e-01
-4.159130421779301257e-01
-4.124280746775398354e-01
-4.091799864552709276e-01
-4.068189869908326872e-01
-4.051588082355649378e-01
-4.040829862097889968e-01
-4.039759545943471530e-01
-4.040674154060667211e-01
-4.049876061024646479e-01
-4.060640971185297543e-01
-4.073945015925989899e-01
-4.088127099839621303e-01
-4.096531056103983048e-01
-4.103271154785071428e-01
-4.099007945185869639e-01
-4.087145556998315055e-01
-4.060922591844903229e-01
-4.018329819928130875e-01
-3.959874628045485512e-01
-3.877232904197733254e-01
-3.776332237542824322e-01
-3.647593751717761457e-01
-3.495416034985202036e-01
-3.317235390489845503e-01
-3.108586789026479003e-01
-2.877475638001640301e-01
-2.613983048729509040e-01
-2.328470253398847445e-01
-2.016426384013656481e-01
-1.678222517754144050e-01
-1.322775004095214646e-01
-9.410899896325672365e-02
-5.477643582042943105e-02
-1.366740793685260191e-02
2.874885427543629954e-02
7.165716960497590937e-02
1.158612938478168763e-01
1.596909608842032313e-01
2.039751499678066071e-01
2.479089131570004212e-01
2.909541654503407515e-01
3.338576901332904745e-01
3.749405819735985301e-01
4.153456661171466835e-01
4.539812563662880551e-01
4.908143284732545131e-01
5.265183307861507345e-01
5.595967325154477257e-01
5.915620544534099245e-01
6.210085925603030521e-01
6.486246505730075551e-01
6.748781368436203021e-01
6.986309270660167048e-01
7.216264012780763126e-01
7.422433050311391112e-01
7.618214661320432679e-01
7.804409583899185598e-01
7.974433096557315137e-01
8.144777845972022146e-01
8.298536347114413569e-01
8.452690915992832066e-01
8.602409238901547184e-01
8.746298959980269849e-01
8.896110267824451912e-01
9.035716532063600148e-01
9.182118943941356415e-01
9.324342035191615086e-01
9.465873810617406736e-01
9.610918778659451878e-01
9.746412176575186548e-01
9.885853384409872824e-01
1.001396999978020785e+00
1.013821111165778666e+00
1.025467376344772141e+00
1.035582212242189160e+00
1.044921054610442379e+00
1.051905936121615426e+00
1.057518512652780851e+00
1.060727549059825137e+00
1.061502956545315790e+00
1.059900675943438841e+00
1.054737961016459113e+00
1.047016054741252811e+00
1.035373731065622582e+00
1.020548185268226327e+00
1.001911753580963405e+00
9.790711504022782119e-01
9.528087652910139926e-01
9.217812815613177779e-01
8.874180635495950709e-01
8.484882520333639766e-01
8.056718208978278506e-01
7.592799831901796415e-01
7.082900088684043194e-01
6.546430000480996103e-01
5.966451896368371033e-01
5.360003824933451400e-01
4.724561721387854352e-01
4.054650440784465237e-01
3.371893772689174007e-01
2.655735342504462193e-01
1.931600616803235138e-01
1.189970262588143368e-01
4.311093942459273687e-02
-3.250775348087699135e-02
-1.101813257329780082e-01
-1.867838530343574055e-01
-2.641170838066497217e-01
-3.414519431054893195e-01
-4.174127722136724006e-01
-4.943968111395622422e-01
-5.689788782396002498e-01
-6.438607966234155544e-01
-7.174104502725949795e-01
-7.892857109737438925e-01
-8.616128447425562831e-01
-9.309803743541381627e-01
-1.000858409905461155e+00
-1.068508401077937098e+00
-1.134949379215276943e+00
-1.201590716673865744e+00
-1.265393519159947244e+00
-1.330263228212195559e+00
-1.392284706502609382e+00
-1.453978485971994417e+00
-1.515616039430445428e+00
-1.574891816143644041e+00
-1.635418286534207954e+00
-1.692941704125849212e+00
-1.750656133744041831e+00
-1.807663306035066864e+00
-1.862654262618912426e+00
-1.918320526383740399e+00
-1.970642347307017817e+00
-2.022862740238248858e+00
-2.072992055441507997e+00
-2.120809952325305225e+00
-2.167628874696473584e+00
-2.210210053974317468e+00
-2.251256996138578437e+00
-2.288035995823987090e+00
-2.321345982781553907e+00
-2.350983675090013492e+00
-2.374971674507832642e+00
-2.395066240174804850e+00
-2.408382297712625686e+00
-2.416559063399199569e+00
-2.418095178534108491e+00
-2.412622422607383132e+00
-2.400773072075830683e+00
-2.380217657654664976e+00
-2.353157470942810914e+00
-2.317241506720856048e+00
-2.273864457806227701e+00
-2.222485941484350747e+00
-2.162015400556358991e+00
-2.094785212038919653e+00
-2.018107830360870825e+00
-1.935062801000453581e+00
-1.843847594833237347e+00
-1.745233920438686415e+00
-1.640979711792543538e+00
-1.528556355827717539e+00
-1.412375925302174595e+00
-1.289191219036614822e+00
-1.162052662687148574e+00
-1.031225878716591104e+00
-8.947956752368113609e-01
-7.578203318373584185e-01
-6.155025288179827303e-01
-4.730512381101886765e-01
-3.284971789009019094e-01
-1.809456991494973466e-01
-3.509620480268910159e-02
1.167658616538150979e-01
2.722547084464342348e-01
4.176424593940418206e-01
5.564687599288671294e-01
7.048878390501354119e-01
8.785900038163874104e-01
1.053210097539462264e+00
1.189736331184875207e+00
1.305841417890932110e+00
1.464660910312847175e+00
1.692399178198813026e+00
1.906828148842966808e+00
2.017701348820101437e+00
2.085135646006892607e+00
2.272932866308024824e+00
2.617233843038440533e+00
2.904540663430123626e+00
2.932359222655185338e+00
2.858723303590892328e+00
3.098308950185499455e+00
3.759955850001591493e+00
4.283748699025148099e+00
3.879496219276828306e+00
2.394642736267289074e+00
6.118914536724446851e-01
