BVP Signal
-4.981735520110552873e-03
-5.194095861499868627e-02
-9.657284396217978573e-02
-1.354701610113127896e-01
-1.647443829223010636e-01
-1.803468363709576083e-01
-1.787665521088189768e-01
-1.579619246831805435e-01
-1.182612506657459428e-01
-6.292441876128623823e-02
1.874250249954620418e-03
6.772432472316858298e-02
1.252190018868103438e-01
1.655173059716130435e-01
1.819241163234024683e-01
1.711859586921622156e-01
1.342547266284510044e-01
7.636339328010131877e-02
6.372188051437462780e-03
-6.453786398953022252e-02
-1.246404610210258279e-01
-1.636387322948386347e-01
-1.745100136205912367e-01
-1.548742112533221249e-01
-1.075880383973879667e-01
-4.039761751523855693e-02
3.532533750409845574e-02
1.065391796890201026e-01
1.608114671583383004e-01
1.884986994989560627e-01
1.844375380848200796e-01
1.488612098033262054e-01
8.739992435681528948e-02
1.017918612304424819e-02
-6.983431908019786805e-02
-1.389854014775227797e-01
-1.852516094905998500e-01
-2.003544243940904301e-01
-1.812794223178051112e-01
-1.308967396912388281e-01
-5.752855574885165635e-02
2.648099017101451791e-02
1.069314198783749281e-01
1.702551636603471530e-01
2.058611326866535418e-01
2.079087317973909443e-01
1.762199680151398662e-01
1.162150460296204751e-01
3.793166401471445570e-02
-4.567643511928357047e-02
-1.208800946947913013e-01
-1.754257154785632267e-01
-2.005492933761917063e-01
-1.924238944183145894e-01
-1.527833604357644037e-01
-8.859866938258945113e-02
-1.085654472036143292e-02
6.733878014743160945e-02
1.329925137983907213e-01
1.753742663471611063e-01
1.877335900135393143e-01
1.683137669102405254e-01
1.205421124906253250e-01
5.240948025137433242e-02
-2.484434436505441463e-02
-9.854530228873095710e-02
-1.566389571486700993e-01
-1.896676066636665547e-01
-1.923372719605807857e-01
-1.643899038542276647e-01
-1.106134222179659121e-01
-3.998232933332766803e-02
3.591304238955876638e-02
1.048550508003593396e-01
1.560349742948234086e-01
1.817715771903998245e-01
1.786344092419419605e-01
1.478339092636045682e-01
9.487996210892468696e-02
2.861220236604042344e-02
-4.023287644364641896e-02
-1.007111612132133294e-01
-1.433770125960745212e-01
-1.617538128514305340e-01
-1.533396482322260390e-01
-1.199808363243306808e-01
-6.753860341923084709e-02
-4.889106398801123035e-03
5.757809759884387896e-02
1.096928208092135121e-01
1.431526563235521743e-01
1.528066185617953654e-01
1.373896420666350093e-01
9.963515825142293947e-02
4.578506281698738883e-02
-1.541505690147644200e-02
-7.408886923116500545e-02
-1.207709835363533490e-01
-1.478854696812983427e-01
-1.509340729050561436e-01
-1.292096328453796183e-01
-8.591848460728800096e-02
-2.768178942482072205e-02
3.651140422176168271e-02
9.672136641868647744e-02
1.435955742387386436e-01
1.697714999100596867e-01
1.709429939504209517e-01
1.464669759650454595e-01
9.945560099433525814e-02
3.635348612341847419e-02
-3.394770448891604869e-02
-1.013499312423734589e-01
-1.559891463209566453e-01
-1.896871126303636135e-01
-1.972096430512615128e-01
-1.771274708201692749e-01
-1.321093711638846036e-01
-6.855992251316025965e-02
4.357542709296224892e-03
7.613745062041515910e-02
1.365253758411015539e-01
1.770150326502817340e-01
1.920265961925428366e-01
1.796215520153583434e-01
1.416892539510974103e-01
8.361456284016444140e-02
1.349870533543461038e-02
-5.895054367635749193e-02
-1.237195321758772504e-01
-1.718279337047278477e-01
-1.965432912225471285e-01
-1.943036946279821930e-01
-1.652036255619936389e-01
-1.129592250317908719e-01
-4.435869659054516440e-02
3.170569483364354957e-02
1.054599524324220938e-01
1.675297727196385644e-01
2.100957576441636054e-01
2.277846993352660721e-01
2.182276374088589765e-01
1.822754125875820086e-01
1.238909996804304359e-01
4.973839912076565700e-02
-3.151395509835623610e-02
-1.101399888091844081e-01
-1.764824145967967550e-01
-2.221496765985671584e-01
-2.411415264231893119e-01
-2.307373683072613813e-01
-1.919791744151182755e-01
-1.296238721265793314e-01
-5.153787726051388407e-02
3.236988628288313408e-02
1.114847512947524100e-01
1.758717935606350646e-01
2.175194436268184095e-01
2.313049688817143124e-01
2.155946770419955305e-01
1.724313873136278097e-01
1.072997450826429500e-01
2.849682300676912791e-02
-5.383483975400578381e-02
-1.289301477559786635e-01
-1.867677824385904906e-01
-2.194257183772340691e-01
-2.222351073650650766e-01
-1.945366164874587633e-01
-1.398853522569473429e-01
-6.563532422757040186e-02
1.805611104727574551e-02
9.965356825684539011e-02
1.678668022749297828e-01
2.132122653719686067e-01
2.292878721092870276e-01
2.136113902203875536e-01
1.679520306323731005e-01
9.813998223535463916e-02
1.337238731911400899e-02
-7.492991287840244929e-02
-1.546075964115636858e-01
-2.144220630350242851e-01
-2.456727909918616781e-01
-2.435349189616329291e-01
-2.078880497444191844e-01
-1.434571993016779679e-01
-5.919063986802676480e-02
3.305077430313536208e-02
1.202681198474314095e-01
1.902482828899563772e-01
2.333210933539101029e-01
2.436981887186056017e-01
2.202313391001293197e-01
1.665167339839854488e-01
9.035542135544888387e-02
2.656273804874733496e-03
-8.407247274975115925e-02
-1.574584428966403771e-01
-2.070163307810571340e-01
-2.256820818179596511e-01
-2.108897765316419537e-01
-1.649871063311363628e-01
-9.488408000133617681e-02
-1.097638807656769674e-02
7.446701981896050593e-02
1.491635939701281555e-01
2.026094762319066156e-01
2.275291442601640735e-01
2.207905139894323354e-01
1.836987478303712951e-01
1.216842289123038767e-01
4.347459335292145483e-02
-4.012189899687747252e-02
-1.176779611802770131e-01
-1.786906842890313429e-01
-2.150177717170650427e-01
-2.220064365638480530e-01
-1.991390844584520203e-01
-1.500821528422041640e-01
-8.211440422459131971e-02
-5.015680941614888283e-03
7.040145070877851241e-02
1.338646961598730922e-01
1.770566698032314257e-01
1.946638956461029801e-01
1.849488383896122357e-01
1.498266109143332470e-01
9.448998583207926516e-02
2.666040266262381664e-02
-4.443412994761671009e-02
-1.092349880476139873e-01
-1.590556177440030361e-01
-1.871860850138595267e-01
-1.897766755918372517e-01
-1.663772930979908748e-01
-1.200260710646839646e-01
-5.683981967648296663e-02
1.484217253940416092e-02
8.561233944594995315e-02
1.462501503091955257e-01
1.888938326501193032e-01
2.079902614739043420e-01
2.009346861081313107e-01
1.683542610101063930e-01
1.140262141522455919e-01
4.445174122296023655e-02
-3.187408608423172862e-02
-1.054424590082508051e-01
-1.668830220894587935e-01
-2.081689545311837808e-01
-2.237144060308898785e-01
-2.111897531152823471e-01
-1.719076329113383983e-01
-1.106961821932019724e-01
-3.526192534040779869e-02
4.486149439770455161e-02
1.196026460898797217e-01
1.796653333547205689e-01
2.176707561701617388e-01
2.289993679363732104e-01
2.122757860050731860e-01
1.694867394967654040e-01
1.057394722798608855e-01
2.868034257903196230e-02
-5.237941736406220850e-02
-1.275466643552150281e-01
-1.875246021321246293e-01
-2.247582343148311623e-01
-2.344118423897531001e-01
-2.150416862781096006e-01
-1.688454670905556454e-01
-1.014248968075626978e-01
-2.108277040397728286e-02
6.223933599161107777e-02
1.382223949459529533e-01
1.974546401761855252e-01
2.325778594169816693e-01
2.391656792788497965e-01
2.162488428351284075e-01
1.664494906043310629e-01
9.572105128520000394e-02
1.270892818889703124e-02
-7.223339509321556606e-02
-1.482980899542528375e-01
-2.056135423654630867e-01
-2.365882736551059851e-01
-2.370076969042825832e-01
-2.067047847997970922e-01
-1.496768905766092395e-01
-7.359682440925667535e-02
1.123343262993182871e-02
9.332931056413677762e-02
1.616341526583391641e-01
2.070398771949182593e-01
2.236064269383470915e-01
2.093378848026919425e-01
1.664371823878137702e-01
1.010139934273803775e-01
2.227553993769728138e-02
-5.870573278543145257e-02
-1.304940896027372566e-01
-1.828706787879477991e-01
-2.082859948222779145e-01
-2.029805915852625764e-01
-1.675920998137691020e-01
-1.071242979546854768e-01
-3.025444246170895871e-02
5.192148466558526437e-02
1.275003897055495272e-01
1.854820680702538582e-01
2.173241752369722279e-01
2.181342557167590956e-01
1.873558546952154846e-01
1.288766726046434996e-01
5.055392229810817817e-02
-3.679134606044662942e-02
-1.208104280302007838e-01
-1.893412638513481405e-01
-2.321893347049031886e-01
-2.427128349819875075e-01
-2.189374224975898231e-01
-1.639756785258061622e-01
-8.563852454087293731e-02
4.723796750982178078e-03
9.396220998322804552e-02
1.691479698242315255e-01
2.195210229816904057e-01
2.380501213742317601e-01
2.223841406783440000e-01
1.750984827667456944e-01
1.032506559004245372e-01
1.733537461170543692e-02
-7.021821681880457966e-02
-1.468173475535420325e-01
-2.015109646790232689e-01
-2.265745453892229477e-01
-2.186362256472747512e-01
-1.791611528855523439e-01
-1.141974980964968189e-01
-3.340478719313833000e-02
5.147621238284185580e-02
1.284317901241282811e-01
1.869315273227582508e-01
2.193464914393914444e-01
2.218523057476474158e-01
1.947569321102938233e-01
1.422789875531748072e-01
7.185479388484064533e-02
-6.912972905973299720e-03
-8.352730994185218749e-02
-1.479416130273922825e-01
-1.918339537051522714e-01
-2.096749758638893901e-01
-1.994553127726217956e-01
-1.629515438888629042e-01
-1.054609122146917266e-01
-3.502718821990002951e-02
3.871765939050696853e-02
1.058996774098799054e-01
1.577221301271108378e-01
1.875732744561428023e-01
1.917980843054133966e-01
1.700762528594321199e-01
1.254042919570134695e-01
6.371196473407780836e-02
-6.845373482802938336e-03
-7.686907690010605365e-02
-1.368994333058335955e-01
-1.786763976495299167e-01
-1.963094267550463679e-01
-1.871668451428495361e-01
-1.523189997913733662e-01
-9.643418309779555608e-02
-2.711993254354490290e-02
4.619001179741805130e-02
1.136062866180837239e-01
1.661656801978349529e-01
1.969989595949490080e-01
2.021390270612855034e-01
1.809177897372319932e-01
1.359663665087030848e-01
7.285935936156981430e-02
-5.506466960330455573e-04
-7.505219353667359761e-02
-1.411700978244467553e-01
-1.903341103291554259e-01
-2.159947511104887141e-01
-2.145380843980411734e-01
-1.858432631887007025e-01
-1.333568125606696408e-01
-6.363847323761932795e-02
1.455480288268628380e-02
9.148156578915143944e-02
1.577124324153116597e-01
2.053082206164108525e-01
2.287277566617448021e-01
2.253807178498550001e-01
1.958085922831880044e-01
1.435294012430949340e-01
7.460448951522230532e-02
-3.020470662912052434e-03
-8.036006211814322731e-02
-1.483708716335780664e-01
-1.989899019676949765e-01
-2.261143263753143673e-01
-2.263928294210500181e-01
-1.997093832248049428e-01
-1.492688877053582330e-01
-8.124095213104380597e-02
-3.988617166000537825e-03
7.300821426041519124e-02
1.403626363860678572e-01
1.899398242966307548e-01
2.158175697151166195e-01
2.149556419935362839e-01
1.875270265829668548e-01
1.368946074958916626e-01
6.924273703188038587e-02
-7.100149003400137854e-03
-8.259003935129657914e-02
-1.475749031118548382e-01
-1.934914959733465556e-01
-2.140290822219421685e-01
-2.060982608813447525e-01
-1.704248639200436066e-01
-1.116193828210967631e-01
-3.765522412427387000e-02
4.119928424597672778e-02
1.138432674509233800e-01
1.699709087133820518e-01
2.016015742949434919e-01
2.042679142103143719e-01
1.776836238801850210e-01
1.258038903399884001e-01
5.627868627333798557e-02
-2.062963730772073012e-02
-9.352902320765246746e-02
-1.515820268972815077e-01
-1.861435894205357711e-01
-1.920922602501057008e-01
-1.686339479251373341e-01
-1.194383691295378691e-01
-5.207306062714443795e-02
2.318347927935162506e-02
9.495126543487977799e-02
1.524967177762836246e-01
1.873184847036766798e-01
1.943329075295057995e-01
1.725240655050598038e-01
1.250168401258536233e-01
5.859541949640454522e-02
-1.726112689185312077e-02
-9.170410398726014378e-02
-1.540325190398263433e-01
-1.952061042180487926e-01
-2.091539952084400800e-01
-1.936930361211693929e-01
-1.509010407758156480e-01
-8.685301311769490218e-02
-1.073245943398551915e-02
6.654421508886321224e-02
1.339524073820786421e-01
1.819615771755301870e-01
2.038760742912454904e-01
1.967421172174990129e-01
1.617196782510246789e-01
1.038872905929811297e-01
3.151902615890012083e-02
-4.506096471821983973e-02
-1.148961762307083856e-01
-1.679171262725290548e-01
-1.963791652117801156e-01
-1.960206093391918536e-01
-1.667449585239764165e-01
-1.126817133827077433e-01
-4.158784296093176458e-02
3.631580869193597183e-02
1.098710786072329276e-01
1.686165237640288861e-01
2.042742333479012906e-01
2.118764312933070215e-01
1.903895596230269494e-01
1.427786309367170547e-01
7.553454582382776450e-02
-2.252147874439534153e-03
-8.014456530079934471e-02
-1.477785470404475721e-01
-1.962586144694800083e-01
-2.193355833049625003e-01
-2.141998347202512809e-01
-1.817857446245872699e-01
-1.265575350686602152e-01
-5.581994747806391655e-02
2.133440818621377272e-02
9.527109032713848569e-02
1.570543949545242235e-01
1.995022972660556726e-01
2.179376651742002680e-01
2.105924060470616421e-01
1.786744563174392786e-01
1.261295471147575731e-01
5.913776194419163162e-02
-1.460183738734893710e-02
-8.672681048662325698e-02
-1.491241411105522496e-01
-1.948169782211534584e-01
-2.187432514193785038e-01
-2.183397573074194464e-01
-1.938457245455160183e-01
-1.482636588908686492e-01
-8.696725311999886632e-02
-1.701017066164101782e-02
5.375726514780230364e-02
1.176278351768551694e-01
1.678976561029417169e-01
1.995386847209809356e-01
2.096258459877404223e-01
1.975170448417358782e-01
1.648209100231766144e-01
1.151910988981522665e-01
5.396858556585421018e-02
-1.231928026136457771e-02
-7.658543667098695329e-02
-1.318946722298459662e-01
-1.721989808930246002e-01
-1.930242158748119163e-01
-1.920251890223073077e-01
-1.693166896526779319e-01
-1.274980189426058175e-01
-7.133754685333951184e-02
-7.161827096741263388e-03
5.793636729946018138e-02
1.169284586022665412e-01
1.635942776389902875e-01
1.931010573960207644e-01
2.023889172203832132e-01
1.903742253906465232e-01
1.580013488437050917e-01
1.081685400027443400e-01
4.553135720073789305e-02
-2.383470337689142307e-02
-9.293111688340958965e-02
-1.544859623918874159e-01
-2.017131678845215936e-01
-2.291071659741886202e-01
-2.331736306128169844e-01
-2.129749257939163587e-01
-1.703636480819007981e-01
-1.098146006264365815e-01
-3.785224155865220264e-02
3.782284292756175892e-02
1.093295005706633460e-01
1.695337588736151591e-01
2.127667503765559021e-01
2.352662286360499011e-01
2.353479121213696845e-01
2.133649173621887940e-01
1.715345277707606697e-01
1.136975410870827152e-01
4.503526241019818743e-02
-2.827226341364771911e-02
-9.947863291242342587e-02
-1.618080933007332300e-01
-2.090770906827641162e-01
-2.363493231354688029e-01
-2.405478668516514429e-01
-2.209231662584245637e-01
-1.792628909425653394e-01
-1.197558739983352605e-01
-4.849870842002043658e-02
2.726874848638871640e-02
1.000443157610227674e-01
1.628962598120134164e-01
2.101223884869228564e-01
2.376728356503609030e-01
2.433409651967189669e-01
2.267804070606070643e-01
1.894261611883464314e-01
1.343752484350519971e-01
6.623355510882752983e-02
-9.107640948503525902e-03
-8.481566910988992680e-02
-1.536152163490094591e-01
-2.084444531804124368e-01
-2.432317698444688148e-01
-2.537072252065616373e-01
-2.381101109003128380e-01
-1.976245582839698811e-01
-1.364008785590143658e-01
-6.110817228278947466e-02
1.991739108998033525e-02
9.776474887633510025e-02
1.640738642854783214e-01
2.120076143356037224e-01
2.369424969235630063e-01
2.368274200708520016e-01
2.122300143148844187e-01
1.661342984486154362e-01
1.035600938257114911e-01
3.105212609146131009e-02
-4.393669209154729693e-02
-1.137454569487092448e-01
-1.712499098043295809e-01
-2.105931114287720451e-01
-2.278297862610601243e-01
-2.214006865947865943e-01
-1.923469687092424496e-01
-1.441894516369952584e-01
-8.245092108218686489e-02
-1.388594182380006870e-02
5.443307968458076240e-02
1.159858191302012009e-01
1.654673501440470096e-01
1.991550576753441382e-01
2.149777896617228179e-01
2.123644187217930690e-01
1.919973650338980542e-01
1.555953413699116550e-01
1.057949153358297145e-01
4.611949544206950247e-02
-1.903907647110638854e-02
-8.451915001033219466e-02
-1.446384335893900475e-01
-1.936234185798851315e-01
-2.262032877014909515e-01
-2.383008430708916103e-01
-2.276992489501217243e-01
-1.945316813440643999e-01
-1.414593827012618210e-01
-7.347416251692678868e-02
2.647359097622196955e-03
7.913792475647694891e-02
1.481471266450440361e-01
2.026252542723799011e-01
2.370694832076532255e-01
2.480594613793134506e-01
2.345555430669689634e-01
1.979649945728867155e-01
1.419904349863271298e-01
7.227227755234522100e-02
-4.157320116190250936e-03
-7.957158622668761283e-02
-1.463372114652339295e-01
-1.977190059667086885e-01
-2.286191086400144457e-01
-2.361602517702240389e-01
-2.200176983726553348e-01
-1.824223073174130738e-01
-1.278126322930128178e-01
-6.219568194843325126e-02
7.652339891157270563e-03
7.498675645526210742e-02
1.337625058343979989e-01
1.790928874695399409e-01
2.074881479374452165e-01
2.169201741479979684e-01
2.067940076424432116e-01
1.779053756967035882e-01
1.324237310374850041e-01
7.388188594553926625e-02
7.108321321880224641e-03
-6.197228021603387593e-02
-1.267234441569645154e-01
-1.803812176904923403e-01
-2.168058093969820188e-01
-2.313106270696849154e-01
-2.214221545982442141e-01
-1.873981036464728023e-01
-1.323639281585747562e-01
-6.201634575543219646e-02
1.605046803730138250e-02
9.326153708489881566e-02
1.610606016177927868e-01
2.118540453669459089e-01
2.398065146679317361e-01
2.414429766437574121e-01
2.160428662229372798e-01
1.658142992422173279e-01
9.581552207797067178e-02
1.357381732593437168e-02
-7.163093001427771334e-02
-1.497925627309889818e-01
-2.114114764329881047e-01
-2.487645259817116705e-01
-2.570085757336605936e-01
-2.349182205242764110e-01
-1.851041855473183340e-01
-1.136507439776521244e-01
-2.923514369402753499e-02
5.809152487257694675e-02
1.382233875822772851e-01
2.021978823622038735e-01
2.431244742156290772e-01
2.567826267543285579e-01
2.418991042101346078e-01
2.001558492859783489e-01
1.359851960831599538e-01
5.618388494207005035e-02
-3.065808405366568165e-02
-1.149327826750353859e-01
-1.869874053870687336e-01
-2.382291936994601067e-01
-2.622315902206391325e-01
-2.556692796779828081e-01
-2.189044975394469628e-01
-1.560810865468223174e-01
-7.465938771677854691e-02
1.555999801322718173e-02
1.037532914221198505e-01
1.794854227509180278e-01
2.339786048160703569e-01
2.610773034844227625e-01
2.578442324969201227e-01
2.247870191444908405e-01
1.657405277344794758e-01
8.743564544292538321e-02
-1.207763219288535399e-03
-9.001404516846706061e-02
-1.686476155228654461e-01
-2.277884296973875788e-01
-2.602720346618158653e-01
-2.620428099143080614e-01
-2.327548059197191432e-01
-1.758880480453350881e-01
-9.833031034957606664e-02
-9.478996080112255321e-03
7.998988930271831721e-02
1.594834600592649754e-01
2.197747745577569856e-01
2.540372033035208088e-01
2.585341588253178280e-01
2.329439362334189134e-01
1.803438855464213064e-01
1.068815402544055493e-01
2.114817040776292151e-02
-6.672280582858128306e-02
-1.461758122116026959e-01
-2.074727052917047510e-01
-2.429204090021222229e-01
-2.479312546624151126e-01
-2.217466588264946359e-01
-1.676688106072159457e-01
-9.270915497658310800e-02
-6.674124529307434717e-03
7.916954779426382816e-02
1.536254686374770306e-01
2.070533157311001404e-01
2.326061799786970918e-01
2.270777002658818100e-01
1.912816693378053545e-01
1.299444317682457994e-01
5.113528228312626267e-02
-3.470877098763829049e-02
-1.160804500044884530e-01
-1.819010465352525752e-01
-2.230487513558725432e-01
-2.336971166888198725e-01
-2.122310897746614577e-01
-1.615526530644991465e-01
-8.869025933640176107e-02
-3.760899097584036177e-03
8.153646710722946278e-02
1.556273481856908503e-01
2.086735798061626901e-01
2.338421841740420115e-01
2.280829353040667584e-01
1.923783102391402045e-01
1.315085481866195283e-01
5.340537761989665178e-02
-3.182760773617880623e-02
-1.131411787122009183e-01
-1.799033037172777238e-01
-2.232606257118916471e-01
-2.373386869009339595e-01
-2.201096893780757902e-01
-1.737651862938697778e-01
-1.044801840086010403e-01
-2.155897023014055613e-02
6.390905064702830096e-02
1.406399337228145252e-01
1.987091476660568512e-01
2.308293486610853984e-01
2.332009840810370105e-01
2.058745735079998695e-01
1.526339825139322592e-01
8.045872232717549144e-02
-1.349789856497089074e-03
-8.228575303673453523e-02
-1.519072480905112876e-01
-2.011488730174309514e-01
-2.235396769447715037e-01
-2.161526634492021426e-01
-1.801075971214390892e-01
-1.204972736269747657e-01
-4.570557412042741685e-02
3.379372792761575067e-02
1.069620929906688056e-01
1.637888318903182039e-01
1.966938125633537759e-01
2.015371064442310622e-01
1.781184335468118107e-01
1.301346648297902753e-01
6.462611029629181103e-02
-9.015407321949123198e-03
-8.036199453185453867e-02
-1.394229469022604251e-01
-1.780656249087142207e-01
-1.911638859867230422e-01
-1.772920350999598604e-01
-1.388570009420440343e-01
-8.165385332727442824e-02
-1.392749105375454960e-02
5.488744627910418367e-02
1.155212248496662042e-01
1.600943560970329305e-01
1.830512010379895804e-01
1.817277692781572307e-01
1.565528797492206081e-01
1.109161479115840787e-01
5.073952532995050502e-02
-1.621300798419838055e-02
-8.124266442513504438e-02
-1.357716556831990995e-01
-1.724483708347242517e-01
-1.861681873844550084e-01
-1.748489326060612137e-01
-1.398038683395680659e-01
-8.561090599533442702e-02
-1.947890491753709666e-02
4.977676825954217843e-02
1.129629614663269499e-01
1.617405689100348265e-01
1.896902146981302995e-01
1.930928876355991752e-01
1.713571725375955812e-01
1.270700624129797729e-01
6.568456971049729809e-02
-5.119603363972716897e-03
-7.635043313098895112e-02
-1.388167418609649040e-01
-1.843231205838791742e-01
-2.067881985970642100e-01
-2.031134651169567151e-01
-1.736552059679310756e-01
-1.222089615402876805e-01
-5.549190802696204322e-02
1.780400786631335108e-02
8.823099728450732593e-02
1.468662020764164300e-01
1.864485075505675771e-01
2.022263866325571813e-01
1.924544392755960232e-01
1.585377240541877841e-01
1.048456431751895040e-01
3.821752881004349123e-02
-3.281257416251677494e-02
-9.902205360146101865e-02
-1.516528191354643562e-01
-1.835890527083864354e-01
-1.903989265887528204e-01
-1.710544917042515489e-01
-1.281616522723054152e-01
-6.761539080864048534e-02
2.272607398284172409e-03
7.200185207654383190e-02
1.322308188965334586e-01
1.750203728388925184e-01
1.948082553188089927e-01
1.890221136280526570e-01
1.583029764489349289e-01
1.063612563726570037e-01
3.951754483351090086e-02
-3.401295556572198064e-02
-1.050401539477967688e-01
-1.644671214602275722e-01
-2.044206927999858980e-01
-2.193128733364117233e-01
-2.066700049815989593e-01
-1.675749704013889674e-01
-1.066186464903510489e-01
-3.133828539588852380e-02
4.878442651329747276e-02
1.236064353801341192e-01
1.836767034711975222e-01
2.214505350839933440e-01
2.322064664207872386e-01
2.145807252263106091e-01
1.706962686847418587e-01
1.058986741573016144e-01
2.813020361480794707e-02
-5.300466780686111101e-02
-1.273967076828497191e-01
-1.856917110374221025e-01
-2.205046793656921800e-01
-2.274259396471958738e-01
-2.056594817507955142e-01
-1.581672256300196144e-01
-9.126994587293446592e-02
-1.376350853006819142e-02
6.429407733571843031e-02
1.329227327404672865e-01
1.834938721005497375e-01
2.097826514180404500e-01
2.086895072098946535e-01
1.805672389242117259e-01
1.291370788376229317e-01
6.102034107741621805e-02
-1.505771783872011937e-02
-8.931667311921756558e-02
-1.521266338767825743e-01
-1.952433793868208201e-01
-2.129127536041341417e-01
-2.026752316570147872e-01
-1.657328143803712961e-01
-1.068061403287261235e-01
-3.349266541167497668e-02
4.477755312180042857e-02
1.180187648736133743e-01
1.769917338367990034e-01
2.143398971381544060e-01
2.254301259787070966e-01
2.088418794819255631e-01
1.664975079085179721e-01
1.034436750318873943e-01
2.729949135060551896e-02
-5.259661048004261874e-02
-1.262770539835054162e-01
-1.843693372309866407e-01
-2.193160058393173184e-01
-2.264272355022509120e-01
-2.045969380240987845e-01
-1.565403307549257939e-01
-8.848239989659081872e-02
-9.332566027527244845e-03
7.051744937404515190e-02
1.405795590935007555e-01
1.916442073193966311e-01
2.169763031461672820e-01
2.131956411647725202e-01
1.807397217277730839e-01
1.238515194393396690e-01
5.008611051918882007e-02
-3.062103456674988150e-02
-1.072354307111233196e-01
-1.691162913972597270e-01
-2.075300892589652391e-01
-2.169582072846957810e-01
-1.959760096659451944e-01
-1.475362391030319575e-01
-7.858670855459923277e-02
9.321104339462676913e-04
7.955416938899054213e-02
1.459817781606822795e-01
1.907325144444670662e-01
2.074863902552026851e-01
1.939510382431994251e-01
1.521537260133709879e-01
8.814892198499392484e-02
1.118764291777562397e-02
-6.755773512671711667e-02
-1.365665032195773620e-01
-1.856378316709564325e-01
-2.074136928651500178e-01
-1.985168607347749803e-01
-1.601092299459460910e-01
-9.775825399503082491e-02
-2.061034474084900633e-02
6.000478383299746865e-02
1.323037026984758002e-01
1.858173219807344734e-01
2.129142610739202524e-01
2.098681728925964607e-01
1.773498904917311103e-01
1.203052469675074954e-01
4.724233585848486294e-02
-3.098843961107654657e-02
-1.027743901606483629e-01
-1.574750184036963763e-01
-1.870673289362999592e-01
-1.874480363190255683e-01
-1.591595413102455114e-01
-1.073699789300063268e-01
-4.105623747158171355e-02
2.850000692289139659e-02
8.963815742321833147e-02
1.323098965736136390e-01
1.497768989292715403e-01
1.397265895440087946e-01
1.046270852818945996e-01
5.126836203750109733e-02
-1.043262443885709101e-02
-6.916447076664609950e-02
-1.142036428411864063e-01
-1.373151881239752237e-01
-1.342441845113339083e-01
-1.055196697788989002e-01
-5.639407800973142426e-02
4.102652444073220939e-03
6.482848708045758912e-02
1.145872867615628232e-01
1.441740415742109038e-01
1.480257829770223188e-01
1.251968445404458008e-01
7.951113689825603514e-02
1.888271531258584046e-02
-4.607205248089264044e-02
-1.038917823164956233e-01
-1.442779632195075046e-01
-1.599091468105471037e-01
-1.477489114640938850e-01
-1.096136062403646749e-01
-5.188409612943642446e-02
1.560084799645117259e-02
8.126710465260489347e-02
1.338149736869053696e-01
1.641449732341925816e-01
1.668744481881669350e-01
1.412185381894112690e-01
9.112020817800388361e-02
2.462087994771016558e-02
-4.743236853003677395e-02
-1.131471155625944358e-01
-1.615382159339506796e-01
-1.843582663378364184e-01
-1.775002325173745954e-01
-1.417221373565975273e-01
-8.254747614519226950e-02
-9.344917400051527823e-03
6.624200260805554463e-02
1.322158817017236310e-01
1.781517669475948529e-01
1.968181990656379665e-01
1.852620657028329343e-01
1.452179619553827239e-01
8.279690494802689760e-02
7.509295271595228111e-03
-6.922273242865258081e-02
-1.358283552972601727e-01
-1.823508363950299416e-01
-2.019373460405611553e-01
-1.918228796581474549e-01
-1.536499718603461795e-01
-9.307906339277116636e-02
-1.878421455399878481e-02
5.894606950145996060e-02
1.297227399723889507e-01
1.844277697113543280e-01
2.162676913349336205e-01
2.214287896494943064e-01
1.993311054492032386e-01
1.525278920165809571e-01
8.631985106964017163e-02
8.152123540074766861e-03
-7.315550408517831893e-02
-1.483097378340315076e-01
-2.085333938706960544e-01
-2.465683944039356867e-01
-2.575792597002620199e-01
-2.398242186198999426e-01
-1.949696592259129446e-01
-1.279617385837561738e-01
-4.643656152271249948e-02
4.025857523319623099e-02
1.222705395719553279e-01
1.904608104130193214e-01
2.374477958826359258e-01
2.583519109205986708e-01
2.512095316782451682e-01
2.170763837741692681e-01
1.598562835315097963e-01
8.588814292753012281e-02
3.322950543826190539e-03
-7.867413428494651750e-02
-1.508561198567304751e-01
-2.049058626085728529e-01
-2.344386308128023066e-01
-2.358644469416572020e-01
-2.089562418778244113e-01
-1.569918515514532598e-01
-8.640582592148796093e-02
-5.980057754389988406e-03
7.430707196360267219e-02
1.445875488774807371e-01
1.963561624159615993e-01
2.234832455756124436e-01
2.228718082721112270e-01
1.947276363964975388e-01
1.424712566677207581e-01
7.233868142282495750e-02
-7.289246100900904912e-03
-8.679007415299244688e-02
-1.563770452529099075e-01
-2.072598933151320044e-01
-2.327677974938403560e-01
-2.292900171783046059e-01
-1.968791530373172338e-01
-1.393791304197924963e-01
-6.400352254590073453e-02
1.960255809089880147e-02
1.006682980560138219e-01
1.687488687851968205e-01
2.150963184556000662e-01
2.337708010394305425e-01
2.223758771305137105e-01
1.823541707812988411e-01
1.188219910118998024e-01
3.996230472481866747e-02
-4.396420702213615916e-02
-1.218944218857392903e-01
-1.833956766762142310e-01
-2.200915233978356089e-01
-2.268819075530875140e-01
-2.027502253985362102e-01
-1.509892970325742156e-01
-7.877181149317705189e-02
3.883576963426674938e-03
8.557990036327203787e-02
1.551936775737121355e-01
2.034389626624115155e-01
2.241048825793533483e-01
2.148036041381617411e-01
1.771618835236719591e-01
1.164795435470582785e-01
4.094296486778863098e-02
-3.948241213497431096e-02
-1.143398103197623139e-01
-1.739999444554956309e-01
-2.108606353496431107e-01
-2.202891971332630594e-01
-2.011971650949204160e-01
-1.561730643759405568e-01
-9.114118793346290270e-02
-1.457211909960998836e-02
6.365231375726929097e-02
1.335440830566492765e-01
1.862792061767517549e-01
2.152608451334551698e-01
2.168723170293153091e-01
1.908781284157761160e-01
1.404599427029550041e-01
7.188379173431166946e-02
-6.189425429073816542e-03
-8.370695386012633188e-02
-1.504591153148483740e-01
-1.974251418511021594e-01
-2.180668835796907845e-01
-2.093694824759138595e-01
-1.724204547116665598e-01
-1.123714040796096186e-01
-3.774325540284824421e-02
4.082087262762312818e-02
1.121368635507647982e-01
1.661260087763369586e-01
1.952687388960925585e-01
1.956599627539846731e-01
1.675355891232849781e-01
1.152225838493478594e-01
4.653760797252796955e-02
-2.828823999076690576e-02
-9.804106861425004871e-02
-1.521503797513558687e-01
-1.822956412263023462e-01
-1.837398622965348560e-01
-1.561434993111012470e-01
-1.036835999646165407e-01
-3.442916651829300984e-02
4.092951718873714256e-02
1.107724142455539795e-01
1.643612816960005885e-01
1.934643111224687018e-01
1.935482478725756850e-01
1.643952958757871063e-01
1.101053451802940786e-01
3.851602065028644772e-02
-3.988485547307254325e-02
-1.134403145599035823e-01
-1.710289717652551666e-01
-2.037638380946200090e-01
-2.064219946718461873e-01
-1.783548252615798635e-01
-1.236911227080533804e-01
-5.075380432438517109e-02
2.924479355371188000e-02
1.040118568752433081e-01
1.621569275850233138e-01
1.949878269648925300e-01
1.978206232450765989e-01
1.706246992474406698e-01
1.179499911953699465e-01
4.818245165122922447e-02
-2.775301558280114655e-02
-9.806051592819611806e-02
-1.518776107269676490e-01
-1.809533990983648866e-01
-1.809451071889422447e-01
-1.521213420422305451e-01
-9.933617393279922658e-02
-3.124904847069388120e-02
4.109568588677481316e-02
1.060821453044078766e-01
1.534021949210026547e-01
1.756785930783962280e-01
1.695860355766147798e-01
1.363276303389173716e-01
8.141917640105612863e-02
1.381553440032337945e-02
-5.550440577196659453e-02
-1.152943344077014820e-01
-1.558730721559228038e-01
-1.707387374609245778e-01
-1.576859095490073803e-01
-1.192089416577050143e-01
-6.208642545852481598e-02
3.801735132916090991e-03
6.720701299627862557e-02
1.174601253735173267e-01
1.462749979986833759e-01
1.491108061548622465e-01
1.258954835783134274e-01
8.101628672190722136e-02
2.257877790362584902e-02
-3.896349333954145927e-02
-9.260086167668019064e-02
-1.286868937272774294e-01
-1.406522095423590746e-01
-1.262001611681665691e-01
-8.774927040427604741e-02
-3.201794661097573380e-02
3.118207574489132577e-02
9.070607065094959953e-02
1.360408322280571569e-01
1.591081820146803827e-01
1.556108837299988445e-01
1.257311229033497846e-01
7.409738319197167744e-02
9.032049272698489117e-03
-5.880965191954218990e-02
-1.181998606744834035e-01
-1.592131124353902139e-01
-1.749068617280123417e-01
-1.625258364109198050e-01
-1.240160976920744729e-01
-6.573679517241518000e-02
2.604047181082237705e-03
6.960641932047270664e-02
1.241173060628603941e-01
1.570934537106879469e-01
1.630727069992650713e-01
1.410393294317472956e-01
9.458063115686941857e-02
3.132980829637761061e-02
-3.822515987503993795e-02
-1.024045838247938794e-01
-1.502338459926919334e-01
-1.732818328754249515e-01
-1.671340106853607677e-01
-1.322267704062899674e-01
-7.385933163558541792e-02
-1.346258721230904343e-03
7.354662688103145995e-02
1.385838517917190871e-01
1.830861970515434978e-01
1.996527761883490348e-01
1.853222586706289587e-01
1.420256631154894478e-01
7.628591672321657913e-02
-1.784653751710324823e-03
-8.004562526791231258e-02
-1.462247484202994219e-01
-1.898692535333086628e-01
-2.040491159447935798e-01
-1.865243004043473096e-01
-1.401507150124149115e-01
-7.242002641569086907e-02
5.802290288052663197e-03
8.210269527763826292e-02
1.445573818131724309e-01
1.836155861614541807e-01
1.935319682181934620e-01
1.731601520842182274e-01
1.260296400211889933e-01
5.972887863872193559e-02
-1.529303895678795280e-02
-8.732285286390019385e-02
-1.451530771699639788e-01
-1.797860099308890569e-01
-1.858328599176106155e-01
-1.623849106355319816e-01
-1.131865687478693927e-01
-4.604950379605526889e-02
2.840323579413212701e-02
9.843711610036551263e-02
1.530506947647403693e-01
1.836674219357974369e-01
1.854284600775205349e-01
1.579127537895068656e-01
1.051943194533830478e-01
3.523849858857353023e-02
-4.127321294340696028e-02
-1.125299673561624414e-01
-1.673790607808157138e-01
-1.970646025950569258e-01
-1.966465420382854934e-01
-1.658470097711453595e-01
-1.091489507501431505e-01
-3.510722623456143110e-02
4.501042944514786759e-02
1.190065240558089155e-01
1.756499117371246588e-01
2.063763550337787966e-01
2.065398978192083956e-01
1.760509045536491346e-01
1.193412204894855611e-01
4.469339504502292670e-02
-3.695719588627247032e-02
-1.135899546621728373e-01
-1.738406662221990973e-01
-2.086869942090348040e-01
-2.128295605207706775e-01
-1.855398280692736601e-01
-1.308149896690263270e-01
-5.679143947567685119e-02
2.549942139436653377e-02
1.038261964001236937e-01
1.666143597184881753e-01
2.046579108082953735e-01
2.124277773513360001e-01
1.888143586856166345e-01
1.372457919459703635e-01
6.520248913219522935e-02
-1.680441966823537081e-02
-9.668539359311245640e-02
-1.624974452368662670e-01
-2.042190705352945890e-01
-2.153068593598051472e-01
-1.937694097674169114e-01
-1.425552771140070618e-01
-6.915934880350227409e-02
1.550993710696255135e-02
9.881648409268312117e-02
1.683400789943307052e-01
2.137450942042643243e-01
2.282843818256508894e-01
2.097407795210067538e-01
1.607093693182372607e-01
8.820794311180354952e-02
2.672325435615817424e-03
-8.353895487572637890e-02
-1.579364879109361741e-01
-2.097384874842343205e-01
-2.314844011203214813e-01
-2.201711532436180230e-01
-1.777166027320345176e-01
-1.106503708121114038e-01
-2.906642844568534112e-02
5.497834902412077063e-02
1.293219950587064238e-01
1.834837351652403303e-01
2.101058879186292194e-01
2.058784019308871616e-01
1.718729969540531144e-01
1.132933174222876815e-01
3.870680706177394292e-02
-4.113268661435187656e-02
-1.147339167357706163e-01
-1.714321724818340942e-01
-2.028917580818098976e-01
-2.043476858786582306e-01
-1.753796355692318898e-01
-1.200506883582305451e-01
-4.634581834315878307e-02
3.501277396680119169e-02
1.121682462957596937e-01
1.738766300179869773e-01
2.111282950987234952e-01
2.184209949530789563e-01
1.945295541687841745e-01
1.426888245385388720e-01
7.017584984811237048e-02
-1.266111436506652671e-02
-9.382432833063181210e-02
-1.613795945819207489e-01
-2.052382342054699660e-01
-2.187351127747647617e-01
-1.997251398262228084e-01
-1.509840231331390781e-01
-7.982172429388127710e-02
3.034715930989612120e-03
8.509746038264293100e-02
1.540305059034478286e-01
1.995049045857048009e-01
2.147132100649570829e-01
1.973374258890820965e-01
1.498632533854891424e-01
7.922408365672549413e-02
-4.172469938428609824e-03
-8.792425680820874223e-02
-1.594445786226882933e-01
-2.078583838296600983e-01
-2.256956028988075791e-01
-2.100985220328446257e-01
-1.633236620839750297e-01
-9.242804625114817152e-02
-8.169156195989887848e-03
7.670311551322181454e-02
1.494608022474128994e-01
1.993611567802504869e-01
2.192349261500174396e-01
2.064787319384362441e-01
1.633547564272326003e-01
9.660201332371114169e-02
1.643144739745918889e-02
-6.496824000645293196e-02
-1.352282736021463705e-01
-1.836596639367378825e-01
-2.029040774592761054e-01
-1.901142777175129917e-01
-1.474526794404898977e-01
-8.178801574688160381e-02
-3.605152524171192918e-03
7.469771535426669717e-02
1.408175371553591348e-01
1.844998433553235728e-01
1.991149739694699217e-01
1.826329049799036430e-01
1.378829600800650645e-01
7.208243467526231907e-02
-4.294126791879376848e-03
-7.914737395008791809e-02
-1.406530581676363745e-01
-1.791466215178958987e-01
-1.887001750729039029e-01
-1.681271977800343764e-01
-1.212161445194435555e-01
-5.610935683248151340e-02
1.609307840857776561e-02
8.325325042081432869e-02
1.342732945893081176e-01
1.609506876858433078e-01
1.593036715355922450e-01
1.301736601945179816e-01
7.902978449790151738e-02
1.501614925904871944e-02
-5.060293897699398580e-02
-1.063452860127800381e-01
-1.424485309997504667e-01
-1.525268326546365405e-01
-1.346710231628899801e-01
-9.179541338299196385e-02
-3.115368009826779971e-02
3.689999811805702579e-02
1.006756412159847125e-01
1.491102372843316204e-01
1.735877614966379878e-01
1.693353678195241019e-01
1.362064797903532187e-01
7.875397745170682751e-02
5.584640396151037411e-03
-7.192343791333233316e-02
-1.413676623739611726e-01
-1.912829451723082608e-01
-2.130237778362199241e-01
-2.022613113744438362e-01
-1.598222496369352541e-01
-9.168313710746274492e-02
-8.080612450270058256e-03
7.812184691425126670e-02
1.535151886432282176e-01
2.063011105251369437e-01
2.281626060514045651e-01
2.155629410958560810e-01
1.702912185615631790e-01
9.918659052112144270e-02
1.308965637533963944e-02
-7.482036097931001051e-02
-1.510547168384448191e-01
-2.039066478947726413e-01
-2.252843952814612138e-01
-2.119894530469313698e-01
-1.662166894339165701e-01
-9.517882119504444960e-02
-9.920267052556400178e-03
7.645934202322188233e-02
1.508536074304031027e-01
2.021321435974481606e-01
2.227644219291315120e-01
2.098704567917575037e-01
1.655782879371704985e-01
9.666626328829457104e-02
1.355795854993061857e-02
-7.119157237975157204e-02
-1.447287240844299661e-01
-1.958243089718999519e-01
-2.166224465012031308e-01
-2.039333288672947608e-01
-1.598186502729711245e-01
-9.132209926623928442e-02
-9.359642439431624383e-03
7.304516026421171981e-02
1.428709380872178469e-01
1.891918442726128469e-01
2.049108020709566602e-01
1.878601257547593273e-01
1.411056464117112497e-01
7.242000265128573089e-02
-6.980869627138747840e-03
-8.423778516773436364e-02
-1.469105071287489239e-01
-1.849856691787870600e-01
-1.925071354203626017e-01
-1.685472916765203555e-01
-1.173387091483289180e-01
-4.753405185869138266e-02
2.927550848892489926e-02
1.005150727954146617e-01
1.547024678351825444e-01
1.832845809965069905e-01
1.819358111881684004e-01
1.511397809440514217e-01
9.601261748487291414e-02
2.544254132138674962e-02
-4.930374200704742277e-02
-1.163133204754275840e-01
-1.648695918288230478e-01
-1.871465317498026415e-01
-1.794883431841635679e-01
-1.430468784663309345e-01
-8.364156611317549728e-02
-1.083756924985074255e-02
6.361786271027197737e-02
1.277327514801057107e-01
1.712345414311318426e-01
1.872130157888982627e-01
1.731748817062814805e-01
1.313748006196220341e-01
6.841887094309168083e-02
-5.768993951568216622e-03
-7.946768378007453004e-02
-1.409671403557517522e-01
-1.804146957377100735e-01
-1.914155918268413692e-01
-1.721130793723436025e-01
-1.255405573211680059e-01
-5.915591025295258154e-02
1.638374022486521059e-02
8.899888816535214686e-02
1.471944302683974304e-01
1.819336861314294063e-01
1.880612512502443101e-01
1.650629732924513426e-01
1.170772474088092319e-01
5.218360100784008582e-02
-1.891465956036382165e-02
-8.461887699458567336e-02
-1.343147545439944968e-01
-1.601084720902861691e-01
-1.581360142844819017e-01
-1.292216937827246614e-01
-7.875721945624036824e-02
-1.579485803077483597e-02
4.851168410241028101e-02
1.028511786125194810e-01
1.377292710440490842e-01
1.471127418003893572e-01
1.294582019156701180e-01
8.796452324002002054e-02
3.002187261349006930e-02
-3.405063922985181873e-02
-9.278314852980398819e-02
-1.355647982950242414e-01
-1.545430918433232659e-01
-1.460698864973671296e-01
-1.114182680277338439e-01
-5.661817358322134008e-02
8.583747993349648275e-03
7.246685823752442579e-02
1.234630348694577551e-01
1.522656605132471919e-01
1.535284322417971858e-01
1.268536706928883318e-01
7.690822937515404134e-02
1.265007837720218825e-02
-5.421819268694086369e-02
-1.113311657164939295e-01
-1.479336442661628448e-01
-1.569331087204657027e-01
-1.363240828135488802e-01
-8.967379736281411162e-02
-2.553723626324436169e-02
4.411056029364088943e-02
1.061301900011418498e-01
1.487208196201657562e-01
1.636761025344973253e-01
1.479507287428351858e-01
1.042415737862391889e-01
4.048909852892330907e-02
-3.159176974677631311e-02
-9.867613617884872512e-02
-1.482990066210947422e-01
-1.711807918641966020e-01
-1.629684850331535317e-01
-1.250497377936025389e-01
-6.427778438467951494e-02
8.330409300271235384e-03
7.965396986462072726e-02
1.368803259284335494e-01
1.698171418148942124e-01
1.726886730262269243e-01
1.451092901775677679e-01
9.208577455367236708e-02
2.307736871013953139e-02
-4.969933536789820916e-02
-1.134202238561145132e-01
-1.568947561679679414e-01
-1.725191678377873128e-01
-1.575982054729125059e-01
-1.147904777334110005e-01
-5.159403319708108504e-02
2.101922214649626364e-02
9.054581623465163265e-02
1.451019710258404649e-01
1.754063830196251061e-01
1.762743160013178212e-01
1.474047675612481512e-01
9.336905467777048551e-02
2.283699899661292831e-02
-5.281807479110479930e-02
-1.213231326969723967e-01
-1.714606273790423852e-01
-1.948878049746414209e-01
-1.875254292244935284e-01
-1.502622863602978420e-01
-8.882912008089270672e-02
-1.285355665686958859e-02
6.573005955229266339e-02
1.346243238757549310e-01
1.831266170996773135e-01
2.037817934876730019e-01
1.934823611989572034e-01
1.538736320298275395e-01
9.103630459801240193e-02
1.452158159791668360e-02
-6.410794705601140231e-02
-1.330224620655301726e-01
-1.819050137036881676e-01
-2.035005283830277900e-01
-1.946893853387399176e-01
-1.569163348308354466e-01
-9.591925040657273138e-02
-2.082108945106148079e-02
5.725622876725388471e-02
1.268358497965820508e-01
1.777409306660435728e-01
2.025245100971892198e-01
1.974877793911996027e-01
1.631739419133438340e-01
1.042975152004548267e-01
2.912573227014375599e-02
-5.162327282385392735e-02
-1.262474241357541271e-01
-1.837161429254131617e-01
-2.152902266363247996e-01
-2.158640627283766600e-01
-1.848079972033963569e-01
-1.261479405122175601e-01
-4.801792402440863139e-02
3.854751964916319773e-02
1.212781258722191169e-01
1.884918049875901613e-01
2.307636318581320345e-01
2.421900039979563157e-01
2.211054568213794980e-01
1.702125693349498814e-01
9.615814586118870411e-02
8.635871353854768229e-03
-8.086887833405215220e-02
-1.605483469118983431e-01
-2.197945593454230240e-01
-2.506040119472068839e-01
-2.486890928555317293e-01
-2.141250986869610573e-01
-1.513984803576741978e-01
-6.880933333342470481e-02
2.269269792114508855e-02
1.110412767198332151e-01
1.846951494127521132e-01
2.341385064759662349e-01
2.530484466445842573e-01
2.390140306068720966e-01
1.937632797311722443e-01
1.229124383736477366e-01
3.529082533636035413e-02
-5.808576620692235126e-02
-1.453096481076024682e-01
-2.150393808595665868e-01
-2.579749140007621677e-01
-2.681554676950599903e-01
-2.438669054447480389e-01
-1.879800388837625236e-01
-1.076279563560573332e-01
-1.324722664410182132e-02
8.287258493424297379e-02
1.682920396746849234e-01
2.320968809658427445e-01
2.662925707705784406e-01
2.667517231944221412e-01
2.336486575554637679e-01
1.713863749757452704e-01
8.805049249286656110e-02
-5.563079874876919462e-03
-9.727230598919467397e-02
-1.750591221986952384e-01
-2.286635112006067949e-01
-2.510045055387002400e-01
-2.392090902440062727e-01
-1.950639275408505569e-01
-1.247815419220343891e-01
-3.809521898627310499e-02
5.316063503876689023e-02
1.367231140881834950e-01
2.015454808840144718e-01
2.391927460105043313e-01
2.448531033414294011e-01
2.178945221508463703e-01
1.619313999440943341e-01
8.439479326434595752e-02
-4.362213180914620292e-03
-9.234739335455049991e-02
-1.674789175082228021e-01
-2.192336538908766508e-01
-2.401788133838307637e-01
-2.271409809875056807e-01
-1.817849776628449598e-01
-1.104611932989923995e-01
-2.331858182790380596e-02
6.717256803425275535e-02
1.480353838348618112e-01
2.076418594517446259e-01
2.373321154563381441e-01
2.325862109119913868e-01
1.936230025563858703e-01
1.253814482607706893e-01
3.690098691054588542e-02
-5.983657381286411336e-02
-1.514924767053549282e-01
-2.252088857110838838e-01
-2.704574275038704734e-01
-2.806168714429935207e-01
-2.540122526880108644e-01
-1.942201188664951506e-01
-1.095621711516585606e-01
-1.185253848759226791e-02
8.539292026768618982e-02
1.689688847084591661e-01
2.278627095542815617e-01
2.547089196805979450e-01
2.466394565022199670e-01
2.054862923248848838e-01
1.373888048776605031e-01
5.190486936951166363e-02
-3.925492039095468400e-02
-1.237307052422682574e-01
-1.900920465602182752e-01
-2.293137327568404160e-01
-2.359694951282058639e-01
-2.089772630116342178e-01
-1.517625749886564179e-01
-7.177785227923472178e-02
2.056896421580489687e-02
1.133942431113430516e-01
1.949622549763425639e-01
2.551891535971604341e-01
2.868334645277954564e-01
2.862681267712723354e-01
2.538003783967610616e-01
1.935524867515114877e-01
1.129458368778104571e-01
2.184712685165735024e-02
-6.855716919441512402e-02
-1.470788842179340250e-01
-2.039255750669095590e-01
-2.320134985151338647e-01
-2.279948236418198881e-01
-1.928067793562320276e-01
-1.316169142151473181e-01
-5.314508137989493175e-02
3.154167691414055952e-02
1.105693301957608732e-01
1.728858024675821170e-01
2.097323060977980269e-01
2.157625890597882901e-01
1.896964689366260615e-01
1.344687588501143338e-01
5.687949780114820442e-02
-3.322671877994309853e-02
-1.241956837620978860e-01
-2.040995149996120972e-01
-2.623876730002958624e-01
-2.914138288585412795e-01
-2.875926228819043473e-01
-2.519820406996959861e-01
-1.901670538204420779e-01
-1.114330665751435134e-01
-2.735282038801223337e-02
4.996745910580280281e-02
1.096754566032416278e-01
1.437089252475622914e-01
1.478801559125066944e-01
1.224055737324860615e-01
7.185115102270600573e-02
4.514005291234468586e-03
-6.869405860349342419e-02
-1.357435324669107324e-01
-1.851956255165323473e-01
-2.079108703066206987e-01
-1.985168044660792219e-01
-1.563832469907255884e-01
-8.588655983230797375e-02
4.152435930615538950e-03
1.018040356994127649e-01
1.939080018125522997e-01
2.681488145116830424e-01
3.149655310336925140e-01
3.289976471543347714e-01
