BVP Green Neck Signal
1.594975087936272712e-02
3.828065153392057329e-02
5.750971568218669200e-02
7.111882657670721974e-02
7.723869463991088480e-02
7.490881785723772779e-02
6.425100577388184742e-02
4.651795989290905681e-02
2.398600346361159236e-02
-3.175237366836048541e-04
-2.302986073580600562e-02
-4.095492175767405374e-02
-5.156848841148223977e-02
-5.343254252700373186e-02
-4.643704871873630818e-02
-3.182202735909111374e-02
-1.197901787300838759e-02
9.927395024591294595e-03
3.045209593452934127e-02
4.640100455091077797e-02
5.532603517756442407e-02
5.591089561783932349e-02
4.818487181352688886e-02
3.352306825335632512e-02
1.442455096101603711e-02
-5.901520461720511160e-03
-2.407524420755393496e-02
-3.711712033025815066e-02
-4.294658976553224899e-02
-4.071589049901633978e-02
-3.092277208192689003e-02
-1.529373915431854643e-02
3.527140639729703028e-03
2.242223526618798007e-02
3.830536355748302701e-02
4.861444836299636668e-02
5.172050842635244478e-02
4.718960155492017000e-02
3.585217085004732684e-02
1.966226885467954599e-02
1.363869123070472408e-03
-1.598211139051195634e-02
-2.952570867963903029e-02
-3.711157052047812932e-02
-3.762888061991432470e-02
-3.117091956672701780e-02
-1.899060223078988252e-02
-3.274722581984785760e-03
1.321897115231359700e-02
2.760779365842040700e-02
3.735252047299626038e-02
4.068140015196625853e-02
3.690211985988081644e-02
2.654396679378363127e-02
1.129459711213709298e-02
-6.271458599506360074e-03
-2.313523383660083532e-02
-3.636871166689933932e-02
-4.365720993449772463e-02
-4.370181398789135807e-02
-3.642521943442030702e-02
-2.295445484999733554e-02
-5.402767055724943049e-03
1.349567982582989926e-02
3.083258558863063992e-02
4.398712583719777830e-02
5.103871725852696800e-02
5.107315473201660266e-02
4.433519117107746071e-02
3.219760292547834551e-02
1.694038319417546373e-02
1.364552531036721320e-03
-1.169942747842111185e-02
-1.989848082611025276e-02
-2.177835820686824936e-02
-1.703651448606059021e-02
-6.562787512653283153e-03
7.730171545871330867e-03
2.324754765489497887e-02
3.716104377853080704e-02
4.689023029462107556e-02
5.053887277225160152e-02
4.721676595161785478e-02
3.719576255891889061e-02
2.187350758355249836e-02
3.546673784745780697e-03
-1.497379820972983590e-02
-3.084175620967596204e-02
-4.166117365143548468e-02
-4.588375983111957906e-02
-4.304426325625607813e-02
-3.379868169997894689e-02
-1.977523744135719491e-02
-3.281997433133379896e-03
1.306816474584438122e-02
2.675295817288746159e-02
3.570266435055943072e-02
3.858849916550761289e-02
3.501008415532835122e-02
2.556312588197145325e-02
1.177360494618000936e-02
-4.106001325994241766e-03
-1.942347475414071822e-02
-3.153438461980872382e-02
-3.822456651239854175e-02
-3.807363866365516547e-02
-3.069678610405093128e-02
-1.682665659265383112e-02
1.773991613300005335e-03
2.255202484075815444e-02
4.251879073365711498e-02
5.867011634130010755e-02
6.841694996193460609e-02
6.997335309324213826e-02
6.265140324440104935e-02
4.701643752254741626e-02
2.486604832706605650e-02
-9.817022458117278388e-04
-2.707183950236891762e-02
-4.981268439367230599e-02
-6.601081086869282910e-02
-7.334966436526149658e-02
-7.073131427037777919e-02
-5.842805120700495652e-02
-3.802717393669988871e-02
-1.218822909888884164e-02
1.574180765511492414e-02
4.219633373497373718e-02
6.387623436496238372e-02
7.819224541148921126e-02
8.360204507971324972e-02
7.979273474395966181e-02
6.768039859275679082e-02
4.922677292974441537e-02
2.710343183429574782e-02
4.261492640650758543e-03
-1.651507933349879303e-02
-3.298878922575786826e-02
-4.371239799400536419e-02
-4.810598023971530968e-02
-4.638261806299537326e-02
-3.937511561266714838e-02
-2.832893496369729563e-02
-1.471398632905767702e-02
-8.070730669169391691e-05
1.404198450294175636e-02
2.622761851538127353e-02
3.523681156128025127e-02
4.012012806075904159e-02
4.033361435012680629e-02
3.584129311855580730e-02
2.716948213321900008e-02
1.538455450871211751e-02
1.985040611835532307e-03
-1.127871250680428060e-02
-2.262758910478598201e-02
-3.048325845841935028e-02
-3.367137599999892733e-02
-3.157540715151228861e-02
-2.422911136661101000e-02
-1.234268851726852585e-02
2.741511424120031057e-03
1.916913446753341910e-02
3.477173371910625282e-02
4.733245733226532775e-02
5.489281762324053210e-02
5.605941758562275196e-02
5.026170292363892067e-02
3.791088348753459542e-02
2.041681851457473329e-02
3.802847025864523889e-05
-2.042730720532986988e-02
-3.806179628008409671e-02
-5.028314283506426369e-02
-5.524832103854211002e-02
-5.214071753732090614e-02
-4.130178997373522287e-02
-2.419573572199164302e-02
-3.216081117966828121e-03
1.864115235736198833e-02
3.819901502292986223e-02
5.256427896770900915e-02
5.957281737466921245e-02
5.814722090595222936e-02
4.850085056851275583e-02
3.213949659655912505e-02
1.164519130591840958e-02
-9.729233639616677656e-03
-2.858444479288564655e-02
-4.192151748391204774e-02
-4.761291722348166139e-02
-4.471901183127600932e-02
-3.360630159290935864e-02
-1.586297687439434945e-02
5.958483630070737433e-03
2.872075907177345372e-02
4.914571682029706540e-02
6.426833500309263314e-02
7.184969504262465889e-02
7.069938553377498602e-02
6.085995842103965325e-02
4.361681258224853891e-02
2.131979352184109472e-02
-2.964916067103190792e-03
-2.591984674279695228e-02
-4.447864524341592352e-02
-5.627579878800353236e-02
-5.996539135976946405e-02
-5.536295786177757722e-02
-4.340635362012917192e-02
-2.596658234312731323e-02
-5.556287983585700765e-03
1.501698952832459903e-02
3.301332713163315086e-02
4.610446369944995459e-02
5.266642800148123305e-02
5.198897176456767494e-02
4.437388975493972848e-02
3.110146064526698312e-02
1.425671340750512932e-02
-3.571690245407306216e-03
-1.967919505589336288e-02
-3.165456972258906543e-02
-3.773764072851149703e-02
-3.706590339266659789e-02
-2.977745460241022768e-02
-1.696627711361598650e-02
-5.079648664086961612e-04
1.721202546361839947e-02
3.362830545103214636e-02
4.634269011408491401e-02
5.344956074106361338e-02
5.380332483191294785e-02
4.719400999310940231e-02
3.440088226527784898e-02
1.710449251583270186e-02
-2.342278218255973779e-03
-2.125629342038656833e-02
-3.702476673752878172e-02
-4.749326823955595661e-02
-5.127065605732689796e-02
-4.789964416661376262e-02
-3.787413301638848512e-02
-2.251935560983524959e-02
-3.775890163589786311e-03
1.606435580181446443e-02
3.463135718449050771e-02
4.973586301833084200e-02
5.960079185099746019e-02
6.305352423075899493e-02
5.966413930510015839e-02
4.981191461886294580e-02
3.466314432132823475e-02
1.604899403632799315e-02
-3.754789322095180085e-03
-2.232310637098663259e-02
-3.740519524312480720e-02
-4.721794343368046487e-02
-5.065770086899051838e-02
-4.740387643261066014e-02
-3.791524596436425532e-02
-2.333844385422599588e-02
-5.354380826455487977e-03
1.401335753918635761e-02
3.260885349996070492e-02
4.835915878695467435e-02
5.948458802635227943e-02
6.469267327088014385e-02
6.333729913997616923e-02
5.551690560579117945e-02
4.208529510875668594e-02
2.455953619122750592e-02
4.929574462976466995e-03
-1.460282210054038472e-02
-3.190977120630399122e-02
-4.519490161130593209e-02
-5.317940310318536312e-02
-5.519640539638439453e-02
-5.120173290038513431e-02
-4.172864997417301963e-02
-2.781588648959877619e-02
-1.092342720414068123e-02
7.169172902192327487e-03
2.449847903347553146e-02
3.910013289554861021e-02
4.923721205340702428e-02
5.365153031046375476e-02
5.179515806704916570e-02
4.398591733076697569e-02
3.143238972170545736e-02
1.609720248508716284e-02
4.076889569292526522e-04
-1.313530933139848110e-02
-2.237392661514812225e-02
-2.585576859023294705e-02
-2.307912865776485384e-02
-1.458324047212720791e-02
-1.873677709622685941e-03
1.280194035217073131e-02
2.679393855769332533e-02
3.746065633949595408e-02
4.259603848206420379e-02
4.081639298914885305e-02
3.184395747331554560e-02
1.662892169797539760e-02
-2.729830788093154034e-03
-2.327142107298924706e-02
-4.163173262726624357e-02
-5.459977106951652281e-02
-5.967086669915040026e-02
-5.549107731443388841e-02
-4.210804811185811514e-02
-2.098615441506103407e-02
5.205711983292794429e-03
3.298412541312027019e-02
5.854802494286407560e-02
7.830892674021829036e-02
8.938753425012466169e-02
9.001844961558710945e-02
7.981396020833432525e-02
5.985013488847282931e-02
3.255536172312668841e-02
1.403424267691471758e-03
-2.955902027527521764e-02
-5.628821788850730395e-02
-7.533073763804667977e-02
-8.431905106857687238e-02
-8.228797838763460271e-02
-6.976581955369126620e-02
-4.864336849117045780e-02
-2.186292373964574681e-02
7.011033583443375058e-03
3.427465734047205337e-02
5.656171140469426484e-02
7.126377010893733543e-02
7.685107347721732707e-02
7.305830057375944930e-02
6.090601366814766410e-02
4.254030634756634371e-02
2.089726458490447081e-02
-7.646032924784346846e-04
-1.938352288583002764e-02
-3.256466370853598746e-02
-3.890964768931146067e-02
-3.814907715727174770e-02
-3.107087475852871039e-02
-1.928374661781794008e-02
-4.885647918390452135e-03
9.885961325797368651e-03
2.296144941137032158e-02
3.267236913893038081e-02
3.790575770051866911e-02
3.818717188557229497e-02
3.369954460987518996e-02
2.523896699998237625e-02
1.410561476762556624e-02
1.931848057468243604e-03
-9.540313173602410143e-03
-1.870603898193536063e-02
-2.432964538750030659e-02
-2.571842893284797399e-02
-2.280573662581858452e-02
-1.613318376884751576e-02
-6.745610010759269318e-03
3.973760136767966536e-03
1.449897008419870174e-02
2.336359301328628374e-02
2.934922374725091460e-02
3.164097063173749308e-02
2.993235917787429035e-02
2.446651604494936433e-02
1.600635686895085508e-02
5.732224049379454692e-03
-4.926472219120814691e-03
-1.450504120820075328e-02
-2.172530053565072811e-02
-2.567900946301336640e-02
-2.593489609703951426e-02
-2.255497474159059990e-02
-1.603282052244213440e-02
-7.183806486166120428e-03
2.979972872889159394e-03
1.336608320755008732e-02
2.289933114205781189e-02
3.060368046814600229e-02
3.567873220971416043e-02
3.757785933340572482e-02
3.608297899957033789e-02
3.135768863218290486e-02
2.395523149673510488e-02
1.476445132080837601e-02
4.893122450840827961e-03
-4.492004256790494213e-03
-1.233255738725917532e-02
-1.781206125510407384e-02
-2.042562231403704381e-02
-1.998139028685794183e-02
-1.655729730215960843e-02
-1.045095093025881668e-02
-2.152871814490511272e-03
7.650942630708567824e-03
1.806664011807272707e-02
2.800311561170300279e-02
3.623526481143290318e-02
4.153361722960378227e-02
4.285117073244632674e-02
3.953410748039389716e-02
3.150481127121684821e-02
1.936203018683417890e-02
4.359779314574796158e-03
-1.174049556292648504e-02
-2.691498551267445388e-02
-3.916834796036808980e-02
-4.681604956005022689e-02
-4.871606545182636389e-02
-4.442577329234693312e-02
-3.427580288395732505e-02
-1.936146923571901296e-02
-1.452977564401590829e-03
1.717821172320203177e-02
3.401891338908571288e-02
4.664890144373292497e-02
5.311546795235080193e-02
5.228667424014415976e-02
4.410822884999118093e-02
2.969525123341444639e-02
1.121737848114977461e-02
-8.421014672792078229e-03
-2.605385306009661700e-02
-3.878668129527519659e-02
-4.448088429718562858e-02
-4.209560628361919132e-02
-3.183467464097738259e-02
-1.509148034309422924e-02
5.780936383758492406e-03
2.782880841729911542e-02
4.793162056151561295e-02
6.325315103248597970e-02
7.165021983470558353e-02
7.198298352766142882e-02
6.427964024153783040e-02
4.972361859048309712e-02
3.045447929671379200e-02
9.206709341289335755e-03
-1.115102812616320695e-02
-2.808388607646788299e-02
-3.976929917465497205e-02
-4.531560507688977418e-02
-4.479649057973083409e-02
-3.912223745188535967e-02
-2.979822174641787863e-02
-1.863111999277938108e-02
-7.437810150903211362e-03
2.203026788330014404e-03
9.134660547054045468e-03
1.273385343733648457e-02
1.294938093476665289e-02
1.026825596130754789e-02
5.613503312642678829e-03
1.862584624064541824e-04
-4.723537067877488227e-03
-7.927264310605997358e-03
-8.501380787962821081e-03
-5.907800397675586415e-03
-6.432402877421059678e-05
8.634870683432986638e-03
1.934590678788581861e-02
3.084628550274141900e-02
4.164975890958307753e-02
5.016614102898083599e-02
5.490316096933708923e-02
5.469433006504056255e-02
4.891896859306617967e-02
3.766848166360026173e-02
2.181507850493618478e-02
2.955895802053630159e-03
-1.676888971143444818e-02
-3.495812578668116427e-02
-4.928385163757992987e-02
-5.781880140753307279e-02
-5.930394795434319050e-02
-5.332218728203903108e-02
-4.036704001175177997e-02
-2.180960239336987572e-02
2.302189232621151133e-04
2.310349282927625508e-02
4.393406286745309142e-02
5.998017736731348776e-02
6.901619329553178306e-02
6.967948139555220355e-02
6.172023057610247915e-02
4.609626223511294196e-02
2.487528823608402273e-02
9.440868742971088995e-04
-2.242963759368743482e-02
-4.209748468695638512e-02
-5.549214329481424318e-02
-6.096653618480054465e-02
-5.796572895533139841e-02
-4.703095741606017066e-02
-2.966659610257649932e-02
-8.113508582088363799e-03
1.493114423024301078e-02
3.661953136780336793e-02
5.426740316011275517e-02
6.566240428887629155e-02
6.934296088070031339e-02
6.481120013928640122e-02
5.263749294041008414e-02
3.442235558756404079e-02
1.260265240625000997e-02
-9.881733217872510147e-03
-3.001314932505334820e-02
-4.513972741979773579e-02
-5.335327041795553255e-02
-5.373093522955913609e-02
-4.640561310217790336e-02
-3.247332843938618985e-02
-1.377906517009361113e-02
7.364875285161316329e-03
2.847851487468299608e-02
4.719464374554654951e-02
6.149577169090631595e-02
6.989473338997713447e-02
7.155496576996196734e-02
6.635057964301693811e-02
5.486519953659891452e-02
3.832568057574451542e-02
1.846759277272532612e-02
-2.663137061303348999e-03
-2.295473034399575507e-02
-4.048716877324408381e-02
-5.375806020211314901e-02
-6.183077080878877224e-02
-6.437435380318674849e-02
-6.159565054991678751e-02
-5.409813365064373297e-02
-4.272257473876976686e-02
-2.842106615832339089e-02
-1.219185381796275384e-02
4.928386710049992639e-03
2.184203004916972224e-02
3.737518740485380742e-02
5.030390244583742010e-02
5.944217859150039557e-02
6.379008447433065498e-02
6.271477741828272723e-02
5.611724108908999059e-02
4.453263300114726486e-02
2.912652789134279746e-02
1.157761954218286711e-02
-6.131919002068832517e-03
-2.197495597494251302e-02
-3.413572763886064260e-02
-4.122123263319453501e-02
-4.240467046939531276e-02
-3.749891659969470381e-02
-2.696992158063220985e-02
-1.189911567914231534e-02
6.104004888776595403e-03
2.504319119366159307e-02
4.273128404155202009e-02
5.703027965503527918e-02
6.611229880230926059e-02
6.870744684920045142e-02
6.429826286081344322e-02
5.322086196354598731e-02
3.664339560785734307e-02
1.641414732067637133e-02
-5.200301192897128014e-03
-2.584072944314338982e-02
-4.338336162326828643e-02
-5.620791257135070162e-02
-6.335682336850917418e-02
-6.456380082915745555e-02
-6.016454576627227463e-02
-5.093385532105588337e-02
-3.790752219825662545e-02
-2.223841012149275348e-02
-5.110338760489380530e-03
1.229490643136395105e-02
2.880159388625624234e-02
4.324648973796942075e-02
5.451586077763744681e-02
6.162901867435652964e-02
6.386461099257247087e-02
6.090318523507146087e-02
5.294298173284633230e-02
4.074417710126474607e-02
2.557280955135058514e-02
9.044582219025284683e-03
-7.099717835092543908e-03
-2.123338583935639734e-02
-3.204065696188894419e-02
-3.863276234151095251e-02
-4.057710579648349941e-02
-3.786434937752700819e-02
-3.085220694088106758e-02
-2.021677202735881751e-02
-6.920411375647748595e-03
7.815999195461975288e-03
2.255951952393200205e-02
3.575229746467354502e-02
4.585165437135797079e-02
5.151902901390680717e-02
5.183304511892177641e-02
4.648255293437298513e-02
3.588649200850005383e-02
2.119611325277559466e-02
4.161154260433270677e-03
-1.312313731559502407e-02
-2.853804601155175702e-02
-4.026190869334765610e-02
-4.701867192193295852e-02
-4.820717661768394308e-02
-4.390245524553553630e-02
-3.475769197134124383e-02
-2.185489030370106611e-02
-6.548215680273921854e-03
9.675025894600982126e-03
2.531063988430105188e-02
3.893776836389645918e-02
4.931326386150574476e-02
5.546790947580918646e-02
5.680460309675356562e-02
5.318659647092734838e-02
4.499191868721375692e-02
3.310600585450652888e-02
1.883365663465651901e-02
3.732091325071509522e-03
-1.060844834111623718e-02
-2.279051843861940735e-02
-3.178861237469467887e-02
-3.703878607676727025e-02
-3.842324897220190244e-02
-3.617004456987671368e-02
-3.071609500778125362e-02
-2.258867168501619421e-02
-1.234369637599742366e-02
-5.696592860830289318e-04
1.206227776781291887e-02
2.473893479265105305e-02
3.647772621128081427e-02
4.616396140692052147e-02
5.266562737025791419e-02
5.501102855007945075e-02
5.258848435252302250e-02
4.531311949822255936e-02
3.371016125880232917e-02
1.888554993246260860e-02
2.385243547888384399e-03
-1.402539752884010733e-02
-2.861025197215647659e-02
-3.988324555392174647e-02
-4.676069878148550463e-02
-4.863326593864876479e-02
-4.537359299885107555e-02
-3.730898181858036122e-02
-2.518231002029019255e-02
-1.010737770796107417e-02
6.490465679872431740e-03
2.296342515328248651e-02
3.757160086789685521e-02
4.865647391543869577e-02
5.484579992112998542e-02
5.526219872544501505e-02
4.969415614084014832e-02
3.868445396705653960e-02
2.350245195712195173e-02
5.991775085161755651e-03
-1.168378029408440218e-02
-2.734639378135545612e-02
-3.910005133120950105e-02
-4.556082820734859429e-02
-4.599069157079923448e-02
-4.033440441583835412e-02
-2.918188565245400518e-02
-1.368453962934328312e-02
4.554888073712298410e-03
2.361360495533152554e-02
4.140526751975419362e-02
5.586639004211207959e-02
6.517096015075553306e-02
6.796021364479166993e-02
6.355962350242629066e-02
5.214086024514403422e-02
3.478127345990094516e-02
1.338526813403762179e-02
-9.538902347302620835e-03
-3.121634865284254878e-02
-4.899541474232233657e-02
-6.071576765727713237e-02
-6.498855084694073192e-02
-6.134772027973937197e-02
-5.026432101609543818e-02
-3.304425917936978929e-02
-1.164597392652682965e-02
1.154601401365191841e-02
3.396750970977756301e-02
5.312915525660506788e-02
6.687074294048317435e-02
7.360071944245964726e-02
7.249624938571362642e-02
6.363247199547104882e-02
4.800986440050288712e-02
2.745768181297090355e-02
4.410954222595615468e-03
-1.841268613142377220e-02
-3.838054155859646488e-02
-5.328488964538537903e-02
-6.159144211822232401e-02
-6.256163912521668646e-02
-5.625181419418335410e-02
-4.342204616589558780e-02
-2.539983953765590635e-02
-3.937448613423393320e-03
1.891846007828797832e-02
4.095084193081778567e-02
5.991324593265649062e-02
7.371069126533973115e-02
8.062484840452892321e-02
7.956050794076902077e-02
7.026698212390379561e-02
5.347767049083940877e-02
3.091672395651749033e-02
5.143743318238495552e-03
-2.075685448450705073e-02
-4.359458177646709925e-02
-6.052231810319427113e-02
-6.943286065047825362e-02
-6.923824035915787656e-02
-5.999966718215899580e-02
-4.290524789788222743e-02
-2.011107811533380946e-02
5.528848522233771254e-03
3.081162701496169276e-02
5.257490831521489244e-02
6.808447109079342197e-02
7.537682574133765245e-02
7.351547636293596921e-02
6.272383901585831811e-02
4.436843247083611247e-02
2.078606924407369605e-02
-5.024190255449168321e-03
-2.979807559374744036e-02
-5.043070744359611640e-02
-6.436650299407883913e-02
-6.990436471814863439e-02
-6.638840301255259646e-02
-5.427546194067007362e-02
-3.508505181733854311e-02
-1.124128185890454178e-02
1.418624776259563673e-02
3.783511819440688734e-02
5.647676873169781703e-02
6.747445528211162835e-02
6.920545917607651143e-02
6.136783081756502084e-02
4.509895115115855613e-02
2.286058773459163224e-02
-1.911570755544956049e-03
-2.534470747544007724e-02
-4.375633143796867075e-02
-5.425112664594530787e-02
-5.517299598036484037e-02
-4.633585716397763815e-02
-2.900894334513586664e-02
-5.679499366651795042e-03
2.035252767787641692e-02
4.547634905318571202e-02
6.629141826115059200e-02
8.007419574335633561e-02
8.513009280843356064e-02
8.098941422702377047e-02
6.842721231060452936e-02
4.930776301234917475e-02
2.627629327414710003e-02
2.344720935913332735e-03
-1.955959219660467763e-02
-3.700226413550643245e-02
-4.833678171211405056e-02
-5.284384916312277747e-02
-5.071163009579018888e-02
-4.288848233591825015e-02
-3.086164914999663805e-02
-1.641866689801881746e-02
-1.433263793109396458e-03
1.230827836199023702e-02
2.324766263045321274e-02
3.017816463262855409e-02
3.235901705894640018e-02
2.961102390015403485e-02
2.236965447020339282e-02
1.166844075675300095e-02
-9.657444304564041793e-04
-1.370511387976713034e-02
-2.467651211887275653e-02
-3.223454207154265866e-02
-3.519931184791990492e-02
-3.301707750116456702e-02
-2.582599694288448960e-02
-1.443182943506967318e-02
-2.087289948347805651e-04
1.506109541735520425e-02
2.939862768111390495e-02
4.087747877932759732e-02
4.788969605976230864e-02
4.939516144383572505e-02
4.511355081981031218e-02
3.561574485789657102e-02
2.228008077245181157e-02
7.102056249741221447e-03
-7.618424985829755011e-03
-1.965306905379602537e-02
-2.720689576804265208e-02
-2.919472148463798239e-02
-2.538798650720330147e-02
-1.642026969186862612e-02
-3.666823352083275339e-03
1.097051904513733633e-02
2.533609139271244398e-02
3.731557074094366683e-02
4.512308067855776150e-02
4.755238551884422710e-02
4.416258280949255516e-02
3.536630261029292954e-02
2.239326349794978216e-02
7.119385313758318581e-03
-8.220726368655796243e-03
-2.139097467550949566e-02
-3.051339598004176867e-02
-3.435907288448909053e-02
-3.251442320627036253e-02
-2.539817654306347761e-02
-1.414199347423740656e-02
-3.778524608849167382e-04
1.401336925082687958e-02
2.714663991304501478e-02
3.734499264289388443e-02
4.331061428525974366e-02
4.425363763528932654e-02
3.997623990838165137e-02
3.090508193649299518e-02
1.806150548445208115e-02
2.959114905815960969e-03
-1.257399259276567767e-02
-2.663372967328448554e-02
-3.750225595959229968e-02
-4.388187048199610613e-02
-4.505229865388759442e-02
-4.092652720142758715e-02
-3.201147541867712526e-02
-1.930301612995965338e-02
-4.151539570773599488e-03
1.187425917918755701e-02
2.711452691694851008e-02
3.994246341153304819e-02
4.890045295467675135e-02
5.285716476626795002e-02
5.117507991295569547e-02
4.385469233437309239e-02
3.160941192712263953e-02
1.583344389276329298e-02
-1.548560294909911636e-03
-1.832868334580609049e-02
-3.231377483883717677e-02
-4.162006708453607623e-02
-4.491809903885771865e-02
-4.159970326030194149e-02
-3.185787866335390572e-02
-1.668244614096212053e-02
2.223621771755985785e-03
2.260609209093581567e-02
4.189886586665050178e-02
5.753049797980466784e-02
6.726946205396730494e-02
6.956161221604113820e-02
6.380280905841549666e-02
5.049056159606766375e-02
3.121185114899312912e-02
8.450576782998672418e-03
-1.476473676954497861e-02
-3.531300032030913055e-02
-5.044601831046576640e-02
-5.818018934188255026e-02
-5.755230918949155033e-02
-4.871485577804369332e-02
-3.287945175664235692e-02
-1.213701412250202567e-02
1.081040519554562866e-02
3.297308735150595443e-02
5.142443647808860041e-02
6.365378916713085311e-02
6.789234365873673960e-02
6.337409364982324322e-02
5.048596080436338479e-02
3.076535376000799626e-02
6.724820118815087386e-03
-1.848182691213564460e-02
-4.150141040523150360e-02
-5.925591306370484729e-02
-6.936817252774961362e-02
-7.047105031273975806e-02
-6.236070207949866856e-02
-4.598786345904765788e-02
-2.330841630865478076e-02
2.971517120854657787e-03
2.971979955271267237e-02
5.374040790385842953e-02
7.214420472248429805e-02
8.269611319003934702e-02
8.410187032117331929e-02
7.619607398783344310e-02
5.999727024573316830e-02
3.760678241973591102e-02
1.194849529363608241e-02
-1.362272110614137256e-02
-3.578364340164842672e-02
-5.169615201758018252e-02
-5.937548044435767697e-02
-5.792363887079502588e-02
-4.761270551571717552e-02
-2.982914629521089822e-02
-6.902255773495834593e-03
1.815931421534267010e-02
4.200180180644823985e-02
6.131096425966654079e-02
7.322205606427971414e-02
7.571887149785662408e-02
6.796999552595835159e-02
5.053818460059757156e-02
2.540111702116486236e-02
-4.253329320915525194e-03
-3.444873826286959373e-02
-6.099791478329476963e-02
-8.013515581958671752e-02
-8.908660587202833769e-02
-8.647770541231460106e-02
-7.251607257168780907e-02
-4.893725421327999037e-02
-1.874352965042968416e-02
1.420861907237175835e-02
4.570983788592448277e-02
7.172963735255012685e-02
8.892549427744275703e-02
9.507786904336583411e-02
8.939996598803154337e-02
7.267589840260774148e-02
4.719432540974672491e-02
1.646780330993485864e-02
-1.523936580128401087e-02
-4.351385523314924703e-02
-6.443208044623599529e-02
-7.512579981283529218e-02
-7.417898397759832563e-02
-6.179841621280685732e-02
-3.974696740923234356e-02
-1.106682016568603759e-02
2.035660248107257903e-02
5.032737413296849843e-02
7.490050598316361219e-02
9.090390564873734869e-02
9.635790472111481486e-02
9.073909874075718196e-02
7.504844693862398886e-02
5.166263697179050013e-02
2.397683059734618399e-02
-4.114617962399621034e-03
-2.881545495484850311e-02
-4.699818161253299653e-02
-5.664943747394667051e-02
-5.712122976154914572e-02
-4.916051576793730588e-02
-3.472994517242414952e-02
-1.666344004922119121e-02
1.782171189479505799e-03
1.741433242078731236e-02
2.757145978083455629e-02
3.051814556407406176e-02
2.572257307616902106e-02
1.397240594373240323e-02
-2.705520139479273070e-03
-2.133277532692835765e-02
-3.844781886133501192e-02
-5.068768697792439687e-02
-5.538331562279984188e-02
-5.105719992874712537e-02
-3.772521132976782571e-02
-1.694035580835238919e-02
8.433240967144419939e-03
3.467590324658467726e-02
5.781748687686506794e-02
7.429156674872318400e-02
8.153543122583199743e-02
7.844060575695645243e-02
6.557480675986529506e-02
4.512417503486967907e-02
2.054811618554280850e-02
-4.006060529548058705e-03
-2.442871817627641912e-02
-3.737927648349214510e-02
-4.088373147153534504e-02
-3.468382367269230021e-02
-2.027239851168622514e-02
-6.110448177893698998e-04
2.041376649119825554e-02
3.869448840363550607e-02
5.064186081718027171e-02
5.383428934816284622e-02
4.746669880625362103e-02
3.251636508812356940e-02
1.158573853506496103e-02
-1.156078940331334119e-02
-3.268668613636693115e-02
-4.786926256452635198e-02
-5.422898441934405345e-02
-5.046209724400915059e-02
-3.707943128101221647e-02
-1.631438175504926202e-02
8.273915561652257430e-03
3.242305179241214419e-02
5.190241976656875117e-02
6.323668339198365573e-02
6.430143848293916331e-02
5.469558060282615070e-02
3.582540862529207115e-02
1.067796140556473601e-02
-1.668426091032491204e-02
-4.181800793000996913e-02
-6.065291583401503234e-02
-7.016293357356309657e-02
-6.883704103530448315e-02
-5.687742482934948079e-02
-3.610972309430401234e-02
-9.642579047651896398e-03
1.864810511212991462e-02
4.471722343862519905e-02
6.493995119717142772e-02
7.661578358469313399e-02
7.832683670218480720e-02
7.010619059526138064e-02
5.339226280982543871e-02
3.077471727195225243e-02
5.573708087126488450e-03
-1.867336690579671221e-02
-3.872673035027157651e-02
-5.207443283428429825e-02
-5.721549516305964034e-02
-5.376976365358192983e-02
-4.242684211089994134e-02
-2.477548363794788294e-02
-3.064435541921222209e-03
2.006487597907385262e-02
4.185354520780911608e-02
5.970220168879507988e-02
7.144337936022014668e-02
7.559129531545273617e-02
7.153898015722866266e-02
5.966780921497550488e-02
4.133843643074759655e-02
1.874454108932524510e-02
-5.367049022431695862e-03
-2.807514768688978979e-02
-4.669622940506156644e-02
-5.914896135834680352e-02
-6.420219193619912390e-02
-6.157162746611207632e-02
-5.187118686194639589e-02
-3.645580017035334602e-02
-1.720522516639020477e-02
3.706131872044082440e-03
2.402502944007366137e-02
4.161294997775112636e-02
5.462390618970670852e-02
6.167371393222347703e-02
6.199544425288278787e-02
5.555912031885319735e-02
4.312388457093103283e-02
2.619323494431153448e-02
6.857767696754503775e-03
-1.246754198142529559e-02
-2.937661605736354570e-02
-4.181563186174980934e-02
-4.836517358918168696e-02
-4.840382173589996562e-02
-4.213186972889828436e-02
-3.047509381516490257e-02
-1.491454043424225891e-02
2.710481771156030353e-03
2.039640826570848081e-02
3.615797508667999843e-02
4.820428022089095349e-02
5.511457026429909811e-02
5.601044236126050124e-02
5.070497848004005409e-02
3.979364592399704803e-02
2.464624221403215187e-02
7.271379640953644016e-03
-9.945448361965177411e-03
-2.459270461353492421e-02
-3.460677221011896482e-02
-3.859445230067432703e-02
-3.604214008414507314e-02
-2.737804932147834547e-02
-1.388749941179332099e-02
2.490082882768944114e-03
1.943817719129238564e-02
3.456979520626139030e-02
4.572938867641711952e-02
5.126571615295549833e-02
5.025377690354598803e-02
4.264002817716643773e-02
2.928297013201784649e-02
1.186825550408148432e-02
-7.304683328168066689e-03
-2.564266864197542461e-02
-4.063808288388002371e-02
-5.024124449604484843e-02
-5.315576899218415335e-02
-4.900336949444251272e-02
-3.833848652013795849e-02
-2.253084112415837392e-02
-3.558370595976160719e-03
1.624449480805324059e-02
3.445185182008285441e-02
4.880908149654874378e-02
5.748507955074813602e-02
5.930249609886955459e-02
5.392477942961029086e-02
4.196788631909634248e-02
2.499844777116490974e-02
5.386568797662359340e-03
-1.399383329836378399e-02
-3.018442278068572682e-02
-4.060924368561296544e-02
-4.349644939844179992e-02
-3.817152767003768876e-02
-2.517123911326982905e-02
-6.168826556860492263e-03
1.626325255507872491e-02
3.900481652666579202e-02
5.879860936300275454e-02
7.267007547377705989e-02
7.831623666086595659e-02
7.443063755494667977e-02
6.093101083544889135e-02
3.905243081201965200e-02
1.127114416792457906e-02
-1.895888299617066314e-02
-4.764343617727172936e-02
-7.080847798913719737e-02
-8.509900731477904046e-02
-8.831305584582647972e-02
-7.977130337697878326e-02
-6.045171426845442203e-02
-3.286620406956911739e-02
-7.072459150244837095e-04
3.167032329023412168e-02
5.985113973743335508e-02
7.996445114337435989e-02
8.921942300826123107e-02
8.630549587409108714e-02
7.160346873551591551e-02
4.717056462137827338e-02
1.648803215792599836e-02
-1.600886881691408054e-02
-4.556365284227597429e-02
-6.780494310508028422e-02
-7.941280541800671555e-02
-7.862969517735994562e-02
-6.552779777336152633e-02
-4.199362812816154894e-02
-1.144378454737036109e-02
2.167406585819588172e-02
5.251900075910744675e-02
7.654881441650275564e-02
9.017920284035345346e-02
9.132508116267198939e-02
7.974683971522426862e-02
5.714070010762031804e-02
2.693910769454471027e-02
-6.173865485118725308e-03
-3.697677947239137036e-02
-6.054676854174684958e-02
-7.307184404644527509e-02
-7.248944736376473907e-02
-5.883378848960459789e-02
-3.423337316357247251e-02
-2.565883616631190259e-03
3.116564396711537371e-02
6.163091114937790937e-02
8.401775503499045450e-02
9.479388551337002145e-02
9.226824374159688091e-02
7.686459199038599144e-02
5.105945921624664013e-02
1.898355522600039119e-02
-1.426048312069267028e-02
-4.345575521936678037e-02
-6.415297269265234081e-02
-7.341253400141656282e-02
-7.026921324765190990e-02
-5.584085016694640552e-02
-3.307548594155167165e-02
-6.198787154454982531e-03
2.002835289940086555e-02
4.110985291930110280e-02
5.354326132265099791e-02
5.537102708580590033e-02
4.647957832072507900e-02
2.860480573668820747e-02
5.037156271265634186e-03
-1.993950758804120121e-02
-4.179270143311820257e-02
-5.654161660001685852e-02
-6.146115056329843479e-02
-5.555142758819123922e-02
-3.968488336287376295e-02
-1.641383387553015105e-02
1.050928933028044514e-02
3.679653000799505691e-02
5.834808933923565227e-02
7.191291978352769287e-02
7.558776619896324933e-02
6.908993731432598595e-02
5.377365047724202290e-02
3.239150883078831256e-02
8.634053281965493529e-03
-1.348583967693262227e-02
-3.030515496838238898e-02
-3.912325669541373563e-02
-3.864564928993020204e-02
-2.918262825731708643e-02
-1.257466092519969082e-02
8.133673382447297040e-03
2.920827346851133377e-02
4.683972684583799506e-02
5.775973944296090845e-02
5.976955750297247710e-02
5.210688033651000167e-02
3.559767105893984346e-02
1.256147529970887307e-02
-1.353146324639841781e-02
-3.861191650499264799e-02
-5.868652312119105457e-02
-7.051508421754835998e-02
-7.216228781874885201e-02
-6.332077281153464243e-02
-4.535063834986405307e-02
-2.103675442336962187e-02
5.884259944996047750e-03
3.133998747951501074e-02
5.157739742224793505e-02
6.375554749854417391e-02
6.638874518151122173e-02
5.957407512322008408e-02
4.496278484348265742e-02
2.546911422924064139e-02
4.755210275408304835e-03
-1.342056788669284718e-02
-2.586914910172776610e-02
-3.052078048951019362e-02
-2.675703223583279777e-02
-1.547253613817108596e-02
1.128520051763930859e-03
1.994713591793945834e-02
3.753023985637773258e-02
5.064210687500785013e-02
5.677967933023870400e-02
5.456432223387620850e-02
4.396333719373712173e-02
2.631253627093771419e-02
4.129812442869513697e-03
-1.926455865047163596e-02
-4.027128238905072072e-02
-5.559622935753523454e-02
-6.279347148789339583e-02
-6.066944955996669137e-02
-4.947788217143322259e-02
-3.087701613037013848e-02
-7.665614076503913729e-03
1.664960936454658313e-02
3.838213472675376658e-02
5.421293574684807326e-02
6.168716709612220156e-02
5.959844691977606718e-02
4.820533568215362025e-02
2.923561920991845503e-02
5.658566203177279111e-03
-1.875503502644636916e-02
-4.002053712264110052e-02
-5.457589860927816727e-02
-5.985537100700471375e-02
-5.470089805019355544e-02
-3.954476972691733927e-02
-1.634225047538585829e-02
1.172216499715240078e-02
4.069832072111442822e-02
6.643183422210423295e-02
8.514995740475715669e-02
9.400217086255044374e-02
9.148879335936820067e-02
7.771499004246579245e-02
5.442030837936599058e-02
2.476091020795902209e-02
-7.138612801403551936e-03
-3.680275172289342034e-02
-6.009309141909254665e-02
-7.384753964180403030e-02
-7.635676003010219426e-02
-6.759678487930126378e-02
-4.918906564669178055e-02
-2.411337195215634138e-02
3.762452401828783252e-03
3.025588701214750736e-02
5.146705224859143141e-02
6.432709906702741010e-02
6.703106194223257264e-02
5.929736830772706913e-02
4.241287601947064945e-02
1.904819970864756601e-02
-7.139609271936445470e-03
-3.206496310966826246e-02
-5.184737357981751560e-02
-6.341431982754118513e-02
-6.496718244082880234e-02
-5.623124963410688210e-02
-3.845744957442652490e-02
-1.419301434175053965e-02
1.312487850445630093e-02
3.968034733313099971e-02
6.181979266546421686e-02
7.655302512611167343e-02
8.195510974316295993e-02
7.742273765000529107e-02
6.375354930172226486e-02
4.303227704126758729e-02
1.832721675014598040e-02
-6.771088089741085850e-03
-2.870225973436568712e-02
-4.448437021066000557e-02
-5.215649635827756397e-02
-5.103667740739922104e-02
-4.176044278247050684e-02
-2.611313671243766649e-02
-6.705558178591043347e-03
1.344004989741873733e-02
3.132656791809904084e-02
4.438556998190619496e-02
5.080763887034225185e-02
4.977092687188947734e-02
4.154513998671023611e-02
2.745233471345360360e-02
9.677052506068669832e-03
-9.059059839867928191e-03
-2.591344924865347094e-02
-3.836031724113458247e-02
-4.457204687117990310e-02
-4.367875648577986686e-02
-3.586817188487188141e-02
-2.232202069668083599e-02
-5.015168926242428646e-03
1.357815107257833408e-02
3.082346894389213082e-02
4.427080974500827160e-02
5.197479464639546270e-02
5.276294812205430812e-02
4.642127307897059296e-02
3.376314466300692901e-02
1.655459485855794929e-02
-2.710353164703993914e-03
-2.116115980067611452e-02
-3.597707764806223202e-02
-4.481739596534309311e-02
-4.618164106964864346e-02
-3.964013389316461272e-02
-2.590338149094477405e-02
-6.730817528516430323e-03
1.529660185635947807e-02
3.710576140566328868e-02
5.552858637749595594e-02
6.773193336512639551e-02
7.163646020808843440e-02
6.626834806175063708e-02
5.198120074930492884e-02
3.049251877629826496e-02
4.702216722662922940e-03
-2.170202643068312731e-02
-4.480201892696789728e-02
-6.107588216422468047e-02
-6.797806156766093844e-02
-6.436314114816399368e-02
-5.067963219062484453e-02
-2.890930367470406770e-02
-2.273028843764022047e-03
2.524462232915076348e-02
4.948227571041362294e-02
6.672118203692764538e-02
7.425424388474695381e-02
7.082387417695809595e-02
5.685857037463368929e-02
3.445864468650976925e-02
7.113216080362470481e-03
-2.082611719359996061e-02
-4.483932553339928240e-02
-6.098092950130244022e-02
-6.653487394414271672e-02
-6.046084927749059007e-02
-4.355728945065411029e-02
-1.832396040516900276e-02
1.144021883428540491e-02
4.122992104975900518e-02
6.652032412397643202e-02
8.344542675906889417e-02
8.937263706148065867e-02
8.329611436694331350e-02
6.599417436717307239e-02
3.992263963576663660e-02
8.849158785737934116e-03
-2.272492667221581025e-02
-5.026499488892151313e-02
-6.990510752158546337e-02
-7.902786648630426292e-02
-7.662634252093016018e-02
-6.340030535921255261e-02
-4.159075503085763598e-02
-1.459901848706545054e-02
1.353722927050241519e-02
3.872994435918231809e-02
5.741276247111817138e-02
6.703460227462719467e-02
6.642030228491316302e-02
5.595072325735158530e-02
3.752529547189789594e-02
1.429316242151305698e-02
-9.823187552063948960e-03
-3.074479269041209550e-02
-4.489326643200956118e-02
-4.977598859240207202e-02
-4.439995015285711638e-02
-2.944628718701545328e-02
-7.179535867023858001e-03
1.889091260028989000e-02
4.454340215424579946e-02
6.549339672444229321e-02
7.807100436643975294e-02
7.983302147730308995e-02
7.001406081200546583e-02
4.972823686576408747e-02
2.186007390877506285e-02
-9.363742900616896583e-03
-3.906160625930363284e-02
-6.252130241509244735e-02
-7.600590155520925428e-02
-7.738968836573111021e-02
-6.651007264836882038e-02
-4.517999722739993868e-02
-1.686985378005131236e-02
1.387587065172856370e-02
4.218391210289536286e-02
6.363889118713708659e-02
7.499036564156998097e-02
7.467127889721202061e-02
6.304265084033627842e-02
4.231802096475013875e-02
1.617429378156166192e-02
-1.088562460714540860e-02
-3.430400303435042486e-02
-5.023366294719901204e-02
-5.616272578892342326e-02
-5.129588370748278114e-02
-3.663939394490316886e-02
-1.479260506126964768e-02
1.050296869460378389e-02
3.497455366347749367e-02
5.449369805367291347e-02
6.572161493506982477e-02
6.663601616027907404e-02
5.686230527604511920e-02
3.775235848767754393e-02
1.218865729959064774e-02
-1.586219938722111672e-02
-4.197554377660220326e-02
-6.196882213931440703e-02
-7.255780732012954981e-02
-7.186195389937684308e-02
-5.968353656464118334e-02
-3.752860078695759855e-02
-8.381112786687518537e-03
2.372569045913027613e-02
5.427843157029728360e-02
7.892207945659475421e-02
9.409026315587384892e-02
9.754409983278546081e-02
8.873665320138680868e-02
6.893465965062252343e-02
4.106100528755218110e-02
9.266518710637388842e-03
-2.171089214675617912e-02
-4.729796654284752766e-02
-6.381922177487252268e-02
-6.908036407572958060e-02
-6.269964482385116666e-02
-4.613709445844827589e-02
-2.243007125356672599e-02
4.309183315169882664e-03
2.954978304394683536e-02
4.905487582939577207e-02
5.954940154973615424e-02
5.924526952691502174e-02
4.814092699594862274e-02
2.804048373511303094e-02
2.278027125741098266e-03
-2.481903580877185822e-02
-4.864468908982993306e-02
-6.508454381697370561e-02
-7.120240024230405085e-02
-6.572008627892396426e-02
-4.921351469734251693e-02
-2.400662986082415656e-02
6.203793516728150700e-03
3.692554012512076073e-02
6.356400248079442650e-02
8.213274562887250274e-02
8.987870583427726157e-02
8.572545585643821797e-02
7.045881356365303605e-02
4.661400872770581766e-02
1.806975752224454501e-02
-1.059279636189280373e-02
-3.485852429435046945e-02
-5.103418523130864165e-02
-5.685116657309799426e-02
-5.180872722588709955e-02
-3.720854729918559450e-02
-1.589158220273606537e-02
8.264275173967739266e-03
3.099717095859086391e-02
4.836121350386166085e-02
5.736710010071530835e-02
5.646736486703381880e-02
4.581221586604491969e-02
2.723262896337732414e-02
3.944323286430297462e-03
-1.999056936011404245e-02
-4.036069586586490954e-02
-5.353917416109279376e-02
-5.711652406850265679e-02
-5.031475515866837972e-02
-3.411282725203177574e-02
-1.107354134808094352e-02
1.508535851599631349e-02
4.009725429140726521e-02
5.983255788072599363e-02
7.096228194376545673e-02
7.150372960850798210e-02
6.116862178449649495e-02
4.145649103848571965e-02
1.546476961992042549e-02
-1.257570726656092631e-02
-3.798395938192985349e-02
-5.642524362526448595e-02
-6.467851022665767335e-02
-6.122676316074344288e-02
-4.655254342836414455e-02
-2.307876920705559387e-02
5.236615209130953894e-03
3.358103380453644760e-02
5.712391089939635597e-02
7.186355676812090920e-02
7.533544348645973554e-02
6.705527679925327167e-02
4.861351082619334851e-02
2.339503297571324941e-02
-4.037445752966323589e-03
-2.879152429186912499e-02
-4.656483319761153816e-02
-5.445146833750712234e-02
-5.147033472213680821e-02
-3.871299522044966551e-02
-1.909249432886687969e-02
3.245739671307786359e-03
2.373115052112127060e-02
3.824112963326271875e-02
4.388087018488278507e-02
3.952945976483866058e-02
2.605332168259368031e-02
6.146895581593345842e-03
-1.617319420942940622e-02
-3.633063616939150725e-02
-5.006771407080268937e-02
-5.427035604820120568e-02
-4.757600122322224595e-02
-3.064310664114005406e-02
-6.033207022677075995e-03
2.226275364449870064e-02
4.955489685085705254e-02
7.130200388249326171e-02
8.392350271457578448e-02
8.543391784008716461e-02
7.578926036952336742e-02
5.688398472404549572e-02
3.219816127718203719e-02
6.157689456729091224e-03
-1.667553631595832669e-02
-3.243210592383562879e-02
-3.862474068959689116e-02
-3.456895365082567756e-02
-2.146191726966729246e-02
-2.119407024392916741e-03
1.956300823347557893e-02
3.931575448704986708e-02
5.324397572126472050e-02
5.849925878636252213e-02
5.376950734508870872e-02
3.950700143784340729e-02
1.785250749764049488e-02
-7.736528423617149500e-03
-3.309125770735954486e-02
-5.406175933783858439e-02
-6.723834823006540062e-02
-7.053167825766630539e-02
-6.350974175027665480e-02
-4.744176294902417712e-02
-2.505819599942037817e-02
-8.541916490835584075e-05
2.335809005805258159e-02
4.140987668876676409e-02
5.106582090709905347e-02
5.065423205977075127e-02
4.011093038353820417e-02
2.100601671888370492e-02
-3.692241526656378850e-03
-3.008680232714527891e-02
-5.398040206444803396e-02
-7.155505549981212854e-02
-7.998059629452618224e-02
-7.784379920029811661e-02
-6.532942766250447730e-02
-4.413928088628140539e-02
-1.718634780404066503e-02
1.186712970600180099e-02
3.915001100791597188e-02
6.112871001123727777e-02
7.509564659547990351e-02
7.954223433092134921e-02
7.436755499473823861e-02
6.088938643904987652e-02
4.164783737352557857e-02
2.002173237671674849e-02
-2.889193799236831200e-04
-1.583092180358024875e-02
-2.391733979129214566e-02
-2.300914238861215960e-02
-1.290444953467442292e-02
5.274324817392506484e-03
2.926907878952277747e-02
5.600653934607012496e-02
8.200402826126124145e-02
1.038155314763069548e-01
1.184730578454388228e-01
1.238767314945709158e-01
1.190869322226231208e-01
1.044751223135943208e-01
8.169915188890920776e-02
5.348820557813294824e-02
2.325494372354879741e-02
-5.407967318971551932e-03
-2.925829112225850764e-02
-4.586547210131145663e-02
-5.392692827501561342e-02
-5.340107394463423918e-02
-4.545678056994575250e-02
-3.226663780177335683e-02
-1.668644071514855526e-02
-1.868007506344313354e-03
9.150062677760783733e-03
1.383430921338434615e-02
1.049458760920531607e-02
-1.468998139770744463e-03
-2.144879069028484547e-02
-4.767295108526917874e-02
-7.741968084028676145e-02
-1.073806445652694813e-01
-1.341190644205401961e-01
-1.545455534191224056e-01
-1.663304919229234013e-01
-1.681873507483840346e-01
-1.599924780016608039e-01
-1.427433755143152072e-01
-1.183861541158074820e-01
-8.955391280906299656e-02
-5.925180593134245915e-02
-3.051266178976793503e-02
-6.042340128434667626e-03
1.211865705145981874e-02
2.287775863681891508e-02
2.626934580421394494e-02
2.348611130578340950e-02
1.673574654182558713e-02
8.925504451290774618e-03
3.215206316926530125e-03
2.515487349224630395e-03
9.027071258711908894e-03
2.390718601573577767e-02
4.711353065978932803e-02
7.743125209218003346e-02
1.126535649191685307e-01
1.498712835502720164e-01
1.858269756598831535e-01
2.172960440083607225e-01
2.414624541965767479e-01
2.562583088442645929e-01
2.606339338576408315e-01
2.547207374869657759e-01
2.398486529264496347e-01
2.183915438052230762e-01
1.934417435956854447e-01
1.683534181430241805e-01
1.462295192178271197e-01
1.294441526349983385e-01
1.192847058907763463e-01
1.157698672557690017e-01
1.176612302939179788e-01
1.226496684760382400e-01
1.276729574274753642e-01
1.293128564525592439e-01
1.242251972387800052e-01
1.095659265659443410e-01
8.337938456725277336e-02
4.490966230034890844e-02
-5.211341916847933922e-03
-6.494387995938075142e-02
-1.310160678766548736e-01
-1.992916764120077899e-01
-2.652870147779895493e-01
-3.247571393073446777e-01
-3.742498579520301405e-01
-4.115295921111000177e-01
-4.358034855525201867e-01
-4.477279896018594996e-01
-4.492168597657861806e-01
-4.430970437649792704e-01
-4.326664303058082583e-01
-4.212062235909363461e-01
-4.115000086860033379e-01
-4.054130636005612853e-01
-4.035847544357318850e-01
-4.052797807519630258e-01
-4.084299609048225310e-01
-4.098772846922832946e-01
-4.057995898128586298e-01
-3.922634697444834506e-01
-3.658147710841774258e-01
-3.240017810036536217e-01
-2.657408740664947144e-01
-1.914739287386551525e-01
-1.031132182459797014e-01
-3.805443549274882889e-03
1.024343140702541483e-01
2.111628161134094239e-01
3.179708279835883333e-01
4.189228343615498673e-01
5.109368531417448622e-01
5.920686004948211290e-01
6.616620686768681647e-01
7.203311511883945251e-01
7.697541854741402068e-01
8.122968668684940052e-01
8.505187848613263712e-01
8.866488392984670508e-01
9.221231370871973976e-01
9.572635035434277073e-01
9.911418670530262043e-01
1.021636425235823653e+00
1.045651378365399786e+00
1.059451905451325615e+00
1.059062349756369148e+00
1.040683157052644470e+00
1.001091598405905891e+00
9.379955805935997759e-01
8.503088046027642566e-01
7.383146616112123972e-01
6.036909617068784151e-01
4.493799441059001532e-01
2.793080008444439599e-01
9.798594732071029545e-02
-8.995163470839530329e-02
-2.801913316307702573e-01
-4.690963116903361652e-01
-6.539243098084916994e-01
-8.328974235524014835e-01
-1.005143075942660058e+00
-1.170537114759429009e+00
-1.329475427182784664e+00
-1.482590783542651502e+00
-1.630426760532269981e+00
-1.773084125858538806e+00
-1.909866267133943696e+00
-2.038966627513803864e+00
-2.157257136162123778e+00
-2.260242263870766877e+00
-2.342228398487425256e+00
-2.396721137016797787e+00
-2.417015150495852804e+00
-2.396900309935147355e+00
-2.331386019427664102e+00
-2.217343586253280652e+00
-2.053976727965383553e+00
-1.843046544622427785e+00
-1.588797994332340036e+00
-1.297561962749982811e+00
-9.770427940209754913e-01
-6.353471396808374472e-01
-2.798650056338983227e-01
8.382933543809857613e-02
4.528460489514400944e-01
8.273993454518572266e-01
1.210601812426530532e+00
1.607552540954745757e+00
2.023771663209450011e+00
2.463179961343564095e+00
2.925950709277154171e+00
3.406643504494379471e+00
3.893044555273037055e+00
