6.499475885153964327e+01
6.513045124262475838e+01
6.484279456291886845e+01
6.501465005111720075e+01
6.552418906411872968e+01
6.541223117363409756e+01
6.518724386989799768e+01
6.501511785131151555e+01
6.508980215459763485e+01
6.542296619409535197e+01
6.485425680369843349e+01
6.458485796241461685e+01
6.425103703245144970e+01
6.430445797545922915e+01
6.438350874463600348e+01
6.394051499642159797e+01
6.433773547503818691e+01
6.479449299849159161e+01
6.521801174596458850e+01
6.547962368966346958e+01
6.548026517384238332e+01
6.523286281497297523e+01
6.550781792576970020e+01
6.607976577544025076e+01
6.596547548801044059e+01
6.594275824130562569e+01
6.561131717293744714e+01
6.522494716521600822e+01
6.538441722687718993e+01
6.569981178200794147e+01
6.524720039308925834e+01
6.463382135887547975e+01
6.442518412925335269e+01
6.445750859046330561e+01
6.487198028188259968e+01
6.534365648743977317e+01
6.543587917241194418e+01
6.557122754510595541e+01
6.598754654329985669e+01
6.632230628085903845e+01
6.605055292474332873e+01
6.618997458836861369e+01
6.560954983237502347e+01
6.612707580724003265e+01
6.634892250263976621e+01
6.593413071073149467e+01
6.567811440239080412e+01
6.507349282235145438e+01
6.526742825791592395e+01
6.525508625354228798e+01
6.491046014608951964e+01
6.459596174720360295e+01
6.450132251416971485e+01
6.523546690089676758e+01
6.598357470000570402e+01
6.594630180541537356e+01
6.583599245331390648e+01
6.568721901416438413e+01
6.593457160793951743e+01
6.613842546401036770e+01
6.619917625268436723e+01
6.587988779999034250e+01
6.553800208940572247e+01
6.579211894561609597e+01
6.564269036170310301e+01
6.531844301636152750e+01
6.509832820522154861e+01
6.459065498664040206e+01
6.450593491181240324e+01
6.457338493322038175e+01
6.466256546781073666e+01
6.480238489856822071e+01
6.515748912304735541e+01
6.549161904748052621e+01
6.581237862425751928e+01
6.575128453131850392e+01
6.546583244827149883e+01
6.550960518356720286e+01
6.578111054839314420e+01
6.580230331052410975e+01
6.549456798183086903e+01
6.523586130277391248e+01
6.479221114012420912e+01
6.477044061905917260e+01
6.484129103888994905e+01
6.444421158611584133e+01
6.393570239439577563e+01
6.346438944020593453e+01
6.368948433156799638e+01
6.391171441389286656e+01
6.436470012119127659e+01
6.436669220789792689e+01
6.450589040532128138e+01
6.470578611736891617e+01
6.510617092318068444e+01
6.483386023165525103e+01
6.467320839450297854e+01
6.449137676464334845e+01
6.471396816124860152e+01
6.468898326587463998e+01
6.453007187550025492e+01
6.407370159038129032e+01
6.368125473238842460e+01
6.359818195248476513e+01
6.385047928957447994e+01
6.353744308446852074e+01
6.308021674417602753e+01
6.257514344444854260e+01
6.261263071544829018e+01
6.294377523562252463e+01
6.324316337962699208e+01
6.352755397399278081e+01
6.357601754716671394e+01
6.411242371199108447e+01
6.432539520921687881e+01
6.434749153558112766e+01
6.406690162315805992e+01
6.394441383568010906e+01
6.415731525604758190e+01
6.438520642365045887e+01
6.425928006279110605e+01
6.399942696833153377e+01
6.356619967940838478e+01
6.363849837195397185e+01
6.369033810102337156e+01
6.330168253501904019e+01
6.305030487809870010e+01
6.262831367256421800e+01
6.254668254157240881e+01
6.296770442375543553e+01
6.312956636716313596e+01
6.356383385681715481e+01
6.368182814822489490e+01
6.375100473667225742e+01
6.408864971724335646e+01
6.429346095794210214e+01
6.423856439119020934e+01
6.414154063512501125e+01
6.456489606823822669e+01
6.479117148330578857e+01
6.469883227531022385e+01
6.440481376164279936e+01
6.393573632814337770e+01
6.407642303927809735e+01
6.427022254300578652e+01
6.401529251976859314e+01
6.370028256129279498e+01
6.330167215992560159e+01
6.327319890043037276e+01
6.362543970986473596e+01
6.358332041889786979e+01
6.397041909736594789e+01
6.422493498256011435e+01
6.446169321823651899e+01
6.502361324478283677e+01
6.501679076862029660e+01
6.516155340311917143e+01
6.520739678841147224e+01
6.549066335658915250e+01
6.581353717703382245e+01
6.572771761346501762e+01
6.553984869195898000e+01
6.524866464058590054e+01
6.542672137504615648e+01
6.544092482500366259e+01
6.532190031768573135e+01
6.487604888579477347e+01
6.456456029398447072e+01
6.440795545463089411e+01
6.468484154152667998e+01
6.457152269761337493e+01
6.493872845565556418e+01
6.504727027300765485e+01
6.566391015445844914e+01
6.620337806373311196e+01
6.642341905363986143e+01
6.626952133796748967e+01
6.618223203514014585e+01
6.651616558370312760e+01
6.684208330951503285e+01
6.681378099121332070e+01
6.656141222750920861e+01
6.622222136351928157e+01
6.621317215472942053e+01
6.628204689866737453e+01
6.622430468657910296e+01
6.584538365302927332e+01
6.549326508620674758e+01
6.533918931184757639e+01
6.563932084359117880e+01
6.551564221568554558e+01
6.585473546920911758e+01
6.606340988975364326e+01
6.657906083473670833e+01
6.704625145011510767e+01
6.721759746644954703e+01
6.735583362919805950e+01
6.696333891548835027e+01
6.721870119452989911e+01
6.727254100823239469e+01
6.741180155007884878e+01
6.720884121611584305e+01
6.669837783757520810e+01
6.674699017397983880e+01
6.659798275222544817e+01
6.646899830870148662e+01
6.609824476576062580e+01
6.594595562089352825e+01
6.572704016996351584e+01
6.573557837284386096e+01
6.623005628846050286e+01
6.671727861817635130e+01
6.683005383964882640e+01
6.726448597221212822e+01
6.767429721644623442e+01
6.777074292916825016e+01
6.766325707177446702e+01
6.728337150519058696e+01
6.748137187449822250e+01
6.762854429709261694e+01
6.766186836096642310e+01
6.740279599320672332e+01
6.698074429047596823e+01
6.681664571514386353e+01
6.676801445311025418e+01
6.668071132149231062e+01
6.649635312312580027e+01
6.587024191515837401e+01
6.575953052424563339e+01
6.592754354280606321e+01
6.648023758834227692e+01
6.675795497212095597e+01
6.649356449642971256e+01
6.667917682557566650e+01
6.713237038237207344e+01
6.735436967690168331e+01
6.714494160932571276e+01
6.721039463274297532e+01
6.733378606672988553e+01
6.742410904353482692e+01
6.747326560865161582e+01
6.713050143505347478e+01
6.665023888471574764e+01
6.629556662036009129e+01
6.639682639702868983e+01
6.608521063331130563e+01
6.591208718311173698e+01
6.511179574922851998e+01
6.518670800607299043e+01
6.532868609214557409e+01
6.594663653685893223e+01
6.628786689887260763e+01
6.621473544847009407e+01
6.645960040245552136e+01
6.683506637214873081e+01
6.690042276282616740e+01
6.689351881334920336e+01
6.636073793179247104e+01
6.645109501953447761e+01
6.661963087553334617e+01
6.673978532589239876e+01
6.651608215895055309e+01
6.575485289359369290e+01
6.561963034643366655e+01
6.538970097751496269e+01
6.504024941342197508e+01
6.476291669272177387e+01
6.444238583385202901e+01
6.436682199482760325e+01
6.482217443247435540e+01
6.511999938394023957e+01
6.584838415013604163e+01
6.556877464786413157e+01
6.567761282336590511e+01
6.628833608013718504e+01
6.625845468265026739e+01
6.620908723687813335e+01
6.576459151489837041e+01
6.579465008964490380e+01
6.575186636064501045e+01
6.598271435990534428e+01
6.580138386600333433e+01
6.517313441553687881e+01
6.495224390282322702e+01
6.497912848771557037e+01
6.493138657915784506e+01
6.479454334437951957e+01
6.421143046529965659e+01
6.426385034119181228e+01
6.488429576183574454e+01
6.543878753651125635e+01
6.564430780522263831e+01
6.553128872674375316e+01
6.568487913105235521e+01
6.592745222355250689e+01
6.580816586206287866e+01
6.597109287249622867e+01
6.570989507554656939e+01
6.557551564133842703e+01
6.571811305871744935e+01
6.563192377119406729e+01
6.558077612720541083e+01
6.492060993046385420e+01
6.485932540566176385e+01
6.481838403553439321e+01
6.484284177925945869e+01
6.471240424507107036e+01
6.485923689825716565e+01
6.525890944233697155e+01
6.570554456477253780e+01
6.613199226257677310e+01
6.660078017786474902e+01
6.582205093022713527e+01
6.593106366955964859e+01
6.635298667225299596e+01
6.638634753575780678e+01
6.640496962027179961e+01
6.603165793980980425e+01
6.562036252202699416e+01
6.568510291110214894e+01
6.538851600102879047e+01
6.541957755816645204e+01
6.488661543037704860e+01
6.458890626328377493e+01
6.449845225927083447e+01
6.485276286191384543e+01
6.547317321802137258e+01
6.553812341716098899e+01
6.575460682558264125e+01
6.619793421428261126e+01
6.653949677397957885e+01
6.663609852936428979e+01
6.616204043877775121e+01
6.617710004937174517e+01
6.646189404862838046e+01
6.652619729864665032e+01
6.620606942954509577e+01
6.576424780051473817e+01
6.553272343986719761e+01
6.552457857347860681e+01
6.555976224503524463e+01
6.546387886474559537e+01
6.478909327790825046e+01
6.450715434561283246e+01
6.466903029255098545e+01
6.525289070640826594e+01
6.576989468937927086e+01
6.585269136878804375e+01
6.607309965148323272e+01
6.656299807590693263e+01
6.661054318924345807e+01
6.686560865550836752e+01
6.666063756854327949e+01
6.651957656345706482e+01
6.652253563306942397e+01
6.675525246219666542e+01
6.649434947704276055e+01
6.615917802713335050e+01
6.568431761653698686e+01
6.583936350439012131e+01
6.578541991249466037e+01
6.560646225584889635e+01
6.505367587388434458e+01
6.469441189559148597e+01
6.501343617085490223e+01
6.582954885298875070e+01
6.642362157196760108e+01
6.645986087965877687e+01
6.654313631475491775e+01
6.671956993748392506e+01
6.693782566242418852e+01
6.730652672562831640e+01
6.684589133468705313e+01
6.633676692138766384e+01
6.654061067578430766e+01
6.651543061122032441e+01
6.660764266824071456e+01
6.618326860189893068e+01
6.584141859613146153e+01
6.580465484431130108e+01
6.586168365236693489e+01
6.568294703293940984e+01
6.513891421909528390e+01
6.492639315124336008e+01
6.525741037149475687e+01
6.604270522365550278e+01
6.645096120726384470e+01
6.641160696123756679e+01
6.645571510788204250e+01
6.658024568989111458e+01
6.682125166144874129e+01
6.718205968889492397e+01
6.678597222956892665e+01
6.650609324700695879e+01
6.657137727495825175e+01
6.652510829989751073e+01
6.662248609509379094e+01
6.617227694770957669e+01
6.567278295457214199e+01
6.555238796121875566e+01
6.560340685285001427e+01
6.562214255316155231e+01
6.532471655855977133e+01
6.508286329405126480e+01
6.553801374147059278e+01
6.619984386453347724e+01
6.682004188615633211e+01
6.663167308018751100e+01
6.640998291772979201e+01
6.632685713953702589e+01
6.656641219161633671e+01
6.685895254687710576e+01
6.653780682309917438e+01
6.625841594664166223e+01
6.575651573029261954e+01
6.619724217755771178e+01
6.601626642106703002e+01
6.566918641707968618e+01
6.547858210520081457e+01
6.515359933691297556e+01
6.522860632290178273e+01
6.534805730308119109e+01
6.526479820101133100e+01
6.549268110457290959e+01
6.594223477807895506e+01
6.651019684286120537e+01
6.683724416774055044e+01
6.688810868503117035e+01
6.679518628332920116e+01
6.660442737023504378e+01
6.691898965745593841e+01
6.717565442376621831e+01
6.692837998342025685e+01
6.668346860092958650e+01
6.624947892462716936e+01
6.640523653236351720e+01
6.659543158137626051e+01
6.606721310439587569e+01
6.578573600848136493e+01
6.556471582700618228e+01
6.573513325620422165e+01
6.626741353779453902e+01
6.645632233757436325e+01
6.653802090512289169e+01
6.659695662325077592e+01
6.690067723301092428e+01
6.717093364254645849e+01
6.684068257560198845e+01
6.678007835578512186e+01
6.661223720095995304e+01
6.706495855948003282e+01
6.695709159015308387e+01
6.672210837977718256e+01
6.619944434982556913e+01
6.596593937309825151e+01
6.597636897603769057e+01
6.592750402570840151e+01
6.549019752082750756e+01
6.548812444133108102e+01
6.569137183266633429e+01
6.633523981275322967e+01
6.701795718905077592e+01
6.685314463471519275e+01
6.662150666662711274e+01
6.635751611006077155e+01
6.647620552883370237e+01
6.642336884801312635e+01
6.645749494538057434e+01
6.608167433693768089e+01
6.593161219872035872e+01
6.610075319198114130e+01
6.616592293536797342e+01
6.586953996843732284e+01
6.537356239752710962e+01
6.497254117401803342e+01
6.539054075531123544e+01
6.591394674164456546e+01
6.606208763707650178e+01
6.625757728571545613e+01
6.627693593479409628e+01
6.665672417539667549e+01
6.684384930123331969e+01
6.665764381957637852e+01
6.645114606343736341e+01
6.627851432807159426e+01
6.640224925555963864e+01
6.677237504256561351e+01
6.619712065108217303e+01
6.600517220709815547e+01
6.551159417979101818e+01
6.532182598317444899e+01
6.573254103592148567e+01
6.517560575123786748e+01
6.493826973191164598e+01
6.508315047157765321e+01
6.584423869330277057e+01
6.643622073204204526e+01
6.660824673423650211e+01
6.623405353853434008e+01
6.612838565441182936e+01
6.631254897884451793e+01
6.656989302709740741e+01
6.620091507855033797e+01
6.614982682744522435e+01
6.565608761191151643e+01
6.571389919782205880e+01
6.578632142900676172e+01
6.557735459920849053e+01
6.509718632366616475e+01
6.472031122159660299e+01
6.507651419790693126e+01
6.580317495792877480e+01
6.628247746417684994e+01
6.631786322969077219e+01
6.608150857289081159e+01
6.669085877526873674e+01
6.698562941734849119e+01
6.683412647744734159e+01
6.654479421546369622e+01
6.631420506983170071e+01
6.637142950387203655e+01
6.655144718356280009e+01
6.628662225545861020e+01
6.573838804877749453e+01
6.546626644954500307e+01
6.534320843831829961e+01
6.572489384765856357e+01
6.519038489652257340e+01
6.520301205615629669e+01
6.550917150106806730e+01
6.594126266057588737e+01
6.657386749121650382e+01
6.678566393360125630e+01
6.684395547873845089e+01
6.646098316309229403e+01
6.679243074266850044e+01
6.707726725127673717e+01
6.713728090015843009e+01
6.680776641079717137e+01
6.651227786466847647e+01
6.616249752659780370e+01
6.657462990029654293e+01
6.633699505807214791e+01
6.600944168108537724e+01
6.542686938006863784e+01
6.528703761573001429e+01
6.548402031347148977e+01
6.541001347731031501e+01
6.573457799600845419e+01
6.585991590448480792e+01
6.650174561552233854e+01
6.689010068542575027e+01
6.709634909413642845e+01
6.705018235955969885e+01
6.676299534831719029e+01
6.709866859595473443e+01
6.738841875359992173e+01
6.733403938330644678e+01
6.711840486187486476e+01
6.680499068947131036e+01
6.652178868985510007e+01
6.669811245685087897e+01
6.658863622071464761e+01
6.634396285572381657e+01
6.569459505213171724e+01
6.555960213364375022e+01
6.586011954887788988e+01
6.552816877496456982e+01
6.561812754562430428e+01
6.569085222001564262e+01
6.603742338612590856e+01
6.707438681560614668e+01
6.735963349496080355e+01
6.735283551435259142e+01
6.696507085253847436e+01
6.708875454290750895e+01
6.743868214026917940e+01
6.759755187919665786e+01
6.737198690886674513e+01
6.702049081500047123e+01
6.687501524226757965e+01
6.683358036933469748e+01
6.691503465124861805e+01
6.669656269702852569e+01
6.637887485232727158e+01
6.611507268447292063e+01
6.622204846695007063e+01
6.619149842221719382e+01
6.579267323633996511e+01
6.502620213602682497e+01
6.542820995721586996e+01
6.630153596691843632e+01
6.674924825429945940e+01
6.692643808938157690e+01
6.678075499288189576e+01
6.657882111972685379e+01
6.720106049569221796e+01
6.733411806506302355e+01
6.727471248008799876e+01
6.684932325829191768e+01
6.676862031777596940e+01
6.708576425619190786e+01
6.696072761185314448e+01
6.657694811949636460e+01
6.618204919599310188e+01
6.586357071850170541e+01
6.627015256671342058e+01
6.607188782665144799e+01
6.580535135964589699e+01
6.520812639193252380e+01
6.506051496672733947e+01
6.543497220286536731e+01
6.595328381569265730e+01
6.637837303316314319e+01
6.624397730660894013e+01
6.643274784339331518e+01
6.672916539448050344e+01
6.680800432023079338e+01
6.686169745662544983e+01
6.659078227071557876e+01
6.662052854121844803e+01
6.646560827821775774e+01
6.656190657019720902e+01
6.648339420035887315e+01
6.590920051463831442e+01
6.568225631252425956e+01
6.559479833622458500e+01
6.570199039303139443e+01
6.566721373456351785e+01
6.484255554260141707e+01
6.483612107920572498e+01
6.559116650268668991e+01
6.631253867173495564e+01
6.630178042455702325e+01
6.619258317242798739e+01
6.619191548546564263e+01
6.640497325967658071e+01
6.679735552828259415e+01
6.672015832318777484e+01
6.622819531559224515e+01
6.612339556085106551e+01
6.623221700062043737e+01
6.627030666474274767e+01
6.619571863808829448e+01
6.548498759932061830e+01
6.526905381821705987e+01
6.539294867689153534e+01
6.543195067451199520e+01
6.496610493860924862e+01
6.419351979578124201e+01
6.478233902933493482e+01
6.534395599108808028e+01
6.605640076418285389e+01
6.609990515630846630e+01
6.601764033030195833e+01
6.607282642254369875e+01
6.608518644731520908e+01
6.646021666892715984e+01
6.634837647633594315e+01
6.602930741754562405e+01
6.597409577524319957e+01
6.599325605196787592e+01
6.606695819740718889e+01
6.591299037416484907e+01
6.533293819087850807e+01
6.494375619567756530e+01
6.491012044208713405e+01
6.488849844880354567e+01
6.505714853864333236e+01
6.396887618620752392e+01
6.436551865735827960e+01
6.510693969600873743e+01
6.562736082134870230e+01
6.599355644901658025e+01
6.586675525379763485e+01
6.563122501806248010e+01
6.592822715974830317e+01
6.616627114941360333e+01
6.631918187813346321e+01
6.596678617725569893e+01
6.564674524417387147e+01
6.550211713890928422e+01
6.566044256534291890e+01
6.563210775924471818e+01
6.514696858733896079e+01
6.455291124660089963e+01
6.455960391091389283e+01
6.454804384860244681e+01
6.446307614143387354e+01
6.439262303568654033e+01
6.477983349680295078e+01
6.530827927428538260e+01
6.568510172494166000e+01
6.615520808437389633e+01
6.585841919407579326e+01
6.550705679272937232e+01
6.572758810567819410e+01
6.598178178996624865e+01
6.617052629155409704e+01
6.570147272148079765e+01
6.536662994376075630e+01
6.535532228366110985e+01
6.543658693395786941e+01
6.529316409532566468e+01
6.471555322377912489e+01
6.436957016898054462e+01
6.440327295416744846e+01
6.455744541354960120e+01
6.514449763134439308e+01
6.496674233926904662e+01
6.517032229679301736e+01
6.533219871068342854e+01
6.586851148560367619e+01
6.569610657306526491e+01
6.553466466309862426e+01
6.531336559184376256e+01
6.530039628078702663e+01
6.545295723156289114e+01
6.560959044121113948e+01
6.509819295400069450e+01
6.473540563021549588e+01
6.472994379983094859e+01
6.469966756751892945e+01
6.469147883419589107e+01
6.423126523456846826e+01
6.428020200909003279e+01
6.465645061150416950e+01
6.509674911255325469e+01
6.554794342976214239e+01
6.548103345821590437e+01
6.513261622811444340e+01
6.558396392403426489e+01
6.552245460366310681e+01
6.578795797603959272e+01
6.530115814860397450e+01
6.507299650211183462e+01
6.483255505498436833e+01
6.510720243264245255e+01
6.511653218389136555e+01
6.456751230371054362e+01
6.416746017515527001e+01
6.385923057706520467e+01
6.420749909009981593e+01
6.455209357856676888e+01
6.465964957351479825e+01
6.492542819471634630e+01
6.517544343566282805e+01
6.571901839646659482e+01
6.544000591678297951e+01
6.504968399040274107e+01
6.521931247616350902e+01
6.504805009424916307e+01
6.529074170222179418e+01
6.515899629260212578e+01
6.495062383418581931e+01
6.435452564373525774e+01
6.421929772005074710e+01
6.428271627765849416e+01
6.446529763823923531e+01
6.378346674905577629e+01
6.349909393803648072e+01
6.355671132324954442e+01
6.425360115764021884e+01
6.463433546158449872e+01
6.467026584334001882e+01
6.476963054525594998e+01
6.487109288699582521e+01
6.489567313539151883e+01
6.497611793524220047e+01
6.481367037513075502e+01
6.488787571404901655e+01
6.488088428680975994e+01
6.482318425408482199e+01
6.461978098064878395e+01
6.435921773458147754e+01
6.375199381773143159e+01
6.382268981427296239e+01
6.379431366728965713e+01
6.382417673105919675e+01
6.332695740142980867e+01
6.313380502821598839e+01
6.345713621353667122e+01
6.402150423148975733e+01
6.471735805854905266e+01
6.458101699656890560e+01
6.450499415194013864e+01
6.455319498908284004e+01
6.476820767698808368e+01
6.509050103813899568e+01
6.475575161248815448e+01
6.457864680715050554e+01
6.440349598685861565e+01
6.453922009066030796e+01
6.441240297985825691e+01
6.412966598995461709e+01
6.361148820038874874e+01
6.331027073146589146e+01
6.360257709283581562e+01
6.349671461786437021e+01
6.323521147264472120e+01
6.304534391356526157e+01
6.341382788565152850e+01
6.411680585739384242e+01
6.449977228569338195e+01
6.462372916123126743e+01
6.462526611960998935e+01
6.464308958877995792e+01
6.486507957732993646e+01
6.512079074477236418e+01
6.493540287479282824e+01
6.463355707518849158e+01
6.457729713036701469e+01
6.462882139700781181e+01
6.475647684980680197e+01
6.441624842792521122e+01
6.390584166046016890e+01
6.359371632869050472e+01
6.371248414582441910e+01
6.380530338476881980e+01
6.387436008664258225e+01
6.375618535806694354e+01
6.399281661304684121e+01
6.458953607014149156e+01
6.513970759813213363e+01
6.509648867424010632e+01
6.494017865356141783e+01
6.492403898068357648e+01
6.513994335156729676e+01
6.567362179054509852e+01
6.526972401437717508e+01
6.512867101179574547e+01
6.480609997322272875e+01
6.492328084532840649e+01
6.509882862213618182e+01
6.469040248964927287e+01
6.446723834890855187e+01
6.417456270360150938e+01
6.427516453189241474e+01
6.444193893475312507e+01
6.484221707693893677e+01
6.500718707719795475e+01
6.524903355880644540e+01
6.583945612280831483e+01
6.610938017785042575e+01
6.628109735410532721e+01
6.614170438514167927e+01
6.580056730500024287e+01
6.608505204312899650e+01
6.641615536661043961e+01
6.639731079531060232e+01
6.594886226460482703e+01
6.566283128305059336e+01
6.580523016971136485e+01
6.583036638227292769e+01
6.542077576003589456e+01
6.533167687409513746e+01
6.476951959229910472e+01
6.498131651317942215e+01
6.525727377837557697e+01
6.543166755653851396e+01
6.579477944529571687e+01
6.586118321084506988e+01
6.645258666940486592e+01
6.708729474434500162e+01
6.708384461758583939e+01
6.695337497567248874e+01
6.668433954127806373e+01
6.684230923721997897e+01
6.709319088934620368e+01
6.691159441501378069e+01
6.647791446085290090e+01
6.637810708453235975e+01
6.624778199754172192e+01
6.648476672216736461e+01
6.600074495088773574e+01
6.560716755313228532e+01
6.534453867171600905e+01
6.561537280524015614e+01
6.550711826457830966e+01
6.555666787521414562e+01
6.584618576253780020e+01
6.600094261488567327e+01
6.658625377978995630e+01
6.692923903476412306e+01
6.716013832592591370e+01
6.690158714485500013e+01
6.683422504583785440e+01
6.686455820111660842e+01
6.725054351394720697e+01
6.704664161359238506e+01
6.674854738030046519e+01
6.608986140792546848e+01
6.627603774915752410e+01
6.649021867716811585e+01
6.598557855013558537e+01
6.564087612866126165e+01
6.525148091948540241e+01
6.523464110601349830e+01
6.522694860710163312e+01
6.509211001533282115e+01
6.516646290212668191e+01
6.545299178736786416e+01
6.583615772779575082e+01
6.652234486883207865e+01
6.648180256871836491e+01
6.629347005741198018e+01
6.600648539950543636e+01
6.618538412958452000e+01
6.646548159460860461e+01
6.645493863569333826e+01
6.615158770674293010e+01
6.582098789631800173e+01
6.585745476227123163e+01
6.592746886555545416e+01
6.577232788567584976e+01
6.536478165852395250e+01
6.479093781916878925e+01
6.468132079103713750e+01
6.493898187863447902e+01
6.516390091415161123e+01
6.529174402929027110e+01
6.541601399629479374e+01
6.557762420943112147e+01
6.604743425523253109e+01
6.600945876690838077e+01
6.615317490460444105e+01
6.548648559523871882e+01
6.578898151209170919e+01
6.616712839865999740e+01
6.594329288004269074e+01
6.564055219314172973e+01
6.502838933184631287e+01
6.526670949003124633e+01
6.525822812881011714e+01
6.500239420060478324e+01
6.472919460547751669e+01
6.430385828780475777e+01
6.426450917748474012e+01
6.500760648291048938e+01
6.535197526637591636e+01
6.550889790088615428e+01
6.544788047158726840e+01
6.560476726468414199e+01
6.592137816299185715e+01
6.599093972981785328e+01
6.577852214078376392e+01
6.544112809164698774e+01
6.569794017724444757e+01
6.573101584675009690e+01
6.562792592048077722e+01
6.531602896332202590e+01
6.481047495628189381e+01
6.486790433287325186e+01
6.493714491314796078e+01
6.466695658819145365e+01
6.428021759508959576e+01
6.419249733389858648e+01
6.460558459026833589e+01
6.548762876692677537e+01
6.574382047548022001e+01
6.563252386367145164e+01
6.538646493503273405e+01
6.553604984532654498e+01
6.592315661128532156e+01
6.583095374426204671e+01
6.587321316135881943e+01
6.530259461585012559e+01
6.568002447820083489e+01
6.528487856303331682e+01
6.521622212104580285e+01
6.495075188438971736e+01
6.446742429704971755e+01
6.446900012798721491e+01
6.410503038001246523e+01
6.411104669989981630e+01
6.441346106843440111e+01
6.454567342557680831e+01
6.508778295711556439e+01
6.541622929347249737e+01
6.572217419785278025e+01
6.551837562040088869e+01
6.523585345797800983e+01
6.540107698916204981e+01
6.554905422826504946e+01
6.575153250790162929e+01
6.547621694242201329e+01
6.494210239025608189e+01
6.495522549507785470e+01
6.463381351955541732e+01
6.460882106086802423e+01
6.448627970369210516e+01
6.407039243308554433e+01
6.388313916261125769e+01
6.439069779003699523e+01
6.477863460587809641e+01
6.501232418110885192e+01
6.498799566878153655e+01
6.497112202844220974e+01
6.526880853470987631e+01
6.550918261534349085e+01
6.547622270328491823e+01
6.501217038789542357e+01
6.504619327570526366e+01
6.520240651634361484e+01
6.511112249232957083e+01
6.491230678073998206e+01
6.436226139769445354e+01
6.427891949002594174e+01
6.423799440028489016e+01
6.420938843101600924e+01
6.394481137174426522e+01
6.360314847576722741e+01
6.404508474440734744e+01
6.446078710932687272e+01
6.501622942642268299e+01
6.522683026774399195e+01
6.493280216268999538e+01
6.485467882106405568e+01
6.502289439224222178e+01
6.516760572433025800e+01
6.497183636079273583e+01
6.486190984757053002e+01
6.442665833923587115e+01
6.485347987361620881e+01
6.449727410615656709e+01
6.447225047343539472e+01
6.372800797468107703e+01
6.367629640227545451e+01
6.359803853717369293e+01
6.375312019704313116e+01
6.399905399306487652e+01
6.375780562957720576e+01
6.411828603722108255e+01
6.459586904273760410e+01
6.505211790527511084e+01
6.522145354057778377e+01
6.482616584113361569e+01
6.467113657370543933e+01
6.501021894678308399e+01
6.516994956419881646e+01
6.510200922750897234e+01
6.476733555666788789e+01
6.445966125017076820e+01
6.435337581356071723e+01
6.448563019667727758e+01
6.398939754302466554e+01
6.352443645003847905e+01
6.334823804498870459e+01
6.341713033645282849e+01
6.359572248826640362e+01
6.389261030573993594e+01
6.398923417888045151e+01
6.417953485989096407e+01
6.474380662700417588e+01
6.511195603476835458e+01
6.524445759811311518e+01
6.483036052703596397e+01
6.488581701023247206e+01
6.498603315821839033e+01
6.528196500165626048e+01
6.529985809415654785e+01
6.468967066329543059e+01
6.452479913574853754e+01
6.458613642372807817e+01
6.483990567811775918e+01
6.439682542039543023e+01
6.390604234288548469e+01
6.367343082948184474e+01
6.359956520714763428e+01
6.382826541910122842e+01
6.400744878573107144e+01
6.389467365969039747e+01
6.438707124440293228e+01
6.449220462435465606e+01
6.536760344437448111e+01
6.547469765584105517e+01
6.489512798480961919e+01
6.486393181162895871e+01
6.530140802136719458e+01
6.551764669265247676e+01
6.561375600813727260e+01
6.498099383707091192e+01
6.468480291342160626e+01
6.483098049772161175e+01
6.482370829765238796e+01
6.484632378741355296e+01
6.422879246634943229e+01
6.415609874357789977e+01
6.392192591613974173e+01
6.413188526998646921e+01
6.402048568593079381e+01
6.373012373048919699e+01
6.410179999606083356e+01
6.471640947787005871e+01
6.526637910129562670e+01
6.551006872267493009e+01
6.537762715942415070e+01
6.516402938536833744e+01
6.516295808802323108e+01
6.564964431636440167e+01
6.574678099364865602e+01
6.538806244952985480e+01
6.507843376378809808e+01
6.502245694076054860e+01
6.509879922776133299e+01
6.503257105978116215e+01
6.453407025618236048e+01
6.438805727446305127e+01
6.416592651523637869e+01
6.464472299177850800e+01
6.440817598518157183e+01
6.425600022471439843e+01
6.453527384492588226e+01
6.522328675612260440e+01
6.561937418774817843e+01
6.591672400105545648e+01
6.567784124982205185e+01
6.558603394015909771e+01
6.554783744540543466e+01
6.590348699827825385e+01
6.591183040747290534e+01
6.545160151043552332e+01
6.532178451697404853e+01
6.514047300478443958e+01
6.521327718659415495e+01
6.520625021205239591e+01
6.485886684692007975e+01
6.424179920451803127e+01
6.419089064002673695e+01
6.451761456212733492e+01
6.523218551541435772e+01
6.514916736342223658e+01
6.529401432941182293e+01
6.566589661980543724e+01
6.569288674087459867e+01
6.614783063547463371e+01
6.606001256084323359e+01
6.571074202669871056e+01
6.591029558093191554e+01
6.625173587072674763e+01
6.599273729190093718e+01
6.585528652773513159e+01
6.544552711124242705e+01
6.497214249709003298e+01
6.504681253260463336e+01
6.494086081522453924e+01
6.474126180334639002e+01
6.416084084334994486e+01
6.422606201899259304e+01
6.488743227874863351e+01
6.545714318710446378e+01
6.559429966390024447e+01
6.567751653250911659e+01
6.533845090283205082e+01
6.596002810391047433e+01
6.637742911797732859e+01
6.615696906552824430e+01
6.586060961118505475e+01
6.569176422476704147e+01
6.594602480373396247e+01
6.590397047314138490e+01
6.554316592488009974e+01
6.510956294816998025e+01
6.466324311975648698e+01
6.487643870132257007e+01
6.486201002552030559e+01
6.452879597217162200e+01
6.431382615405686920e+01
6.464295926907692547e+01
6.528936531928468412e+01
6.573816033575508300e+01
6.594863410923579750e+01
6.580568906169906995e+01
6.566669673236310700e+01
6.590878222505347139e+01
6.621690879425477760e+01
6.578437037497326401e+01
6.570170050884911461e+01
6.525395110977694912e+01
6.548691803510871523e+01
6.547453186965384475e+01
6.529922989745870154e+01
6.463210923677092978e+01
6.442398978128710496e+01
6.449649620548370876e+01
6.442351580823469703e+01
6.418690945290830996e+01
6.414882498103190756e+01
6.447203832617037733e+01
6.497493027011103095e+01
6.550373297031086395e+01
6.543559146472006205e+01
6.536940859275841831e+01
6.496812727311044000e+01
6.532729391491631077e+01
6.531780420327021375e+01
6.524912555786255552e+01
6.477134563542676915e+01
6.422161885690809413e+01
6.448531367571337114e+01
6.465899828787536308e+01
6.459981570053605537e+01
6.386495727330481031e+01
6.335937846765824588e+01
6.340823067756230103e+01
6.347459490464206056e+01
6.376150518787960664e+01
6.375223991614308261e+01
6.391738356945387523e+01
6.439799244184291638e+01
6.465752000884526751e+01
6.469899625594717918e+01
6.453979240586068045e+01
6.438027642079606494e+01
6.451850973031127978e+01
6.489355528411607565e+01
6.494311028031842170e+01
6.437798523834521802e+01
6.407646092218652711e+01
6.398791718001109530e+01
6.416428422050717018e+01
6.399423132291502725e+01
6.375835903059135035e+01
6.305690369034192599e+01
6.319548540370760747e+01
6.365941001185393588e+01
6.420335827915698701e+01
6.434290441741688937e+01
6.428014808716540074e+01
6.465215304380092221e+01
6.482126955063841933e+01
6.468509492518813886e+01
6.475249256641006923e+01
6.455959410745890636e+01
6.481648083593819365e+01
6.492421481161471775e+01
6.473340793431776774e+01
6.448877654202561871e+01
6.420412422934157348e+01
6.421929280557270658e+01
6.430351729311399822e+01
6.419937498868978309e+01
6.403241110934368407e+01
6.384768348226248236e+01
6.397901170615273259e+01
6.489402610994653742e+01
6.511784702838122030e+01
6.530257529371345981e+01
6.509877193261911543e+01
6.537602788637678941e+01
6.564099701926119224e+01
6.572840338911976232e+01
6.570616532900851325e+01
6.537590818999365183e+01
6.567970460682909106e+01
6.583448826756102790e+01
6.569824320660336525e+01
6.540351479382798061e+01
6.489726730306102809e+01
6.482366430631458343e+01
6.489325190996288484e+01
6.481166917001712591e+01
6.466951282980659244e+01
6.460091472439739846e+01
6.534899896388827756e+01
6.601214861405156853e+01
6.635038007260141057e+01
6.651106145385705304e+01
6.640005000092992304e+01
6.652720197833639304e+01
6.696010267664519233e+01
6.692892847878562179e+01
6.680442871277909944e+01
6.624318347350191516e+01
6.619544787683128106e+01
6.630740176450603940e+01
6.620876575018519361e+01
6.613311328302512493e+01
6.547391841594748030e+01
6.536769992711066379e+01
6.552221427674459164e+01
6.551786936235396297e+01
6.544004624029759043e+01
6.547592522640525203e+01
6.593079660716216495e+01
6.644318314067731990e+01
6.709163183539891406e+01
6.724566237726554618e+01
6.697491035224970801e+01
6.703793002996383166e+01
6.750057617094785201e+01
6.758138158153491304e+01
6.756690612273962415e+01
6.702636280376322020e+01
6.687158029576858098e+01
6.699399903092302111e+01
6.695521288708596330e+01
6.675864836427359705e+01
6.636515938529919367e+01
6.613544723929038582e+01
6.621795897143368848e+01
6.627137773675332255e+01
6.637527025636416056e+01
6.641480176954377157e+01
6.685771157674156484e+01
6.760821386776592590e+01
6.798282988520770687e+01
6.792536724180928331e+01
6.761834006363164917e+01
6.777181095060734606e+01
6.780394419852359533e+01
6.812566213658777770e+01
6.805438568993031367e+01
6.738694030946396651e+01
6.684391798574216637e+01
6.726737855912261921e+01
6.703577587786190861e+01
6.708686929719493719e+01
6.656057720022653257e+01
6.623121828912348974e+01
6.641016104257988673e+01
6.700171893462675143e+01
6.734856775942228069e+01
6.739085459353020724e+01
6.781933603965268276e+01
6.822128574553647695e+01
6.848330460144194376e+01
6.842705710245587625e+01
6.810464433273233453e+01
6.782448301212508568e+01
6.812601795033896224e+01
6.814464947089743418e+01
6.803364584694821815e+01
6.753552558094315827e+01
6.729733164889211139e+01
6.740316788693957051e+01
6.695804088967088319e+01
6.692495101920718525e+01
6.642702218337285558e+01
6.595228605690897439e+01
6.631273038975530199e+01
6.690000886176170525e+01
6.759014019531406348e+01
6.745617287964438447e+01
6.762942653530484449e+01
6.779151818125416185e+01
6.819062665732650430e+01
6.818181441561927159e+01
6.777518013702314192e+01
6.766235752054416253e+01
6.782168727743629688e+01
6.784603635250988418e+01
6.788291813608833536e+01
6.731746139812759111e+01
6.698594564772258764e+01
6.686492395047508808e+01
6.681597055190502488e+01
6.680810064310600183e+01
6.609698545284840066e+01
6.594159256856727325e+01
6.587412592712149717e+01
6.666194824323730472e+01
6.724996589906498912e+01
6.732257701238734171e+01
6.746191015935386304e+01
6.753230154393651219e+01
6.770777427420324557e+01
6.789599869340838723e+01
6.785700323816956825e+01
6.758852406725469564e+01
6.773191941759375823e+01
6.769262003190442556e+01
6.762746351084058460e+01
6.693273394035117008e+01
6.650701966184914227e+01
6.641487029314913570e+01
6.651322396081803845e+01
6.666295340153681082e+01
6.591405157830723738e+01
6.565218463565616958e+01
6.553886108005900724e+01
6.632896905646788355e+01
6.714390049767462187e+01
6.705047556569621747e+01
6.723679474390496580e+01
6.747380441054519906e+01
6.778324091036108712e+01
6.791362706327100796e+01
6.738334128335122841e+01
6.720141917790994057e+01
6.712538514758244901e+01
6.747990406525048002e+01
6.697041866275770872e+01
6.676678036928410620e+01
6.646476051530697760e+01
6.650127122396423829e+01
6.620691576668986045e+01
6.621536369261229993e+01
6.577511861672064697e+01
6.522200467318418760e+01
6.514884880166346193e+01
6.551707785134243522e+01
6.633571999154287369e+01
6.674077362584461071e+01
6.671759518304833136e+01
6.682898076218287997e+01
6.726048470138175617e+01
6.746990251465035726e+01
6.732632458599078973e+01
6.714018700182407429e+01
6.685906467848388957e+01
6.729220566470979747e+01
6.716827648497923064e+01
6.689778067962868136e+01
6.633280094524201331e+01
6.616715117192347861e+01
6.617484152571893219e+01
6.638116848772983758e+01
6.598779229104809474e+01
6.541702563863310615e+01
6.495986679295219801e+01
6.550958282917395081e+01
6.610835446390694869e+01
6.620598685710831433e+01
6.635853551010211504e+01
6.640016233567905601e+01
6.679010197854427133e+01
6.720599182511995195e+01
6.696528784708419835e+01
6.669959141215423415e+01
6.661943904484678569e+01
6.676628424399257256e+01
6.693071967967995306e+01
6.648679360560208806e+01
6.613219050084455830e+01
6.580259024560604075e+01
6.597958745418509352e+01
6.587964073969493484e+01
6.561008874721380835e+01
6.518948589773481217e+01
6.483217187376203583e+01
6.542685508342970024e+01
6.609174169638072271e+01
6.637823321889766248e+01
6.638267260731055330e+01
6.641918569693262953e+01
6.670846739478110976e+01
6.707271807843108036e+01
6.675976224448174889e+01
6.651374703256567500e+01
6.619931136595374710e+01
6.644936158075017829e+01
6.664440759138994963e+01
6.652415306401144335e+01
6.556637980764588747e+01
6.561191420093922488e+01
6.563019965950576307e+01
6.570161670446969993e+01
6.517678896441566394e+01
6.512485712606428478e+01
6.505703840751669986e+01
6.587680273411689313e+01
6.649073426584368462e+01
6.663410273830987762e+01
6.671897768709999355e+01
6.631156707568305819e+01
6.658392833264122146e+01
6.692974671460586933e+01
6.661489073966498609e+01
6.644627554901063604e+01
6.599102787420179084e+01
6.606792196092811764e+01
6.631588828137398650e+01
6.611305361964423355e+01
6.563511275500053443e+01
6.521833701749523016e+01
6.515671222276159824e+01
6.541961384757036058e+01
6.511582258077970664e+01
6.537556705227143539e+01
6.564974256252565965e+01
6.603367854337267318e+01
6.670591667881404874e+01
6.679289372276775794e+01
6.634531340226214979e+01
6.612222603406434018e+01
6.616595410399406774e+01
6.647720520315561998e+01
6.635566046356143488e+01
6.593668421292665016e+01
6.566654952487465380e+01
6.575750066872774369e+01
6.573199784045334582e+01
6.550349216482510428e+01
6.511305272749109463e+01
6.449364587643464120e+01
6.443902085604287322e+01
6.489438671618404442e+01
6.532637723269624530e+01
6.537534866908674758e+01
6.554647624698435493e+01
6.597738427704638298e+01
6.625980011159271044e+01
6.608874210592171039e+01
6.584000357753359367e+01
6.547813536877964680e+01
6.574575798183792585e+01
6.602000004043406989e+01
6.581735537355763199e+01
6.564689439456878972e+01
6.491392825703962899e+01
6.466388062920873381e+01
6.470800716679718789e+01
6.473805378557347012e+01
6.420484347884507770e+01
6.365509384791488401e+01
6.393522543033446937e+01
6.469136281704300018e+01
6.521271358802283657e+01
6.517873827761854955e+01
6.507047819152097645e+01
6.544122727691672026e+01
6.556875639002453227e+01
6.563263916789378527e+01
6.555385187928942514e+01
6.498820578584786745e+01
6.499752973038818027e+01
6.533085541346804348e+01
6.499983046694802624e+01
6.473131702059026793e+01
6.409227867581688542e+01
6.392267528990214487e+01
6.426579235674603297e+01
6.404905832794122489e+01
6.367556206425149412e+01
6.339367413945029739e+01
6.383745393713962812e+01
6.456640512952725430e+01
6.480745592810268363e+01
6.486238612459072783e+01
6.450540336846142964e+01
6.446057568261932147e+01
6.470284477110521948e+01
6.482717751161851538e+01
6.469431813905089257e+01
6.425583126234454312e+01
6.419003030612884686e+01
6.430911355545595143e+01
6.428813455953121547e+01
6.388807958166233902e+01
6.334401664081411809e+01
6.317713963304544222e+01
6.330714667327089273e+01
6.350343881616191766e+01
6.336332757360213463e+01
6.342267823026679707e+01
6.361795373701164635e+01
6.422616402292487692e+01
6.439398925367612492e+01
6.409527027539957089e+01
6.355853927049656704e+01
6.379272255382892354e+01
6.394239533376469353e+01
6.392440467791504943e+01
6.373135696017720875e+01
6.334063970615295602e+01
6.310581993660019862e+01
6.332473031439025135e+01
6.324443140426268428e+01
6.288031700390939704e+01
6.246157123600556815e+01
6.235363452648931570e+01
6.273245242929067444e+01
6.336368837583717095e+01
6.340827202604572221e+01
6.335126674344070352e+01
6.338545058141301070e+01
6.388240376265446230e+01
6.394697347617636751e+01
6.392972267058115676e+01
6.371417001231895938e+01
6.353021464991718403e+01
6.359456647601882651e+01
6.376139347840171467e+01
6.345439955086243344e+01
6.316440901252985896e+01
6.285177892316727366e+01
6.307616944864980724e+01
6.285710616699731190e+01
6.278593816974540687e+01
6.273394116324578818e+01
6.340380872400811541e+01
6.392617644148049294e+01
6.444180213247824440e+01
6.440906806102458404e+01
6.410796879792786740e+01
6.394897478817051706e+01
6.427236473829299257e+01
6.456944358205066692e+01
6.442304685552909405e+01
6.403107465550863253e+01
6.405358836102914211e+01
6.388710803578811692e+01
6.414009742952237048e+01
6.404867778040301118e+01
6.328871990729129493e+01
6.314951983643817357e+01
6.320482087729027398e+01
6.399492809285516159e+01
6.424021502258671035e+01
6.429862450745696378e+01
6.452796264458430642e+01
6.488541398736794008e+01
6.511489141591010821e+01
6.525931669057644058e+01
6.515217979791094649e+01
6.506576977268025530e+01
6.512575732733375844e+01
6.539052519021413445e+01
6.512381684248617830e+01
6.486814848540683442e+01
6.463186078346387831e+01
6.453465274956590747e+01
6.459551077503834904e+01
6.462766258492740690e+01
6.429921606157768110e+01
6.430639711586218255e+01
6.491508404994175407e+01
6.573079307767284263e+01
6.613630947657662773e+01
6.612172791241619052e+01
6.594421735797652673e+01
6.617924482318937862e+01
6.660659027021682732e+01
6.625220571540222636e+01
6.621542318360690160e+01
6.586697275565973086e+01
6.616271966021298567e+01
6.621293192505055458e+01
6.593911206754842169e+01
6.562254552808457220e+01
6.507220934264410062e+01
6.518644958766515174e+01
6.533382385982497453e+01
6.536935192543006679e+01
6.508879462423522000e+01
6.569997615035185845e+01
6.621151227079593582e+01
6.685031130000868416e+01
6.715034248480344559e+01
6.681520848638433563e+01
6.680853984868770112e+01
6.677305414219665636e+01
6.707397297484681076e+01
6.702959264942057871e+01
6.675091578430107120e+01
6.637721351326524655e+01
6.639694055495959901e+01
6.658824892812089047e+01
6.647432463438974537e+01
6.601983311613912520e+01
6.551409750943133758e+01
6.546563808527582751e+01
6.555960363694146054e+01
6.596606738737955311e+01
6.596626358885453101e+01
6.634233057363604757e+01
6.663282295133285515e+01
6.705552015729182358e+01
6.729156881171473970e+01
6.702233973152334556e+01
6.683698364239569401e+01
6.687688534814117247e+01
6.724849690798305346e+01
6.721710768488293297e+01
6.675950686272057055e+01
6.638646588548778027e+01
6.626058816832204457e+01
6.631649174209809416e+01
6.624579456179287718e+01
6.565834935438346065e+01
6.557995381246257693e+01
6.536134992700385737e+01
6.605949929275095656e+01
6.665266432609359981e+01
6.659367239489313306e+01
6.636961969202565115e+01
6.663126128901774337e+01
6.706893324669766798e+01
6.684101249326312200e+01
6.662615810366457936e+01
6.647968037312938350e+01
6.608322011152625919e+01
6.643951046975433883e+01
6.642110278806109136e+01
6.605964953243596938e+01
6.560866452239139335e+01
6.527029273280510324e+01
6.538953548414713168e+01
6.549927976990539946e+01
6.499848706775111395e+01
6.517750313816992502e+01
6.560936783819420270e+01
6.615823240988368070e+01
6.655816890161048605e+01
6.645081017878976581e+01
6.609501503331131289e+01
6.599964132227825075e+01
6.628809839954976724e+01
6.629130220591531497e+01
6.628730795380914742e+01
6.588777973192094350e+01
6.541379408293744291e+01
6.550979813909384575e+01
6.551413071820252298e+01
6.516892039149814764e+01
6.462545394225486461e+01
6.435116318803272861e+01
6.466859157149264092e+01
6.491160155584475433e+01
6.498991307181177035e+01
6.517219003350157891e+01
6.526419801758834183e+01
6.569317922234529306e+01
6.606457680772166441e+01
6.584340833756346001e+01
6.560708532383534930e+01
6.540421418393742670e+01
6.562352445741419160e+01
6.610052996906603084e+01
6.554654277726780265e+01
6.526986330505781098e+01
6.477995397607793393e+01
6.478032782462452133e+01
6.487188359384776959e+01
6.458271672794512597e+01
6.408381165854160599e+01
6.387788594201680326e+01
6.426329300992267690e+01
6.477767840652705900e+01
6.490176987122316632e+01
6.509192854557215924e+01
6.515051578547888766e+01
6.537538354623342229e+01
6.574251125725135125e+01
6.558889345048123687e+01
6.541470882939643161e+01
6.528376610090970189e+01
6.536575721105924686e+01
6.556336870785190740e+01
6.527923328175052120e+01
6.495054805551905019e+01
6.438169951303501648e+01
6.439662005312311521e+01
6.459913957576264920e+01
6.414970236459760144e+01
6.405219578680231507e+01
6.443750315148326990e+01
6.531949326170689574e+01
6.565402894435072767e+01
6.569707567683263960e+01
6.572110605998636856e+01
6.546404987887115112e+01
6.555140394741465570e+01
6.546372685492485743e+01
6.561974742110157877e+01
6.532847348333910986e+01
6.505335742985317893e+01
6.523166744112296556e+01
6.523056534481838753e+01
6.498162477741220755e+01
6.443367886855702409e+01
6.396261066262530903e+01
6.411081407625681550e+01
6.436029438208396414e+01
6.459761608292745905e+01
6.492250195418529302e+01
6.488852142608271834e+01
6.525464101265117733e+01
6.556891161759659781e+01
6.546261768247200052e+01
6.539273133696156037e+01
6.507923078450903631e+01
6.544939650412976562e+01
6.555197350810772150e+01
6.520796563791151357e+01
6.494041304015286187e+01
6.452174569138935567e+01
6.435117181678396037e+01
6.415070351867620957e+01
6.400331728973770851e+01
6.399915199170300184e+01
6.395265333609199843e+01
6.474891989039178952e+01
6.537712128539175183e+01
6.557226059631648241e+01
6.573010008173838514e+01
6.544742620528552379e+01
6.555729689045364239e+01
6.595604212241823916e+01
6.584433881123072752e+01
6.588404903310475902e+01
6.547680054081638445e+01
6.548659086345617197e+01
6.565998897314580063e+01
6.549249056575951045e+01
6.513469807204461404e+01
6.460131852686077991e+01
6.455203129381101235e+01
6.531350627622430238e+01
6.542941369738565527e+01
6.557041328396928748e+01
6.540054579768252552e+01
6.608974242591023085e+01
6.667605536428874302e+01
6.672254183987780607e+01
6.657336719841759987e+01
6.619523792751920155e+01
6.626208955030136849e+01
6.654585820042620981e+01
6.646261370188125284e+01
6.606983991833152459e+01
6.566839311953657443e+01
6.540620859010266486e+01
6.563678495442826488e+01
6.531641717231610755e+01
6.547902410948262286e+01
6.572143044846148996e+01
6.640563635706763534e+01
6.695603297299322776e+01
6.699614689056630823e+01
6.670418875621271582e+01
6.669224791423232546e+01
6.687607919380121757e+01
6.739024931641813509e+01
6.718800173824558897e+01
6.711645788461646589e+01
6.668363979296128718e+01
6.672649940649500877e+01
6.687261668878875298e+01
6.673047182435846025e+01
6.631746420996643110e+01
6.561366516973430407e+01
6.560193813517031458e+01
6.585751399548632889e+01
6.652814673900644493e+01
6.689422727852900152e+01
6.682460507576797681e+01
6.725461726712325117e+01
6.759884667332443087e+01
6.765393735361743666e+01
