-1.150000022934899446e-02
-7.860126981395404444e-03
-4.010505132961750263e-03
-1.231132849011801200e-04
2.935702207352716697e-03
3.631970400032914770e-03
1.042242683130384373e-04
-9.271282000447467198e-03
-2.524472366364638454e-02
-4.717351923434265348e-02
-7.279883691099653387e-02
-9.843219285480164782e-02
-1.195504587254464512e-01
-1.316703394107106018e-01
-1.312869260549254236e-01
-1.166432730095656733e-01
-8.814482839538495540e-02
-4.832566123273684955e-02
-1.393158343779177244e-03
4.750533540003321065e-02
9.308339882714877778e-02
1.305959834232274797e-01
1.563128784738166410e-01
1.678081036798372283e-01
1.641301569379718939e-01
1.458819520341336218e-01
1.151835066393407936e-01
7.547633926229915802e-02
3.116149137722223905e-02
-1.289653647018984550e-02
-5.194789896826623732e-02
-8.195503410101229180e-02
-1.001258529984257462e-01
-1.052772286750111586e-01
-9.793711219427503334e-02
-8.015622782807790836e-02
-5.508275250158173320e-02
-2.641139486830945682e-02
2.166655050176991004e-03
2.740463566579037780e-02
4.676451091309608010e-02
5.849794365128196949e-02
6.160383197509550213e-02
5.576001675694547410e-02
4.130623186630597021e-02
1.928659743359828482e-02
-8.507595838867565430e-03
-3.957276819243327193e-02
-7.085079797143434277e-02
-9.900865699611016701e-02
-1.208100271842224016e-01
-1.335320436884195328e-01
-1.353598493491687815e-01
-1.256765107448283292e-01
-1.051802027752075652e-01
-7.580785542527967991e-02
-4.049604394635886173e-02
-2.833722650821712818e-03
3.334453892841648948e-02
6.438683988014293202e-02
8.723476964311771553e-02
9.977590847413442265e-02
1.011073790430273567e-01
9.169089907269489803e-02
7.337370168255258340e-02
4.923442810635264566e-02
2.321921753559050283e-02
-4.203615745818622962e-04
-1.780498179676470033e-02
-2.608221783765435342e-02
-2.390939396690724972e-02
-1.165434719789243401e-02
8.726380291128182920e-03
3.409153499358930084e-02
6.068784126447174243e-02
8.473760413265440938e-02
1.029062271105793958e-01
1.125924042310449957e-01
1.120758182471676134e-01
1.006031666954970705e-01
7.847016857425082037e-02
4.709537881465952758e-02
9.030233785121244416e-03
-3.216486210016583636e-02
-7.222868101976576138e-02
-1.066969416658924419e-01
-1.315315566074080900e-01
-1.437565172058164475e-01
-1.419392193200675056e-01
-1.263833033853448695e-01
-9.899062898316904335e-02
-6.286109012094093229e-02
-2.176791611480644040e-02
2.035510352288211200e-02
5.982434001542952240e-02
9.347565202507962523e-02
1.187968333902423429e-01
1.339723870630802338e-01
1.379209313499946132e-01
1.303891820808713020e-01
1.120984307227717719e-01
8.486585057091257378e-02
5.159855021690166327e-02
1.609319835169968627e-02
-1.736813711183558817e-02
-4.458859847491107586e-02
-6.211749014349596254e-02
-6.787972964924221531e-02
-6.161647647605597578e-02
-4.499607849646279634e-02
-2.133789052915092271e-02
4.994924647938582540e-03
2.938983359160028674e-02
4.778856638144438063e-02
5.733265588154778936e-02
5.672434283772614938e-02
4.624436715410551457e-02
2.745907890663867867e-02
2.735485155275996227e-03
-2.527694391108747940e-02
-5.406241348219392728e-02
-8.148137345402395315e-02
-1.058329138225329591e-01
-1.257768283066836301e-01
-1.401877847159413437e-01
-1.480371403600206359e-01
-1.483951231578387597e-01
-1.405946212860225419e-01
-1.245075575564508763e-01
-1.008082749927368404e-01
-7.108749678767689595e-02
-3.773873229769628135e-02
-3.625847074775728762e-03
2.838436250731668498e-02
5.589331782842843488e-02
7.730257807884449717e-02
9.190179129848874418e-02
9.969799469860901597e-02
1.010795242120303000e-01
9.647456381848534823e-02
8.615098676857968485e-02
7.022649088958493602e-02
4.886941378311737694e-02
2.261008708039158321e-02
-7.348666532056513656e-03
-3.894512256803983608e-02
-6.930182006984270116e-02
-9.503862452649119996e-02
-1.127969091350343178e-01
-1.198343420875015441e-01
-1.145303607341671137e-01
-9.668344093437469811e-02
-6.754750728821390382e-02
-2.962034260415019604e-02
1.374344056342802212e-02
5.877857799265340244e-02
1.016969465464031552e-01
1.389532911359504797e-01
1.674043202226418170e-01
1.844295248923886188e-01
1.880830144887188360e-01
1.773089899312990658e-01
1.522065953393035020e-01
1.142867907901478353e-01
6.662721514762970365e-02
1.381050060489510262e-02
-3.844904559011249473e-02
-8.400766901329545511e-02
-1.172220209064198798e-01
-1.339032522994674235e-01
-1.320624554557122132e-01
-1.122673951978470641e-01
-7.753213993074842270e-02
-3.277425327080063511e-02
1.602413732646401634e-02
6.274737062611790428e-02
1.019600798541370201e-01
1.294627799695639014e-01
1.425607164294568907e-01
1.401148193293856314e-01
1.224759196268959682e-01
9.136939902157836801e-02
4.974311622837457314e-02
1.561505454094447298e-03
-4.847345544251202565e-02
-9.528942106487403585e-02
-1.339081398263293754e-01
-1.599923513241151007e-01
-1.704122783540245045e-01
-1.637227432484856249e-01
-1.404344817793979350e-01
-1.030032343513841014e-01
-5.552291530485142790e-02
-3.169968634360406656e-03
4.850091414853911070e-02
9.427112382145202973e-02
1.298421720148262015e-01
1.521988057837369568e-01
1.597411851275257477e-01
1.522403736457641765e-01
1.306878023520399723e-01
9.709013180147807454e-02
5.424162205881399856e-02
5.503000455503226362e-03
-4.538943261362360371e-02
-9.449205138439276119e-02
-1.378517019092197482e-01
-1.717938362271533292e-01
-1.933054687911158198e-01
-2.004327729688898385e-01
-1.925704327346345890e-01
-1.705519911995795335e-01
-1.365269880233401234e-01
-9.367772879765129401e-02
-4.585902762045743208e-02
2.756108573813198515e-03
4.796589418890230549e-02
8.575596075732537515e-02
1.124978007708315741e-01
1.252178830526316511e-01
1.219891143976050141e-01
1.024016129785806362e-01
6.797593413057473333e-02
2.234457976599502071e-02
-2.893961553851537305e-02
-7.902582717006240154e-02
-1.207625383303658761e-01
-1.478907709178329810e-01
-1.561584772205970029e-01
-1.440659180085983593e-01
-1.130458979531769326e-01
-6.705611753492102256e-02
-1.173528396568251919e-02
4.662418906530019225e-02
1.020292598073362367e-01
1.494733834478036427e-01
1.852687769772886628e-01
2.070547320331921348e-01
2.136214938044839196e-01
2.047345908945629733e-01
1.810896936198428953e-01
1.444035054742008883e-01
9.753618246727388530e-02
4.450802401836938260e-02
-9.689269859300270182e-03
-5.952447984249636947e-02
-9.957962644264584107e-02
-1.253378909905885075e-01
-1.339525808196255219e-01
-1.248002305391349709e-01
-9.964605638157653100e-02
-6.235117605109929961e-02
-1.818502259743504101e-02
2.708769428026425174e-02
6.813007610610649634e-02
1.007617161768563641e-01
1.223488421962819206e-01
1.318176827613941338e-01
1.293783424618841771e-01
1.161341183120035703e-01
9.374979468525740378e-02
6.426622932452535908e-02
3.004042018217228938e-02
-6.270734760206952974e-03
-4.176107258942918232e-02
-7.340585954820816328e-02
-9.829285534314685657e-02
-1.139507860442728338e-01
-1.187288198664898653e-01
-1.121274309433999972e-01
-9.496422716909108663e-02
-6.930770138372027711e-02
-3.820002117039822398e-02
-5.257131656840774436e-03
2.575217617702080242e-02
5.127279662164185847e-02
6.823832274458016545e-02
7.425828773643519676e-02
6.776176782662976517e-02
4.815952048358024262e-02
1.605385107595855287e-02
-2.655095725054767986e-02
-7.615063888073819731e-02
-1.278724475381730619e-01
-1.758956346805352067e-01
-2.141409379750776054e-01
-2.371389244806684227e-01
-2.409286620067150331e-01
-2.237941240930797493e-01
-1.866447097816116285e-01
-1.329209383061418226e-01
-6.804565824239405814e-02
1.421908089006884701e-03
6.871309831950356273e-02
1.276802900046427602e-01
1.734385576409172014e-01
2.027927451354600286e-01
2.144543056909314349e-01
2.090652651146047147e-01
1.890527830008377763e-01
1.583309815347057614e-01
1.218534338097884140e-01
8.502389452604203202e-02
5.300747919494586125e-02
3.003214580850221971e-02
1.879758912865808762e-02
2.009821272032419337e-02
3.273116211700857758e-02
5.371815400478416325e-02
7.881863230940452936e-02
1.032426434915416913e-01
1.224055640840297499e-01
1.325518017820905281e-01
1.311380691808613774e-01
1.169761169958725977e-01
9.021672768002061971e-02
5.226247333425365627e-02
5.645373400270436992e-03
-4.614433558602448748e-02
-9.890690775596489015e-02
-1.480778968027675058e-01
-1.891710135692507011e-01
-2.182947534762637032e-01
-2.326752113700712998e-01
-2.310748428469007187e-01
-2.139924377475170836e-01
-1.835795916463509592e-01
-1.432875462821222579e-01
-9.732599137098940645e-02
-5.005494314694919344e-02
-5.444553088086334647e-03
3.327705371614367302e-02
6.372554493461435321e-02
8.425029236581219050e-02
9.375180126508697587e-02
9.159746456468122189e-02
7.773683564993863482e-02
5.298956642702798425e-02
1.936971741348264553e-02
-1.973318616508495937e-02
-5.967098256397480871e-02
-9.502846372050351154e-02
-1.204503158265258500e-01
-1.316337391515677302e-01
-1.262226761631314309e-01
-1.043367701317877982e-01
-6.857360666294780305e-02
-2.349238387126766081e-02
2.525696235228730435e-02
7.191449147543146903e-02
1.114644438604125709e-01
1.401983112313379964e-01
1.559251046611987990e-01
1.578768876557873346e-01
1.464456808549969569e-01
1.229159831207037729e-01
8.930651408287919313e-02
4.833474880142740737e-02
3.428116923283874851e-03
-4.133237421930466282e-02
-8.143554144131767702e-02
-1.123775239666304215e-01
-1.302792172435389972e-01
-1.325546385823754281e-01
-1.184355105137066544e-01
-8.917326843391931712e-02
-4.784928962250106776e-02
1.128862846990236202e-03
5.267102820648696115e-02
1.016150282559721285e-01
1.432045380534615886e-01
1.734186261163078724e-01
1.891916024028852950e-01
1.885816608997475941e-01
1.709405605109378112e-01
1.371029776433612124e-01
8.955295356294348808e-02
3.246331966103810363e-02
-2.851030157852831037e-02
-8.674468916780098127e-02
-1.354441757571164806e-01
-1.686039546915554799e-01
-1.819753894222213564e-01
-1.738329505659930441e-01
-1.453400165874338956e-01
-1.003781941237284481e-01
-4.485289447803958440e-02
1.434141367232022457e-02
7.041413737688950736e-02
1.175721407971175303e-01
1.515715318944873546e-01
1.699149586544718149e-01
1.717747913359455314e-01
1.577692119760727429e-01
1.297205836570776150e-01
9.047971106030749944e-02
4.381411595093542832e-02
-5.725524735177178748e-03
-5.307353537736581028e-02
-9.311415353230367842e-02
-1.213135695367717481e-01
-1.344105315508313803e-01
-1.310136085355810831e-01
-1.119423270376315172e-01
-8.017950822040698089e-02
-4.039187866664306625e-02
1.888892368450356685e-03
4.121506840751987255e-02
7.305951704408031322e-02
9.436558023552493735e-02
1.037531159770810341e-01
1.014206190442646649e-01
8.882762007438134433e-02
6.825286384982681698e-02
4.232920926196148681e-02
1.365109334105885086e-02
-1.548568830299967836e-02
-4.321205386926174619e-02
-6.812468772678537121e-02
-8.927693787751067589e-02
-1.061348419527208264e-01
-1.184977382409977409e-01
-1.263915994116171504e-01
-1.299544829091399123e-01
-1.293359226003802931e-01
-1.246341414063718567e-01
-1.159022363148887180e-01
-1.032520040533024819e-01
-8.704972047889247833e-02
-6.813528437117244430e-02
-4.794657206857189102e-02
-2.844324087597560613e-02
-1.180386092974150536e-02
3.120780538168332896e-05
5.837898948505060304e-03
5.468512265798697314e-03
-1.322341184328834629e-05
-8.476365413011333061e-03
-1.712955867696219769e-02
-2.309335590262384663e-02
-2.398496906285974006e-02
-1.836895842751307129e-02
-5.994060027528558265e-03
1.218738325637414022e-02
3.418101574856002856e-02
5.724953638814245238e-02
7.830068712177951085e-02
9.430590268437466506e-02
1.026974486611962334e-01
1.017196125658594852e-01
9.073026344760037887e-02
7.043318338065418516e-02
4.297828445119078467e-02
1.184013461181798732e-02
-1.858674502600932144e-02
-4.365643051975021116e-02
-5.928960201047239753e-02
-6.275996519144902419e-02
-5.325091962365235965e-02
-3.202273863873217330e-02
-2.127397101907124721e-03
3.225197745120311765e-02
6.663318080088398432e-02
9.699401330860046855e-02
1.202856554102762487e-01
1.346594817687036816e-01
1.394717536595928564e-01
1.351617024246438703e-01
1.230731878749558028e-01
1.052546870823620750e-01
8.424976482837998049e-02
6.287153087831809373e-02
4.393501420452938788e-02
2.992189043706439122e-02
2.259280803456920061e-02
2.262531305184678487e-02
2.939005147912010507e-02
4.095243818969884764e-02
5.431941226026426595e-02
6.588508554366284686e-02
7.198978005092673826e-02
6.949180163288098955e-02
5.625510929952792782e-02
3.148178738319218350e-02
-4.136895333815227005e-03
-4.843410780680246219e-02
-9.791598609084695148e-02
-1.480375674620736381e-01
-1.936248052221777316e-01
-2.294513533670209382e-01
-2.509284209128005427e-01
-2.548100728769668866e-01
-2.397868574555924726e-01
-2.068402969178357864e-01
-1.592534760809078964e-01
-1.022267670119105798e-01
-4.213829033700466908e-02
1.441070418634105010e-02
6.156641787773575736e-02
9.502494400807837138e-02
1.125523038387470365e-01
1.141796521030085110e-01
1.020721015320578129e-01
8.009562005725856526e-02
5.314829263047493590e-02
2.637323416295367373e-02
4.391791762456076498e-03
-9.329315981597474661e-03
-1.290538195659896026e-02
-6.209515717296998361e-03
9.232312894946859139e-03
3.061349460994877703e-02
5.439881706198035349e-02
7.690738587578727081e-02
9.478137319807491967e-02
1.052694630467172210e-01
1.063458799015829515e-01
9.673987665300265437e-02
7.595397911465240348e-02
4.432310317738941130e-02
3.127814547427387737e-03
-4.527371873793573087e-02
-9.738014088215396491e-02
-1.486554059597360311e-01
-1.938873958530162867e-01
-2.277922250353197064e-01
-2.457723380699687876e-01
-2.446828469680248919e-01
-2.234478420855872116e-01
-1.833845150904276355e-01
-1.281382757280287166e-01
-6.321479984552413889e-02
4.799937696995604242e-03
6.915766109123744343e-02
1.238113589828276351e-01
1.640815720386532561e-01
1.870624736915311725e-01
1.917704407648750942e-01
1.790736700750805710e-01
1.514600327228270427e-01
1.127101063623635602e-01
6.753059788176940526e-02
2.116250010404097104e-02
-2.106372511264487102e-02
-5.425225575580427950e-02
-7.451767489991789617e-02
-7.951872442600538271e-02
-6.882600836346175477e-02
-4.401927001183469912e-02
-8.464670212275260397e-03
3.320556211052450024e-02
7.581149743290471754e-02
1.143786310499614878e-01
1.447470111968053308e-01
1.639164653841359565e-01
1.701198843392593973e-01
1.627153658444931983e-01
1.420194043869219547e-01
1.091705440925566928e-01
6.606002522625895046e-02
1.532490897846772171e-02
-3.963272063279393853e-02
-9.467041609319259976e-02
-1.450655001238378983e-01
-1.858813114115255294e-01
-2.125383558201991430e-01
-2.215003019195951328e-01
-2.109247584961591593e-01
-1.811161562022243765e-01
-1.346453223692155587e-01
-7.606264267562390380e-02
-1.123224092538657737e-02
5.356482872524648275e-02
1.125257846294651642e-01
1.609959178820857262e-01
1.957938432505699766e-01
2.152107297665095120e-01
2.187956963435398472e-01
2.070594760646909949e-01
1.812026323343762790e-01
1.429415155507293145e-01
9.446891469888307746e-02
3.852989667352313408e-02
-2.147408343610857084e-02
-8.147337052985759165e-02
-1.369001332933729165e-01
-1.830575736669414755e-01
-2.156425506551660209e-01
-2.313403579721324821e-01
-2.283833738144556147e-01
-2.069396858262426697e-01
-1.692053192153928354e-01
-1.191449916306557832e-01
-6.193821746290184560e-02
-3.273928680506299482e-03
5.134733293247037422e-02
9.718671915944257500e-02
1.306564549773184536e-01
1.495120667230645517e-01
1.528713365063295859e-01
1.411175710410209894e-01
1.157610200098848074e-01
7.931149744870223672e-02
3.516356200990483627e-02
-1.255201068129896402e-02
-5.920789043644691940e-02
-1.000422212796104882e-01
-1.306337148356241373e-01
-1.474419356678347004e-01
-1.483272682185979852e-01
-1.329321473943442244e-01
-1.028044615119092509e-01
-6.120425850823196789e-02
-1.264001902505307307e-02
3.773404715569494972e-02
8.471848162783590652e-02
1.235825156106723499e-01
1.504724694620173109e-01
1.627253677513654240e-01
1.590963654838398744e-01
1.398981859755774881e-01
1.070386141966018778e-01
6.392323080378818634e-02
1.517759568814754101e-02
-3.383544837097110514e-02
-7.766443022867969281e-02
-1.114752802267156145e-01
-1.316791155709219618e-01
-1.363743482727258760e-01
-1.255439549581749969e-01
-1.009805578482389082e-01
-6.593697142613336171e-02
-2.455404287727455670e-02
1.880210758927768067e-02
6.011400465309871266e-02
9.605737728437485634e-02
1.240863506787154569e-01
1.423407950539418154e-01
1.495084585477824968e-01
1.447563874453669519e-01
1.277895493398459870e-01
9.902967422201602865e-02
5.984751767806573142e-02
1.274048371156161208e-02
-3.865437315729308709e-02
-8.977807296329126663e-02
-1.355965998290764030e-01
-1.712155884913187931e-01
-1.925629462510811130e-01
-1.970150822187529682e-01
-1.838303063668701998e-01
-1.542754333967876756e-01
-1.114102381879420456e-01
-5.960706884346217427e-02
-3.964247700702805410e-03
5.023178610659401189e-02
9.792188851996583288e-02
1.345912052359431177e-01
1.565627046360355823e-01
1.613267762495745883e-01
1.479097652268474561e-01
1.172198713231885070e-01
7.225519117913861700e-02
1.803396655525102421e-02
-3.885969154646706780e-02
-9.111838667532184965e-02
-1.318097514725234953e-01
-1.554952989677628183e-01
-1.591139633465132874e-01
-1.424361650958343994e-01
-1.080031457116291671e-01
-6.058439760834188892e-02
-6.291037802832077919e-03
4.844179860840044927e-02
9.777116248344927540e-02
1.370856425249297184e-01
1.633070549639386582e-01
1.749071163263486717e-01
1.717498894284711086e-01
1.548675744000834187e-01
1.262447353065437039e-01
8.864928410838315842e-02
4.550676576993245570e-02
7.666884228764714315e-04
-4.131991025229614367e-02
-7.656925057182745187e-02
-1.013611942332864890e-01
-1.131644706080355833e-01
-1.109609381321075561e-01
-9.546066748515236178e-02
-6.904382329207309210e-02
-3.541870876822594827e-02
9.458377102256609881e-04
3.548569180029009784e-02
6.414804654424288710e-02
8.382271943082969523e-02
9.256506678469322846e-02
8.964973959746758148e-02
7.551913970642468166e-02
5.167582456840724703e-02
2.054391143140104140e-02
-1.469661819086640064e-02
-5.032161676475982448e-02
-8.235835457328116727e-02
-1.069963868245242811e-01
-1.210985236633683737e-01
-1.227246382775692979e-01
-1.115275490059659536e-01
-8.888985281600303434e-02
-5.774661117185009296e-02
-2.213583778083461073e-02
1.341417479871531704e-02
4.453081241023015835e-02
6.756070843605566090e-02
7.997355449803378313e-02
8.058397585976551092e-02
6.962085436686699103e-02
4.868839368818717039e-02
2.063033907346600859e-02
-1.073573660169825639e-02
-4.104992402840223348e-02
-6.598992708198600510e-02
-8.191178480593983013e-02
-8.642533292558660096e-02
-7.878595028751059215e-02
-6.001837283976373116e-02
-3.273500089932752932e-02
-6.753822729605660213e-04
3.192957090189983693e-02
6.101263013463503748e-02
8.320060969489637137e-02
9.614826439185933382e-02
9.868368878711258896e-02
9.081026006642262116e-02
7.360455869657628325e-02
4.903823019720260357e-02
1.975466519749885519e-02
-1.116844257820093222e-02
-4.046280486617753747e-02
-6.494324639521414921e-02
-8.183391688542140940e-02
-8.912161376880589625e-02
-8.585737410188309937e-02
-7.232053346290728824e-02
-5.000310340354682803e-02
-2.142678512090126497e-02
1.016282619537256515e-02
4.116965037954932460e-02
6.803008073860197791e-02
8.755488005686667963e-02
9.721004641154278036e-02
9.535864571491460551e-02
8.149587968202040567e-02
5.646268058655159322e-02
2.255397101544151517e-02
-1.658615397133121963e-02
-5.633890881213138302e-02
-9.172041233618888345e-02
-1.181186414520671718e-01
-1.320200068417008432e-01
-1.315863440693223474e-01
-1.169563911189984012e-01
-9.018996464693905535e-02
-5.486382598832759139e-02
-1.543445071736299079e-02
2.345841295392904827e-02
5.759392331261688897e-02
8.359650688417931408e-02
9.917559477038048743e-02
1.032074254229288085e-01
9.570245099595445226e-02
7.770873935220787287e-02
5.119703090244755173e-02
1.894316587885100378e-02
-1.562037724357599744e-02
-4.863447607150483964e-02
-7.615659099571432666e-02
-9.460506163956852732e-02
-1.012504423082874611e-01
-9.466946105048819338e-02
-7.505690248145453769e-02
-4.429041927297169834e-02
-5.685573751533480602e-03
3.652972771368662164e-02
7.788809878501556927e-02
1.143186416786671766e-01
1.425986429820562396e-01
1.605658606503949648e-01
1.671207300992760270e-01
1.620923941779821853e-01
1.460581655831088010e-01
1.202058596590946521e-01
8.629925914619537841e-02
4.673588387234435537e-02
4.601928190255746842e-03
-3.640701934888924962e-02
-7.228351826168230576e-02
-9.920682355226398408e-02
-1.141370904174374007e-01
-1.153658018463413620e-01
-1.028917387625028212e-01
-7.851923218964093620e-02
-4.562553433274899040e-02
-8.630069156680839071e-03
2.770390757288171413e-02
5.895376581672540084e-02
8.155929370186554284e-02
9.312324472832142486e-02
9.251487045477030380e-02
7.983260912433559620e-02
5.627310925367640104e-02
2.394194393065193771e-02
-1.435789648267243868e-02
-5.533066735291997107e-02
-9.538719133709352982e-02
-1.308733774095668656e-01
-1.583623473254557323e-01
-1.750054890643179262e-01
-1.788911987167792761e-01
-1.693377045085169841e-01
-1.470503679527578322e-01
-1.140929943302450567e-01
-7.365832035853507598e-02
-2.967685624008624054e-02
1.364733545409448773e-02
5.227652208255356703e-02
8.269883209743739139e-02
1.022095230489921680e-01
1.091430096848129139e-01
1.030642025258035610e-01
8.488847301778751353e-02
5.688094794646492147e-02
2.249832792172329343e-02
-1.393770433328678227e-02
-4.772155567444374968e-02
-7.435601099376687451e-02
-9.017169344415634780e-02
-9.285435755561818882e-02
-8.176377963140540883e-02
-5.798015961857745648e-02
-2.408667727425654881e-02
1.624722155085345232e-02
5.878950575098248338e-02
9.927463793840372863e-02
1.338425618433320141e-01
1.593243180677195725e-01
1.733712654422355504e-01
1.744859473123628602e-01
1.620346666108645750e-01
1.362931847607852798e-01
9.852675587535490720e-02
5.106908294998616094e-02
-2.652117002027221115e-03
-5.820606020685098470e-02
-1.104345175911916610e-01
-1.539573731435806281e-01
-1.838843150389092851e-01
-1.966113049414530412e-01
-1.905072585792638717e-01
-1.662957409392593899e-01
-1.270127385503222184e-01
-7.753759836937537675e-02
-2.380659427198103528e-02
2.810130650709527500e-02
7.279196319315892061e-02
1.061315171449274397e-01
1.255142032103886418e-01
1.298779708902021990e-01
1.195735461448236836e-01
9.617295313257440137e-02
6.225786906027390433e-02
2.119981075568299136e-02
-2.306431982896956639e-02
-6.626990028854504167e-02
-1.041060896459982121e-01
-1.325766081214760639e-01
-1.484351965851817556e-01
-1.496225498018275701e-01
-1.355882727017125866e-01
-1.073989955100480564e-01
-6.759603393094631985e-02
-1.983305699400131350e-02
3.162598522562898307e-02
8.243809564834458925e-02
1.286260481275484091e-01
1.668555593666552483e-01
1.945359372063357739e-01
2.098117795913962413e-01
2.115464680438805534e-01
1.993690382075593570e-01
1.737917468351638517e-01
1.363510708779115399e-01
8.970130579555019024e-02
3.758846576819341312e-02
-1.535843493998062526e-02
-6.405318807397122893e-02
-1.035694863813723943e-01
-1.298450762253959834e-01
-1.403129176505292230e-01
-1.343011375508908756e-01
-1.131050892661742691e-01
-7.972738235717394262e-02
-3.836769157905504241e-02
6.203201247427445053e-03
4.924201751330496701e-02
8.649630201022401321e-02
1.144922946994532675e-01
1.306792603200340186e-01
1.335017657332921437e-01
1.224605031292407692e-01
9.817841194055379472e-02
6.244847540033554578e-02
1.822282369361646892e-02
-3.050121823334456250e-02
-7.894873832419851967e-02
-1.220317706364173471e-01
-1.550009160999281099e-01
-1.741802506003420348e-01
-1.776045740168704645e-01
-1.653769609778001914e-01
-1.396445313340424210e-01
-1.042043404729106060e-01
-6.384667658344489460e-02
-2.359547787947757769e-02
1.198656590034163916e-02
3.929739250526409489e-02
5.594643556864520306e-02
6.079474901288539623e-02
5.387820295429474049e-02
3.630154563548859681e-02
1.014021140346596517e-02
-2.166678777001235234e-02
-5.547607890380358564e-02
-8.719430816228879166e-02
-1.126568471126405957e-01
-1.281309571798839864e-01
-1.308883743235559893e-01
-1.197239559530883513e-01
-9.526323219281025712e-02
-5.994429688598827688e-02
-1.766507723268723185e-02
2.680782201367998274e-02
6.852234677345245273e-02
1.029786188938849878e-01
1.266236218267602909e-01
1.371589210386768287e-01
1.336758203406551715e-01
1.166764864288097336e-01
8.804007005450570356e-02
5.094218343002798743e-02
9.670794571045693289e-03
-3.073978709950259125e-02
-6.508519478543811632e-02
-8.871480352802907365e-02
-9.826479805482385421e-02
-9.223656127806961758e-02
-7.127904095886528069e-02
-3.809203575325825764e-02
3.044712893098822093e-03
4.700866008891335657e-02
8.865179954473800805e-02
1.235039556738503075e-01
1.482365099762783522e-01
1.608633921534571298e-01
1.607332736486043467e-01
1.483924404868871005e-01
1.253886151746524957e-01
9.406770590648266817e-02
5.739167919248841510e-02
1.876949173775721569e-02
-1.814344708331755429e-02
-4.972768263673097572e-02
-7.277465404503348501e-02
-8.490307184471244939e-02
-8.492451902813138997e-02
-7.306759905364204610e-02
-5.100308917682003229e-02
-2.165711592975039235e-02
1.115414041455248251e-02
4.319427778924384009e-02
7.029192398358169447e-02
8.877912177596430920e-02
9.587366407503156163e-02
9.002477084109472560e-02
7.120885305406937649e-02
4.109628200762033279e-02
2.981734928061530177e-03
-3.858284331213113205e-02
-7.842180994658720650e-02
-1.115236805747955584e-01
-1.338309007911739901e-01
-1.428767911539580160e-01
-1.381376954065136609e-01
-1.210194971885786286e-01
-9.448646391053483473e-02
-6.244499360615873851e-02
-2.905863646458850535e-02
1.844261710433836576e-03
2.718041009986615908e-02
4.482242993050811197e-02
5.363937752135933268e-02
5.341925672959763061e-02
4.473950591312010616e-02
2.884766138791083206e-02
7.579960273785185665e-03
-1.670922864914356487e-02
-4.127064748340952827e-02
-6.318507191832953285e-02
-7.968504172335361124e-02
-8.851814830752791075e-02
-8.827644956115637820e-02
-7.862002610819884829e-02
-6.033869159230842438e-02
-3.522946366752893743e-02
-5.820761083158432214e-03
2.497630293503949606e-02
5.419979758111026502e-02
7.910191894411899849e-02
9.735077945782755204e-02
1.071966758699394173e-01
1.076169754812459356e-01
9.843248582278230074e-02
8.038268630116168767e-02
5.514780932083440668e-02
2.529195809054346489e-02
-5.918625341531674744e-03
-3.485888651198751353e-02
-5.803024920204901543e-02
-7.259365993051959676e-02
-7.681515384017256753e-02
-7.030754849552620089e-02
-5.401496770522559721e-02
-2.996219685823647838e-02
-8.555649300813761293e-04
3.033838596359708650e-02
6.071210955690486966e-02
8.756665523110732097e-02
1.084231168793658856e-01
1.210144103279554989e-01
1.233879332879399549e-01
1.141751777676774937e-01
9.297624777571650290e-02
6.073053651660476060e-02
1.992657205625934097e-02
-2.546636232806323563e-02
-7.040245005905673703e-02
-1.094728592912989629e-01
-1.378010253792333328e-01
-1.519079337903953553e-01
-1.503183188265599379e-01
-1.337510723208831243e-01
-1.048675293221930649e-01
-6.767713221320170724e-02
-2.677638906874618696e-02
1.338276917408492972e-02
4.902703007856551443e-02
7.730593635302585032e-02
9.626882616063250908e-02
1.047033493446762609e-01
1.019980980503713552e-01
8.813239018008690862e-02
6.379320065236991633e-02
3.054413366764330284e-02
-9.049436622147091769e-03
-5.142621074284738775e-02
-9.223746400011495483e-02
-1.267941536613238773e-01
-1.507144720651255876e-01
-1.606436758466829318e-01
-1.548648064897739651e-01
-1.336349937459822834e-01
-9.915599854543824532e-02
-5.518482843156952145e-02
-6.381322106587412543e-03
4.244314684258464199e-02
8.698681373697161878e-02
1.238782099695823202e-01
1.508068732964087943e-01
1.664317510987398108e-01
1.702025659853858841e-01
1.622154037046307506e-01
1.431572225358409556e-01
1.143319832015506909e-01
7.773012531278145065e-02
3.608556397731954579e-02
-7.154404907057765328e-03
-4.801932420915955291e-02
-8.239221752881897842e-02
-1.065236073168730480e-01
-1.175760066350086674e-01
-1.140801643936943388e-01
-9.620885171698728699e-02
-6.581029382074427003e-02
-2.618397387080302618e-02
1.836527399011076561e-02
6.309852674370956815e-02
1.034071619584158719e-01
1.352589660198279808e-01
1.554867586681006331e-01
1.619555606965367989e-01
1.536716647699183924e-01
1.308704412566349395e-01
9.507615029401619844e-02
4.909942228984767731e-02
-3.071945913932505601e-03
-5.653569071782504896e-02
-1.059258599442583215e-01
-1.460406710290562127e-01
-1.725621218240141197e-01
-1.827198000483684359e-01
-1.757423894219737326e-01
-1.529869487255186289e-01
-1.177098827934579262e-01
-7.452172852301341965e-02
-2.864306877852310085e-02
1.486431427220785695e-02
5.171328050317750002e-02
7.874686145145601279e-02
9.403907046202880649e-02
9.683353640322761580e-02
8.742813100492276279e-02
6.707088445661432696e-02
3.787911752479641847e-02
2.762863681059046783e-03
-3.468081002107747945e-02
-7.035272459155303415e-02
-9.997440051664685523e-02
-1.195733861490644034e-01
-1.260739204387915646e-01
-1.178557822699919377e-01
-9.512657187658732361e-02
-6.000698227866181622e-02
-1.630925105982233489e-02
3.094970105311074110e-02
7.622007665986041403e-02
1.141618344543975233e-01
1.403235241870184891e-01
1.516447160724634924e-01
1.467357925866124291e-01
1.259568518127373582e-01
9.134211494865218661e-02
4.639669944760838050e-02
-4.232526521079915671e-03
-5.520861832797041568e-02
-1.010528730423458366e-01
-1.367469468027482093e-01
-1.583395279256775978e-01
-1.634914098313429154e-01
-1.518586866694974502e-01
-1.251970282562580583e-01
-8.711478086794552378e-02
-4.250586176427753604e-02
3.204726439945737582e-03
4.482993295807730094e-02
7.805904968456306436e-02
9.987728262244210953e-02
1.087354408683102180e-01
1.044947616511371358e-01
8.822460832525014229e-02
6.195582134459232115e-02
2.846639695296848682e-02
-8.888516801533463685e-03
-4.634686866896642332e-02
-7.996628990399456960e-02
-1.059358016235153466e-01
-1.209650058566554831e-01
-1.227115836107399716e-01
-1.101756731020676616e-01
-8.396020346650767685e-02
-4.629705908268122450e-02
-7.953236876984126624e-04
4.803804736095279582e-02
9.538243738728924281e-02
1.366658636632424595e-01
1.680292198777101897e-01
1.866676306155719556e-01
1.910443651166375822e-01
1.809791609346745878e-01
1.576301482547650956e-01
1.234057425760487769e-01
8.182942215975885780e-02
3.733491077081324550e-02
-5.067527550702333183e-03
-4.029859999483331734e-02
-6.386936603860182693e-02
-7.258916231925227613e-02
-6.516482768597708919e-02
-4.252962503630519642e-02
-7.788951704380986385e-03
3.423542220385766832e-02
7.776235962293043258e-02
1.169134446323745191e-01
1.464661675436778054e-01
1.623642288360840347e-01
1.619810775803864900e-01
1.442264863853313095e-01
1.095906718533641300e-01
6.015883900576901588e-02
-4.359578843962097494e-04
-6.718268014558503864e-02
-1.340404855837333820e-01
-1.944928108176742221e-01
-2.422850258599416051e-01
-2.722549114932681924e-01
-2.811026072363462802e-01
-2.679253896382891575e-01
-2.343816881111422390e-01
-1.844356935473003833e-01
-1.237341449308193009e-01
-5.874688229944856344e-02
4.152981456888749090e-03
5.948748518809909847e-02
1.032050795817149869e-01
1.328768247920906198e-01
1.475872428024915806e-01
1.476260004183491681e-01
1.341133008539534544e-01
1.086741963816786338e-01
7.323919867595218847e-02
3.000339553112763014e-02
-1.847963749725511917e-02
-6.915444598619568950e-02
-1.183938001115301120e-01
-1.621076612569956055e-01
-1.960676659568871827e-01
-2.164045307243447347e-01
-2.201840604416820391e-01
-2.059486001437869085e-01
-1.741096940388960901e-01
-1.270913723205666090e-01
-6.916655177198793858e-02
-6.002357132383728811e-03
5.600186439774779146e-02
1.104789995435666583e-01
1.518777712003226421e-01
1.761992133690737372e-01
1.816027045665622452e-01
1.687703668086356357e-01
1.409247228437557342e-01
1.034490281954645596e-01
6.313552690235380016e-02
2.715221811253001882e-02
1.871900404505571960e-03
-8.239831043638207175e-03
-1.445537511538697029e-03
2.093876538317474001e-02
5.480637929618059623e-02
9.404585890330086073e-02
1.316580007923124906e-01
1.609610814023296754e-01
1.766555188990333036e-01
1.755658342685653128e-01
1.569506078083022782e-01
1.223753281773922730e-01
7.525244893940219448e-02
2.021323396079499624e-02
-3.754071547801096642e-02
-9.282017723759250494e-02
-1.409291539104946533e-01
-1.780229614358896928e-01
-2.013281631099735902e-01
-2.092342103529375996e-01
-2.013011869492513095e-01
-1.782336249468166600e-01
-1.418357299479884870e-01
-9.492548949843840345e-02
-4.118340286931412852e-02
1.506254987225075226e-02
6.910092278207746741e-02
1.161493935602222471e-01
1.517290444767728230e-01
1.720953927612953183e-01
1.746795959137701915e-01
1.584664739361170138e-01
1.242476336110320823e-01
7.471873155286201662e-02
1.440163948473871525e-02
-5.064258104894603374e-02
-1.133492749424969137e-01
-1.664318369952063614e-01
-2.033245865219980852e-01
-2.191257253041696829e-01
-2.113508217040745429e-01
-1.803360529335972240e-01
-1.292037633733503221e-01
-6.340396062505487818e-02
1.005210687848134832e-02
8.348848730181690492e-02
1.494250480159284855e-01
2.013065442242980563e-01
2.340786216958948840e-01
2.446188178553376780e-01
2.320169922813877239e-01
1.976799286584776105e-01
1.452374618383496241e-01
8.024393437603904999e-02
9.675016251324164429e-03
-5.878063896175855785e-02
-1.176093513519804734e-01
-1.604461283445836051e-01
-1.829640838315401696e-01
-1.834820659931193365e-01
-1.631425599854389175e-01
-1.256190529740636164e-01
-7.643094067327271812e-02
-2.203506486503714612e-02
3.109548857973565283e-02
7.721404689257382881e-02
1.117547701046088804e-01
1.315082368466888862e-01
1.346291916919412079e-01
1.206169607595368731e-01
9.035571025471078599e-02
4.620745416765736913e-02
-7.927753076687915623e-03
-6.670318209033644641e-02
-1.236757053596452410e-01
-1.719711356683014114e-01
-2.052278951777264382e-01
-2.186611683239541304e-01
-2.099898554617434798e-01
-1.799551269756603511e-01
-1.322593582705736681e-01
-7.292654930086550635e-02
-9.250515900224742794e-03
5.140508395880327708e-02
1.026773279521157045e-01
1.399302860610865951e-01
1.605446249960107430e-01
1.638251788628430905e-01
1.506900999112468220e-01
1.233232070829406446e-01
8.490185753678036740e-02
3.941184287068177916e-02
-8.514259745241226085e-03
-5.382533530045841008e-02
-9.142068942770475992e-02
-1.166852732676537663e-01
-1.261395426429942068e-01
-1.180640107719523879e-01
-9.290528614490023429e-02
-5.330131800315274226e-02
-3.682092679293591519e-03
5.045149266419046707e-02
1.033734614215793407e-01
1.498997756638342227e-01
1.859299332315474951e-01
2.086949222024125639e-01
2.167242591763090809e-01
2.096244135752721449e-01
1.878198910878587924e-01
1.524086337736720309e-01
1.052055853503568728e-01
4.892617670840312960e-02
-1.263589243991095762e-02
-7.460627593540890279e-02
-1.313232787938509727e-01
-1.769527760588041621e-01
-2.063407590061370478e-01
-2.159194618589672654e-01
-2.044257257944541994e-01
-1.732141854075524567e-01
-1.260657234775482416e-01
-6.855748367401315324e-02
-7.189503808993968903e-03
5.150270687668645486e-02
1.016718123087512193e-01
1.386309549739509484e-01
1.590777134313957619e-01
1.611445562720471569e-01
1.443877324903583004e-01
1.098101595235396744e-01
5.994119786269735961e-02
-1.099404942353721104e-03
-6.768604061252225801e-02
-1.330383635664967867e-01
-1.898817012978916141e-01
-2.313657782219319670e-01
-2.521043687077981210e-01
-2.491248807143990884e-01
-2.224790646787617732e-01
-1.753105164706125763e-01
-1.133192486338972377e-01
-4.375332228427462194e-02
2.580412634528944649e-02
8.855633216113595330e-02
1.392949818144883223e-01
1.747690525951168250e-01
1.936291337159111725e-01
1.960665763922223581e-01
1.833386779584591508e-01
1.573723518205517591e-01
1.205622635555519129e-01
7.576268974550254276e-02
2.637582419949452417e-02
-2.359832257085237028e-02
-6.966667164517681421e-02
-1.071681053526768457e-01
-1.318177628011941716e-01
-1.403889332980713389e-01
-1.313675805560348131e-01
-1.053700293881706385e-01
-6.515758570170943065e-02
-1.521394745601817311e-02
3.899388783305923756e-02
9.185512176818949603e-02
1.383377734409051429e-01
1.744501470026023626e-01
1.974055014210289727e-01
2.055633393753450167e-01
1.982923913242350678e-01
1.758971123228388611e-01
1.396667716578056662e-01
9.199439847160098549e-02
3.644374407881392774e-02
-2.235072204953136854e-02
-7.900732019354395064e-02
-1.279368667381258207e-01
-1.640426955868623804e-01
-1.834778211929187219e-01
-1.843022875108709657e-01
-1.668582338970873713e-01
-1.337313867069029605e-01
-8.929403648638463420e-02
-3.896155503064649417e-02
1.163033585699674299e-02
5.733127113669378438e-02
9.394063371501598647e-02
1.184019880654489376e-01
1.287917533377098689e-01
1.242319221742815283e-01
1.048627674708512703e-01
7.193972738724818683e-02
2.799904180056939085e-02
-2.305655833387715292e-02
-7.610560392503545879e-02
-1.252626656432399566e-01
-1.646071477583986309e-01
-1.890682928101762861e-01
-1.952911558753913646e-01
-1.822761937738636151e-01
-1.516061212525845470e-01
-1.071759808449009865e-01
-5.449788632566571200e-02
2.200253424471942942e-04
5.098572595106715122e-02
9.274804733034025528e-02
1.218516031287145279e-01
1.362253358290175798e-01
1.353634342503906018e-01
1.201821780119837202e-01
9.283234116567945504e-02
5.651203002993490654e-02
1.526818271530788751e-02
-2.627012528925776191e-02
-6.328057872816883478e-02
-9.126270324609908613e-02
-1.066228402876363279e-01
-1.072313775966724780e-01
-9.283257545830214674e-02
-6.518414739877431696e-02
-2.784080360537588561e-02
1.441093982869873225e-02
5.634092283339398044e-02
9.308322125197882047e-02
1.207693894000936297e-01
1.368766538626676188e-01
1.402879091557729940e-01
1.311404359890806504e-01
1.105741701537170663e-01
8.048694117586296937e-02
4.337138920448357915e-02
2.245979312909152092e-03
-3.938209681273402429e-02
-7.762855589494116471e-02
-1.085048716255069268e-01
-1.283652657457788338e-01
-1.344575294018366951e-01
-1.254536582486561747e-01
-1.018220897910232098e-01
-6.592385939577344312e-02
-2.177052519268489472e-02
2.553015665456584427e-02
7.051913213002392045e-02
1.081428044886648121e-01
1.343604356643210984e-01
1.465226101036709028e-01
1.435324022667107680e-01
1.258500527634467958e-01
9.539979978157364648e-02
5.540816393063385803e-02
1.016915535847029428e-02
-3.529742550973469228e-02
-7.573896835046822762e-02
-1.063238846190860398e-01
-1.233797897605785621e-01
-1.250475120266602014e-01
-1.116543547245186785e-01
-8.567851849860988467e-02
-5.130678480440101219e-02
-1.370633240473601022e-02
2.181380264166282723e-02
5.058340916395126508e-02
6.916240568163242730e-02
7.566296781587994458e-02
6.979336185620549360e-02
5.268617290556604216e-02
2.660730620370377331e-02
-5.375547557361970430e-03
-3.972556443971649726e-02
-7.275647519160924337e-02
-1.009313129188715297e-01
-1.211368984387379832e-01
-1.309416010048615742e-01
-1.288428320596098908e-01
-1.144795413963688446e-01
-8.874330729868945555e-02
-5.371776207887438148e-02
-1.243092963885730762e-02
3.151844878591536503e-02
7.435986857442823672e-02
1.124943873707789921e-01
1.427532348888038150e-01
1.625843582265388276e-01
1.701944621014870040e-01
1.646731931473109367e-01
1.461186817060063647e-01
1.157615331642859458e-01
7.604368558580637538e-02
3.057312107859218309e-02
-1.611992784969848436e-02
-5.904759131551687301e-02
-9.340166557907303435e-02
-1.152604239785843809e-01
-1.222323067641551964e-01
-1.138956331197928940e-01
-9.191256092802213562e-02
-5.975834925351530824e-02
-2.211225615812917322e-02
1.593517845249536879e-02
4.965152443174292163e-02
7.523845625324310227e-02
9.014559215865924902e-02
9.315477818413409050e-02
8.431714345957425083e-02
6.482073243393443596e-02
3.683708989933251465e-02
3.360542103210267806e-03
-3.198253028633617212e-02
-6.520259648224605020e-02
-9.233178735594209374e-02
-1.099107920780213882e-01
-1.155018654420172375e-01
-1.081173642253807632e-01
-8.845770631682292606e-02
-5.888449742141967785e-02
-2.310508261192187329e-02
1.438697640791786192e-02
4.899901263586553535e-02
7.669683780167863008e-02
9.449671198073378298e-02
1.007301704785726337e-01
9.510095843462584853e-02
7.859277643049633610e-02
5.327799436510838316e-02
2.205472411082576301e-02
-1.166541140638044372e-02
-4.428832935769078105e-02
-7.236057385833716271e-02
-9.287615703019291846e-02
-1.035660655132566443e-01
-1.031493645718754015e-01
-9.149964369758928351e-02
-6.968447406659261656e-02
-3.987136514539535437e-02
-5.128638739593072149e-03
3.084605002124957140e-02
6.405731141955317565e-02
9.060517239370831366e-02
1.071284961972538974e-01
1.112596120348110229e-01
1.020286403770332417e-01
8.014337678298444345e-02
4.806514665150399268e-02
9.812487922859575162e-03
-2.953101968937033028e-02
-6.455247644544789831e-02
-9.035837433945370645e-02
-1.033641920021702854e-01
-1.018655480623898990e-01
-8.628340211078788791e-02
-5.904222530973440852e-02
-2.411323810466881046e-02
1.366931780823871234e-02
4.935815342935412353e-02
7.855290399421865910e-02
9.787782177582782239e-02
1.052663533185522193e-01
1.000878812883441715e-01
8.314711379142908365e-02
5.656340644884921831e-02
2.353368667776301049e-02
-1.200210597962969583e-02
-4.576847959924229547e-02
-7.362189160109780528e-02
-9.206413960816975384e-02
-9.874628546000580043e-02
-9.285118283908619374e-02
-7.523115150863400602e-02
-4.824090876777737541e-02
-1.530962537072738661e-02
1.962347766652808301e-02
5.266316838968518321e-02
8.038372226884413219e-02
1.000666095204453820e-01
1.097651470204165647e-01
1.082797920204350839e-01
9.515621029107679263e-02
7.078093169894461578e-02
3.656289862733574925e-02
-4.894128180092993663e-03
-4.975685685482084120e-02
-9.316879208167552773e-02
-1.297401065953656951e-01
-1.542907209299424487e-01
-1.627370797363897892e-01
-1.529352319045584052e-01
-1.252534581383858425e-01
-8.269344662283306668e-02
-3.050883476576544961e-02
2.458252849532972795e-02
7.540793392062911105e-02
1.153783394243599186e-01
1.393989163738707793e-01
1.445320760304344976e-01
1.303313908778599983e-01
9.882050344084968019e-02
5.415662539474919157e-02
2.059019435854084201e-03
-5.091629801149315238e-02
-9.818559709689456128e-02
-1.339500188833168404e-01
-1.539065118233003959e-01
-1.557485477197231571e-01
-1.393848824844109713e-01
-1.068608788546496630e-01
-6.201071594374828189e-02
-9.895263667132586649e-03
4.389164016713525962e-02
9.393198113486531109e-02
1.355787803093495003e-01
1.653463936706301429e-01
1.810794537735376797e-01
1.819502608432558288e-01
1.683567255113785910e-01
1.417774405031141383e-01
1.046173585716189125e-01
6.006177038838178550e-02
1.193567785237203971e-02
-3.546907974378299411e-02
-7.766271413620873254e-02
-1.103665281710025647e-01
-1.300369517249042040e-01
-1.344036633038240280e-01
-1.228879869014688486e-01
-9.678976613789919137e-02
-5.918670025542677182e-02
-1.455691392386287975e-02
3.180011491939239987e-02
7.442492583717669197e-02
1.083222372475104445e-01
1.294765298354222105e-01
1.352491789489199125e-01
1.246729376085557173e-01
9.863459936855617505e-02
5.989518884589617453e-02
1.288590406890405271e-02
-3.674732712200523554e-02
-8.282019011910868311e-02
-1.194275770213230059e-01
-1.417921927576079044e-01
-1.470112925685946870e-01
-1.345522837823949214e-01
-1.063646537605118514e-01
-6.655429230907938809e-02
-2.068903081529205323e-02
2.509480103709882393e-02
6.498873943272809317e-02
9.425524673011831389e-02
1.097237142049775072e-01
1.100069662898229828e-01
9.546625564914862361e-02
6.800275343077827328e-02
3.076635901195054479e-02
-1.216317094859403758e-02
-5.612350685931680183e-02
-9.627463127595195513e-02
-1.280720571396531948e-01
-1.477760398818657728e-01
-1.529296758315475402e-01
-1.427239727027038718e-01
-1.181685947746888288e-01
-8.200640896288291515e-02
-3.836017020389714816e-02
7.826761454041430977e-03
5.143562584917721336e-02
8.777851644905582118e-02
1.130875213212119146e-01
1.248672493459067612e-01
1.221220209581541649e-01
1.054635634584398796e-01
7.708531668800100434e-02
4.058123907561539401e-02
5.964904501908341317e-04
-3.768548723799192146e-02
-6.919271734042764521e-02
-8.968570968280792366e-02
-9.642964474938958697e-02
-8.866061222667900865e-02
-6.771165638748370685e-02
-3.675250586101616590e-02
-2.071889359854250934e-04
3.700694163557710636e-02
7.024809802271381187e-02
9.577061479809650946e-02
1.110861138565163997e-01
1.150317245933807353e-01
1.076094583802263971e-01
8.973211764331451290e-02
6.300764227240890358e-02
2.961996979265371643e-02
-7.721024553772520838e-03
-4.583216949318562328e-02
-8.118412887475040529e-02
-1.101556581085816333e-01
-1.294345190165857307e-01
-1.365246569430332291e-01
-1.302413175641826959e-01
-1.110291339869570182e-01
-8.097424524486959707e-02
-4.349409463123973807e-02
-2.806661361230422536e-03
3.666747284583615762e-02
7.084289894498813078e-02
9.638238588946645979e-02
1.109767256888429809e-01
1.135150632797343739e-01
1.041764354077820975e-01
8.445724325575915126e-02
5.711621448228226816e-02
2.598763594824310408e-02
-4.385381106019770048e-03
-2.929870227404030719e-02
-4.454608187144490361e-02
-4.706921548919684728e-02
-3.547503358203774049e-02
-1.032348133770655263e-02
2.587723011592479860e-02
6.898780509711910369e-02
1.138192037591734262e-01
1.548522880148022196e-01
1.869329827715900949e-01
2.058171906402056495e-01
2.085268278644748507e-01
1.935547789206177871e-01
1.609792804513222597e-01
1.125212348727854250e-01
5.153314597098673788e-02
-1.712886417606812595e-02
-8.741699893637305818e-02
-1.526432065515104242e-01
-2.062710638298977939e-01
-2.428556681754111546e-01
-2.589433688243765186e-01
-2.537023010520127464e-01
-2.291044782118987211e-01
-1.896010664593350548e-01
-1.413656465390187300e-01
-9.127667691384466764e-02
-4.585390241791109656e-02
-1.035470752658462779e-02
1.182280013745312663e-02
1.937926904371989334e-02
1.304017230886488077e-02
-4.738833495088246028e-03
-3.020383488042127640e-02
-5.882129198546426352e-02
-8.584568673931070037e-02
-1.068861560918867859e-01
-1.184140261422237383e-01
-1.181665348380239733e-01
-1.054188120878488677e-01
-8.109432845414066282e-02
-4.767465165528439464e-02
-8.886749089065282270e-03
3.079861321663601714e-02
6.676591002707421563e-02
9.484660278201600958e-02
1.118347075340974106e-01
1.158981918203471628e-01
1.068638743984834522e-01
8.633232629455650509e-02
5.757202165611566280e-02
2.517010960999141456e-02
-5.537068475224254938e-03
-2.919327371086399836e-02
-4.122393017405620586e-02
-3.859208144846359989e-02
-2.036193525844526286e-02
1.207250743971266527e-02
5.517146575842118983e-02
1.038137775716858613e-01
1.521079382807011271e-01
1.942693125949671584e-01
2.253954471675280180e-01
2.420193650916082073e-01
2.423862767677824603e-01
2.264733864678498687e-01
1.958340551812961794e-01
1.533628746743827542e-01
1.030344437819111642e-01
4.959840243587369801e-02
-1.826241174733705952e-03
-4.629041253537496958e-02
-7.965060860892667072e-02
-9.919356274057997136e-02
-1.041077159811273634e-01
-9.566774980248304860e-02
-7.704825354906877366e-02
-5.277140353967665898e-02
-2.790267311585947763e-02
-7.191425336606188656e-03
5.640069315436591069e-03
8.332189045639232239e-03
2.302507814493925942e-04
-1.780886749142510106e-02
-4.367131376591225356e-02
-7.434275473227817954e-02
-1.063195170669523071e-01
-1.360314013857888693e-01
-1.602440911442462035e-01
-1.764231755984867478e-01
-1.830364123386174491e-01
-1.797414805057915288e-01
-1.673851330943520455e-01
-1.477648183185157338e-01
-1.231790839016725925e-01
-9.588083715798656481e-02
-6.759916093028262019e-02
-3.928358578116777911e-02
-1.115348063279293644e-02
