0.000000000000000000e+00
-5.200575910078689135e-02
-9.481364185066631922e-02
7.263934713880407235e-02
2.654233137855733782e-01
1.504088164980813269e-01
1.357498472866225936e-01
7.321581468994320385e-02
1.030548366939697952e-01
2.460104803160142461e-01
-3.210990562719839847e-02
-1.487596520033073744e-01
-2.965125846402203447e-01
-3.271126293425362097e-01
-4.382627730547916656e-01
-6.668687039207678025e-01
-3.129283427918991278e-01
-1.245602558660580117e-01
1.961077596355706998e-01
3.377796913439508053e-01
3.317720339286376885e-01
1.482138420283545810e-01
9.177557686273518645e-02
2.785372698684355774e-01
3.362008200489732257e-01
2.490195631416481648e-01
9.548947984223821184e-02
-5.471821519474739937e-02
5.406293014704771638e-02
1.093272853903306530e-01
-1.556738792119244374e-01
-3.432445083795101493e-01
-5.640640668100080912e-01
-6.114836194604793551e-01
-2.546310989939541969e-01
-6.105814322342206779e-02
1.061816787375594595e-01
7.873284947883130158e-02
2.957541498189630857e-01
3.537260842869136557e-01
1.855570484583555779e-01
2.178462263090016338e-01
1.141637030089632798e-01
2.539426644718582593e-01
3.502669744932453422e-01
1.600313435588909261e-01
5.280355802800079656e-02
-1.948378313508315474e-01
-9.009505784638421888e-02
-1.384409950149306789e-01
-3.428177840736896798e-01
-5.598196778663631079e-01
-6.164157241739463000e-01
-1.170819343376541533e-01
2.683377839185586700e-01
1.978898664368604066e-01
2.628098319915936343e-01
1.451889565076033284e-01
2.458370631511616056e-01
2.738812738820686210e-01
2.882765872124068984e-01
1.998353190492686005e-01
6.553369923953733522e-02
9.667799483816486017e-02
1.234797675979569798e-01
-2.566526639565380741e-02
-1.584113363178489553e-01
-2.996394872974445511e-01
-3.896159588597097878e-01
-4.415602020302450414e-01
-4.413261704637672089e-01
-1.645353921728854862e-01
-3.484912553417585102e-02
1.806851087046524307e-01
3.914776689581472291e-01
2.763939811234862320e-01
1.862250383957219646e-01
1.975584952752034162e-01
2.839680236064192620e-01
3.593796571911944127e-01
1.923207001593132959e-01
1.498194928495135136e-01
-2.972111461538107235e-02
-1.316877924393722310e-02
-1.258417888940033258e-02
-1.050439126982775084e-01
-2.763616392366314289e-01
-5.370277283203295227e-01
-4.871934870236447890e-01
-4.163656206104503488e-01
-1.664174291530345906e-01
5.803487036455189096e-02
8.031232993522829933e-02
2.137348299405750218e-01
4.197774082367371484e-01
1.629150866227349614e-01
1.860639069663244105e-01
1.342582643698815303e-01
2.240788279008438799e-01
3.007912305154763488e-01
1.465236569609206230e-01
8.397109208307565464e-02
-6.897029412228217193e-02
-6.469952808799753208e-02
-2.923445066182583929e-02
-1.471335913229219194e-01
-2.862640489266415345e-01
-5.185779727788861759e-01
-5.728385287078207044e-01
-4.014015693816946895e-01
-1.889115821237007387e-01
3.187902017867678267e-02
2.143636077363675341e-03
2.602958120115219098e-01
2.996448402951985002e-01
2.576996634460064772e-01
1.850364253945460113e-01
8.127104858011358068e-02
2.210955820101770941e-01
2.795889523927293507e-01
2.172770174341602245e-01
1.396121339961576280e-01
-3.810417352051231887e-02
-1.203830680399042841e-02
1.185337201521412809e-01
-1.313638438554758370e-01
-2.687451324639399952e-01
-5.050085424301986592e-01
-5.676700185476832861e-01
-4.822535968281285168e-01
-3.038904276037774910e-01
-6.025984948718049461e-02
-8.703615414865140121e-02
1.672416124410851801e-01
2.572601330800085018e-01
2.180312807721127566e-01
2.416961154067214512e-01
1.403794007698764279e-01
2.089947247744406988e-01
3.738497879105855959e-01
3.071134940340916608e-01
1.403449097275958346e-01
-3.675203891358869157e-02
2.749694021528287236e-02
9.886207910209365846e-02
-8.076796048840473308e-02
-1.604689191750777455e-01
-4.615661068525401256e-01
-4.146124062668054555e-01
-4.548939709592886294e-01
-5.214158677721365542e-01
-2.490988589100065764e-01
-1.500972253564062386e-01
1.085654619730568871e-01
3.164521134566764538e-01
3.603647995739143739e-01
2.547470734810711734e-01
1.226438838532670772e-01
2.495997474709134023e-01
3.741169929334761113e-01
2.375955250559390053e-01
2.179651043753420558e-01
3.374914023872133129e-02
6.278364801115587923e-02
6.393961956519939038e-02
-1.667779483197195933e-02
-1.269728391018825620e-01
-3.404044031892237143e-01
-4.394679195614978329e-01
-4.629628224549355853e-01
-5.456259537749581501e-01
-2.836269860746268301e-01
-2.311156483046823418e-01
1.379557666394455318e-01
3.270951905387126102e-01
3.083204677365818380e-01
2.391578980749679562e-01
8.030891982349575020e-02
2.516851109002006259e-01
3.931597909104709299e-01
3.135026596675662414e-01
2.136407947892264847e-01
9.200484505652029021e-03
1.261768794887763168e-03
1.238358867825739562e-01
-2.071071158857962224e-02
-9.700505306826509577e-02
-3.663056092506606909e-01
-4.421479341043773603e-01
-4.695029498809180080e-01
-4.996630344338024443e-01
-2.210327686144497594e-01
-9.485181483393906321e-02
6.571407499462905699e-02
3.728855690256280275e-01
3.768031951968909832e-01
2.914643110908999857e-01
1.869426692614160057e-01
2.702824873775193648e-01
3.226215165178978328e-01
3.150689819136837100e-01
2.756319822978202660e-01
-3.338926129848573954e-02
-1.018793053608302301e-02
-1.698940883735056140e-02
-4.638395765792191483e-02
-2.301031650100391346e-01
-4.834178255736111818e-01
-5.541987656646385485e-01
-5.589556854529865726e-01
-4.088385699889871550e-01
2.093079975345579768e-02
4.457505432665909151e-02
2.447738347975794149e-01
4.682836024704503108e-01
3.951799365348988569e-01
2.724374224561585955e-01
1.673083049414409995e-01
2.135485837059794001e-01
3.532292340130122610e-01
2.943210354758607483e-01
2.519951642468613029e-01
-4.466403411403990775e-02
-1.085218427193521129e-01
-4.994528982186591248e-02
-9.784620402790822347e-02
-1.665590328976599421e-01
-5.042900386494834075e-01
-5.717527441801391053e-01
-5.464342987388315365e-01
-1.975986014364521370e-01
2.002536271841931503e-02
-2.855196869259163384e-02
2.540761574108881815e-01
3.873488759803924708e-01
3.099298709022391685e-01
2.296619546752545205e-01
1.707505348761904074e-01
2.718168362106961888e-01
3.053317493422049167e-01
2.146477501233791108e-01
2.654726230596118342e-01
-7.979692986202657767e-03
-1.548393380469990643e-01
-4.092965149722405105e-03
-9.091948646885472662e-02
-1.799695394278767457e-01
-5.416884650961185654e-01
-6.685718764026152838e-01
-5.981925796425258124e-01
-2.677252288605438402e-01
3.241378305114356317e-02
2.941755038347493301e-02
1.170300898272271795e-01
3.775834669407063249e-01
3.760449569701685979e-01
4.106256573681490440e-01
1.397201018519725890e-01
1.800293566097599385e-01
2.859781810301719185e-01
3.375135001189048523e-01
2.333625679329443536e-01
-5.966461394731603640e-02
-1.044303293313395553e-01
-2.480945713706755873e-02
-8.989242179886125506e-02
-3.116283673223688711e-01
-5.275381545734787458e-01
-6.491800967402117095e-01
-4.658699175782554658e-01
-2.672183241372989571e-01
1.539278212811195923e-01
2.482247214729665918e-02
1.511819844975765825e-01
3.280162527613964540e-01
3.372772596991154281e-01
2.977784401074906051e-01
1.261667545629645559e-01
1.556459300360891751e-01
1.707692805304565908e-01
2.551917541930217026e-01
2.124479090465224429e-01
-5.416598245925385857e-02
-2.070399056125690196e-01
-1.545052554680345913e-01
-1.786391782007340501e-01
-3.089348413288796058e-01
-6.416193861550651967e-01
-5.824901482813829023e-01
-2.017451776722981593e-01
8.145097243982640789e-02
2.545348554757574377e-01
1.495031441882001544e-01
2.002068583645112421e-01
2.953499918735197904e-01
2.017945668786019220e-01
3.064397861764116548e-01
1.334617417323865629e-01
1.471729891659790956e-01
1.887611597131978458e-01
5.973588342804614371e-02
4.008199528028322245e-02
-1.754415705564890127e-01
-2.724478374961843419e-01
-3.300065533465921241e-01
-4.348684332876184833e-01
-4.882157999464673548e-01
-4.564752290553100722e-01
-1.674032412138111714e-01
1.585732409928019560e-01
2.420276679515250828e-01
4.766635371534794219e-01
1.379988246686370545e-01
1.395129343860300741e-01
2.776286727526783293e-01
3.335142885097524545e-01
3.599891904416293587e-01
1.426385442114923574e-01
7.327646134606458084e-02
1.402328418552384326e-01
-7.585949027650862320e-02
5.101522209188835699e-02
-4.429430529119194326e-01
-4.333351088587505950e-01
-5.335760283616222122e-01
-4.511279169572103287e-01
-1.860276490863601584e-01
-1.057328389817429048e-01
3.733114661283443159e-02
2.291868471217900494e-01
4.182717838499195873e-01
3.331222189916355769e-01
1.258549605866293164e-01
1.258140962059411949e-01
3.239876365525382607e-01
2.928363657380073093e-01
2.093523434211292944e-01
4.731186981651913648e-02
-2.442083667717825923e-02
-8.505921519508094497e-02
-5.389574396327534433e-02
-1.157835353700676917e-01
-4.803717416988255717e-01
-5.862556369950762125e-01
-5.851795941070636609e-01
-3.703896633799641513e-01
-1.448788297062664210e-02
7.054514262527632196e-02
7.954011260071880418e-02
3.118897409122602937e-01
3.262036758370281397e-01
3.631020679598180867e-01
2.635904625450870564e-01
2.092880313228494549e-01
1.816260219384744357e-01
3.104608625508583630e-01
2.926695486596028184e-01
4.164343199159391273e-02
-1.176337800839312164e-01
-1.096597368522673754e-01
-1.024846349011125368e-01
-2.653599391063489188e-01
-5.204278872969966274e-01
-7.574163425998423627e-01
-5.145255586328396635e-01
-1.772435155826770914e-01
2.002745372288694536e-01
1.670082259135964031e-01
2.637174943098156144e-01
2.170517548701962340e-01
3.407055886004429213e-01
3.893477634621783645e-01
2.391063317680419964e-01
1.443992250360724983e-01
2.007108275022450039e-01
2.591370902652461727e-01
2.369920961860273456e-01
-3.578986875834910819e-02
-1.699855217537035168e-01
-1.611982372483979908e-01
-9.103975656609186728e-02
-2.376872380209510416e-01
-5.841450400530229237e-01
-6.818951115683202779e-01
-4.910541536822452535e-01
5.316874308255059578e-03
2.357094958799511586e-01
9.239607608108607595e-02
1.687762268463004478e-01
1.843353545821302397e-01
3.025409451366534719e-01
4.243261634737500176e-01
2.508766679546936551e-01
2.069876524957803277e-01
1.749410268560278592e-01
1.081820113805704864e-01
1.713992129876408255e-01
-7.367599641392830190e-03
-1.796247669572111350e-01
-2.691622780535334880e-01
-2.157217050270905934e-01
-2.855682104301999757e-01
-5.592240113405836377e-01
-5.777448794747028771e-01
-2.492670235616334939e-01
1.144016771726367454e-01
3.370998874008970803e-01
3.076626087215708072e-01
2.323231786598891624e-01
7.141637657360366820e-02
2.709521392237050907e-01
3.756061916159075809e-01
1.856096190856199868e-01
1.426760559486422997e-01
5.029270382733708189e-04
1.213916823575349468e-01
1.470246686692662230e-01
-1.741692919213703172e-01
-3.112425331769670400e-01
-4.293639590002009676e-01
-4.844218256038025361e-01
-4.919731957745754336e-01
-5.604670331080416901e-01
-3.116199867272239077e-01
-5.975580688203019353e-02
2.103706377660957139e-01
3.300558213215212255e-01
3.357403661069927603e-01
2.338332906024205293e-01
1.887528029696732279e-01
2.987767024321781317e-01
4.673104769168446304e-01
2.345232667242405644e-01
1.355683697255914422e-01
-6.340741536601768313e-02
-5.154254701346122625e-02
2.559334084753683847e-02
-2.399629023985179188e-01
-3.877293023495679281e-01
-6.394277536691219677e-01
-5.345529920792638778e-01
-1.429337426323566973e-01
1.091392483675285296e-01
2.130486590110286516e-01
1.508116986117242764e-01
3.228631262633980814e-01
3.972862531307431722e-01
1.748461703499599729e-01
2.556137754281322394e-01
2.254565485122115298e-01
3.321761128428217802e-01
3.191256889813124387e-01
1.215231886036377412e-01
-3.212563563627662822e-02
-1.693681354735051547e-01
-2.084208281530803841e-01
-1.961059532235531755e-01
-5.399939021646120718e-01
-5.238027889325882480e-01
-3.464858068475094588e-01
7.883330061639337583e-02
3.433039161003652584e-01
2.463524102501436497e-01
2.251357978709146446e-01
2.855455369925485876e-02
1.759316851780948487e-01
3.519159313544411583e-01
2.278335232564948631e-01
1.217975267604628486e-01
-2.460554401249925860e-02
3.069306305905170063e-02
3.455262218291510479e-04
-1.772943630648927682e-01
-4.029041221221597580e-01
-6.019630371815348768e-01
-4.842359322811489175e-01
-2.700411477639210744e-01
-3.295814889851744756e-02
1.132100012447736920e-01
7.592007140406087373e-02
2.624559699844039584e-01
3.206076656480987275e-01
1.893600726576573079e-01
1.393852274796137936e-01
1.133275391466925797e-01
1.671506886588979279e-01
3.148402531176228147e-01
8.703455342310721654e-02
9.703171607972960189e-03
-2.337168794109621972e-01
-1.756083167689108104e-01
-1.908526236410987842e-01
-4.694187337094759549e-01
-4.528771261149533434e-01
-2.683929382928205154e-01
5.043026037544218187e-02
2.973685702902346129e-01
2.813894744690316752e-01
2.330837732094250825e-01
8.820493814333862925e-02
2.313184287537346506e-01
2.909114557174167226e-01
1.919900883384836332e-01
1.088225681545072626e-01
-5.785251113828077107e-02
-7.774887080421458152e-02
-9.936259014379700272e-02
-2.439684698215072167e-01
-4.805993608884453483e-01
-6.798191997124496400e-01
-4.514193144907235888e-01
-8.554990229599135354e-02
8.954145516156697404e-02
1.672882491248408598e-01
1.416762863111818982e-01
3.238380058062772515e-01
4.290894789956576361e-01
2.787664628995755178e-01
2.455520083718243374e-01
5.503432945907582585e-02
1.080745268773199985e-01
2.661966851013190527e-01
1.155119815641748870e-01
-7.773933591492310224e-02
-1.792169919433024283e-01
-2.877120852078766111e-01
-2.351664498382975421e-01
-4.819149402599023357e-01
-4.506735237399295269e-01
-3.075575289683232239e-01
-8.960132383042895832e-02
2.661226682954795919e-01
2.500069614340355573e-01
4.010082141374791687e-01
1.176245259992694248e-01
2.029451592302741192e-01
3.367114815543799100e-01
2.867373549872438421e-01
2.001441049035507513e-01
4.893619690430689451e-02
-1.977273013940691881e-02
1.293830820494641376e-01
5.452434919760085208e-02
-1.698361609296489272e-01
-3.206306562740761645e-01
-3.952871418331250220e-01
-4.710340352807149689e-01
-5.798747677126716571e-01
-3.861632209711545194e-01
-2.259530388014945879e-01
9.677975934702448546e-02
2.451650174731648257e-01
3.269329131998696125e-01
2.993355445431184481e-01
1.394692610547425549e-01
1.948538558698235112e-01
4.161567738930821436e-01
2.951963540622170035e-01
1.776067287602249301e-01
5.835410162742560303e-02
9.419409564716063610e-02
1.002038350902354769e-01
6.402810164834943363e-02
1.302239484448310114e-02
-3.169055098255793013e-01
-2.950648842236860414e-01
-3.103121043317895733e-01
-5.250935730320134276e-01
-6.369115908537830162e-01
-4.416402450332560514e-01
-1.120246626626919262e-01
2.182371022516568226e-01
2.969986604206173997e-01
4.025145209831183513e-01
1.636806728053549209e-01
1.841349768598417036e-01
3.715526711052636322e-01
3.313182258058452456e-01
2.720419944096052478e-01
8.469351118833301495e-02
7.556256736399380447e-02
1.355807981183040911e-01
1.519584475972848292e-01
1.200322993147295569e-01
-9.550063785700335650e-02
-2.264085109239466487e-01
-1.086281162168671183e-01
-1.990451933932259054e-01
-4.084630839080753972e-01
-7.295529661435484758e-01
-5.380590513559573296e-01
-9.002094728069387486e-02
1.545001013049427385e-01
2.470175389197387106e-01
1.428617791866328979e-01
1.180453385691562218e-01
2.957240439560537837e-01
3.278659810292199883e-01
3.026908439950278806e-01
1.959578309789997697e-01
1.280639742683591376e-01
2.545196578840285828e-01
2.085792383203373124e-01
1.478268904699467368e-01
-1.434023667707849392e-01
-1.212319385807938410e-01
-8.886501014166467427e-02
-1.011279723475481118e-01
-1.972643763382619930e-01
-5.179583059323482619e-01
-6.669764156134383448e-01
-4.192398702639373864e-01
-1.628428073463530357e-01
1.669341307734928392e-01
1.889878331502478637e-02
2.104400225732681040e-01
2.856734866408940920e-01
3.124944373911735518e-01
2.971758040635504305e-01
1.116031622587589922e-01
1.809381455953120721e-01
2.731967334112413992e-01
2.148426822193058583e-01
1.619195781589251593e-01
-4.744231298004975006e-02
-1.585348289869381588e-01
-1.139516676073281110e-01
-1.695682115433514436e-01
-2.548637576169768826e-01
-6.354550130691458687e-01
-6.141383908551377724e-01
-2.515049632738123875e-01
1.319624748542864712e-01
2.037981353873803414e-01
1.715002166537382688e-01
1.623948087714760513e-01
2.245232241606717194e-01
3.192943627104655180e-01
3.096625487383923847e-01
1.215288772975506859e-01
1.156452659795280669e-01
1.765541244390540498e-01
2.106681517868050357e-01
1.932141763248148569e-01
-9.989941729136095350e-02
-2.109100061807721582e-01
-1.045424937402241183e-01
-2.176289207020689620e-01
-3.321492912074940351e-01
-7.033799595030669760e-01
-5.250540535179631929e-01
-2.012707688230022662e-01
1.463237792220907774e-01
3.147279493534777539e-01
1.830745614919320197e-01
2.377761394787907268e-01
2.609172550066478635e-01
3.000018972623488267e-01
3.577439657850014498e-01
1.441451880773798599e-01
1.122763663260578637e-01
1.944263011876207758e-01
1.840346672672525941e-01
1.253427831362452505e-01
-2.158935305275719307e-01
-2.331902944312541914e-01
-2.504883427860988832e-01
-2.965254311369756035e-01
-3.896067329733625684e-01
-6.629442161279673895e-01
-5.040648987194009667e-01
-7.377090789417137251e-02
1.506630256993778394e-01
2.963209631375461339e-01
2.661036859849542635e-01
8.144528546580598327e-02
2.179177426883868174e-01
3.000841790033020873e-01
3.806102375441483554e-01
1.253438374775678321e-01
9.456242278353199637e-02
1.107098837996761120e-01
1.864929069777263582e-01
9.047557783375081986e-02
-1.824764138300846439e-01
-2.970598338631765256e-01
-2.836143906206938237e-01
-4.003893293972057288e-01
-4.795209198769734282e-01
-4.967360415063099000e-01
-1.750376499983396505e-01
1.074098264477374443e-01
2.141523218532299655e-01
3.665223402306347356e-01
1.911486217091355744e-01
1.074900312942423941e-01
1.600550328954365442e-01
3.431783947325440787e-01
3.870331779477717005e-01
1.869075350018725157e-01
2.338939745679857740e-02
2.042890553825726929e-02
2.429973997770845662e-02
3.131758878760371179e-02
-2.934974215669989284e-01
-4.130129265528439952e-01
-5.247741770061690181e-01
-4.323574581137739070e-01
-4.686765168624740241e-02
-7.467934250476332414e-02
9.118820600482618888e-02
1.856956695683157355e-01
3.531787288125572966e-01
2.433585786245553439e-01
1.550165654783592639e-01
5.658188668041830294e-02
1.882595209261297420e-01
1.874835479873646626e-01
2.584400181134632324e-01
3.331680131287748092e-02
-9.008205175471561965e-02
-1.583693726503160315e-01
-1.268144672982647325e-01
-3.020825143556760128e-01
-5.009130741005963783e-01
-4.667046733219414323e-01
-1.515559659723983432e-01
7.954105639648295645e-02
3.289228751110884197e-01
2.479678430365690467e-01
1.115493743450143294e-01
1.932273906357565574e-01
2.442664375772524987e-01
3.151091323484955797e-01
1.414399476425278745e-01
3.961193263128359732e-02
2.033695697837623051e-02
8.128824941320517139e-02
4.282000551249898201e-02
-1.932595643365712101e-01
-2.664643256395953785e-01
-5.262340573022744605e-01
-5.040059013531622556e-01
-2.053950282036219877e-01
-1.208298684842554205e-01
4.917842580116493778e-02
1.396196978926841359e-01
3.770526903888181680e-01
3.320974431644713176e-01
1.400733422669550032e-01
1.312295935663431168e-01
8.258368698962637033e-02
3.173293441201472942e-01
3.042867876230706536e-01
9.110121209366142669e-02
-7.596590710977135785e-02
-1.314833294241158912e-01
-1.108634011699225763e-01
-6.230004778490960682e-02
-4.218666104596349165e-01
-5.969304760856770642e-01
-4.925707183705748671e-01
-1.153350019008126948e-01
1.193909897029241662e-01
1.319173537202837365e-01
1.668055045509578838e-01
2.118085926969778265e-01
2.254911681280651337e-01
3.417846656860013543e-01
1.672182166156500061e-01
1.912974025310175685e-01
8.921649176541524007e-02
2.129387271162445361e-01
2.097918211752677342e-01
-2.227441554783271549e-02
-1.832079853503974787e-01
-1.981380681939595712e-01
-2.034438152889438967e-01
-2.165342015175584223e-01
-4.663056239840184247e-01
-5.739734302012267086e-01
-3.671841737620272772e-01
-4.917773248106427353e-02
2.454690044806856486e-01
2.142234829766770932e-01
2.190918082790019872e-01
1.188602298812220237e-01
2.803299315674664394e-01
3.383922276816550001e-01
2.044871226463253200e-01
1.931311960692352336e-01
4.559215076492162400e-02
1.525562430377660206e-01
2.004293286702232280e-01
-3.131751032879914742e-02
-1.667708336382104084e-01
-2.493227871070394785e-01
-2.070870347901171971e-01
-2.947508594008214633e-01
-4.842823750678847405e-01
-5.335034810139970274e-01
-3.251430657701677163e-01
3.914875856847882529e-04
2.572618078250417106e-01
2.034796058053193746e-01
2.258390888077757008e-01
1.084145704403830512e-01
2.465513626238512446e-01
3.038339715174665501e-01
2.473674162420715639e-01
1.008416916593609658e-01
9.886856472084604164e-02
1.017103849321056297e-01
1.264388257413904260e-01
-4.662538837337842912e-02
-2.004432592064229746e-01
-3.279302476091897622e-01
-3.385827478366285614e-01
-3.580986976191222748e-01
-4.313388210635442643e-01
-3.218561497488734435e-01
-1.047053777832970267e-01
1.267583814850590795e-01
3.361275327525282131e-01
2.149549900828028326e-01
1.446043701474124532e-01
1.408077328064893941e-01
1.885128740179901619e-01
3.732466288705924562e-01
2.098674424950000561e-01
1.485402521234465700e-01
-2.131166510554749483e-02
5.001176584831439065e-02
8.548725308752436192e-02
-1.391607057981114615e-01
-2.481732944221112791e-01
-4.753673742885019537e-01
-4.414406048267770499e-01
-3.860469187798201141e-01
-2.666099323378231523e-01
-3.565622440444486674e-02
-3.974663204497719260e-02
2.185067298710847983e-01
4.195126822311261994e-01
2.569722978709760297e-01
2.278533770434810757e-01
8.706127823482412431e-02
1.990824176422704150e-01
3.648452919654240900e-01
2.654996316629535391e-01
9.572906855478099941e-02
-6.004918499686828781e-02
1.374462691782246671e-02
2.427241814861358371e-02
-1.087103313418367190e-01
-2.706340507109040172e-01
-4.715061976294300239e-01
-5.144352098971221032e-01
-3.832930484733841903e-01
-2.524123722867408492e-01
-7.230521916721802111e-02
-5.882540802541780245e-02
2.086121899449591144e-01
4.186175758391587065e-01
3.455852879564070834e-01
2.554858845679917057e-01
1.023163581538142353e-01
2.471404715890163084e-01
3.491316466779572636e-01
2.508983022650639882e-01
9.857357944009986772e-02
-2.921564823016398194e-02
-8.315477514090396927e-03
1.489578254466167873e-01
-9.851983929256369343e-02
-1.758225313564204528e-01
-4.804936207184857810e-01
-4.762813341199277906e-01
-4.983146839281507035e-01
-3.766010770165237886e-01
-1.013474675399213959e-01
-1.634210693632798250e-02
1.675600437331898895e-01
3.611898743729962113e-01
3.651723153547966616e-01
2.109724254665978904e-01
1.143396145844564060e-01
2.707091658447274840e-01
4.168773671905611211e-01
3.015842826895900330e-01
1.592397687896759395e-01
-7.005579424416319423e-02
2.364326703991145862e-02
1.188373974064526051e-01
-7.918746869555470802e-02
-1.786767781298815305e-01
-3.389792243074540856e-01
-4.045960632040926375e-01
-3.887166425926309454e-01
-4.772100533656868926e-01
-2.910890183401236841e-01
-2.018953937200019255e-01
7.816395056367009264e-02
3.038367594307037622e-01
3.484646717956458306e-01
2.288172583566100982e-01
6.233152176312506398e-02
1.930667389727447336e-01
3.024504381486708970e-01
2.528640743614766762e-01
2.148006543531364998e-01
4.063839597877816345e-03
9.244911297237712322e-02
8.174512588523508150e-02
1.791663312058699997e-02
-1.737343223186343932e-01
-4.110580435044225989e-01
-4.026926897652476356e-01
-4.275113379562200944e-01
-4.152847157289272229e-01
-8.832322293934102841e-02
-2.223129162752057741e-02
9.597929120352610699e-02
3.495746989359739820e-01
2.663192536979075431e-01
1.853885119487509447e-01
7.231545198757571846e-02
1.682588059594499752e-01
2.956540526763569710e-01
2.979315173356598678e-01
1.026949500523141739e-01
-6.596625906733499800e-02
-2.206177629041733423e-02
-2.168618751104406384e-02
-1.553053652803829676e-01
-3.287316666113349051e-01
-5.687688004171715939e-01
-5.781739397712248874e-01
-1.659483597372479746e-01
3.003637947598458702e-02
1.615542516964649788e-01
7.861632586486155816e-02
2.234828219197515509e-01
3.058406391277826986e-01
2.556928456559866003e-01
1.744215566959715358e-01
7.120686877232795808e-02
1.959650896057161251e-01
2.037991357590655250e-01
2.513494782078345979e-01
5.609220391439270759e-02
-1.980585042912346161e-01
-2.153352998196860768e-01
-1.089076737526936123e-01
-3.816239837852708483e-01
-5.252374742958931808e-01
-5.480173708454196824e-01
-2.427229567820822775e-01
1.236600108074433768e-01
2.943816046748761739e-01
2.893927873475096169e-01
7.194185248961515455e-02
2.083859724810523950e-01
2.813605195144650017e-01
2.965270156857969797e-01
2.679687264615796538e-01
3.185336021893636627e-02
6.934793062316602086e-02
1.024675483992702474e-01
5.491380777226473331e-02
-5.018188378384919046e-02
-2.584769527531429745e-01
-3.562904862126350380e-01
-3.297046705613893014e-01
-4.856390358702360466e-01
-2.498060770350661874e-01
-2.093954535865011346e-01
8.854382880418298907e-02
2.327353308367463292e-01
3.343740124076157172e-01
2.675074025697686264e-01
4.069322812875098005e-02
1.125966171833046037e-01
3.071107695187297870e-01
2.888892245739767550e-01
2.607907148979622391e-01
-3.275025222186633833e-02
4.888893982780362357e-03
-4.094098829905663817e-02
-1.224017739170937258e-01
-1.017949584923018014e-01
-5.124999455001706394e-01
-5.254876053987006523e-01
-2.591154933236209934e-01
-8.693367429334752927e-02
1.255040891275562842e-01
1.030676481842323078e-01
1.158114797928342377e-01
2.560411543340471163e-01
2.422095996149271901e-01
2.569273434300186065e-01
1.019728512662030351e-01
1.046946023681769589e-01
2.631611104738195150e-01
1.453665269974104834e-01
1.216668462131622608e-01
-1.820781905860268113e-01
-1.789202052476723259e-01
-1.615899261308181567e-01
-2.723459490225783597e-01
-4.440519688912527574e-01
-5.358069178331781313e-01
-2.216069190292955238e-01
5.057925366030648767e-02
2.599277515907976732e-01
3.030509975300075820e-01
1.607405954601279774e-01
1.350859928678118660e-01
2.238000937415560720e-01
2.645453321707574856e-01
2.601060175992120360e-01
8.042768843574865656e-02
6.407374553207034751e-02
1.079151710232403583e-01
7.419258069179390791e-02
-6.949133621231173841e-03
-2.920973901173697929e-01
-3.117283618304274029e-01
-3.981263015855725507e-01
-4.370598131713521184e-01
-3.980488686711254331e-01
-2.555278182722225955e-01
-5.244072927777859716e-02
2.069227882049950451e-01
3.113618913572321345e-01
3.548540688752424010e-01
1.107449308463632764e-01
1.209178092678004912e-01
2.331698616018581527e-01
2.682808616093653731e-01
2.944211996360179828e-01
1.258839718531730156e-01
-4.875224470460626236e-03
4.132026027016583170e-02
2.819462613038037357e-02
-7.035753389405208225e-03
-3.242590634717837927e-01
-4.095595411307244027e-01
-4.167374519881407169e-01
-4.866580713685020321e-01
-2.821828982111675987e-01
-2.161853158775472461e-01
2.790198682266820107e-03
1.847656354200601647e-01
3.211356053294687207e-01
4.162187523528793065e-01
7.308321519697835722e-02
8.705533665036191415e-02
2.447887169676770114e-01
3.342778499742589671e-01
3.322483423040390460e-01
5.314750810753601784e-02
-2.573278563318426304e-02
-1.463550352088244244e-02
6.766741960627165042e-02
5.226435142938967715e-03
-2.419289018708097039e-01
-3.361630562881128825e-01
-4.358726621028825576e-01
-5.233411989253519137e-01
-3.759362315313794500e-01
-2.940839175786329474e-01
-3.804710948080458621e-02
9.032361640431862959e-02
3.183745343961338903e-01
3.565942452375845395e-01
8.139815784453868774e-02
1.519923106176596095e-01
2.720639886147713238e-01
2.877022129337079015e-01
3.701100660720554880e-01
1.078079633414827654e-01
1.814921011545755913e-02
8.436099568080213107e-02
9.344527334806879137e-02
2.808005573712335501e-02
-1.531500969294762871e-01
-2.564091295438204465e-01
-3.364039160331882550e-01
-3.502072951864139139e-01
-4.392565735899025547e-01
-5.156707491253315068e-01
-1.909904428377631191e-01
1.979011953335974017e-02
2.305815291572024250e-01
3.660376588055966884e-01
1.972974846861626774e-01
7.561252059215561871e-02
1.361407195402368764e-01
3.000086106380301931e-01
4.013684070087908395e-01
1.225318223044632726e-01
5.758842215097814687e-06
4.269380969602121212e-02
1.138133131209570492e-01
8.733545273273901621e-02
-1.823628967418826630e-01
-2.997684541826846627e-01
-2.969519792810050851e-01
-3.105063200382633948e-01
-2.930431104967485822e-01
-4.079282399519312263e-01
-2.089225057466866375e-01
3.234759286196520200e-02
2.577404667157555673e-01
3.316475253983646176e-01
1.844278683301167066e-01
1.341912696599720789e-01
1.558695444917939099e-01
2.760228652030232155e-01
3.383963248246064648e-01
1.571679815070558817e-01
3.421174864262799264e-02
3.369150428348832715e-02
-4.682640655087527692e-03
6.699955973508020524e-02
-1.998566644180136409e-01
-4.275631942701300647e-01
-6.013536504917750269e-01
-4.838310308700948248e-01
-7.586820957348294758e-02
-6.368647430590945735e-02
1.052422593134110240e-01
1.090114912349953169e-01
2.899332438108903065e-01
3.597613563178784224e-01
2.672851429406318813e-01
7.434520937525368467e-02
1.519798233266874687e-01
3.275031551407630026e-01
2.451984467987365357e-01
1.601853451464824163e-01
-1.801619747829485974e-02
-1.639751525635970708e-01
-5.111731407644320990e-02
-1.453743422261787321e-01
-3.606435895625357269e-01
-5.954949138477573234e-01
-6.273888144203683126e-01
-2.476228025519652820e-01
1.158766108819578866e-01
8.799057560946305090e-02
1.243914314040544533e-01
1.558923691869171790e-01
3.191676946689216976e-01
4.413242875937606335e-01
2.147183195482046114e-01
1.384411793786746170e-01
1.629636706024679693e-01
2.255850324445254906e-01
2.354489776448053795e-01
7.465830532441719569e-02
-1.829826575894667184e-01
-2.657665324045963562e-01
-2.359665712938791016e-01
-2.428555353692687380e-01
-5.427292579428579788e-01
-5.500726630688679286e-01
-2.936390051251099309e-01
5.340789041218982347e-02
2.385093164362589446e-01
3.121683455453834188e-01
2.265376382233904584e-01
1.553302966896914494e-01
2.623784540783921093e-01
3.278350164445211212e-01
2.063291954182514820e-01
2.250801290125719056e-01
6.698781583167301434e-02
1.493041317886874275e-01
1.323394568244253833e-01
6.185822500149240621e-02
-1.928474051255427979e-01
-3.344475537211709093e-01
-2.831619558408150494e-01
-3.124888263032834512e-01
-5.141683218616707185e-01
-4.000179418296297418e-01
-1.823382907288635391e-01
3.668545717504706483e-02
3.613040845098397513e-01
2.822910475081687465e-01
2.488017452153972742e-01
9.983021547811998797e-02
1.843537932393704004e-01
3.149368074907639148e-01
2.198447414580465553e-01
1.781474956945837407e-01
-1.110645168946289285e-02
1.047610555698118007e-01
8.476662806486218171e-02
1.972775563594836301e-02
-1.744044718635692215e-01
-3.549063532532863441e-01
-3.723127868626104897e-01
-4.048488987319992516e-01
-3.300671333367968252e-01
-1.327515035917742059e-01
-8.264554111207639275e-02
1.305447737322833479e-01
2.048352002353044377e-01
1.119776520612851822e-01
7.925933051101563542e-02
-1.094137815816370596e-02
1.484798384744525079e-01
2.661323988739926483e-01
1.977880498658326491e-01
1.123051157934829569e-01
3.413407239845955843e-03
-1.079564822112433209e-02
5.184925631600714735e-02
-5.320308002851167894e-02
-1.977032547676951801e-01
-4.806248587404640116e-01
-3.929947693356690142e-01
-1.887326490992659034e-01
2.132289142749155264e-03
1.951439307491580344e-01
5.857496159223263277e-02
2.076378927384958661e-01
2.112829315600183722e-01
2.117786002093048348e-01
1.169537744457845307e-01
-8.720405352769522445e-03
1.579775654069668633e-01
2.156128865389266291e-01
7.297608485724338401e-02
3.013477219306359700e-02
-2.159732762723460819e-01
-1.993981880376167748e-01
-1.060147891952762933e-01
-2.844361251539870850e-01
-3.859383936835205087e-01
-5.082825776643216109e-01
-3.158601699901475435e-01
5.736110025979546112e-02
1.481103104458878494e-01
2.105122335231357500e-01
1.289689567949853788e-01
1.950068004156954027e-01
2.221372818843988517e-01
2.412885334194888598e-01
2.441437969827712218e-01
1.438190490114787945e-02
1.808260877186862459e-01
2.398928994533629511e-01
1.490283976661945231e-01
5.469096778364060385e-02
-2.457184001399976836e-01
-1.763360560161467139e-01
-2.938222457058316528e-01
-4.306722657121762055e-01
-5.608467940078286640e-01
-5.527236154124091083e-01
-2.109419121721923807e-01
1.834854955200300453e-01
2.976320161703611133e-01
3.437545988045539458e-01
3.121720010295339076e-01
2.370963692573171411e-01
3.359273333452129640e-01
3.228793585840425973e-01
2.846196763637983684e-01
1.445161223678403939e-02
2.169922427236753437e-02
1.038705984354468814e-01
1.609474176269853896e-02
3.689639808363331941e-02
-2.823138510312714899e-01
-3.185183623835642908e-01
-2.760048264842229204e-01
-5.217720252277749937e-01
-4.928827451240814228e-01
-4.105531826970220122e-01
-9.025727041633346825e-02
1.883389725133001735e-01
3.570170775404125085e-01
4.032272103056442902e-01
1.001382697484466955e-01
1.379403626440828257e-01
3.348464290758648709e-01
3.087143154783332788e-01
3.042680234914030279e-01
2.504003681419538635e-02
-3.292496650606657749e-03
8.706313475766813692e-02
6.263931440455650090e-02
-8.670193335589693184e-02
-3.131265783241407030e-01
-3.183037896344549922e-01
-2.869384986275714811e-01
-5.416766245724784490e-01
-4.215773963215431186e-01
-2.607321006892359128e-01
-8.011750305160469932e-02
2.789817594364406572e-01
3.495007911884604468e-01
3.531072070030804033e-01
1.437361597422270321e-01
1.828873314612062817e-01
2.502813497107098106e-01
3.431898643171517049e-01
3.177286201647169239e-01
5.944149469184145662e-02
-2.784207215159334448e-02
5.160644161868734037e-02
-7.048024846605349669e-02
-1.213054658712587885e-01
-4.026944122081026478e-01
-5.556776604971926936e-01
-5.705490287401007166e-01
-3.368426543830529418e-01
-1.776117924665210346e-02
-3.367274825794852600e-02
1.691531580914108490e-01
3.737610332398884072e-01
3.985122103515478242e-01
3.404011718214252080e-01
2.721487031746214758e-01
1.760015314838638822e-01
2.840475569776828024e-01
2.981096674189600559e-01
2.485039947450404796e-01
4.944379614402028000e-03
-4.644474153691480200e-02
-6.251368558973258160e-02
-5.632940948122844294e-02
-2.050333694647064053e-01
-5.437926393052966434e-01
-7.334451228184941662e-01
-5.448538652887846556e-01
-2.147447296429113583e-01
1.135552342758210376e-01
6.204934913939474939e-02
1.801780583027573490e-01
2.983145243248183087e-01
3.750101537205112745e-01
3.374473571375299352e-01
1.256770033761487326e-01
1.339456091589369402e-01
2.126678937441173201e-01
2.602971627678635214e-01
2.883588898276696622e-01
8.568472760222350937e-03
-7.938095083639273852e-02
-1.267581145344783278e-01
-1.568566064595463549e-01
-1.586279643824987096e-01
-5.262577997381078232e-01
-6.152695550368039168e-01
-5.968026715894471090e-01
-1.960982691080433993e-01
1.144096293821024179e-01
1.509492377305526878e-01
1.457073087383946586e-01
2.584336970024337932e-01
3.076189237342163429e-01
3.771785091661598033e-01
2.317491004748411521e-01
1.512967524381452211e-01
2.012182895920571202e-01
2.285480016803997372e-01
2.838559805010193449e-01
4.128335085709647356e-02
-1.223624231522173478e-01
-1.348164891835639811e-01
-1.909737606535570897e-01
-1.216210187306283608e-01
-4.733293060627490334e-01
-6.273337431932989317e-01
-6.982827011460328581e-01
-2.194100445019630530e-01
1.794782856711159003e-01
9.532738322971502642e-02
1.965424382140127380e-01
3.445494988059848440e-01
3.710388799288349970e-01
3.894460891646451817e-01
1.886403566867693449e-01
1.558424870665237050e-01
1.223490854756038582e-01
2.791751451152276742e-01
2.578897381323514981e-01
3.241864631194685265e-02
-2.131046022031424236e-02
-2.788840510446688459e-02
-7.432438577142252978e-02
-1.154845919404792198e-01
-3.726345123517593727e-01
-5.591814297675056222e-01
-8.103466931084226665e-01
-5.006649417768826993e-01
-7.958616035598442551e-02
2.967128440365929265e-02
1.529591326855851974e-01
1.922570379226657966e-01
3.591158421363755959e-01
3.009779811820110229e-01
3.169857188005249515e-01
2.607278659975780233e-01
1.605261235211117299e-01
2.597590521909813877e-01
3.244771836102799956e-01
1.820839253037943584e-01
3.915461502580608322e-02
-1.478212102939777672e-01
-6.757273144569538037e-02
-7.523020551944625822e-02
-2.218080195293541390e-01
-4.874876363930269463e-01
-6.403093599885936182e-01
-5.030602585398191717e-01
-1.683955301331184762e-01
-4.714401832121262181e-02
9.577078275222425385e-02
1.132928555184579134e-01
3.248210317266015945e-01
3.936964314152463507e-01
2.472958270342567322e-01
1.929627128449915574e-01
1.356299346365972269e-01
2.447343873789128432e-01
3.309093497393605365e-01
8.329485868987460129e-02
-5.085342425863725868e-03
-1.349080534161307687e-01
-4.128977522421944241e-02
-7.797328831312733133e-02
-3.378885047343653802e-01
-4.914108119412275988e-01
-7.669703545707845516e-01
-3.615393412147124841e-01
9.551196292566077606e-02
8.351381304735266964e-02
1.354228079009888175e-01
1.902429639165508224e-01
3.129155694451446479e-01
3.895428267343504780e-01
2.518095381353216977e-01
1.530733294447244042e-01
6.723687673931277864e-02
1.492661834412847277e-01
2.698624652318861727e-01
1.434584308176528600e-01
-6.419218574136248412e-02
-2.321062247937321077e-01
-2.142448916096637290e-01
-2.136944105733292742e-01
-5.275286133359968765e-01
-5.882646493626547679e-01
-4.585169411268804063e-01
-5.073844172425376331e-02
3.024691234037576448e-01
2.884303428654146351e-01
3.300288889007296222e-01
1.148549607334659051e-01
2.296512082515405062e-01
3.552113800710339220e-01
2.897821105495371197e-01
2.301212480768389801e-01
-1.262436666388433437e-02
3.750141403822115915e-02
1.496844567346172217e-01
5.583547161112079049e-02
-1.817094357768954949e-01
-3.259794814988982714e-01
-3.899950958619520236e-01
-4.243556933708744205e-01
-5.541795325209692979e-01
-2.417177583243437788e-01
-1.073660859231720943e-01
1.695142196198122786e-01
4.122850168985532915e-01
3.792823093803735501e-01
2.434201966271499207e-01
1.233936211689798945e-01
1.870200107627372210e-01
3.054129278165224615e-01
2.610376841238253864e-01
1.301267911118094145e-01
-9.558666901110957070e-03
6.541747248550833227e-03
2.245627734322280800e-02
-1.322834199378337683e-01
-2.197682878097931836e-01
-5.352453670197314661e-01
-5.990477535320355429e-01
-3.304399734364396046e-01
-1.301144105626260705e-01
-2.380174215464714305e-04
2.334360541807423139e-02
1.824131531978680498e-01
4.244398228711891985e-01
2.911476364333215328e-01
2.769728351932938537e-01
4.132109169933473325e-02
1.879317906304217578e-01
3.038948925609309959e-01
1.598677171770250816e-01
1.952263449141802276e-01
-9.946970594620230255e-02
-1.747871703426387424e-01
-5.454445291763965198e-02
-1.455959613282262755e-01
-4.202873187828940482e-01
-7.070748570599545424e-01
-5.322797362702789137e-01
-8.796272986335240684e-02
1.299249315831855212e-01
1.862052416616111206e-01
1.394135835277127144e-01
2.748249312147658108e-01
2.759916584476022061e-01
2.689966962691219265e-01
1.911101599633348580e-01
5.138874381115232648e-02
9.712963730866275291e-02
3.053190103045775872e-01
1.052469387295924541e-01
3.478077762225290082e-02
-1.628533970587248692e-01
-2.209755843798746344e-01
-1.178975480244349727e-01
-2.786104775751377938e-01
-4.515245732359858266e-01
-5.096296887190694402e-01
-2.519037615417463183e-01
1.969408025242280480e-01
2.322076126287895281e-01
2.693622028300374227e-01
1.270537167080927343e-01
1.190363011923561976e-01
2.297056633362962730e-01
2.313442276555577881e-01
2.716823116740891275e-01
8.191747020971151816e-02
3.797098710252622134e-02
1.758565809024366655e-01
1.276677055761940016e-01
-4.671637747488788239e-02
-3.196096174257535560e-01
-2.984237015257164005e-01
-3.542288562654726247e-01
-3.523010274420861343e-01
-2.518333284588506471e-01
-1.921016988737639375e-01
1.024412565706167566e-02
2.544346278888413027e-01
3.510172188816854111e-01
2.125750092885242415e-01
4.366286252594964168e-02
9.153587445619137952e-02
1.635878729094545070e-01
2.641954137727715590e-01
1.585301949622356377e-01
-4.142799251400369753e-02
-9.605803155263775706e-02
-1.664482379507792320e-02
-9.495079779416470966e-02
-2.036855100279539865e-01
-5.203775844272353623e-01
-5.470199227833889566e-01
-3.067480779415474590e-01
-1.054085479411837056e-02
1.090731399845962790e-01
7.567385730819919942e-02
1.633504887195478261e-01
3.065929899759755051e-01
2.525578377358433380e-01
2.683352815288813087e-01
7.821242323244337324e-02
7.638426989772428843e-02
1.611991952875172773e-01
1.080198157088256838e-01
7.170241670653798582e-02
-1.770827238765395051e-01
-2.586085687128377719e-01
-2.142910202125660191e-01
-4.109351791756343797e-01
-4.591717734082616520e-01
-4.488024282310130730e-01
-1.300051750475338941e-01
1.309844028624713164e-01
3.206144968369230019e-01
3.575808004904262871e-01
1.375176402616474780e-01
7.644852196838392011e-02
1.721821785608365074e-01
2.447784813592591147e-01
2.993924203218034652e-01
2.782820750768949525e-02
3.336323618458947315e-02
-1.743826190539912724e-02
-4.442906363135767922e-02
-2.495989689190258876e-02
-4.461391891754096228e-01
-5.512886655648181478e-01
-5.114625628408009383e-01
-2.099131576588841863e-01
4.459987715572721889e-02
6.394612709867297795e-03
1.451258852850254577e-01
3.393150194086391735e-01
2.452532551140138017e-01
2.913741633004766074e-01
1.329272565996660882e-01
1.433580362126134489e-01
2.199614913947992578e-01
2.333389557547453363e-01
1.120942378960533281e-01
-5.083234782643433758e-02
-1.444664217975308307e-01
-1.355134427623033155e-01
-2.729101486770975082e-01
-3.081758354596396687e-01
-6.060192154683374799e-01
-5.149788592672717158e-01
-1.398690219886113417e-01
1.543113858455718024e-01
3.296818254335615594e-01
2.069820079070151531e-01
1.854668613501887497e-01
1.715532870405623855e-01
2.892144215830196319e-01
3.005857966719899244e-01
2.215879967751118729e-01
9.134372607688978629e-02
1.467319410637797361e-01
1.642671788426025015e-01
7.592377440172759506e-02
-1.429680496399694800e-01
-3.035565231166142408e-01
-3.300420465271223236e-01
-4.037045483478700625e-01
-4.830564104150210092e-01
-4.400561055863146387e-01
-1.500520858045214512e-01
9.072340551199015168e-02
2.683958651599216427e-01
4.052111454701814441e-01
2.144827332998311409e-01
1.854108685729496386e-01
1.418728408069087621e-01
3.856378137993290989e-01
3.498438669239311016e-01
1.325491314090882500e-01
1.762241652897100774e-02
7.682042394489974058e-02
3.880982918138692339e-02
4.596280197577518045e-02
-1.923744457551949671e-01
-3.792430097713344606e-01
-4.590949161630935027e-01
-4.946652195254220841e-01
-2.463317166411216341e-01
-2.032751364738920596e-01
3.338751251224625349e-03
1.553419953336498960e-01
3.083028739008423780e-01
3.630573248109384976e-01
2.070213933590891453e-01
1.422362958337329841e-01
1.098588246895808584e-01
2.776406743543776146e-01
3.646786000371329828e-01
1.096903558640433679e-01
-1.076415345045100835e-02
-1.091992557563266075e-01
-5.928137981043346549e-02
-7.961379669493995337e-02
-4.178605497011694814e-01
-4.909307104112806686e-01
-5.768090196955980575e-01
-1.875053034357906379e-01
2.012492890515323873e-01
1.916318331992222790e-01
1.491273247012181447e-01
2.262532098107066236e-01
2.529179857340362880e-01
3.026168850024039680e-01
1.666568392740136462e-01
1.429441906866872891e-01
2.907172922930834069e-02
2.094818702555660828e-01
1.823755898627692495e-01
-5.837458711006493495e-03
-1.603374390283606177e-01
-2.514315907144702988e-01
-2.706340766451015845e-01
-2.727904467474160377e-01
-5.509728508697837590e-01
-3.838635728357375765e-01
-6.101357357686487681e-02
1.484040030302097579e-01
3.882555489566447138e-01
3.044403928941721293e-01
1.563486439222988578e-01
8.054309101040724173e-02
2.261982682876924056e-01
3.024626685261631032e-01
2.628974009702249037e-01
8.094728331578882052e-02
-6.414232165503186422e-03
9.775747256860095602e-02
8.388349327255517629e-02
-1.631689659305544104e-01
-2.993974371172991034e-01
-4.269549642473754458e-01
-5.189915898228892877e-01
-3.913784537075397640e-01
-1.809457395405621449e-01
7.148412145575208654e-02
8.289558295611287875e-02
2.283921171568865094e-01
3.723407496771194425e-01
2.433284651781608132e-01
1.300152747284092358e-01
6.452812888271253211e-02
1.905745846037781854e-01
2.922911639932236905e-01
1.600644856037465869e-01
1.959131279961079386e-02
-1.043721512897746173e-01
-5.506631495174138524e-02
-8.276262325212535576e-02
-2.889951864818144367e-01
-5.690035985412532638e-01
-6.069886942876085989e-01
-3.361376502431088764e-01
4.046259703114285511e-02
1.167431670726800652e-01
2.545840746803158527e-01
1.971555568186559304e-01
2.230189979462416372e-01
3.151434057604459715e-01
1.986441494765019411e-01
1.701740102581461578e-01
1.250212288460572641e-01
1.282802423573913830e-01
2.426337552036764711e-01
5.018704703031040548e-02
-7.023797391080773000e-02
-2.773210353762964875e-01
-3.287743927215792672e-01
-2.814831746940815727e-01
-5.965190354869815970e-01
-4.888889504397234131e-01
-3.201208464455860270e-01
1.118576355195093353e-01
3.275693205952746601e-01
3.267732959412892324e-01
2.888646573854535271e-01
9.163056945965786237e-02
1.961927349582024416e-01
3.318996348437139865e-01
2.274996783088053531e-01
2.197506997827213815e-01
4.219504216048286516e-02
1.174695967551488973e-01
9.714915819072555969e-02
-9.672532536007738546e-02
-2.036928738696561214e-01
-5.502258789265608296e-01
-5.315550696909077111e-01
-4.011642147086987853e-01
-1.990447606897190469e-01
-2.028413857180388913e-02
5.150517431112133782e-02
2.394752543013787260e-01
3.494180810579262664e-01
2.404092743217755568e-01
1.309690734640988619e-01
1.299384342666509706e-02
2.156299434886920219e-01
3.214529908786666890e-01
1.986178899877210080e-01
8.402998534637157180e-02
-2.167923851023468851e-01
-1.811719866060723105e-01
-1.307855724764818151e-01
-4.262802228354727330e-01
-5.627967544309283587e-01
-5.512047156619565014e-01
-9.743885247222555668e-02
1.395054697432187574e-01
2.538573773277644774e-01
2.789634247673424827e-01
6.156086703416585593e-02
1.770015337858480420e-01
2.394732503260804946e-01
2.725245900102383767e-01
2.290308251586400945e-01
3.335312700256831686e-02
5.499853645389968237e-02
9.461579723266710928e-02
-8.503802711889774102e-02
-2.105739727014626084e-01
-5.658979783520887707e-01
-6.470058551796894486e-01
-3.139651821110507335e-01
-6.430487701747933382e-02
1.211921092633490016e-01
3.278542550277396828e-02
2.878550186294120961e-01
4.385874481528071467e-01
3.016278229187778770e-01
2.941253310424164491e-01
8.386807307354748886e-02
1.882328990818582515e-01
2.100607443720692857e-01
2.125896617456410898e-01
2.543303300288785040e-02
-2.206535857219992514e-01
-4.400929683240475954e-01
-3.984232951274260248e-01
-5.316471770634285665e-01
-5.116479249568754994e-01
-4.118496293789667972e-01
-2.863545266172784487e-02
3.233999554167067414e-01
3.868576910790996193e-01
3.456879743984225817e-01
2.520024907479757603e-01
2.166567034997030072e-01
3.239218421388225799e-01
3.236948298333384155e-01
3.267402019698746329e-01
1.014504810312821803e-02
-4.406431531687182712e-02
5.917287277960259217e-02
-3.148764785482427442e-02
-2.361558058260353476e-01
-6.054124154252420453e-01
-7.004689694677601608e-01
-5.937089542716904589e-01
-2.697828142138618546e-01
5.265514790757208630e-02
-7.497204964913350977e-02
1.424975646458079837e-01
2.380306987749349901e-01
9.062356635641322100e-02
