7.180260378432001822e-03
-6.207466439452170581e-01
-1.039978991385169804e+00
-1.149229418737373054e+00
-9.903483774200692036e-01
-6.962901230658296026e-01
-4.012135070336253495e-01
-1.792485022248086202e-01
-4.029549301746765400e-02
4.008671033519434213e-02
9.611064990824050303e-02
1.658576327028047359e-01
2.848570717236619254e-01
4.600129108089525687e-01
6.375511765116677054e-01
7.052441526467974064e-01
5.528250986973404224e-01
1.617821569543278493e-01
-3.452946502725278144e-01
-7.499168617146293458e-01
-8.626132525582546062e-01
-6.447471752063986816e-01
-2.368418408298263167e-01
1.324124125958671128e-01
2.941534495244736425e-01
2.397907481052648504e-01
1.059627051264071806e-01
6.177598530728113657e-02
1.843026406185099275e-01
4.097579174517075873e-01
5.870077967209471614e-01
5.867847659060170251e-01
3.871559924291111954e-01
8.086829234395442878e-02
-1.916738179396168251e-01
-3.319614807402702095e-01
-3.352550641760784211e-01
-2.757890030212094556e-01
-2.426540830582762931e-01
-2.744827891045207857e-01
-3.378500267454437322e-01
-3.608917216275232542e-01
-2.935632785463322403e-01
-1.476990402806777625e-01
1.285624872424417919e-02
1.220964255374161755e-01
1.605139472087854791e-01
1.636899502932722128e-01
1.856481532482360808e-01
2.487507457793183552e-01
3.215587067184505488e-01
3.415822098375112525e-01
2.631162161051197046e-01
9.209016205976724989e-02
-1.168002023411935930e-01
-2.943186027547373684e-01
-3.937794059352716647e-01
-4.055824731764148261e-01
-3.458592895581129034e-01
-2.363020902621306985e-01
-9.453098613078877999e-02
6.059951411284511535e-02
2.009689295671251985e-01
2.933130156809743427e-01
3.171360764179755876e-01
2.818789007305664285e-01
2.256470207996454647e-01
1.918308311330385318e-01
1.992967068144665121e-01
2.289957987248859850e-01
2.376910959967475090e-01
1.881360593558571992e-01
7.282857440642394320e-02
-8.454110307180909278e-02
-2.467389593896934241e-01
-3.825590780085315612e-01
-4.737027642631721491e-01
-5.091676231093920091e-01
-4.794676695417841028e-01
-3.811217244624904299e-01
-2.285311968460340404e-01
-5.918027892948002355e-02
7.919243060073846707e-02
1.552158708588624314e-01
1.750841731991991390e-01
1.791363157988572485e-01
2.120117804017537522e-01
2.863695580481032676e-01
3.680332810806918875e-01
3.962193922038287908e-01
3.261392425698195208e-01
1.634725197335017699e-01
-3.452473331113492527e-02
-1.921986568345245283e-01
-2.595912777014329764e-01
-2.379206964460273688e-01
-1.717647147377676098e-01
-1.162254945310806364e-01
-1.018458402495418941e-01
-1.184369466249448055e-01
-1.255038708108575374e-01
-8.140570321906198670e-02
2.633296976956181479e-02
1.675944800995674555e-01
2.824022000692643086e-01
3.143555621443406278e-01
2.456584376181435436e-01
1.110641157904514592e-01
-2.062907354598995935e-02
-8.788004279137062724e-02
-7.407648645757408667e-02
-1.581413782621620551e-02
2.439185866063255104e-02
1.799219820326478092e-03
-8.176647742146256337e-02
-1.841238344671677074e-01
-2.572264411723945710e-01
-2.815075836681211197e-01
-2.729209297113613930e-01
-2.593224116563276893e-01
-2.493466744712275751e-01
-2.228393835777368326e-01
-1.512665776563834330e-01
-2.769032758615241896e-02
1.238366930944017064e-01
2.696270283161349979e-01
3.969011150129300725e-01
5.198389508645222534e-01
6.496474578275033274e-01
7.551014743321741163e-01
7.569426234433069833e-01
5.749841557681791837e-01
1.986234972668069476e-01
-2.773702840982583684e-01
-6.898374654020419383e-01
-8.985761509220751009e-01
-8.673951777067369084e-01
-6.749175782417062841e-01
-4.493154505554808331e-01
-2.803639426485790009e-01
-1.766673226581677858e-01
-9.371048322184849511e-02
3.267761686246289932e-03
1.042621339341159858e-01
1.783056834478264630e-01
2.264767285432202626e-01
3.022319014040952267e-01
4.660094160465021451e-01
7.071977888889375841e-01
9.085667715176712900e-01
9.023345420904252956e-01
5.897657417919217604e-01
3.368487489265470369e-02
-5.561618135219642545e-01
-9.444616832054679723e-01
-1.012558944888522161e+00
-8.174126363755617186e-01
-5.284494049882445532e-01
-2.983547148064569776e-01
-1.701214513815894891e-01
-8.459927870786887460e-02
3.383703475205890321e-02
1.964611669743951960e-01
3.430581518605088087e-01
4.059479585690877745e-01
3.793667786511066842e-01
3.278402774487194637e-01
3.262431160813712427e-01
3.874498583099639237e-01
4.441546917467823485e-01
4.020060080235290378e-01
2.180018319231116775e-01
-6.225014823744229320e-02
-3.365149419165390787e-01
-5.155719166401810938e-01
-5.717066579967760021e-01
-5.333699706911734228e-01
-4.440019135067095335e-01
-3.297532748021518301e-01
-2.018441073085731063e-01
-7.811995079004632747e-02
1.155710262863424154e-02
5.021783309009728025e-02
6.369276848075278163e-02
1.153374648068056785e-01
2.547904709796484646e-01
4.587666419690706876e-01
6.219305326878140638e-01
6.213948270715383693e-01
4.136967916725035055e-01
8.512816669203332465e-02
-1.955314332762687346e-01
-2.951861889041411668e-01
-2.152030509503813915e-01
-8.842624790934308643e-02
-7.104040808780526239e-02
-2.132739990552211529e-01
-4.145222995085197093e-01
-5.025016806063941077e-01
-3.745909667353299888e-01
-8.663411798534215169e-02
1.845563286563240424e-01
2.765748506908997650e-01
1.667069298720649795e-01
-1.270389224154294672e-02
-8.025438882010435537e-02
5.173241177498238974e-02
3.090403470897639115e-01
5.121484200045379742e-01
5.100298866091703687e-01
2.872449836353125341e-01
-3.349978203014414291e-02
-2.877284412906235267e-01
-3.855092434987614780e-01
-3.601208949559710493e-01
-3.192711848095778349e-01
-3.447357834551693090e-01
-4.218542484167513984e-01
-4.522219374063005115e-01
-3.364474680483117153e-01
-6.063680865411408272e-02
2.811294387777705794e-01
5.467829785783058227e-01
6.447406595467042312e-01
5.970358977055880700e-01
5.178433060507304786e-01
5.201120203638565087e-01
6.181303247957542490e-01
7.010133297218024140e-01
6.033351490778439130e-01
2.276317651270490794e-01
-3.681396642567541511e-01
-9.837532207079705548e-01
-1.385219931492104761e+00
-1.435424422203065653e+00
-1.159960539455106909e+00
-7.111884785062427827e-01
-2.668045291433539523e-01
6.112027708681533333e-02
2.515910453474096697e-01
3.378985295889225249e-01
3.567506639450679362e-01
3.287973914211563820e-01
2.752902699142023568e-01
2.379428102081759255e-01
2.686918672120267582e-01
3.906208757536697718e-01
5.659038356688163018e-01
7.067902175157076972e-01
7.292059895664222413e-01
6.082382196604704250e-01
3.890031810693286851e-01
1.435810679663234724e-01
-8.670201254494980248e-02
-3.093709524247554299e-01
-5.409021360027895797e-01
-7.478351995509324723e-01
-8.337106100140021514e-01
-7.017611239698484660e-01
-3.526314493041271536e-01
6.824221904433264152e-02
3.320515738969009312e-01
2.709319158009890760e-01
-9.547385033064803572e-02
-5.515203311173935141e-01
-8.132818390136911102e-01
-7.081282685925869291e-01
-2.802821814416412982e-01
2.496637350109113251e-01
6.357164113854171239e-01
7.551503957190905947e-01
6.534184343438217413e-01
4.700544670480784615e-01
3.194376096653228636e-01
2.227504085627891317e-01
1.321663445907762247e-01
7.795991084735470755e-03
-1.293683677952170152e-01
-2.131900095385816929e-01
-1.948340807227587346e-01
-8.986680529784919769e-02
3.299280834205046975e-02
1.084168001460840691e-01
1.232597319905082006e-01
1.151681794409959436e-01
1.265334905929026421e-01
1.589561264815126107e-01
1.698580040025996218e-01
1.123237043456597750e-01
-1.972799641121722458e-02
-1.818920437886968888e-01
-3.126384705035835099e-01
-3.791177633695714810e-01
-3.956571559493554657e-01
-4.011363704088920512e-01
-4.178458927963493164e-01
-4.290963264565306190e-01
-3.943043923207060764e-01
-2.865322736679988269e-01
-1.186766240702452346e-01
6.389072995960215495e-02
2.163793968157803893e-01
3.241964292788941937e-01
4.050945346339366870e-01
4.846873470450113186e-01
5.678015894912076256e-01
6.289452489982521044e-01
6.275031037243382626e-01
5.344062278662338183e-01
3.517180715220155074e-01
1.151026296847712516e-01
-1.191472871468644557e-01
-2.949408495038743916e-01
-3.774456738664166422e-01
-3.675842782588149005e-01
-3.032023012613533908e-01
-2.428274020916347531e-01
-2.361248386845934688e-01
-2.951464295446954988e-01
-3.838371890765757133e-01
-4.348713500133846166e-01
-3.867157558004776785e-01
-2.205814434780161148e-01
2.419558977517699550e-02
2.658814077874253057e-01
4.191807507998251969e-01
4.363765861297904669e-01
3.288616087926152787e-01
1.580093571535491348e-01
1.119165111428330195e-03
-8.821768930018965282e-02
-1.031515533316463840e-01
-7.776242395481414160e-02
-5.756821936005690477e-02
-6.613354754679515168e-02
-8.987277544371996552e-02
-9.077341075162143058e-02
-3.722478900844933269e-02
7.000207893940746384e-02
1.959957330474905446e-01
2.948985789054580087e-01
3.391724563311840912e-01
3.316677198887925671e-01
2.924419879662388255e-01
2.344489891502239964e-01
1.516892466501895131e-01
3.117089772176875884e-02
-1.231425228464199939e-01
-2.788099456357272521e-01
-3.898789110345668996e-01
-4.279805943584914507e-01
-4.030975245641658100e-01
-3.550274642853291640e-01
-3.214497481693994185e-01
-3.087109812277025189e-01
-2.890837463366012217e-01
-2.256230828651913378e-01
-1.029547415762084167e-01
6.093962936324243129e-02
2.287541173065268940e-01
3.681339684508610488e-01
4.642589282778862292e-01
5.133312612081728510e-01
5.099561546285544811e-01
4.468874298598185524e-01
3.300548781360651551e-01
1.908889731554093416e-01
7.493085330712770387e-02
7.579650180806321580e-03
-3.451438299093292916e-02
-1.136292777779351892e-01
-2.792688200308939828e-01
-5.114859522523989011e-01
-7.098179008951958080e-01
-7.477098680631097949e-01
-5.591238008079193467e-01
-1.932984111486925616e-01
2.062411945316088846e-01
4.857926852533933637e-01
5.689093212196953964e-01
4.873136039741482461e-01
3.405437257730032918e-01
2.216071138412708807e-01
1.642323463632654745e-01
1.421055540236707271e-01
1.074029865386061933e-01
3.106058935250222142e-02
-8.361391901319875641e-02
-2.135963510899549500e-01
-3.342844695863091409e-01
-4.258921607757578665e-01
-4.696472818579363051e-01
-4.476909703605007618e-01
-3.541357177661101918e-01
-2.079266693519474518e-01
-5.053807182112297902e-02
7.677074386033450049e-02
1.606927154964044868e-01
2.242791154034504686e-01
3.053168997786735450e-01
4.194149212060329646e-01
5.373072108915775136e-01
5.965236668606125336e-01
5.415439107645551031e-01
3.647821830911357477e-01
1.194252314913862578e-01
-1.061802335988373813e-01
-2.381508947808966548e-01
-2.609729377794072214e-01
-2.280484485878734313e-01
-2.292182765552915891e-01
-3.308156624958654146e-01
-5.232021559398764010e-01
-7.114347611595969179e-01
-7.620166140097603957e-01
-5.829797240600118613e-01
-1.886284475377721925e-01
2.953195973241541372e-01
6.944381090181873661e-01
8.792091519573049796e-01
8.301750414691033697e-01
6.332635906396140157e-01
4.113740061245899637e-01
2.419231440403607769e-01
1.180919029243755747e-01
-2.237634605687749412e-02
-2.278811220086897626e-01
-4.796780319673007442e-01
-6.963416022081163614e-01
-7.904017629687392077e-01
-7.297696823008870126e-01
-5.544246595245769793e-01
-3.378499032807039115e-01
-1.294898404360693145e-01
7.123690611711491760e-02
2.891989173719567985e-01
5.236529629958716070e-01
7.239524613137324760e-01
8.170316430580262246e-01
7.644214198724955667e-01
5.972700043355310129e-01
3.951647466216759996e-01
2.241776608458179443e-01
8.732766855245185922e-02
-6.821421761079948798e-02
-2.919645917177078331e-01
-5.701808863767660052e-01
-8.182739966736036763e-01
-9.337546256301461067e-01
-8.657188785764972083e-01
-6.440453648860373637e-01
-3.487544907435068398e-01
-5.229655487505685540e-02
2.133517855419415632e-01
4.429618359682275797e-01
6.238542592660789587e-01
7.253593025490343571e-01
7.265684746677556483e-01
6.507146057413475404e-01
5.603756943315181260e-01
5.038606665879743485e-01
4.568171040028844998e-01
3.203240781413718707e-01
-5.412038344088765385e-03
-5.211638425145638243e-01
-1.085429397251070238e+00
-1.474598526746932814e+00
-1.513369100887453023e+00
-1.183862479642566079e+00
-6.345176322808869784e-01
-8.437105704761471703e-02
3.052478221805540737e-01
5.015215553077911892e-01
5.745906060456893449e-01
6.121034759676637904e-01
6.486020964189748161e-01
6.596293592152471241e-01
6.099917976578168588e-01
5.030277743786024658e-01
3.855698786315630566e-01
3.083476929739111250e-01
2.812328586645138628e-01
2.642219888491463831e-01
2.015918773603621594e-01
6.990994312512843756e-02
-9.929337442443397777e-02
-2.396200722484233270e-01
-2.968539450232386412e-01
-2.680679600005801966e-01
-2.048550652101354674e-01
-1.785142194125870496e-01
-2.312053434748973513e-01
-3.466623414675033543e-01
-4.609850009996654396e-01
-5.066214821968165749e-01
-4.591840809659996081e-01
-3.540855305783039420e-01
-2.610991471906881078e-01
-2.350591450819423667e-01
-2.776748957738789936e-01
-3.363897823402597909e-01
-3.389747708839062623e-01
-2.383032962852211500e-01
-3.782388557986279820e-02
2.150478942600793086e-01
4.578946923994544060e-01
6.431352058353714263e-01
7.519672221707007775e-01
7.898428693855892302e-01
7.727011904474155868e-01
7.153975521988661379e-01
6.277933389082919202e-01
5.165978561119274337e-01
3.881206565944702591e-01
2.492067798487403174e-01
1.069386781219796856e-01
-3.159355482773609780e-02
-1.599037492838156216e-01
-2.743749842320036825e-01
-3.771416995371353886e-01
-4.754310486048169970e-01
-5.740596426964443832e-01
-6.640644537755381327e-01
-7.171614587644172811e-01
-6.952850191960258108e-01
-5.744342598630381991e-01
-3.689960082074393299e-01
-1.376408505663709869e-01
3.900379440360757233e-02
9.994550166440063776e-02
4.012418016707486323e-02
-8.345151044969768839e-02
-1.831086208029847340e-01
-1.917127140307154642e-01
-1.005269988221168531e-01
4.222005340686021957e-02
1.707293787334010493e-01
2.492810627708935134e-01
2.917183565585634297e-01
3.388639670303427720e-01
4.149333490694210869e-01
5.019509039694717289e-01
5.552679905421817885e-01
5.461230013966134056e-01
4.916060422977245326e-01
4.423538051748368005e-01
4.361221246064411750e-01
4.574819189287807619e-01
4.409045419880743832e-01
3.182360110042943280e-01
7.357189087885729339e-02
-2.381888908183640297e-01
-5.231111565792423423e-01
-7.044401651050700153e-01
-7.610496753962894267e-01
-7.246556893798237198e-01
-6.470739103058777975e-01
-5.685564962194202820e-01
-5.083620760218773293e-01
-4.727465229330053420e-01
-4.606028688300548013e-01
-4.567723954079126458e-01
-4.247445359285715871e-01
-3.181833053258933397e-01
-1.130733944852821971e-01
1.639236072000783140e-01
4.407023032599233781e-01
6.420161129287931256e-01
7.366008966766416366e-01
7.478879224338750298e-01
7.181371343083882142e-01
6.603526693110747248e-01
5.467038636758034809e-01
3.486417976618731429e-01
9.135818277384022412e-02
-1.354370000526166629e-01
-2.330310325906925772e-01
-1.752029709466155771e-01
-4.291187313009384163e-02
2.830316424659615193e-02
-4.512088221796062282e-02
-2.196439771327355905e-01
-3.482241096311133877e-01
-2.922069683423113018e-01
-3.670069664567454648e-02
2.832002139280650477e-01
4.700987123331222262e-01
4.010972875336573651e-01
1.105958849573600022e-01
-2.403708869372126467e-01
-4.789679871615768469e-01
-5.292921130323253731e-01
-4.385176962846616400e-01
-3.155364854950766795e-01
-2.433909375007727860e-01
-2.349318965882119525e-01
-2.526624250758698897e-01
-2.577122636088443608e-01
-2.381209651541240924e-01
-1.987188881311405808e-01
-1.366027497469018692e-01
-3.654904134260780757e-02
1.064258074668754661e-01
2.637768182350660462e-01
3.806507946412764909e-01
4.156009222536333758e-01
3.800610074154435747e-01
3.389769282626485247e-01
3.646341064116562780e-01
4.768314969818185922e-01
6.178393440504565959e-01
6.855258489967892555e-01
6.024710267849724410e-01
3.700058931577422383e-01
6.733166435184956278e-02
-2.021250944276660744e-01
-3.757926539476243999e-01
-4.609917475391441255e-01
-5.104375234906481928e-01
-5.679344598732766203e-01
-6.285524302997482771e-01
-6.433750644512263861e-01
-5.628837724693440681e-01
-3.833948143784424722e-01
-1.594291029590174102e-01
2.846319125055588040e-02
1.265180266743566873e-01
1.409763515762825214e-01
1.258988676900177350e-01
1.349359623898586658e-01
1.756747653518322405e-01
2.045324497251025109e-01
1.678787202283865687e-01
5.579533050923993209e-02
-7.830083857702328787e-02
-1.524251287171631275e-01
-1.192646924861835711e-01
-5.282054922175760669e-03
1.093070910408772273e-01
1.555287545170713770e-01
1.321355597358899736e-01
1.052489308678994928e-01
1.496689418353406853e-01
2.799783279814658243e-01
4.297587847059866073e-01
4.985598565634923318e-01
4.302722686447353895e-01
2.595250410805818309e-01
8.723773657977326734e-02
2.934267827121347927e-03
1.434992561825773616e-02
3.988572572736850952e-02
-2.916606975583757588e-02
-2.432975297931231351e-01
-5.500360266558459443e-01
-8.221084754254275317e-01
-9.369109213872784947e-01
-8.503084239779881148e-01
-6.154045556722165244e-01
-3.385576235518579225e-01
-1.082329001468058105e-01
5.283045671907649066e-02
1.825378552433383206e-01
3.310177979485338651e-01
5.079961348130106469e-01
6.656586571550866527e-01
7.291597295584595351e-01
6.512970099370333221e-01
4.499189541201937814e-01
1.999152718256932415e-01
-1.350245587780976586e-02
-1.441623857630687233e-01
-2.006321698123685049e-01
-2.208838589319128409e-01
-2.319627436236895712e-01
-2.301228631440083161e-01
-1.953285940963943035e-01
-1.220495171852580690e-01
-3.484430675516341641e-02
2.681603211031772030e-02
4.079990471891897091e-02
2.231699364211434111e-02
1.326260189294414804e-02
4.890370251605188900e-02
1.285865888453038008e-01
2.134430618282190939e-01
2.526382938248978305e-01
2.183000583861627319e-01
1.237090844051175892e-01
1.244233111750413234e-02
-7.256385607841499275e-02
-1.170891402486624600e-01
-1.409293792512530952e-01
-1.779416489546584434e-01
-2.470622876623730091e-01
-3.363674644674676806e-01
-4.110172040727174680e-01
-4.369682283178631943e-01
-4.010487694958454474e-01
-3.129967009729809346e-01
-1.912075576897159235e-01
-4.713714819530959166e-02
1.172152987465781560e-01
2.972659935139446152e-01
4.716194674900264783e-01
6.009885763178902662e-01
6.451130144520007548e-01
5.870497838913931732e-01
4.464266274413585256e-01
2.701069036561188907e-01
1.055751051959865072e-01
-2.398316496720362401e-02
-1.249227636136259201e-01
-2.162306958523872447e-01
-3.055458287684245100e-01
-3.780532612784161528e-01
-4.063455741935776411e-01
-3.713306002806546768e-01
-2.759424610888133733e-01
-1.415327859301842850e-01
6.933252680521362343e-03
1.516695841214508178e-01
2.796446934793230810e-01
3.723417256383953489e-01
4.019994661993849805e-01
3.431124439619426258e-01
1.928246165664332934e-01
-1.706343678782135109e-02
-2.298037334966186451e-01
-3.916902056962064393e-01
-4.788837725809377277e-01
-5.025544367967658133e-01
-4.882738153926248770e-01
-4.470975243556772338e-01
-3.639448597414500775e-01
-2.150057930333658662e-01
-9.395738981177181870e-05
2.396914889268387250e-01
4.385433078441092203e-01
5.470674877139575232e-01
5.647120885638035048e-01
5.345732561030466234e-01
5.025376160710682827e-01
4.746090244583560658e-01
4.105531634075315628e-01
2.626080781123618646e-01
2.839606759205925979e-02
-2.284993606299455249e-01
-4.129349481497159302e-01
-4.644918562696469522e-01
-4.028827755059445348e-01
-3.129388535213604716e-01
-2.775858107351708570e-01
-3.113254442981955306e-01
-3.490315883878920555e-01
-3.008567603453189410e-01
-1.289630750403386872e-01
1.174691532169709896e-01
3.378293676932749845e-01
4.549468880129457493e-01
4.644569040723025011e-01
4.175374020364942540e-01
3.567283336604516464e-01
2.680633584910112610e-01
9.828403263900292730e-02
-1.753441865752226603e-01
-4.881457325149226589e-01
-7.044934943058458465e-01
-7.059601883121318089e-01
-4.837888398505518772e-01
-1.577779476065378217e-01
9.990354240415875997e-02
1.806936803046911288e-01
1.076383857769385444e-01
6.163924342039592275e-03
4.714839400515730139e-03
1.434392976208951342e-01
3.559810989510526769e-01
5.278516143009099881e-01
5.779521678300749699e-01
5.013144988590073625e-01
3.509238130105909459e-01
1.861872123709855664e-01
3.475540609158583871e-02
-1.065918978808135242e-01
-2.434087779421034159e-01
-3.595108231710816837e-01
-4.202669705353223595e-01
-3.995744540840734937e-01
-3.065163195456322986e-01
-1.881974005140497619e-01
-1.035870375143189276e-01
-8.483916007112199398e-02
-1.129462151834189909e-01
-1.271467965072268225e-01
-6.606271866257348857e-02
8.442198274283346793e-02
2.704183645837179850e-01
3.959173448615816993e-01
3.832030647340271545e-01
2.279817709959833794e-01
8.137712944089270373e-03
-1.645189535674783654e-01
-2.178798499748320072e-01
-1.652920372501232582e-01
-8.862532653572538499e-02
-7.086184920418708844e-02
-1.301447229662192617e-01
-2.071113944072813240e-01
-2.154870907722316598e-01
-1.147719180721828852e-01
5.472811652803274973e-02
2.036841026466613691e-01
2.658413589737967930e-01
2.496025730218632832e-01
2.251239927864508994e-01
2.577269238838750809e-01
3.446894757068605930e-01
4.102402837618195353e-01
3.644179853713694905e-01
1.775729145059093961e-01
-9.045135812144061704e-02
-3.293106037092448646e-01
-4.529372955922399413e-01
-4.516407889149194332e-01
-3.851585407124793470e-01
-3.285821092175537639e-01
-3.167699060608225037e-01
-3.275743441298099023e-01
-3.093950494642163096e-01
-2.251488742863660963e-01
-7.773581381108449206e-02
9.766412974656873969e-02
2.615161546268713333e-01
3.923763006855108815e-01
4.876751686903629257e-01
5.476145154564878714e-01
5.609068523350129176e-01
5.072415714895911476e-01
3.745851316359729566e-01
1.752626227747537679e-01
-5.424764077759308689e-02
-2.701214420330447230e-01
-4.402562427422265778e-01
-5.503251287578014850e-01
-5.950274775832440355e-01
-5.675603526645162100e-01
-4.617898737417291954e-01
-2.875320187595740151e-01
-8.288937463632836677e-02
9.448562574979496587e-02
1.984650834104757233e-01
2.266434793466820807e-01
2.251600067716432729e-01
2.554813217273456116e-01
3.438067693076115594e-01
4.527043345641220129e-01
5.021243237782064828e-01
4.289835918272589810e-01
2.404822436585936640e-01
1.641314771084612101e-02
-1.458667011388252721e-01
-2.024761659908375921e-01
-1.923238748569097989e-01
-1.988721338514698178e-01
-2.747671715365609391e-01
-3.928762300515236672e-01
-4.668005974145874593e-01
-4.248228058084114744e-01
-2.736275571744549162e-01
-9.479304617383589593e-02
2.518697105030132111e-02
7.063382516269436917e-02
1.088880550724097285e-01
2.232373958805775604e-01
4.222305581474825598e-01
6.074222870483452219e-01
6.363012041961639831e-01
4.356603924628524860e-01
7.266700766422873325e-02
-2.795952135909268721e-01
-4.600670551549297382e-01
-4.293280512046063757e-01
-2.848278640812901275e-01
-1.730327728749975480e-01
-1.732864635261478492e-01
-2.473502089394846726e-01
-2.890088793564805636e-01
-2.231219816489625751e-01
-6.637226518417850551e-02
9.808568482091006846e-02
2.014648097061549903e-01
2.483245566253279302e-01
3.005640103347991809e-01
4.040120159423150614e-01
5.281087605630647719e-01
5.777266090532062748e-01
4.714341518506577899e-01
2.198573307380642938e-01
-6.573474331857651065e-02
-2.475773835834398640e-01
-2.620754394382979746e-01
-1.673037021208832187e-01
-9.900355425533671760e-02
-1.684110233395004763e-01
-3.792861193562191424e-01
-6.244300575167616163e-01
-7.602667551290245296e-01
-7.017503048979438773e-01
-4.706160063280068750e-01
-1.697861238991122124e-01
8.914126808325134599e-02
2.505389422418962675e-01
3.308489277765906400e-01
3.849533590581038500e-01
4.551109972310703466e-01
5.404236307432505049e-01
6.036329043095629565e-01
6.030492741113195887e-01
5.219610501368501243e-01
3.749532924159678648e-01
1.918984073960198489e-01
-2.231084688732565269e-03
-1.937796440733577930e-01
-3.710433091996143684e-01
-5.132144510222593770e-01
-5.927737138393469607e-01
-5.918047528300646176e-01
-5.170668778417828459e-01
-3.979050009292092183e-01
-2.664983279068292576e-01
-1.368316580211054179e-01
-8.347191989890312414e-04
1.546792578994943823e-01
3.246813538369652807e-01
4.760293298966577491e-01
5.599974763746369266e-01
5.393153742902739856e-01
4.120833285615375097e-01
2.176900153682176098e-01
2.077261806714547632e-02
-1.191497693809535630e-01
-1.773275230494365251e-01
-1.764665872546382630e-01
-1.725796758768270156e-01
-2.179795473376392456e-01
-3.213786419508098402e-01
-4.322752696911095205e-01
-4.658973350213071463e-01
-3.583975254943463362e-01
-1.168927940621607431e-01
1.735489212640988765e-01
3.966792910310160680e-01
4.763118597325415315e-01
4.210072558860854519e-01
3.081533532548526022e-01
2.193000419814742918e-01
1.777429790210601768e-01
1.383464764006881731e-01
3.697828210557241313e-02
-1.428927398971645557e-01
-3.435101291947512681e-01
-4.692364489676938977e-01
-4.556002874801898805e-01
-3.136640406028351480e-01
-1.153793608985664854e-01
6.276435554782622273e-02
1.866534409449717158e-01
2.644084843269528529e-01
3.083775385902082222e-01
3.040871678118135524e-01
2.218977613709519903e-01
6.197691289203535736e-02
-1.148022627526908979e-01
-2.104709090369244195e-01
-1.598205143282024066e-01
9.157479406816798617e-03
1.810793751441349131e-01
2.311932700511010186e-01
1.195036847044515238e-01
-7.470591368125072129e-02
-2.105176889285329811e-01
-1.943159926181204367e-01
-5.516060450612007837e-02
7.501686051851132186e-02
6.403405272422649230e-02
-1.136366854026139572e-01
-3.492393276914023681e-01
-4.741799258837161024e-01
-3.807916837097624074e-01
-9.910720782069626367e-02
2.252555782118377814e-01
4.312800931946282335e-01
4.440477879658962235e-01
3.063150324773571409e-01
1.273519197315886864e-01
-1.712575815244074540e-03
-5.931864918787485563e-02
-8.096550610341005094e-02
-1.069277208279960367e-01
-1.415819006256837376e-01
-1.562978217893927768e-01
-1.241192174382652058e-01
-4.764494788647183343e-02
4.606519900548818047e-02
1.336405544688868963e-01
2.137608316006714970e-01
2.953002041145721956e-01
3.689274718469293668e-01
3.960778301677948532e-01
3.336903668105662968e-01
1.759507937086300655e-01
-2.743038292790100918e-02
-1.994591626326219225e-01
-2.911349433011635179e-01
-3.163715172451981306e-01
-3.339620270466165386e-01
-3.903393705519222490e-01
-4.732834259272927779e-01
-5.189430659495094522e-01
-4.676655131608248306e-01
-3.193773185876964682e-01
-1.376515583148508193e-01
3.476106674233675475e-03
8.333972183705729009e-02
1.501594706842753202e-01
2.706548769546894828e-01
4.564032964509484591e-01
6.345232984507258589e-01
6.948577048119590760e-01
5.786911332855344536e-01
3.341470998986574292e-01
8.797265535799123071e-02
-4.670366469797473941e-02
-5.196180440437403458e-02
-9.361714178889701810e-03
-2.493295886041682619e-02
-1.387268901396686571e-01
-2.937859960709829910e-01
-3.875889326128396095e-01
-3.597689543168481885e-01
-2.415565174311584684e-01
-1.269076224118876883e-01
-9.165519787058176715e-02
-1.294404394738878361e-01
-1.577856637765270575e-01
-8.895663074477111465e-02
9.276826333411203329e-02
3.103962972795404895e-01
4.467385693929918355e-01
4.280756166280761388e-01
2.732399970665839728e-01
7.185066263589412472e-02
-8.716932321722481447e-02
-1.773769796348147743e-01
-2.385566464125430941e-01
-3.238656407418472605e-01
-4.385079844712260755e-01
-5.236205825811532932e-01
-4.999495680092429506e-01
-3.351163275428918897e-01
-7.779269029902019517e-02
1.712644259495074706e-01
3.294030568453932273e-01
3.870119037532715467e-01
4.026010676715967573e-01
4.428546100248619277e-01
5.187979906214305048e-01
5.729817724852770411e-01
5.292955630214635221e-01
3.627527599284660065e-01
1.283441961240523732e-01
-7.723572261522021476e-02
-1.889975194351287691e-01
-2.195345985119076249e-01
-2.388211645032357888e-01
-3.069882646277989902e-01
-4.192860194340132240e-01
-5.102606670115623633e-01
-5.115744061321317870e-01
-4.117623033298952739e-01
-2.661462152497382494e-01
-1.494763044506881022e-01
-9.323074190770154479e-02
-6.194099895531018918e-02
1.095619419967419628e-02
1.581117925997270190e-01
3.398219958381304973e-01
4.666699132341285416e-01
4.671063857008957432e-01
3.451943853364591863e-01
1.798200543794737372e-01
6.410904698719777084e-02
3.417627105200614357e-02
4.669681833128040693e-02
2.430196873755796627e-02
-7.052001711795188865e-02
-1.979530797681925136e-01
-2.736174080602638004e-01
-2.431947115811462778e-01
-1.321426176218756521e-01
-2.462315206785403721e-02
1.104754875758405877e-02
-1.627883201106439942e-02
-2.944138737010613960e-02
4.299776013137282527e-02
1.922776173860816229e-01
3.228308346411213892e-01
3.244361882894224447e-01
1.650102758965115712e-01
-7.424301406132688408e-02
-2.528009613776104891e-01
-2.717675768876336440e-01
-1.420993252411962282e-01
3.054757829828105842e-02
1.266145971337837572e-01
9.261370142431019081e-02
-3.711147642391637858e-02
-1.812578481944725206e-01
-2.718698347594398768e-01
-2.866601034610772869e-01
-2.402372012187326822e-01
-1.567674187065545011e-01
-5.265804566566086031e-02
6.292893400660445891e-02
1.819975426919918093e-01
2.972971280972623309e-01
4.035498040876431269e-01
4.898052612339209300e-01
5.252561314984798280e-01
4.580606446882057314e-01
2.440373745175058728e-01
-1.053869778943588020e-01
-4.948369250755586535e-01
-7.726260023518415343e-01
-8.111723392550919121e-01
-5.900452733742340694e-01
-2.191974363068693865e-01
1.216165038185924863e-01
2.893391665010693892e-01
2.566039287603570918e-01
1.106689072223507597e-01
-1.939611794371436798e-02
-4.775496922237251751e-02
3.134865519572985204e-02
1.689491211367490919e-01
3.118844728483858297e-01
4.295935534087946261e-01
5.017187884940850218e-01
4.944419946222979867e-01
3.643372899631738271e-01
9.723364052802091484e-02
-2.522269023827604650e-01
-5.648638938466479242e-01
-7.159290518617766885e-01
-6.512953037026735226e-01
-4.238611564312275704e-01
-1.605910930278955095e-01
1.759054082600315649e-02
6.679742476301284149e-02
3.500490910461447752e-02
1.593864402253886148e-02
7.884304977028050443e-02
2.227066189650188099e-01
3.814316761518085075e-01
4.701372957710679978e-01
4.381401629122850250e-01
2.951297853164799312e-01
9.883346926120342713e-02
-8.218677542055258245e-02
-2.045928921557525482e-01
-2.650465117122036141e-01
-2.901953405041286516e-01
-3.129899733334540191e-01
-3.508508046128725466e-01
-3.960943147205435166e-01
-4.206739668817284228e-01
-3.910144023193891649e-01
-2.857438166149844916e-01
-1.084922142650902033e-01
1.104603995296907226e-01
3.252136494017592305e-01
4.926783900440561137e-01
5.882533605829742829e-01
6.100613079308071507e-01
5.711094861489680596e-01
4.876982036298705969e-01
3.745344473743737468e-01
2.494154554221965636e-01
1.389302837854862749e-01
7.248778054586961506e-02
6.163908212583819879e-02
7.902043772844156988e-02
6.004055004686387198e-02
-6.192731286164229743e-02
-3.042922697471831528e-01
-6.063266906251951749e-01
-8.523479022953045492e-01
-9.394167519523818344e-01
-8.440709186411881060e-01
-6.376722919493631458e-01
-4.362301012328124727e-01
-3.207062236552649104e-01
-2.866891905871544188e-01
-2.587175002132777735e-01
-1.541024073089834745e-01
5.487671938675792171e-02
3.255420860800414262e-01
5.813516196621089094e-01
7.658904424482736450e-01
8.710198861284689231e-01
9.216021448952089745e-01
9.361279871383436646e-01
9.008838254231000819e-01
7.816693271127006515e-01
5.635345017725003069e-01
2.829655094685658567e-01
2.023612653275019824e-02
-1.488029977382999414e-01
-2.069125007811605799e-01
-2.116250095248652929e-01
-2.561375389663116398e-01
-4.010199318769220866e-01
-6.275636425383939176e-01
-8.483171420454711509e-01
-9.664983606533616989e-01
-9.390614966158479238e-01
-7.977972252836379452e-01
-6.176809808646952504e-01
-4.617971835730498853e-01
-3.454889939714340663e-01
-2.414174211761889177e-01
-1.128998344247315322e-01
5.568266840151048225e-02
2.531205232968407048e-01
4.568174406898251050e-01
6.488559491752192709e-01
8.165428281642025388e-01
9.404618357755704094e-01
9.876757727216094462e-01
9.239292823786449116e-01
7.400186779508370893e-01
4.711042191500310894e-01
1.891521569166388361e-01
-3.184590724003738549e-02
-1.561168253009327656e-01
-2.035123201044398700e-01
-2.308491209434465619e-01
-2.896606154808803457e-01
-3.899467903819111014e-01
-4.952919632682954432e-01
-5.521650701141643802e-01
-5.314778438916584191e-01
-4.512860390183012216e-01
-3.628908687183241555e-01
-3.097154797639480872e-01
-2.899365838611923096e-01
-2.532988284056714168e-01
-1.384027738279409170e-01
7.440157422165605272e-02
3.339430474773851798e-01
5.377042171036414686e-01
5.900428586423105415e-01
4.605876488029473914e-01
2.032982933304469386e-01
-7.549530142525101573e-02
-2.763298718979394497e-01
-3.528395705171774588e-01
-3.182248368211972878e-01
-2.165855574758783486e-01
-8.780928450782959915e-02
4.658179013796096002e-02
1.727298351324541292e-01
2.692678241675273698e-01
3.111002158860560751e-01
2.939400273616180614e-01
2.547480168874926010e-01
2.584581930599963440e-01
3.479569819443283363e-01
4.921144470909659674e-01
5.804846513968651145e-01
4.842314716679760878e-01
1.493637690051847766e-01
-3.453684854266418913e-01
-8.152317182597910161e-01
-1.069956654008795027e+00
-1.021578221628542726e+00
-7.275488375040175537e-01
-3.448767772336143178e-01
-3.350208604391843870e-02
1.239799419649795786e-01
1.412325428493519108e-01
8.982618893772958968e-02
4.313989193813587419e-02
4.120291468630153664e-02
8.805094163164139953e-02
1.674309124641016333e-01
2.573201852138424783e-01
3.356596601942642977e-01
3.822214970293970060e-01
3.827425503579029442e-01
3.341890989300551063e-01
2.455236917520617901e-01
1.324868000720517414e-01
1.196246507210885213e-02
-9.836683811350860340e-02
-1.776584712754631923e-01
-2.062118175603320225e-01
-1.805388864627938128e-01
-1.283762578415017785e-01
-1.040729969807037414e-01
-1.559653498037003039e-01
-2.833002321281457014e-01
-4.178988643138088488e-01
-4.546413064833969564e-01
-3.187181695347656718e-01
-2.458228102578713381e-02
3.190870244792964328e-01
5.681575407681608292e-01
6.288426831150648599e-01
5.123422854911674484e-01
3.204460426926765693e-01
1.719049727268507077e-01
1.205449624337535525e-01
1.220672877531090300e-01
7.309665855567215598e-02
-1.042634387673480600e-01
-3.921719437666519870e-01
-6.731497110296493780e-01
-7.995147290047677213e-01
-6.907719773663431040e-01
-3.913312210278461767e-01
-4.659589137766664835e-02
1.876987407465663393e-01
2.408863063306448948e-01
1.628667850441236076e-01
7.867670304721086083e-02
9.800960147794127164e-02
2.437918698471883139e-01
4.449139104540930645e-01
5.897301846231640665e-01
5.969276268161901600e-01
4.563236234492252796e-01
2.213471647657623276e-01
-2.970537452880711582e-02
-2.320098756458350286e-01
-3.522806517663267800e-01
-3.880415026370956366e-01
-3.599153948986371088e-01
-3.029183305692009220e-01
-2.533771682631168476e-01
-2.297480986041147144e-01
-2.176246063321176649e-01
-1.756536387162970225e-01
-6.676098638532498852e-02
1.050389639797454366e-01
2.842065213554473835e-01
3.948471329008531039e-01
3.931265892500546144e-01
2.979848036647541609e-01
1.719656458624495288e-01
6.700529406735311611e-02
-1.656480697790538303e-02
-1.186053485253547035e-01
-2.632502448798543782e-01
-4.105545095499569808e-01
-4.670699337935231288e-01
-3.572532845607520047e-01
-1.001631772686534805e-01
1.779452966502215461e-01
3.179400272123701354e-01
2.401336558480907657e-01
8.660414585430237233e-03
-2.064066597474024933e-01
-2.456017816555765287e-01
-6.970215769176096865e-02
2.183023846691665715e-01
4.515235351244988315e-01
5.143882555738130691e-01
4.084417060459142323e-01
2.280383890197569541e-01
7.793749591870106908e-02
3.772747836111034481e-03
-1.628568997367844939e-02
-2.829463928953540250e-02
-5.723305848258512796e-02
-9.935006472745581962e-02
-1.481559199212047484e-01
-2.168371879397071322e-01
-3.275015114469454480e-01
-4.756087977126842170e-01
-6.074811666437257562e-01
-6.406430538816066944e-01
-5.180971574325097251e-01
-2.543771571563430700e-01
6.569793796028705612e-02
3.371889051246854119e-01
4.964088352194487852e-01
5.481344850555220916e-01
5.426372741762722773e-01
5.265725471396152102e-01
5.088352939506628481e-01
4.647239033560695010e-01
3.675845890201947519e-01
2.168341623161598175e-01
3.986641159740239582e-02
-1.287218501179724361e-01
-2.687385498334791678e-01
-3.787143747020866313e-01
-4.635574612072807521e-01
-5.206806033102451270e-01
-5.378130598972369336e-01
-5.021850537311975948e-01
-4.103037396868172149e-01
-2.694302046463392664e-01
-9.218605034884133631e-02
1.071044359984731353e-01
3.089275791052576436e-01
4.824325072742271514e-01
5.871888951837140880e-01
5.884923869196726498e-01
4.790476992235306875e-01
2.905223085645498582e-01
8.250792877730775410e-02
-8.722111670400370387e-02
-1.914338252789381800e-01
-2.405445802735839411e-01
-2.641058823728609228e-01
-2.833965770819141250e-01
-2.980252429265229930e-01
-2.950382130211357534e-01
-2.673331114428628696e-01
-2.203562564504563392e-01
-1.601819398329332178e-01
-7.804557427281552662e-02
4.695059238246690470e-02
2.227070848337356912e-01
4.179447490991962111e-01
5.638328619770034411e-01
5.910875086965979852e-01
4.775743901062172725e-01
2.677454696648428611e-01
4.538538576238143607e-02
-1.206185509808836986e-01
-2.148658957082021370e-01
-2.692162249152485476e-01
-3.212191890856450627e-01
-3.763763168726156905e-01
-4.074816599715989085e-01
-3.881530189547424126e-01
-3.247736663210044616e-01
-2.526675414388465102e-01
-1.979620004307298120e-01
-1.429947605983017955e-01
-3.431749885754864504e-02
1.658510512767473744e-01
4.276671518506767189e-01
6.516275526874855117e-01
7.275204162679934639e-01
6.119554594793270574e-01
3.622415603144758522e-01
9.757967396602224008e-02
-8.262355188098474690e-02
-1.593365070225168378e-01
-1.886275475381686828e-01
-2.408522143136894167e-01
-3.380620169217917192e-01
-4.397154415990573439e-01
-4.821637386229062350e-01
-4.322391686364631669e-01
-3.078785725121955807e-01
-1.526426584330443648e-01
6.202464877290592149e-03
1.734040572870987340e-01
3.602257098714812256e-01
5.446812897080453020e-01
6.612718490929924142e-01
6.387548498687876108e-01
4.588585535445336427e-01
1.845557805184194211e-01
-7.233832324927982893e-02
-2.241700111203837331e-01
-2.649194467287763755e-01
-2.663706327576149113e-01
-3.160006895775498981e-01
-4.456302589366916145e-01
-6.050951990133623948e-01
-6.974074646730817895e-01
-6.446337344779369261e-01
-4.353759569721102896e-01
-1.258086751202623366e-01
1.961450223746083465e-01
4.522639892072815027e-01
5.973558404481469353e-01
6.230246208766063720e-01
5.534660717328876434e-01
4.390740620559718810e-01
3.415699785304368019e-01
3.051166671483638848e-01
3.248801875222103730e-01
3.396949403263554990e-01
2.670697353090180082e-01
6.596874841759292618e-02
-2.179374236369667206e-01
-4.667133701390045464e-01
-5.639577842628733517e-01
-4.772916567021165957e-01
-2.849582491413089613e-01
-1.214833122924542652e-01
-8.121726735054556057e-02
-1.538590265995181949e-01
-2.416131368254675060e-01
-2.424608283057254621e-01
-1.319260034312620677e-01
2.069065379887835565e-02
1.108560077794257248e-01
8.188526833002474081e-02
-3.376761067791381188e-02
-1.438860120383881891e-01
-1.680847845861438983e-01
-9.305291951509749027e-02
2.849989449707046596e-02
1.270290514944338589e-01
1.689435110664342099e-01
1.718599242370227875e-01
1.772873725812052492e-01
2.109969695955852542e-01
2.661371893877041983e-01
3.179827034159048438e-01
3.491187146023280730e-01
3.581158571348177500e-01
3.463527810585698141e-01
3.027248227671544001e-01
2.082418189213736393e-01
5.971911669152504820e-02
-1.120811216528239951e-01
-2.534971698981195454e-01
-3.248411732886443692e-01
-3.324190552801870591e-01
-3.250337014925928081e-01
-3.539178542008957207e-01
-4.280734016675625253e-01
-5.030389374509142142e-01
-5.137828721906819718e-01
-4.252856080658747873e-01
-2.596570483778252170e-01
-7.870569333883548069e-02
6.204461543459088846e-02
1.495556025690631952e-01
2.118758036287054225e-01
2.842394706435403262e-01
3.740858925612256525e-01
4.542568745693699728e-01
4.867895510759882027e-01
4.532814280191559408e-01
3.649685367876766007e-01
2.470573811149355259e-01
1.160696319309286462e-01
-2.666378563357496567e-02
-1.804151055101149148e-01
-3.264142017432734577e-01
-4.264930048353922643e-01
-4.434220745000555519e-01
-3.660184101912780097e-01
-2.168692741184131134e-01
-3.605833682394340989e-02
1.441461214124800105e-01
3.109358741317732044e-01
4.592552246964085594e-01
5.692455833790459607e-01
5.971426237017255501e-01
4.944433476067569000e-01
2.461199657145145825e-01
-1.007910756133801877e-01
-4.449777462012869389e-01
-6.774822077676111443e-01
-7.398250905595387117e-01
-6.540630862563364678e-01
-5.022215381801098388e-01
-3.682715802751881373e-01
-2.838135592345668590e-01
-2.164569562090085109e-01
-1.077949268558743012e-01
6.992234879339198628e-02
2.831902648025159674e-01
4.563963621367104762e-01
5.250953377146796441e-01
4.815590438437351017e-01
3.779153889230670860e-01
2.860822804509037809e-01
2.466584609142620510e-01
2.451806403078901631e-01
2.304237750006368768e-01
1.565308605967097311e-01
1.544926448842331990e-02
-1.612327123661608796e-01
-3.250213364181253062e-01
-4.348252213285171419e-01
-4.657968014993804085e-01
-4.054450513279663770e-01
-2.522082803223493763e-01
-2.471005365838802037e-02
2.278515425838925634e-01
4.321293647625398804e-01
5.199162623076598599e-01
4.641704588723589708e-01
2.948531190805793734e-01
8.033020639560833898e-02
-1.134228771614911868e-01
-2.560971867043402295e-01
-3.557724522254431254e-01
-4.330696353987705249e-01
-4.910240675815907840e-01
-5.066564815726903870e-01
-4.508614163482135284e-01
-3.190555495225683158e-01
-1.453644855549013348e-01
1.434140744747228191e-02
1.199439327472099082e-01
1.760413656727592147e-01
2.271968178946723593e-01
3.194983464259979478e-01
4.565339630026550855e-01
5.857864089985980183e-01
6.302356092136196519e-01
5.442414048071182453e-01
3.510956104681861589e-01
1.313317619640027578e-01
-3.141975824433937414e-02
-1.063529201098311616e-01
-1.304767242656441062e-01
-1.721698788239935107e-01
-2.732125353352640174e-01
-4.149400118722056385e-01
-5.329618146111017030e-01
-5.652366192403721623e-01
-4.934199747033533034e-01
-3.469724303564618584e-01
-1.732821459524416241e-01
-4.535125401552875246e-03
1.502021811872518153e-01
2.869544913880116566e-01
3.878597272477951052e-01
4.252980936147160440e-01
3.871570346092516601e-01
2.965351908195573150e-01
2.013847342373964178e-01
1.380907567760320531e-01
1.005922211382623971e-01
4.549763693850042423e-02
-6.735139900736930585e-02
-2.324502204169657804e-01
-3.920141411866245873e-01
-4.730973544986312174e-01
-4.388299499950181759e-01
-3.120893396038020295e-01
-1.537043029971315589e-01
-1.561071375929168337e-02
9.111811169974412539e-02
1.886757348234073817e-01
2.960561432010901939e-01
3.987196441052268669e-01
4.522721490820642565e-01
4.170009338620801476e-01
2.929465379585572959e-01
1.252257266140180403e-01
-2.462524205164015600e-02
-1.171796182131417952e-01
-1.533487760366528674e-01
-1.619368145285540184e-01
-1.722606420706159769e-01
-1.963403370248348878e-01
-2.308755132040078706e-01
-2.683269745410824525e-01
-3.002846548772067914e-01
-3.098368767548080327e-01
-2.669682200057064136e-01
-1.421192657572420415e-01
6.527996521817019948e-02
3.066322935807659356e-01
4.960974325764019310e-01
5.549992741560693110e-01
4.606237486126130709e-01
2.630309272840862245e-01
5.465934901645186361e-02
-8.751826640153252679e-02
-1.464845091410965638e-01
-1.653248982100590792e-01
-2.050652820560785461e-01
-2.927908389369539011e-01
-3.978961847282787012e-01
-4.518897906734720138e-01
-3.956035429845913831e-01
-2.204073195177221334e-01
2.274603243397244068e-02
2.496282375238239037e-01
3.864837507826595075e-01
4.061175522722645370e-01
3.380428285920451525e-01
2.483348497722709658e-01
1.995169216008373658e-01
2.120025564237827953e-01
2.510873952919301377e-01
2.516354751937260326e-01
1.681118249098620399e-01
1.521587276517771814e-02
-1.355051412884496209e-01
-2.077848423633932295e-01
-1.852396217726636762e-01
-1.344937697456976555e-01
-1.593867800553863678e-01
-3.140426020003023733e-01
-5.423425212338518486e-01
-6.986831039198100335e-01
-6.442344201732290720e-01
-3.507357676094951526e-01
6.784198215869247095e-02
4.234967916854380787e-01
5.737004036940590579e-01
5.042755888235785910e-01
3.177956485047158663e-01
1.447661949242243784e-01
5.296582536918151285e-02
2.401013451347970562e-02
3.421843543653199649e-03
-3.227455620521504920e-02
-5.566685849902197614e-02
-2.860379767412984942e-02
4.513518103890327982e-02
1.136332312836685066e-01
1.278324517440221630e-01
9.947441173526708202e-02
1.025450567422119819e-01
2.053748470083550104e-01
3.894082456144953297e-01
5.322990752260310376e-01
4.833017534299364204e-01
1.790040377297331120e-01
-2.925199993600912096e-01
-7.345180175650664056e-01
-9.631494864794506450e-01
-9.184792213004518979e-01
-6.860103371549400864e-01
-4.208740207556961876e-01
-2.387141446506813036e-01
-1.540163946259266170e-01
-1.006283516071187489e-01
-3.469402322553771789e-03
1.612875400013121241e-01
3.582643296568838176e-01
5.287017876596564747e-01
6.302867524447286485e-01
6.503917450913996312e-01
5.952729419141872258e-01
4.791240663710674696e-01
3.273979752867129389e-01
1.831603022553389692e-01
9.464464368013200679e-02
8.103208568195960360e-02
1.034331823440194642e-01
7.575052565123903403e-02
-7.854770466811455965e-02
-3.606322685158562802e-01
-6.755558309567434305e-01
-8.814532362650620012e-01
-8.786164721235856234e-01
-6.734601818731906775e-01
-3.691449457555573965e-01
-9.132613613591761270e-02
9.226806063656645129e-02
1.977415072469574930e-01
2.830760672861556415e-01
3.809030960670448662e-01
4.657403378539533012e-01
4.808763421494601786e-01
3.960118614614761001e-01
2.413554587281118713e-01
8.817863680996576581e-02
-4.382689348980506328e-03
-2.758831602813278938e-02
-1.505370886197167357e-02
-2.114911744306502417e-03
4.655130657261127847e-03
1.896970308739144573e-02
4.036589438426366888e-02
3.458947385621034820e-02
-4.408044316874037971e-02
-2.038634075323372818e-01
-3.854345643785365705e-01
-4.849237744623318136e-01
-4.199997946028879992e-01
-1.910716006852533899e-01
1.095324499888211678e-01
3.491290021261748699e-01
4.315465515124866647e-01
3.477446735200190320e-01
1.697682535120019209e-01
-2.738268208659716541e-03
-1.047125608508286954e-01
-1.359376691457063746e-01
-1.424856329007775091e-01
-1.654218083406400197e-01
-1.953446646638727913e-01
-1.694790493705234380e-01
-2.042422834698015555e-02
2.533652208586389953e-01
5.496870245059723992e-01
6.986783675813761363e-01
5.644431938215409561e-01
1.485452896384383825e-01
-3.839961385495940238e-01
-7.895094512721031466e-01
-8.931289938721689303e-01
-6.962549675803970661e-01
-3.633292815351408245e-01
-9.618059158351451032e-02
8.207359261466228018e-03
7.704547071651801637e-03
3.980104732801442724e-02
1.909162458548510077e-01
4.228103357724831146e-01
6.147708694991629308e-01
6.770719478173505834e-01
6.295371002760044021e-01
5.730169476225970282e-01
5.804166384052269478e-01
6.089953049816926312e-01
5.194204531962236526e-01
1.930948582615659714e-01
-3.496271453544608221e-01
-9.329586222456640598e-01
-1.330098778813197269e+00
-1.407901754184384124e+00
-1.200297127592496071e+00
-8.607773618390242021e-01
-5.423613869534715803e-01
-3.038591338052588631e-01
-1.067009949759407661e-01
1.147544366991053999e-01
3.808501284393487341e-01
6.496340828844654469e-01
8.541430962657505788e-01
9.488293136862222532e-01
9.261546875251325250e-01
8.036460914957712642e-01
6.087518655134553924e-01
3.790444570679144531e-01
1.668462334448380102e-01
2.666583564087995906e-02
-1.600257184134376565e-02
1.128544681172502506e-02
