1.053938789691531497e+02
1.047987980523183609e+02
1.042899094754775291e+02
1.038444691318838267e+02
1.038854821689289878e+02
1.043385533401251593e+02
1.042767437815272160e+02
1.044057404447028148e+02
1.042907971559049685e+02
1.044503237875953374e+02
1.045417588615558060e+02
1.044761718919387761e+02
1.044117316665706454e+02
1.044203906374242763e+02
1.047465295406083641e+02
1.048356734269370776e+02
1.045997111496244969e+02
1.049601362862010205e+02
1.045302035102832008e+02
1.043452467260022445e+02
1.044274679295599810e+02
1.043227466369424832e+02
1.046207839978112446e+02
1.045566509843876446e+02
1.038245913743430862e+02
1.044033744795851248e+02
1.043238038399394441e+02
1.042263984369346588e+02
1.041629310220087063e+02
1.043792271934921558e+02
1.045544817378433606e+02
1.043664125443991963e+02
1.045945580210985781e+02
1.042591915498679640e+02
1.038259330433903216e+02
1.039248867201115303e+02
1.036289010672050779e+02
1.037569985736308951e+02
1.035821710564232632e+02
1.036358932107598747e+02
1.037309956823236945e+02
1.039961393959116123e+02
1.034542021322952792e+02
1.038639089786558429e+02
1.040167941642128966e+02
1.042310683585755271e+02
1.044120514021427226e+02
1.042583043688679680e+02
1.041816211340956073e+02
1.044394475348960185e+02
1.046968244719592178e+02
1.047275467060699583e+02
1.044487743557510981e+02
1.040914588719926286e+02
1.041406211034341140e+02
1.041973377166590780e+02
1.039456210980803945e+02
1.041118529424627184e+02
1.039637181892811100e+02
1.039297150176112723e+02
1.044029745974641372e+02
1.044251295412629190e+02
1.045644888435175801e+02
1.046935950322230156e+02
1.046344727719513799e+02
1.049309174592539762e+02
1.049782434460749272e+02
1.049940913655348993e+02
1.048567554633912948e+02
1.049391803706603952e+02
1.051641549040897559e+02
1.048349115933438327e+02
1.049613892319988366e+02
1.046279259464262310e+02
1.043393226567134064e+02
1.046921112165219370e+02
1.043769081886578363e+02
1.043442981816059074e+02
1.042212475203879194e+02
1.040619374790308314e+02
1.045717649812049359e+02
1.048900804289544197e+02
1.049628609726957507e+02
1.049020549037806234e+02
1.050904844618955138e+02
1.052930959111706954e+02
1.053542929403043757e+02
1.054535687770224115e+02
1.055803069575093929e+02
1.053330917419223880e+02
1.057236767341229893e+02
1.053216451091350052e+02
1.054682336140821235e+02
1.048290367923024604e+02
1.050097391253712260e+02
1.052855398392184725e+02
1.053193224592220787e+02
1.052167460421491114e+02
1.052258955180272295e+02
1.050894133337199037e+02
1.056047713025307644e+02
1.055760791002919916e+02
1.057956930192224263e+02
1.054888336399172317e+02
1.057216873720923473e+02
1.059959574375929492e+02
1.059245632571536078e+02
1.058513431891394418e+02
1.057920220481578184e+02
1.055769164339790933e+02
1.056538273240410035e+02
1.057851690765597112e+02
1.056533366009774113e+02
1.054355335676778225e+02
1.053694275783492174e+02
1.055554656572369794e+02
1.054091384266922233e+02
1.054864805931094622e+02
1.051001392838488755e+02
1.051911558259241986e+02
1.051963163407821185e+02
1.052748869108419569e+02
1.053719636074551715e+02
1.051604570657435431e+02
1.053319765999970770e+02
1.056618647283766848e+02
1.060183678824455455e+02
1.059562672924543278e+02
1.058600379253940957e+02
1.059496768911371731e+02
1.058296728903906114e+02
1.058379044729087042e+02
1.061226193659565666e+02
1.053243608413024930e+02
1.050295618853747328e+02
1.051721104965786679e+02
1.048604142335496618e+02
1.047776415679555697e+02
1.046345686245788755e+02
1.047047229671311896e+02
1.050179164289997402e+02
1.051405676175926232e+02
1.051128466641339543e+02
1.051085827644553348e+02
1.051287498352927372e+02
1.053033385725928497e+02
1.054590477861100197e+02
1.055793795487361990e+02
1.054155211996164070e+02
1.056615904008885849e+02
1.055499435257320044e+02
1.056850550032354903e+02
1.055917149140523321e+02
1.048207493655769582e+02
1.046555575305130930e+02
1.043943877328129730e+02
1.045177720989662049e+02
1.048063216293160025e+02
1.046092409433220212e+02
1.046105632259478426e+02
1.049109278829404275e+02
1.050954757055571775e+02
1.052476272022755666e+02
1.053062403585877718e+02
1.052860082905184385e+02
1.054000029073147999e+02
1.054123588136704797e+02
1.055079478713146131e+02
1.052712941107905777e+02
1.054855766414807050e+02
1.053237757872272482e+02
1.052886060800653922e+02
1.050409937346455251e+02
1.045896972961954532e+02
1.043750054405385441e+02
1.045855078399251141e+02
1.042927346701540188e+02
1.044162945451361537e+02
1.042743778734583628e+02
1.040600434928557831e+02
1.043637921438823639e+02
1.043360326253782091e+02
1.044622378133450269e+02
1.044151744535058981e+02
1.039878660719525811e+02
1.043654747044570001e+02
1.042715807338912697e+02
1.045085821115232960e+02
1.043498742984097305e+02
1.045764225002951235e+02
1.046026114542305834e+02
1.042568877590088476e+02
1.042335696464431294e+02
1.038849825934945983e+02
1.034121385586378921e+02
1.034786045964850416e+02
1.035547458177204732e+02
1.032535294291019454e+02
1.029906488211310034e+02
1.027452123968284496e+02
1.032603227896565841e+02
1.032789203084832934e+02
1.035375112012104637e+02
1.037665178504770580e+02
1.034474249256157918e+02
1.038240139983585948e+02
1.038735920666013754e+02
1.043782753256260776e+02
1.039311688311688329e+02
1.035288857408473149e+02
1.035012592603502384e+02
1.032827762735437318e+02
1.031980806142034623e+02
1.029530076299757440e+02
1.025840270628033579e+02
1.028271542938170171e+02
1.028304106548279719e+02
1.028052243883679040e+02
1.028479593650041437e+02
1.028688722812231333e+02
1.033351278996219662e+02
1.035073967536470150e+02
1.039271849660794942e+02
1.039788293714923668e+02
1.038489980284259815e+02
1.040769626883239170e+02
1.041147232037691452e+02
1.043993355677074106e+02
1.042013944835869808e+02
1.041255525953684469e+02
1.041646483054583996e+02
1.042353700707935644e+02
1.041448168403042871e+02
1.036030858303399640e+02
1.036249775381850924e+02
1.039893692943590366e+02
1.039144615840996835e+02
1.042978934287996680e+02
1.042013453176525530e+02
1.043270662423729362e+02
1.048240631336338282e+02
1.047521308053574529e+02
1.049255551853515129e+02
1.049650145348837214e+02
1.048792829031137899e+02
1.050605903228598663e+02
1.054439665194140900e+02
1.054172776078046496e+02
1.056784685654438078e+02
1.054015432233314442e+02
1.054366030973644683e+02
1.051414135556361060e+02
1.050641524218591201e+02
1.047128353352989905e+02
1.042746117753017927e+02
1.043462460934660925e+02
1.043025655244877612e+02
1.042350620891161412e+02
1.042958613629716353e+02
1.042935111657087646e+02
1.046025620519680643e+02
1.049935806404868828e+02
1.051994762428381307e+02
1.052350560077719024e+02
1.049997255344454317e+02
1.050336360167874972e+02
1.052418895502147222e+02
1.056756317554975766e+02
1.055369837121044299e+02
1.053766463621480511e+02
1.052842603965608106e+02
1.053820436259873219e+02
1.053088108116031236e+02
1.047964082347787951e+02
1.048585952212805950e+02
1.046836044251538169e+02
1.047348185253537167e+02
1.047186367885941394e+02
1.047310122878876513e+02
1.043949847361535035e+02
1.047113112644753841e+02
1.050941434525115170e+02
1.051739593827106489e+02
1.050271213553406540e+02
1.048482757623097825e+02
1.051152551716134269e+02
1.052947256088647237e+02
1.053471049061228086e+02
1.051618016964024633e+02
1.049392352708232465e+02
1.049383926480917779e+02
1.047662037037037095e+02
1.048706324796291653e+02
1.048264302981466614e+02
1.046161654354022517e+02
1.046434499759324410e+02
1.046860078705728085e+02
1.049070517945661436e+02
1.048447191403861325e+02
1.047667063227229107e+02
1.050861963547429099e+02
1.052359876417266662e+02
1.052794489126331996e+02
1.052846786662388041e+02
1.051254238768173934e+02
1.053152473332551864e+02
1.053481978963316834e+02
1.053261957203494887e+02
1.049708305337267404e+02
1.045444288348406445e+02
1.043700629483238203e+02
1.043724543849323112e+02
1.041165045695257447e+02
1.038338957190223368e+02
1.036275477333958150e+02
1.035127779328993256e+02
1.034337216809484659e+02
1.039096171497942152e+02
1.035352240865518638e+02
1.035678310917780038e+02
1.036864044910269058e+02
1.039790304844523234e+02
1.044980994876879947e+02
1.041975274118772461e+02
1.040187370690911308e+02
1.039985693021373834e+02
1.041103993042974167e+02
1.041466052067026169e+02
1.038716227843744520e+02
1.036641371961755596e+02
1.036427684578292485e+02
1.037974299533499334e+02
1.039715721464465190e+02
1.038890805341152372e+02
1.039487418854483849e+02
1.041022874100157622e+02
1.041787640513228155e+02
1.045707928859916365e+02
1.045962229961210710e+02
1.046284863679097441e+02
1.048737559451977006e+02
1.050402346905514293e+02
1.052358493231977832e+02
1.051450378457469270e+02
1.051138750690989525e+02
1.050835161103171060e+02
1.049032967963096183e+02
1.048908061358162058e+02
1.046346422474002793e+02
1.045066987338190643e+02
1.042599935184793765e+02
1.044989565735863977e+02
1.046926065055920816e+02
1.045276450511945399e+02
1.043745967798734995e+02
1.046238169790829176e+02
1.044894499978970117e+02
1.051084643815787558e+02
1.048611723721361386e+02
1.050402749662618191e+02
1.050803877976022989e+02
1.053499223273548893e+02
1.053596382312272510e+02
1.053854383064117286e+02
1.051210027523195976e+02
1.049977397756833994e+02
1.049014345606479708e+02
1.049787060955942195e+02
1.045369827119706088e+02
1.044235939838905125e+02
1.042968538010025554e+02
1.045409063391853266e+02
1.049249818241167986e+02
1.046277556540686788e+02
1.047512067548382220e+02
1.044803197674418698e+02
1.047134713601574134e+02
1.051955468389478483e+02
1.051190897962122932e+02
1.050782130919419899e+02
1.050083243631144683e+02
1.050170505790897693e+02
1.052683939450143384e+02
1.050995994925956012e+02
1.048636643693312891e+02
1.048651827567365444e+02
1.046391007455771387e+02
1.048960621598845933e+02
1.046833285795778750e+02
1.044821954637759944e+02
1.042406696095855096e+02
1.042314328366778540e+02
1.044492436563566002e+02
1.043086187321251543e+02
1.044281688919715663e+02
1.044102586419484453e+02
1.046578767471964824e+02
1.049853818659274935e+02
1.047458545778608823e+02
1.047364069998829450e+02
1.047821413382997804e+02
1.048802785232465311e+02
1.051335652023321643e+02
1.047271115084056561e+02
1.044436963886686272e+02
1.040693197513812152e+02
1.041559954441256508e+02
1.041213540465759735e+02
1.038771747147381603e+02
1.037955180855532831e+02
1.035977921175993970e+02
1.035454010196022097e+02
1.038969795115744432e+02
1.042678549957917511e+02
1.039217147899108511e+02
1.044222558209857823e+02
1.042607618457726915e+02
1.048713019708125813e+02
1.048772498618824756e+02
1.046807617398831383e+02
1.044816236417944992e+02
1.046192304915902724e+02
1.045744010911676298e+02
1.040969561130793153e+02
1.038499680844890634e+02
1.034602869699350975e+02
1.031213052214683046e+02
1.029994575257308753e+02
1.026882870703716151e+02
1.022376733885068063e+02
1.020597686749796082e+02
1.022963000772944042e+02
1.026568752100778852e+02
1.026068944398267604e+02
1.026147253035581457e+02
1.025430524382779112e+02
1.027224403370241248e+02
1.028262872548438764e+02
1.026345992307352191e+02
1.028832268937378132e+02
1.024761611901833334e+02
1.022271240398376193e+02
1.021856476079346550e+02
1.021283174175405719e+02
1.020154927304470363e+02
1.016539039702891500e+02
1.013829160745938509e+02
1.011461636622321265e+02
1.008689670492410215e+02
1.006777438529728386e+02
1.011774055305775732e+02
1.012316503591593033e+02
1.019790169546547816e+02
1.022271215866289964e+02
1.025442483707988544e+02
1.027523872002332581e+02
1.029944308730297280e+02
1.033834829286742973e+02
1.033563765006089454e+02
1.031465591288270218e+02
1.028882920492198139e+02
1.030110074845047308e+02
1.029138768544046201e+02
1.026934880947186173e+02
1.026727872359390403e+02
1.025675987982435942e+02
1.021610678326200201e+02
1.025275407529742751e+02
1.023672787477423185e+02
1.027202990531963849e+02
1.028915827794072158e+02
1.030971127837233894e+02
1.034156091835986189e+02
1.032166990745478756e+02
1.033260404141126827e+02
1.031773801992143262e+02
1.031234375925596822e+02
1.027589219824659779e+02
1.025771247913250335e+02
1.024531743092080944e+02
1.022101706494779449e+02
1.022384426412566114e+02
1.022698139265507393e+02
1.021120684523809530e+02
1.019493642616800173e+02
1.015814130727158613e+02
1.015585222678127479e+02
1.015742255859521066e+02
1.017421445256574515e+02
1.022506019166915934e+02
1.018965939412965014e+02
1.023371444681117595e+02
1.023971277932746773e+02
1.020728037142900320e+02
1.017302097756338668e+02
1.016618557626155308e+02
1.017433499020936836e+02
1.020085384454346951e+02
1.017322107145518260e+02
1.019340697221306300e+02
1.017323356525911606e+02
1.018236568848758452e+02
1.018867020161169421e+02
1.022399062725306322e+02
1.022195048581656351e+02
1.022536477902011427e+02
1.022654690017618577e+02
1.025568888486385362e+02
1.024635694683193066e+02
1.024512354880968559e+02
1.019370195995848434e+02
1.016671075572656804e+02
1.017515801918966787e+02
1.013093999939178218e+02
1.006599817961164973e+02
1.004102337353438941e+02
9.998802714863113295e+01
9.985088881358021240e+01
9.941187745338567083e+01
9.947332090414630557e+01
9.909710368202127029e+01
9.875936978168098790e+01
9.878130075013532974e+01
9.849497993511586458e+01
9.846081640214907793e+01
9.838348277344471171e+01
9.878368309946603176e+01
9.899855362363440747e+01
9.906613407752698208e+01
9.914980986261039675e+01
9.904757277060483034e+01
9.894184058529071990e+01
9.926778307196495632e+01
9.918910459038133354e+01
9.932710493161913234e+01
9.942765386678929929e+01
9.958462859069867079e+01
9.994037961120464786e+01
1.000488517617539515e+02
1.002869476036675849e+02
1.001034330180042673e+02
1.003878601766125769e+02
1.007201900019855572e+02
1.009065805742546900e+02
1.007778013293161194e+02
1.006465728551974621e+02
1.007266696084846131e+02
1.007368644517567162e+02
1.006453091342408044e+02
1.004078860629474548e+02
1.000877028809867113e+02
9.985386304651626688e+01
9.982722900480948169e+01
9.952463986702782961e+01
9.935913307938066907e+01
9.925113234472918577e+01
9.889863745742054846e+01
9.898243013403654800e+01
9.894234832005759017e+01
9.908826873063087248e+01
9.859139271691431361e+01
9.868268588558736099e+01
9.883273448147689066e+01
9.878440713503846382e+01
9.882339850088865774e+01
9.856334120244045494e+01
9.899207103356958726e+01
9.913812613388272155e+01
9.951535964035963389e+01
9.926653739437507795e+01
9.884188374836591606e+01
9.907041588645340369e+01
9.893283687166569962e+01
9.829074822667989508e+01
9.805739423150485834e+01
9.766182173501479724e+01
9.732128710599965871e+01
9.739802398347667634e+01
9.742819739400712820e+01
9.768254698182040840e+01
9.731463567935490744e+01
9.683055818642876034e+01
9.694132617861249912e+01
9.667597473451259305e+01
9.705301346177596145e+01
9.715409708737864491e+01
9.702219071688344343e+01
9.752382952247627657e+01
9.759872144371642833e+01
9.741540463603089961e+01
9.723549171782693179e+01
9.708300505547896364e+01
9.711328269878895014e+01
9.717690789992897749e+01
9.739590181897874288e+01
9.693662287134674216e+01
9.717289058247141043e+01
9.714557546646960873e+01
9.745220342149094961e+01
9.740078049081456868e+01
9.732195598723293983e+01
9.754375883473663578e+01
9.792422538249387287e+01
9.808822716383069462e+01
9.848038780909270429e+01
9.818224895206853375e+01
9.873773933753251697e+01
9.891559567023121247e+01
9.920816520683659689e+01
9.953558336697616937e+01
9.966235247524753049e+01
9.941078600114744290e+01
9.928638237646913467e+01
9.919400266344194961e+01
9.931051337227174258e+01
9.882682665851420722e+01
9.851063991719435364e+01
9.845704877862010562e+01
9.839646622621644667e+01
9.858772092162486445e+01
9.852393416372845536e+01
9.824760943070026542e+01
9.850958916699856616e+01
9.862688162193519759e+01
9.891089687408707221e+01
9.879130952926617226e+01
9.863826568040101961e+01
9.899378433960526991e+01
9.964056288758148128e+01
9.952295383214348590e+01
9.942200045509214590e+01
9.919371996978901507e+01
9.922259720505752512e+01
9.888299008154487524e+01
9.886566544716697535e+01
9.868495828587261087e+01
9.833493028683741954e+01
9.860447634744836876e+01
9.859628709835662619e+01
9.865994447325869032e+01
9.845595894490860189e+01
9.854151729632013712e+01
9.865378274409232517e+01
9.890685149484377803e+01
9.897104877602099293e+01
9.910124407492061493e+01
9.900070480801642248e+01
9.963032229809735441e+01
9.942243394143997648e+01
9.940940279952857850e+01
9.961131725417439498e+01
9.921792463255609107e+01
9.911969287065851120e+01
9.879140011462384052e+01
9.894869000659984692e+01
9.875907454225082915e+01
9.874093580642700374e+01
9.899553461443704805e+01
9.912071755725190769e+01
9.968038463302401908e+01
9.992115302447659531e+01
1.000489198140439413e+02
1.003528382698920183e+02
1.006520875349929298e+02
1.011102793582758608e+02
1.010534976943247187e+02
1.010947580948937059e+02
1.013378662830317296e+02
1.022369431764520726e+02
1.016901721265963516e+02
1.016041719183262018e+02
1.014162335439295362e+02
1.012559839406662689e+02
1.011915214018435591e+02
1.011005003918731546e+02
1.008771792360430908e+02
1.007871353282983762e+02
1.007550071262470937e+02
1.008649703214920663e+02
1.013226163228313794e+02
1.009733720611940839e+02
1.008442377543731681e+02
1.008242865816636282e+02
1.010015488338192426e+02
1.012972494158254051e+02
1.008853808672807020e+02
1.006671710224667606e+02
1.009415656348083132e+02
1.008469649691808740e+02
1.007460239634725667e+02
1.004534853390207587e+02
1.001089869682812861e+02
9.991667176787463234e+01
9.997286624400327071e+01
9.990607324988410198e+01
9.953919424147933626e+01
9.939434221625167254e+01
9.925912137006702096e+01
9.942256383209753778e+01
9.959688616402240768e+01
9.941617341721156720e+01
9.942622900054192314e+01
9.964607558139536536e+01
9.975999013320178221e+01
1.000747902281945727e+02
1.001406100607593430e+02
1.001937263385613761e+02
1.000565260179603939e+02
9.997120531594165982e+01
9.999337554497697056e+01
9.984830671912366995e+01
9.942247846624063357e+01
9.942624136392313972e+01
9.924706884534964502e+01
9.937700555443814210e+01
9.920612921811981266e+01
9.897864482731978342e+01
9.893496324210785531e+01
9.920463758212062544e+01
9.930716414242264989e+01
9.940743502508894380e+01
9.940522936778124574e+01
9.922951022938623566e+01
9.959088641536494890e+01
9.961170576887174377e+01
9.954646596858638929e+01
9.920701672500972279e+01
9.901119293078056671e+01
9.903687996147334616e+01
9.906779792826701225e+01
9.851946660871185202e+01
9.862700167819444630e+01
9.826683941843685943e+01
9.871415395197598741e+01
9.898737527998370922e+01
9.922990903387703554e+01
9.901091076498120458e+01
9.953146243952522809e+01
9.980730556762460992e+01
1.000189663714621844e+02
9.993911507715188236e+01
9.982629769573834722e+01
1.000118012905232092e+02
9.968184565786822304e+01
9.967409060615923977e+01
9.964214798626288427e+01
9.944032110305421668e+01
9.948133854265930154e+01
9.934826262269272945e+01
9.931486670402689754e+01
9.943342453620964250e+01
9.927309519344959199e+01
9.907007795014277463e+01
9.901633750864520778e+01
9.955936890295423325e+01
9.953574605121913521e+01
9.951233060676352693e+01
9.945668715024169160e+01
9.984694623918079515e+01
1.001469353355807641e+02
1.001700565577916251e+02
1.000041056437281668e+02
9.979075974414432437e+01
9.961538226486585756e+01
9.977088055002053579e+01
9.975591204536026169e+01
9.998084155139855511e+01
9.952348819521984069e+01
9.927780364453721518e+01
9.960642969325940044e+01
9.997051271954005358e+01
1.001124103695532312e+02
9.971610445125918432e+01
9.966662570089869178e+01
1.003585057364628881e+02
1.002094614332057319e+02
1.005067667322834666e+02
1.003578026699401562e+02
1.004477092625802754e+02
1.008101177044581362e+02
1.006585650604967128e+02
1.005890122717289614e+02
9.999759995139142177e+01
1.001512062624937016e+02
1.001100082712985824e+02
9.990946356741486056e+01
9.985724606492867395e+01
9.953358457792458580e+01
9.981144865286997003e+01
9.990748728413956314e+01
9.992959903471319194e+01
9.994561751137806027e+01
9.987804314329737565e+01
9.991460275872698560e+01
1.002548614883215521e+02
1.002072527608884513e+02
1.002066687296920975e+02
1.002723565213330659e+02
1.002432106961448852e+02
1.004891981752106886e+02
1.003015995672668339e+02
1.000072050574855211e+02
9.983997966822236947e+01
9.962957766024702266e+01
9.991697641778613104e+01
9.976456321999906152e+01
9.970719375213913338e+01
9.943498401310145596e+01
9.941969274829953918e+01
9.952998089795158876e+01
9.960575756633177491e+01
9.966362983994260105e+01
9.957903092751412544e+01
9.968221402671460396e+01
1.000030511535228328e+02
9.980863016043446123e+01
9.974277420563080909e+01
9.982036682690063856e+01
9.986695650828524151e+01
1.001700579813775533e+02
9.969220195530294859e+01
9.937054514611766365e+01
9.918839797743108022e+01
9.914424770557151589e+01
9.940364019067665424e+01
9.913775030445036407e+01
9.903747653838398435e+01
9.889428730581172999e+01
9.905719175418126099e+01
9.922815909020674496e+01
9.944982458309506512e+01
9.941029052318926063e+01
9.933963109435828187e+01
9.957091100514027460e+01
9.966016623056796675e+01
9.986204871414440731e+01
9.993311254178532010e+01
9.980865095829334166e+01
9.971163645347580484e+01
9.989279152707230480e+01
9.969032924985343413e+01
9.974386754842643654e+01
9.961122677899901134e+01
9.917037108464715800e+01
9.948819399111565076e+01
9.938165777148459767e+01
9.899984626500838658e+01
9.884640783856006863e+01
9.911522268322181617e+01
9.945691538943475507e+01
9.946399573463324373e+01
9.967512114334785167e+01
9.955740526379919686e+01
9.959363989933653727e+01
9.967586711145638390e+01
1.000165209830213797e+02
9.983523996171551573e+01
9.986054167746262067e+01
9.970935539511241075e+01
9.965944042142976400e+01
9.955990998576307049e+01
9.929549731491255216e+01
9.905773233745561868e+01
9.906097750918945621e+01
9.914462302973832664e+01
9.912169328674819724e+01
9.915636832100045694e+01
9.872848094371040872e+01
9.886114258221718387e+01
9.919280611140321469e+01
9.923137363653171406e+01
9.948281462690260923e+01
9.939873476602474511e+01
9.950265746037187853e+01
9.970907591015922833e+01
9.964694886451414391e+01
1.000737438844451219e+02
1.001064732877034231e+02
9.974142639893236151e+01
9.970231964777447331e+01
9.939498938033889885e+01
9.927734081535653843e+01
9.923346112559423204e+01
9.887904398400581840e+01
9.925772191960074053e+01
9.915638561922310146e+01
9.926675932855766860e+01
9.887414976314830994e+01
9.907758226342593844e+01
9.947983969279532346e+01
9.967901932330254056e+01
9.954958929114694399e+01
9.962601353410961735e+01
9.970428294603213715e+01
9.980555555555555713e+01
9.993204501052566968e+01
1.002240475571924208e+02
1.002671978505582047e+02
1.003106504576936118e+02
1.004343998562725488e+02
1.000796201372262288e+02
1.000819656412305250e+02
9.960006549911888385e+01
9.953838238962335083e+01
9.926055760874608325e+01
9.921513453605072641e+01
9.909232711762624035e+01
9.878560267173233456e+01
9.888306482576443557e+01
9.923361261705274217e+01
9.929195243574990570e+01
9.959405955776367136e+01
9.937810612170366653e+01
9.962873702078202598e+01
9.981590079565064855e+01
1.000759696681874118e+02
1.000471505736212094e+02
9.985251709136109355e+01
9.998526815703550596e+01
1.001772249617947921e+02
9.972759330919984677e+01
9.969307208710979751e+01
9.919172341540073035e+01
9.901677893636001215e+01
9.897475064732108763e+01
9.948672931614704851e+01
9.908531059683312492e+01
9.891501205560140875e+01
9.913912904001924176e+01
9.926068664542158615e+01
9.927748723792872454e+01
9.914016089108910990e+01
9.934038277216089341e+01
9.932128099173553437e+01
9.956044700304774153e+01
9.977851120137863461e+01
1.000127521446788847e+02
9.961008066980383546e+01
9.958485828712261423e+01
9.951087425297269817e+01
9.934883149586954687e+01
9.945481899824090988e+01
9.910393349742255964e+01
9.898801220575413140e+01
9.921193080322166225e+01
9.905608876820076603e+01
9.912746573960548346e+01
9.939249331465681792e+01
9.926698965988164503e+01
9.957045898437499432e+01
9.976669012507596790e+01
9.995585180055400087e+01
9.993245062134160150e+01
9.982065090507245486e+01
1.000550677757239697e+02
9.999517468849255408e+01
1.000925274015772146e+02
9.970508979759425472e+01
9.976599040039256749e+01
9.966069357103607729e+01
9.951356012392595574e+01
9.952188830683454057e+01
9.923518807101170580e+01
9.908730134380560628e+01
9.919148418121223187e+01
9.940948968811723319e+01
9.964781526548672730e+01
1.000618957940991862e+02
9.951155161691541196e+01
9.971008239747042978e+01
9.989727495882918618e+01
1.001681770515409085e+02
1.004111893021845532e+02
9.972854556036992335e+01
1.000221305930483453e+02
9.996955268357464774e+01
1.002271904187051206e+02
9.985584978937312428e+01
9.943565804624529392e+01
9.938862383621290064e+01
9.925795729559169445e+01
9.931157055328057481e+01
9.922858241673716861e+01
9.884674829848361810e+01
9.924942873023714185e+01
9.926855041789615086e+01
9.945450732449940290e+01
9.975873630755708632e+01
9.928958353716205920e+01
9.940223526393432962e+01
9.953847509210315536e+01
1.001192158107786412e+02
9.968953282081608336e+01
9.947887059999376902e+01
9.947479829288808162e+01
9.937207926648919454e+01
9.943316030061207300e+01
9.894733910891089579e+01
9.877786704157462339e+01
9.895255614907406994e+01
9.895770749758996487e+01
9.894871913508845296e+01
9.895217310836237345e+01
9.884214658476884097e+01
9.914012149619166792e+01
9.916040544918770649e+01
9.950470842197471200e+01
9.935504168878618714e+01
9.925414966833794495e+01
9.957381984961467936e+01
9.968753804135778296e+01
9.959525444895410828e+01
9.929559231639818506e+01
9.888617495073013686e+01
9.901245136186769003e+01
9.898494460605310508e+01
9.890515738276589275e+01
9.870166026915784130e+01
9.857751238607866640e+01
9.881279953153652684e+01
9.887331854219353033e+01
9.972033392000776075e+01
9.923882281862121602e+01
9.973019915529052071e+01
9.949137877469864577e+01
9.982180000620905957e+01
9.989655758737421820e+01
9.998147321084810812e+01
9.996858494465624290e+01
1.001176596036376338e+02
1.004222357229647571e+02
9.998389704053718674e+01
9.977586556614814128e+01
9.951462208028054590e+01
9.948279336536971584e+01
9.965201861164638331e+01
9.960166060090433859e+01
9.913983512210296567e+01
9.911193575100388387e+01
9.915291212826802791e+01
9.921662302638800668e+01
9.958027838598685832e+01
9.948647930473927659e+01
9.940004684937925106e+01
9.971826635047429477e+01
9.951009256679360249e+01
9.999593804747212289e+01
9.994011938716667487e+01
1.000184593924364549e+02
1.001558769335583747e+02
1.001229565678131053e+02
1.002581047965411187e+02
9.976942546583850913e+01
9.966235140349786548e+01
9.962461802307451819e+01
9.962564094595855124e+01
9.968987302280596907e+01
9.954736662106702738e+01
9.923089917242661784e+01
9.957988976426992167e+01
9.983303968192095112e+01
9.996640654147493876e+01
9.995856529222945142e+01
1.001432610155725342e+02
1.003734941646432191e+02
1.001890414382331329e+02
1.006020998031434459e+02
1.004492841675624391e+02
1.002893841204718228e+02
1.006572143192121445e+02
1.004708938738682633e+02
1.003914446505682321e+02
1.004925962965352682e+02
9.984856283476219119e+01
1.002418041278189520e+02
1.000583295470568856e+02
9.980317929304587210e+01
9.936407662835247834e+01
9.931512463679460723e+01
9.946181729195663479e+01
9.959025564001962039e+01
9.972501726121979004e+01
9.960718060257018180e+01
9.967667376353638531e+01
9.969727745487917048e+01
9.986673514126718487e+01
1.000839400889737192e+02
1.006239629865985989e+02
1.002251507125331074e+02
1.004399508042231730e+02
1.005351508943345777e+02
1.002204569409138912e+02
9.988600299748149780e+01
9.981065843242080859e+01
9.965493304602124169e+01
9.963798046701316480e+01
9.984574255600283266e+01
9.958890226618102304e+01
9.931197843698605254e+01
9.936665852243227448e+01
9.933778660681790029e+01
9.974361754107373201e+01
9.980855092991748734e+01
9.963564079297458420e+01
9.960210138814326797e+01
9.968696000987409889e+01
9.994722427375677398e+01
1.000904645856293627e+02
9.982316315756784775e+01
1.004831085420680807e+02
9.989493646265560756e+01
9.999732577246511767e+01
9.982479767121972714e+01
9.980308154235144968e+01
9.961877633468525062e+01
9.956487454066585485e+01
9.970234700592234844e+01
9.955542828450833781e+01
9.935206039438031667e+01
9.939771844207515983e+01
9.946437457237045976e+01
9.963334372078529100e+01
9.978639070736599592e+01
9.957503726245185760e+01
9.965912659546351904e+01
9.987179804862938681e+01
1.002975306536869624e+02
1.001506296839990711e+02
1.001850704181708238e+02
1.001729250231410049e+02
1.001476677128588904e+02
1.000446698149725222e+02
9.981225229130541265e+01
9.997316103379721142e+01
9.936892905645736107e+01
9.955837448024948344e+01
9.975949183420122779e+01
9.968649263636937974e+01
1.000490530001591480e+02
9.984864052123793954e+01
9.971538833361920240e+01
1.000858884229887877e+02
1.001825581941422314e+02
1.000080185594619024e+02
9.985368113793263944e+01
1.000570385156987356e+02
1.005908288695544428e+02
1.003766746928443609e+02
1.004855468085435604e+02
1.002626000030948603e+02
1.000824452909334923e+02
1.003162706515685869e+02
1.003712521906626449e+02
9.960731907233892457e+01
9.968815443965377199e+01
9.987506673785371447e+01
1.001201985806574726e+02
9.998919436036574382e+01
9.976074722526185212e+01
9.990004681647940288e+01
9.997543112161595502e+01
1.003520597513453367e+02
1.005420377241805880e+02
1.002847055565811303e+02
1.003529040014797431e+02
1.004937271301620427e+02
1.009430094364472978e+02
1.005832751856848120e+02
1.001915035725380676e+02
9.998831546683676663e+01
9.982574026579622739e+01
9.976943254083235502e+01
9.963847651496713809e+01
9.947608855185909249e+01
9.921485528197948156e+01
9.932547169811319066e+01
9.940384820788257514e+01
9.950562105423290404e+01
9.960754745749790118e+01
9.961573667141514932e+01
9.982954235283413880e+01
1.001813414003830900e+02
1.000947811983690343e+02
1.002816976776185953e+02
1.002715580015636760e+02
1.001607538802660713e+02
1.004283900961935387e+02
1.001994207381797253e+02
1.000900417593806111e+02
9.981112943989587905e+01
9.992834288152120337e+01
1.000153176833136968e+02
1.000477275835346660e+02
9.977649290812178151e+01
9.995559481025766502e+01
9.958960276858260841e+01
1.004552409741807821e+02
1.002633322663252216e+02
1.001690111774418881e+02
1.001937420986093485e+02
1.003530352429746983e+02
1.007704852271850768e+02
1.004468899083967131e+02
1.006232393836903469e+02
1.009180798687089720e+02
1.010477813126667996e+02
1.015398493500182298e+02
1.015737233962547919e+02
1.017190606736157150e+02
1.018633699468125258e+02
1.018784437686326783e+02
1.024700103335180472e+02
1.024716854335294585e+02
1.023505530642750330e+02
1.018801842626492942e+02
1.016591259563127778e+02
1.018875022608066558e+02
1.014625214227727810e+02
1.014453216814825964e+02
1.012869109316620495e+02
1.011208402881159572e+02
1.014578691543640332e+02
1.014783377675656055e+02
1.012077582822456492e+02
1.006647996747820599e+02
1.005616706875753863e+02
1.007094356796116443e+02
1.007484308992154496e+02
1.010921476906308243e+02
1.010732740554457791e+02
1.012986048739596470e+02
1.015665870696943216e+02
1.019243875195472384e+02
1.020909118095636785e+02
1.019395529061102792e+02
1.021070827186433547e+02
1.026089498538340479e+02
1.027869551063892715e+02
1.033984086303492660e+02
1.032195499925495454e+02
1.028005569454372221e+02
1.028390284807283450e+02
1.024955890295865117e+02
1.024697562443575123e+02
1.017288397956116626e+02
1.018726141516397803e+02
1.020219976307936918e+02
1.021431463100128951e+02
1.020696094822953341e+02
1.019085785662240369e+02
1.018552066996123386e+02
1.018079083550798316e+02
1.017708181452992733e+02
1.016674405020444283e+02
1.015144259637324353e+02
1.015011014212860943e+02
1.016244765288381586e+02
1.015697719830564409e+02
1.019294306092843385e+02
1.019600443784764394e+02
1.020699063002902705e+02
1.023993048793276444e+02
1.024534845249195456e+02
1.022310348969908205e+02
1.019079161624762833e+02
1.015525897727954003e+02
1.015162758558531522e+02
1.014273738827904765e+02
1.015157967032967008e+02
1.014233511186835841e+02
1.016650063743366275e+02
1.018848433905503441e+02
1.021093109045300196e+02
1.023090568044191002e+02
1.022216246482089872e+02
1.021216962379444908e+02
1.023893592896376106e+02
1.026482688149749691e+02
1.026664062499999943e+02
1.026353613960617821e+02
1.025891596279426352e+02
1.027741404616821654e+02
1.026237735289758319e+02
1.026535722833891811e+02
1.023519725132713205e+02
1.021310094676011317e+02
1.025353803039995171e+02
1.025229673519466189e+02
1.027576355703303506e+02
1.027315029836267968e+02
1.026500692582004746e+02
1.028903194621435233e+02
1.030720757644510144e+02
1.031513012727777578e+02
1.029867099434185747e+02
1.027998216478568594e+02
1.029690903478989412e+02
1.031093993473083827e+02
1.031836671438903039e+02
1.028834938568415396e+02
1.027732270075346719e+02
1.030046135419285207e+02
1.027251577229076815e+02
1.026496861171143280e+02
1.022732544482940824e+02
1.022098331741015755e+02
1.021310003096934054e+02
1.019213597383078422e+02
1.019575167268636307e+02
1.017249870360767403e+02
1.012896567064580751e+02
1.015355270777957628e+02
1.017329060149811539e+02
1.019174571016361170e+02
1.013525573790720529e+02
1.017193194695415173e+02
1.015119045823971931e+02
1.017556559718296967e+02
1.016509852733871213e+02
1.012624945610586735e+02
1.010784605219689496e+02
1.010097123870521614e+02
1.007405193827625141e+02
1.007068446558107269e+02
1.005733057751493646e+02
1.001872538704343896e+02
1.001046017539101314e+02
9.986527644806126602e+01
9.975564351071514579e+01
9.936199542005297758e+01
9.954882337030024075e+01
9.977977727081707826e+01
1.000823937423994465e+02
1.007075933309170068e+02
1.006517156380903373e+02
1.011898084601946692e+02
1.008346092303830801e+02
1.012529989438673255e+02
1.016206464196154968e+02
1.014699338359747713e+02
1.013060458925141063e+02
1.011556528125421579e+02
1.012424929178470308e+02
1.012287179025947808e+02
1.008320626600750529e+02
1.004748191782864808e+02
1.006195855464951023e+02
1.006147678064805149e+02
1.006657381200655408e+02
1.005993614967703564e+02
1.005261488046473488e+02
1.005552931390460856e+02
1.007531173920788632e+02
1.009234960508343732e+02
1.009272412299696811e+02
1.008719127281409982e+02
1.009597887533472260e+02
1.012472545459956592e+02
1.014459038389862116e+02
1.014192492492492477e+02
1.009506815402511393e+02
1.008230626976078241e+02
1.008105907223247755e+02
1.007874836640133083e+02
1.006724389735030201e+02
1.003032337789953203e+02
1.001865312746601546e+02
1.002147814018043022e+02
1.006398589708519467e+02
1.004554461436069630e+02
1.006142721886262166e+02
1.004948621040329186e+02
1.005180982759930117e+02
1.006811420236123524e+02
1.005549522418932895e+02
1.005429595540772567e+02
1.007434690623658469e+02
1.011560985491888829e+02
1.012120429438307099e+02
1.009712212669959115e+02
1.005860862514265222e+02
1.002200183048507824e+02
1.002670201898810234e+02
1.002201240051271327e+02
1.001065247930178970e+02
9.991932491471661137e+01
9.980536590489624871e+01
9.977902717309713410e+01
9.986083215923738976e+01
9.982713994361465382e+01
9.990433805212953189e+01
1.001462352404760878e+02
9.982499087750473166e+01
1.003297409066700112e+02
1.004376840799876049e+02
1.005303772174682422e+02
1.002287028183763624e+02
1.004038254632396843e+02
1.010910853008958838e+02
1.008866184061822224e+02
1.009925930488612522e+02
1.006237269938650343e+02
1.005009869478065383e+02
1.007193849957506018e+02
1.002841466980623863e+02
9.978287160523763077e+01
9.946851170718578317e+01
9.939495353932160526e+01
9.929084453844991742e+01
9.906507227730266152e+01
9.884603181797579907e+01
9.895576568757329028e+01
9.901227448843685863e+01
9.917636118965178582e+01
9.919015391166807660e+01
9.934962343349850755e+01
9.919985344182710207e+01
9.968842003493013237e+01
9.988576624749350685e+01
9.985595122026711579e+01
9.976647415041176714e+01
9.968051033601794586e+01
9.950341603739661878e+01
9.960503830056067898e+01
9.944923432259697904e+01
9.906017147791759214e+01
9.860281480581787150e+01
9.872014662126929352e+01
9.873046191309641983e+01
9.842629888416982453e+01
9.847844427185648897e+01
9.845577252693438197e+01
9.855041715601787189e+01
9.886698541130317608e+01
9.892791604013871165e+01
9.894255715288586828e+01
9.897988201945912579e+01
9.902065988756105241e+01
9.944272388916968453e+01
9.952373171490818038e+01
9.948783901468027580e+01
9.921657460297532793e+01
9.873097809222366550e+01
9.898985184953176031e+01
9.877240623287134724e+01
9.852741444747655919e+01
9.832602215318962635e+01
9.842071522845829179e+01
9.843931599950118994e+01
9.837966684050680044e+01
9.832971231300344073e+01
9.841200086137942549e+01
9.870117111960270506e+01
9.942819734284384481e+01
9.890855551643568333e+01
9.947712659936989610e+01
9.937727020382266119e+01
9.943583707261581139e+01
9.962069074129486523e+01
9.962403405164290859e+01
9.926251908757458864e+01
9.902343295091512232e+01
9.872417678727933321e+01
9.880734620931836787e+01
9.878376394139148431e+01
9.874254371468592240e+01
9.838310486527180387e+01
9.854817228676678553e+01
9.856825471329109689e+01
9.879199092599010612e+01
9.893552393679740931e+01
9.878583221951411986e+01
9.899393778000563771e+01
9.932633944709006357e+01
9.946251396384349164e+01
9.962903860997779759e+01
9.955707740916271575e+01
9.965525994171289881e+01
9.965174403068363063e+01
9.941748139270846707e+01
9.937276856115562396e+01
9.886500164517494227e+01
9.897389398799504079e+01
9.920245398773005263e+01
9.905254045205565205e+01
9.896782080605726151e+01
9.881148944862589190e+01
9.885673685367500241e+01
9.907474230847675756e+01
9.918105124506051595e+01
9.951446378545124105e+01
9.976813471502590858e+01
9.979771882286219409e+01
1.001134296415195308e+02
1.001619032761310422e+02
1.003321083774524993e+02
1.001509725561210189e+02
1.000251108518086340e+02
1.001390783251923438e+02
9.983124824509405926e+01
9.999685311934544529e+01
9.984569453174104581e+01
9.959569092678027857e+01
9.955920197958553786e+01
9.935462615961172617e+01
9.924845507118116927e+01
9.915845070422534491e+01
9.936532671939100680e+01
9.995199002558372570e+01
9.996413461538460865e+01
9.999764787053878479e+01
9.951450730772795339e+01
9.951460263323654942e+01
1.000629382431913967e+02
9.996800488475042812e+01
1.000685283850817484e+02
9.983328762531614586e+01
9.958232551028207524e+01
9.981693063566174828e+01
9.957610289624831523e+01
9.958908272021965047e+01
9.954095151591080537e+01
9.945922301071546201e+01
9.962243146640633995e+01
9.967429924990130985e+01
9.953183685676955861e+01
9.951514159181635932e+01
9.953433134356345136e+01
9.978619817682317716e+01
9.973221044071188146e+01
9.968478158759981511e+01
9.928568080618701686e+01
9.912844897703810432e+01
9.919875424688561338e+01
9.905958079149068851e+01
9.876241224065738322e+01
9.837772274885254831e+01
9.816352400069544615e+01
9.818048326551213734e+01
9.839133950656433569e+01
9.842135836274711380e+01
9.805403493326205933e+01
9.807612846678769358e+01
9.824694997647796413e+01
9.831033722377104311e+01
9.864212704583934510e+01
9.871497447532614444e+01
9.869388362906765622e+01
9.901562327568538535e+01
9.912213355202977993e+01
9.941091485223066115e+01
9.922585520205281284e+01
9.924975649605681838e+01
9.975780199617214805e+01
9.941399169184289519e+01
9.960746034512810354e+01
9.920549107072739048e+01
9.926726181071259703e+01
9.935520914930283709e+01
9.920048066350413762e+01
9.915192410057301231e+01
9.926775999245259641e+01
9.922599030165628164e+01
9.932854650800572927e+01
9.963156746650047069e+01
1.001153314048547429e+02
9.990951882027303554e+01
9.997794774540382434e+01
1.002920734088246775e+02
1.003941437193511774e+02
1.006270466663520864e+02
1.004151142631993565e+02
9.981672187249807848e+01
9.986658680369471597e+01
9.949690637677980476e+01
9.959980609548233588e+01
9.920139248247636488e+01
9.917570597550842137e+01
9.945374525642841945e+01
9.941258774055373237e+01
9.992179595940554293e+01
9.977818073814697186e+01
9.970374186297007668e+01
1.002278058787603499e+02
1.001699845666983748e+02
1.006432983517695732e+02
1.003434764157616002e+02
1.004018174945664157e+02
1.002429681514720414e+02
1.003315168882416515e+02
1.003959851136972929e+02
1.002428276914845071e+02
9.985158745068571307e+01
9.991342366472349568e+01
9.982139657692488299e+01
9.993863070344438881e+01
9.950846080529990445e+01
9.949271356783920339e+01
9.949635645371986925e+01
9.955215903895570762e+01
9.992626677364042109e+01
9.982962209529770803e+01
9.980233289316481660e+01
1.001864036822042721e+02
1.003592631795131069e+02
1.002608879824286277e+02
1.003610175472363863e+02
1.000622288901209913e+02
1.002587316695436073e+02
9.969267113154420201e+01
9.988647879394470408e+01
9.939638744917910174e+01
9.895454685525869820e+01
9.914391934274743790e+01
9.907000983888821111e+01
9.939963811451529807e+01
9.931645686497799375e+01
9.904450615200515529e+01
9.936770302621079054e+01
9.949498737277109228e+01
9.987097668828867825e+01
9.969249953814889409e+01
9.964016242721423566e+01
9.962502671184783765e+01
9.993446545735237407e+01
1.001186315757147725e+02
9.972516653077549620e+01
9.921068148491163186e+01
9.938839627805145938e+01
9.931688457753409693e+01
9.934127431632366267e+01
9.909623084141382776e+01
9.888871026210853188e+01
9.900399835640685353e+01
9.857616149759050472e+01
9.893903517619128252e+01
9.874558352825312113e+01
9.895649027728595115e+01
9.894687769695474344e+01
9.904049384991017746e+01
9.960870641761711397e+01
9.930047832124672880e+01
9.933254676705736586e+01
9.951929168533769143e+01
9.959509211928404682e+01
9.936290297701681595e+01
9.922848761408083362e+01
9.878733741036226945e+01
9.881278517480339474e+01
9.863022057564482736e+01
9.862230944148522838e+01
9.845360160839381081e+01
9.819377930603313587e+01
9.797318108986823404e+01
9.804992185057831477e+01
9.852069541545505160e+01
9.834072428212130035e+01
9.827152675049309494e+01
9.864494471402433362e+01
9.887673058173544405e+01
9.899547561950440411e+01
9.897216815270627421e+01
9.885729218671993124e+01
9.879193838891994517e+01
9.865598323762223743e+01
9.866453476695863856e+01
9.840874743454195084e+01
9.822058526427028369e+01
9.810165532491396334e+01
9.813626788584268468e+01
9.818295429661839080e+01
9.803581495865698514e+01
9.784749643243583250e+01
9.790223116715671381e+01
9.777901841643698333e+01
9.800693855765911167e+01
9.810653589642997474e+01
9.808329416188774985e+01
9.815593299937383165e+01
9.838830596464812572e+01
9.863450933700964640e+01
9.877798793259761112e+01
9.846236727780303966e+01
9.818613864462604113e+01
9.805483771251931557e+01
9.819963355744299349e+01
9.774478894054620071e+01
9.783506824328573259e+01
9.807753370506661383e+01
9.770917652426108191e+01
9.782532250358337933e+01
9.787393601873239390e+01
9.759895622371085722e+01
9.768662315717674005e+01
9.793607157254938045e+01
9.812781371682102360e+01
9.819056677321276538e+01
9.800829560255535000e+01
9.800668116842759048e+01
9.805143211023377603e+01
9.822987206096465229e+01
9.798590260545906006e+01
9.797179742735228558e+01
9.780569050345020798e+01
9.775502355394239373e+01
9.808699210847373706e+01
9.785394868633946430e+01
9.778966561592186224e+01
9.778039991958306132e+01
9.772373433275988930e+01
9.833695096840118310e+01
9.872286497801289329e+01
9.855082251365405455e+01
9.847221728522725925e+01
9.877322849745900157e+01
9.920013848235925025e+01
9.927418678022473841e+01
9.945275651077697887e+01
9.980490786155250760e+01
9.974390281034010286e+01
9.986180601188931405e+01
9.957045056999820076e+01
9.965598845598846367e+01
9.949015619544923084e+01
9.967262040369982401e+01
9.977326863696515602e+01
9.956711419520290463e+01
9.971489121651497101e+01
9.946293915700005073e+01
1.001452269991666952e+02
1.001780005210967488e+02
1.004537414442820875e+02
1.003262439561784731e+02
1.004002422458335104e+02
1.005746450923523270e+02
1.011607170333897585e+02
1.010975397043973061e+02
1.010868241841017010e+02
1.009127111054247763e+02
1.005820314377734093e+02
1.007280711453709614e+02
1.006990507221404272e+02
1.005560420857187154e+02
1.004081362029020852e+02
1.006043505865279997e+02
1.008507345384196725e+02
1.008094858089286987e+02
1.009428869375972937e+02
1.008771681095592925e+02
1.011082945126746893e+02
1.014291465621230373e+02
1.016360970004837867e+02
1.016586398637754058e+02
1.014756385010144299e+02
1.016414790996784632e+02
1.014739295994243236e+02
1.011466875793561968e+02
1.013463450644811417e+02
1.011607032834923672e+02
1.009665392257209930e+02
1.011777035967761407e+02
1.012775824241877842e+02
1.014167990678953544e+02
1.014613943382561416e+02
1.009569008704364705e+02
1.015403257410687701e+02
1.013784355506145403e+02
1.014300173510699778e+02
1.015330079279661675e+02
1.014407884852309252e+02
1.020190704647676228e+02
1.018955500988201379e+02
1.020415238893294827e+02
1.021341237882177353e+02
1.020960043148006662e+02
1.021085196031556279e+02
1.021765083440308075e+02
1.020115195059675841e+02
1.017375135843270471e+02
1.016410032812084268e+02
1.020276737069930562e+02
1.020379098667465172e+02
1.020151834102208142e+02
1.018742553034222738e+02
1.018395270772064265e+02
1.019999852744113440e+02
1.023355103010152618e+02
1.028236682299182405e+02
1.027801525529265234e+02
1.024653556734093627e+02
1.032631652508813005e+02
1.035963277357446088e+02
1.033521822714847787e+02
1.030345688924573011e+02
1.029444535037134756e+02
1.030486290358264796e+02
1.030465655690776430e+02
1.029495022278428848e+02
1.026544474869711081e+02
1.025467832364384151e+02
1.024482403028829935e+02
1.027023919179913776e+02
1.027054955517867256e+02
1.026586696395392124e+02
1.027238733705772802e+02
1.031259992840949735e+02
1.032086568988388819e+02
1.034311787072243334e+02
1.032438628857083387e+02
1.033771231503144890e+02
1.032681650813132848e+02
1.030403700459483929e+02
1.028979415619458848e+02
1.027858232059516723e+02
1.026515653775322363e+02
1.028631967886141751e+02
1.024693073755147879e+02
1.025026583895208887e+02
1.022256722997795748e+02
1.025612713849438080e+02
1.026925996485165342e+02
1.026011862814188476e+02
1.025334606065056136e+02
1.020816063504151998e+02
1.019913687881429780e+02
1.018997948762711161e+02
1.020405989435543717e+02
1.022923486867148881e+02
1.021737725531479413e+02
1.020552371950138877e+02
1.023095550647866503e+02
1.018585530368362697e+02
1.024080634744902767e+02
1.022013875273357968e+02
1.023143277487539820e+02
1.022469111969111992e+02
1.024553847519566716e+02
1.028951124058380344e+02
1.030414046970477813e+02
1.033253763314651223e+02
1.036786262106846976e+02
1.039537370701603294e+02
1.042353360488798444e+02
1.042610679527536348e+02
1.040724805416509895e+02
1.042142331288343513e+02
1.040962403622213515e+02
1.040010534974672822e+02
1.037794826640491834e+02
1.034014637449395622e+02
1.035755861889401643e+02
