1.248774158013221669e-02
-5.525292851273500006e-01
-9.606592574506283011e-01
-1.122418843562378310e+00
-1.047110358170081357e+00
-8.235274173794470132e-01
-5.670541101701130904e-01
-3.658057340926483825e-01
-2.522409890407872890e-01
-2.067427181605991371e-01
-1.820165748603262967e-01
-1.317476512511218112e-01
-3.187718859907248681e-02
1.102014349728083764e-01
2.595159720141505533e-01
3.694231587936048777e-01
4.044858127875668452e-01
3.598436703324799368e-01
2.653196746832938158e-01
1.696308454781193797e-01
1.127156349151833548e-01
1.032762844294266846e-01
1.164443033182326198e-01
1.135911277247769746e-01
7.151427663267090340e-02
1.722393201961436304e-03
-5.346912515469259830e-02
-4.687621930850374707e-02
4.074584915139914387e-02
1.815295999153599682e-01
3.087159513481320672e-01
3.502148124481992975e-01
2.691409023880529938e-01
8.648884968088063618e-02
-1.296298570936140482e-01
-3.027703919050883652e-01
-3.902515711650470509e-01
-4.007576007474372148e-01
-3.767174059425836274e-01
-3.564324314424142104e-01
-3.455613358735036833e-01
-3.190040755065639555e-01
-2.488842620085156554e-01
-1.330613496692396869e-01
5.659232609380449031e-04
1.165382325798986485e-01
1.997173510417037667e-01
2.628003534739348779e-01
3.267629074945125334e-01
3.926840648376734300e-01
4.316882503815405170e-01
4.036287130379277999e-01
2.894015407477008028e-01
1.097135378965861940e-01
-8.488997024561184546e-02
-2.434707626703796479e-01
-3.395224505865091502e-01
-3.740057188171358460e-01
-3.599628801780380694e-01
-3.066900101286738067e-01
-2.178163837672199843e-01
-1.012915057471613645e-01
2.303167573163203419e-02
1.292556538948366474e-01
2.010507151871090137e-01
2.421767117766277788e-01
2.706704581574915780e-01
3.005734987984126638e-01
3.272791604520421949e-01
3.299604884565987550e-01
2.890845655445857254e-01
2.030197005146092970e-01
8.857713203438598304e-02
-3.432107989040913965e-02
-1.580780228814391286e-01
-2.866027166437634666e-01
-4.178054801966828435e-01
-5.269206110245563401e-01
-5.704895696751570711e-01
-5.135208649359382926e-01
-3.598890491795019297e-01
-1.591672015539374041e-01
2.013031131097542392e-02
1.333367529080795588e-01
1.859184338072489284e-01
2.220765675314458898e-01
2.839030325867807347e-01
3.730195437164992023e-01
4.450833464162743391e-01
4.417756261959863706e-01
3.355756443515259813e-01
1.530694679609339026e-01
-4.019449098892097227e-02
-1.806616970214184603e-01
-2.425643721359131422e-01
-2.440680978828132786e-01
-2.236736209341252668e-01
-2.085017392635404865e-01
-1.985980310306206809e-01
-1.752113309752950099e-01
-1.215557023138706672e-01
-3.772789646705078381e-02
5.971929249934671002e-02
1.489402844361812916e-01
2.134497313737224178e-01
2.454840485321314880e-01
2.439288018946504932e-01
2.123979948119379402e-01
1.596066554646587976e-01
9.905401502524666113e-02
4.464049675093481606e-02
3.624287108818777248e-03
-2.729379016901556376e-02
-5.837174806622313222e-02
-9.787964140307696403e-02
-1.453801727781646180e-01
-1.932968220057815489e-01
-2.350675664866282988e-01
-2.712786153251574017e-01
-3.062777283916316984e-01
-3.369606780979427230e-01
-3.446509681454301699e-01
-3.008331027119924284e-01
-1.862872225682226657e-01
-9.890614072379816379e-03
1.894731482813961643e-01
3.623892239164279161e-01
4.763872181657964333e-01
5.300432419985867671e-01
5.424805639614562747e-01
5.277094051592344792e-01
4.766945413243226515e-01
3.639590076257043227e-01
1.744652703688707729e-01
-7.160701896626336938e-02
-3.180236631266852299e-01
-4.985252574910042922e-01
-5.713612814137687401e-01
-5.379448809333127191e-01
-4.346574824466983289e-01
-3.074082975443295229e-01
-1.889512874216356664e-01
-9.200859640865260980e-02
-1.546597957276285573e-02
4.829384513700005210e-02
1.119141604136191792e-01
1.925438094430358960e-01
3.028646211757403117e-01
4.336605915975420000e-01
5.422716859923547572e-01
5.640936255314270564e-01
4.484610081718090058e-01
1.973238703626847834e-01
-1.234935480274064190e-01
-4.137811251617088404e-01
-5.916129520337503056e-01
-6.325919245818029113e-01
-5.692107396318026868e-01
-4.554792973069857753e-01
-3.281682787135358770e-01
-1.946245887872879998e-01
-5.060724099841060197e-02
9.532863916054890030e-02
2.175254773089526361e-01
2.933584366337506077e-01
3.264148799505015575e-01
3.468539221376965020e-01
3.844479333833224488e-01
4.370505412325778050e-01
4.643834397279967829e-01
4.162782527472083105e-01
2.738482634556042017e-01
6.924702881280575539e-02
-1.330919388695747108e-01
-2.783371305411606600e-01
-3.518435061144170595e-01
-3.752523748356528244e-01
-3.759469230254586236e-01
-3.603134125796869647e-01
-3.152033067291907797e-01
-2.334757663106001857e-01
-1.354344647607854391e-01
-6.117982632235832718e-02
-3.694118220350070536e-02
-4.552596820409063327e-02
-3.132046719671990886e-02
5.825725796711361815e-02
2.260119403282635497e-01
4.121210799969584615e-01
5.288096388062202280e-01
5.176751870307805259e-01
3.858578448097239599e-01
1.942844054825241806e-01
1.008718122033019915e-02
-1.367631061829255312e-01
-2.588372703854923129e-01
-3.790756992999095298e-01
-4.934915471338251480e-01
-5.634308696614753753e-01
-5.437838116314513970e-01
-4.208362944877652168e-01
-2.255953519222047010e-01
-1.156056054458548532e-02
1.818792153109843324e-01
3.474217247078581483e-01
4.948401148424039775e-01
6.198533204299876420e-01
6.887531156129903520e-01
6.560719595163564399e-01
5.019814825938172520e-01
2.570821082006446989e-01
-8.465919298105306634e-03
-2.251523394467810912e-01
-3.630811279763305199e-01
-4.400814794903276650e-01
-4.942310131816941010e-01
-5.441370206186725289e-01
-5.691900328013299593e-01
-5.253385359420728040e-01
-3.835957639058015234e-01
-1.607606834862424783e-01
8.206369771637533894e-02
2.730545635178761588e-01
3.713566817016722976e-01
3.873234950901543461e-01
3.679093236056675265e-01
3.589623038384432419e-01
3.718051024198950616e-01
3.770112561531637763e-01
3.280617096252564924e-01
1.968016816244975709e-01
-4.146895858154198145e-03
-2.259526659452019692e-01
-4.095487927864833178e-01
-5.138849894540398200e-01
-5.288594400841264420e-01
-4.691499391605467029e-01
-3.592824085839062542e-01
-2.234791318915939073e-01
-8.491256678940869995e-02
3.252911806300694264e-02
1.094769695490958317e-01
1.437819973658753803e-01
1.593643550393302188e-01
1.979882888927573525e-01
2.929148143364916912e-01
4.403986730932847316e-01
5.914390007981811248e-01
6.741945540647218404e-01
6.347569981382200632e-01
4.685818587932475965e-01
2.203551650814477014e-01
-4.654338852487321931e-02
-2.867041230101708416e-01
-4.873684670019033383e-01
-6.523029372297288742e-01
-7.729088290492713842e-01
-8.162170190508230005e-01
-7.448245009279141904e-01
-5.543516701393002011e-01
-2.949350375096759791e-01
-5.267633246398661928e-02
1.008730219732101030e-01
1.544831670161025683e-01
1.616581689679595923e-01
1.978745526431380242e-01
3.020889261330314546e-01
4.469393659649093520e-01
5.595998136741224815e-01
5.755272101182609124e-01
4.827520268987146590e-01
3.243102509239071951e-01
1.614436627462456086e-01
3.066125295078037105e-02
-7.087606010196517703e-02
-1.641655743588296690e-01
-2.548936268613955503e-01
-3.197782728679752218e-01
-3.248257655360473617e-01
-2.578102162855681057e-01
-1.443584943288166722e-01
-3.207022342937279613e-02
4.384883438078948648e-02
8.324011552424703808e-02
1.123462539410206296e-01
1.524849889068891629e-01
1.949008933156684276e-01
2.047720607694836215e-01
1.509435216647888045e-01
3.499314708632567106e-02
-1.058907383334610763e-01
-2.244250216708592593e-01
-2.948765007907098168e-01
-3.244530784789385613e-01
-3.369396361513713467e-01
-3.453046324583939342e-01
-3.382008579392300485e-01
-2.912872154817274239e-01
-1.916655248254505450e-01
-5.274564637126620548e-02
9.353382371455667976e-02
2.195344819909880729e-01
3.191718424575913371e-01
4.046584678532210155e-01
4.864319011345371591e-01
5.547666149417551651e-01
5.798789938662227694e-01
5.312950130821278982e-01
4.011041624142053230e-01
2.128833621452945468e-01
9.910939963451270707e-03
-1.678728933064473350e-01
-3.015310340699134395e-01
-3.945613029540402938e-01
-4.598341223229706620e-01
-5.032323930608217921e-01
-5.157261306648549537e-01
-4.785849380115743124e-01
-3.775256686777968551e-01
-2.162779189801183055e-01
-2.082793563958890148e-02
1.684678735064390476e-01
3.122693407556003109e-01
3.862074809696257049e-01
3.861889142040068057e-01
3.242339264162913959e-01
2.201036418454176968e-01
9.498886708102877163e-02
-3.065949226205841316e-02
-1.378924976477520770e-01
-2.119802120362563325e-01
-2.466916705864801995e-01
-2.461162780091221691e-01
-2.208826006114668616e-01
-1.805495924547985132e-01
-1.279571555244803371e-01
-6.009124697741662080e-02
2.562587989208853223e-02
1.254394877878615422e-01
2.288096274205642100e-01
3.229325709051118487e-01
3.969771820216715374e-01
4.416211935657383125e-01
4.453322931179585220e-01
3.938009484922126990e-01
2.772916502316210563e-01
1.027970156354945652e-01
-9.927839681397976346e-02
-2.829613394237510682e-01
-4.076861031990983708e-01
-4.592507885439300885e-01
-4.550993577647083899e-01
-4.287330653229243227e-01
-4.040259235372147817e-01
-3.786244536736637079e-01
-3.288768859866078031e-01
-2.318057006307530088e-01
-8.628884305672951394e-02
8.310621686579600098e-02
2.414583067412048867e-01
3.641238914912789393e-01
4.453544271006854016e-01
4.891439019778629493e-01
4.929613271738843561e-01
4.418354415518074285e-01
3.210585427194576069e-01
1.380417992804473526e-01
-6.689171387882081321e-02
-2.343284427200668096e-01
-3.179341261088982629e-01
-3.120240880831905983e-01
-2.528934485332711701e-01
-1.917592481382493497e-01
-1.593112593841943259e-01
-1.482625276044040319e-01
-1.255991158940911179e-01
-6.290390428359576847e-02
3.956046671549029448e-02
1.520307951361160592e-01
2.352929062598474730e-01
2.645173416872754757e-01
2.403978695641277308e-01
1.834152602922874964e-01
1.189455373483615103e-01
6.383945791884054755e-02
2.031063746693212435e-02
-2.253518911445036299e-02
-8.120869957560247765e-02
-1.664068609603048809e-01
-2.717625565551671230e-01
-3.698786313945967574e-01
-4.216355448121692495e-01
-3.967564874417999210e-01
-2.934104467873379640e-01
-1.418048420579026137e-01
1.345356024570751319e-02
1.408676926300014565e-01
2.385477421632323236e-01
3.261467613272405197e-01
4.185460196756509155e-01
5.036175352859972865e-01
5.439664024070685056e-01
5.025897300607055085e-01
3.717060374673025747e-01
1.809048376961248372e-01
-2.169881787085625735e-02
-1.988885960928656327e-01
-3.401135543563741925e-01
-4.528643257138013078e-01
-5.408220177917841820e-01
-5.903142141243798990e-01
-5.770380643343903104e-01
-4.856618820956364879e-01
-3.240567970654828489e-01
-1.205150233717818820e-01
9.147609213834168029e-02
2.864643338055233301e-01
4.486742323966564361e-01
5.655559129667050433e-01
6.242012271856645089e-01
6.163028026284120831e-01
5.457219536014445982e-01
4.278677616947349494e-01
2.781017137923345039e-01
9.963527291434134958e-02
-1.145166422807695761e-01
-3.626088669488291005e-01
-6.134633740221266951e-01
-8.059321685033340454e-01
-8.764587632189658750e-01
-7.978374581104492602e-01
-5.988557380491132953e-01
-3.469283725679369601e-01
-1.056852990156860739e-01
9.897868397565945386e-02
2.779107600183290949e-01
4.470313023960910681e-01
5.965351316607263588e-01
6.910027561488074621e-01
7.006797074438373407e-01
6.332486076267118680e-01
5.327489245636110038e-01
4.419800641894297555e-01
3.604845253600855726e-01
2.385918791190360932e-01
1.915021790051801842e-02
-3.036408742867283683e-01
-6.572379000821935158e-01
-9.215777301404428634e-01
-9.977681374505604772e-01
-8.644113833530377988e-01
-5.819732561369985735e-01
-2.473603998661829673e-01
6.207082152709653133e-02
3.136700562137189063e-01
5.039416563564028673e-01
6.277551010901845085e-01
6.660511684725162196e-01
6.024172480158411780e-01
4.481544748866570504e-01
2.467257117972008751e-01
4.909881011242669957e-02
-1.191176712404175553e-01
-2.681565596507246019e-01
-4.211492418132565252e-01
-5.775615135008387302e-01
-6.964675741647787799e-01
-7.168232872351296692e-01
-6.000312763566336693e-01
-3.608132821522149758e-01
-6.226173353351227568e-02
2.194503585403018153e-01
4.320214467751972154e-01
5.594639997782551166e-01
6.079093114611813231e-01
5.854062146693075341e-01
4.975452944902326036e-01
3.607692327182180914e-01
2.141309660985979413e-01
1.089555855588787703e-01
7.674549918250800351e-02
9.999545313533847457e-02
1.149858818535199056e-01
5.321760618346946248e-02
-1.043046573463400906e-01
-3.011060274103228851e-01
-4.322008370445389880e-01
-4.106159549979180312e-01
-2.291680030515290678e-01
2.647625798563157939e-02
2.247973570539810451e-01
2.652642311527780294e-01
1.344738412734592381e-01
-9.369886616864547824e-02
-3.101736701785575145e-01
-4.369107493026661571e-01
-4.635546285514215437e-01
-4.353611375971087050e-01
-4.082206337102513571e-01
-4.061596450019235860e-01
-4.091500693488237528e-01
-3.736798032355623800e-01
-2.661335577613201941e-01
-8.472716441690471278e-02
1.412966547681042129e-01
3.692998714458631260e-01
5.631473999039915412e-01
7.038663071077482236e-01
7.884146810526134752e-01
8.210684883308662085e-01
8.043169164504568869e-01
7.349385617794037540e-01
6.078575189393962130e-01
4.259630418700015575e-01
2.093003154267307209e-01
-4.935835304063607154e-03
-1.759289643725046592e-01
-2.808609567225248682e-01
-3.304832700906234488e-01
-3.649757476094190878e-01
-4.283923197659200155e-01
-5.361717128515393060e-01
-6.581633974402877341e-01
-7.316301125925162019e-01
-6.988054431333770022e-01
-5.456844283499981962e-01
-3.162567813180258147e-01
-9.188349695106412529e-02
5.168851983645517123e-02
8.301904182178171387e-02
2.659563792189945097e-02
-5.710658795595921489e-02
-1.080996343481057664e-01
-9.683279342354991770e-02
-3.169485132949451112e-02
5.609066869161108415e-02
1.369104139656434627e-01
2.000057928646260530e-01
2.543076040604265176e-01
3.155813883444630319e-01
3.910771563275224350e-01
4.728012249473064754e-01
5.427830699903956058e-01
5.844438691935083252e-01
5.904372198578581310e-01
5.616866421138992926e-01
5.006460286426192008e-01
4.065950779911056134e-01
2.778797636981048536e-01
1.184722604485201614e-01
-5.845132213948467381e-02
-2.343494621435722458e-01
-3.934549167414689852e-01
-5.275919077225914577e-01
-6.334221463934264218e-01
-7.059594728062758007e-01
-7.366536069247415774e-01
-7.199922002394523179e-01
-6.630285756265610342e-01
-5.870258236414094277e-01
-5.157906192527150768e-01
-4.575559164709647186e-01
-3.953068563515856892e-01
-2.957220527639939922e-01
-1.321466534421420203e-01
9.520184595230157809e-02
3.568593475577605534e-01
6.097183331985184251e-01
8.159335308541564302e-01
9.497188539755982983e-01
9.909961062057763836e-01
9.202240642981218688e-01
7.286672995634069228e-01
4.407425842292132523e-01
1.261991675942204516e-01
-1.196996887557580380e-01
-2.256818660415321198e-01
-1.921433764177288561e-01
-9.821412935909511199e-02
-5.485098179839725807e-02
-1.313521993440709967e-01
-3.061462426813100213e-01
-4.782837094592115035e-01
-5.332590335643161428e-01
-4.180566017669631318e-01
-1.748187397622418260e-01
8.681562119984032044e-02
2.561835256586407206e-01
2.812200224538647375e-01
1.857782183108674934e-01
4.129628005501329024e-02
-8.169520585105087551e-02
-1.497275898760797586e-01
-1.725456546721637618e-01
-1.835426041732323987e-01
-2.121709899209762717e-01
-2.653684224377483858e-01
-3.255178615058631486e-01
-3.624903965837138475e-01
-3.515428749980409329e-01
-2.873764503036588258e-01
-1.866342260971413092e-01
-7.667897691540112581e-02
2.324290010965847364e-02
1.158341788212696177e-01
2.232565010510803860e-01
3.676867769060650493e-01
5.476939118347405877e-01
7.283759087776844332e-01
8.544403801657225461e-01
8.785334892844797183e-01
7.855225453882187514e-01
5.967600827076646741e-01
3.538733275032286962e-01
9.642506446148729760e-02
-1.500378995660241466e-01
-3.703044762683072033e-01
-5.491343155402337306e-01
-6.678807643984426834e-01
-7.134186488660123615e-01
-6.911870649358400343e-01
-6.279381147825110476e-01
-5.570940575443328324e-01
-4.949827599861717498e-01
-4.266259644774122450e-01
-3.153054608798995240e-01
-1.327341434329555314e-01
1.106131724718572573e-01
3.583904375857942526e-01
5.328225392055226939e-01
5.765459409852875527e-01
4.846660062383911782e-01
3.062226236726334760e-01
1.152240707923170293e-01
-2.862537566298567482e-02
-1.045518801734288961e-01
-1.282429235650731081e-01
-1.291989305298272273e-01
-1.267294804147400256e-01
-1.205077301355333280e-01
-9.808709449027566696e-02
-4.910573693515113414e-02
2.658580077704077171e-02
1.215587808890221111e-01
2.283037920338818472e-01
3.419592276937196140e-01
4.545355351703635471e-01
5.465411174312755360e-01
5.861320415441759746e-01
5.404761608961303754e-01
3.935026890288299550e-01
1.579068656688255301e-01
-1.271147052051808113e-01
-4.104755232538926379e-01
-6.459718441785495813e-01
-8.017353049168962631e-01
-8.610264415205338695e-01
-8.204213675651761406e-01
-6.910795735238273174e-01
-5.015577948104882333e-01
-2.945821277124177628e-01
-1.127239359288018661e-01
2.177579680889898950e-02
1.189474341663748769e-01
2.128995064191457898e-01
3.353809790617969799e-01
4.880776884433432050e-01
6.339739593379229987e-01
7.155120195296179597e-01
6.879002653721431049e-01
5.451147266182168050e-01
3.223852787081724625e-01
7.657938832959043651e-02
-1.397315580557826342e-01
-2.942636776676243460e-01
-3.761992529425282061e-01
-3.893945419483901826e-01
-3.467672954839037258e-01
-2.683840066378249123e-01
-1.788535442829768951e-01
-9.990405065621286995e-02
-4.062320098156989301e-02
6.780658604111616805e-03
6.002647949855671738e-02
1.315891662856459865e-01
2.158766452147422854e-01
2.888352843227515176e-01
3.211916456594485214e-01
2.961326784954051439e-01
2.187072525841610160e-01
1.106430975899594937e-01
-4.419087308099242661e-03
-1.132726717489589419e-01
-2.141257917440424485e-01
-3.075962791110147254e-01
-3.875667129811267708e-01
-4.408734513071042582e-01
-4.556598479509396116e-01
-4.295960287734377769e-01
-3.693885740137762275e-01
-2.819436262679257954e-01
-1.665409886993182709e-01
-1.740619339342275307e-02
1.635223184173325572e-01
3.544459053128733994e-01
5.146179697496172656e-01
6.011836850550397182e-01
5.917591254715419691e-01
4.969537274354312029e-01
3.537001560320462423e-01
2.040129232463057385e-01
7.396203098989156954e-02
-3.334812684459767529e-02
-1.279276199853542351e-01
-2.155580224448204185e-01
-2.868465427051809513e-01
-3.205998657237634220e-01
-2.981880928526902674e-01
-2.177059468184615043e-01
-9.770154660434676730e-02
3.151406936150216720e-02
1.421313536023292301e-01
2.187738000994345344e-01
2.583958600701921626e-01
2.621859575213617566e-01
2.271305655237203514e-01
1.447572017128215816e-01
9.030440263178202143e-03
-1.718173362891676770e-01
-3.686812613733559396e-01
-5.369307223401577067e-01
-6.326104100033085320e-01
-6.303983832038558832e-01
-5.322568543760013426e-01
-3.620008782889864163e-01
-1.511369379461424689e-01
7.287876216645433614e-02
2.883781325795423678e-01
4.735699126156937000e-01
6.027398005359092537e-01
6.522290583893809446e-01
6.138357922053293558e-01
5.044335543321945003e-01
3.614883618712109725e-01
2.248544739428727235e-01
1.168328295188625909e-01
3.473765701324516009e-02
-3.930878751927766035e-02
-1.201130561907850225e-01
-2.073791472462014063e-01
-2.879843724305117258e-01
-3.475703682590005617e-01
-3.789418392643694178e-01
-3.797175698262030830e-01
-3.441608618240248330e-01
-2.615100796212888046e-01
-1.271517757228325940e-01
4.152527444561548986e-02
2.013746088395006462e-01
3.010697260037221712e-01
3.104891503029312272e-01
2.394569392203524938e-01
1.297113825060498549e-01
2.562505642186106714e-02
-5.278937245416419344e-02
-1.133952446950923787e-01
-1.718156645856237230e-01
-2.281858131810234613e-01
-2.627298612447689363e-01
-2.534672217288779228e-01
-1.982879904727994080e-01
-1.196671907669274448e-01
-4.666412895083846962e-02
9.881132163151548631e-03
6.630956685792652183e-02
1.502118999781570929e-01
2.721600744585146447e-01
4.085111334629015212e-01
5.099614693881642236e-01
5.300901963133912709e-01
4.529511519333706548e-01
3.005104951943973202e-01
1.168330857079801222e-01
-5.717851410882113239e-02
-1.999935152978913888e-01
-3.079189900515089673e-01
-3.821929114364595037e-01
-4.189097369554057870e-01
-4.110362149372225327e-01
-3.592902991391141443e-01
-2.797293707008404740e-01
-1.982093203325461239e-01
-1.335981902710272062e-01
-8.295390076152620029e-02
-2.280287040912618024e-02
7.090985324190746120e-02
1.975022021654295190e-01
3.214367971638122379e-01
3.890267538474108666e-01
3.633313382898160082e-01
2.523216372574596522e-01
1.074083873272596440e-01
-9.402261793848898375e-03
-6.651842401527686965e-02
-8.056511618892378546e-02
-9.665893564755009826e-02
-1.467444362137799163e-01
-2.199632288030696492e-01
-2.697142124990533629e-01
-2.517545060021200709e-01
-1.614516803487450192e-01
-3.866876550438561044e-02
6.393413381968524045e-02
1.221093948542089636e-01
1.553440489188742946e-01
2.031210064310803864e-01
2.828787621861170720e-01
3.666967831416795276e-01
3.979494842595807658e-01
3.348007049622313547e-01
1.842883054694763600e-01
-1.071259372327104664e-03
-1.602089165295261519e-01
-2.624195321432034600e-01
-3.173216097564647287e-01
-3.518771451551964136e-01
-3.787786069113688314e-01
-3.851390294935443936e-01
-3.489811821953355819e-01
-2.647658408309682132e-01
-1.524155527414306488e-01
-4.186433388213711693e-02
5.084441208894019404e-02
1.323935742649919589e-01
2.177925363477602738e-01
3.074205138254949565e-01
3.786622107383515456e-01
4.015001090530755379e-01
3.644041459141057482e-01
2.861342084054709911e-01
2.009455342297994385e-01
1.289319037457266615e-01
5.815470765433937428e-02
-4.325346568550875181e-02
-1.924864523556987228e-01
-3.636978648066238606e-01
-4.925278292387492152e-01
-5.148596762578647734e-01
-4.124576425963240034e-01
-2.298993062419260047e-01
-4.746432026428855366e-02
7.163894652597485591e-02
1.206914352549776914e-01
1.458298205768202294e-01
2.023579277056478665e-01
3.048984001789747378e-01
4.102976602422394592e-01
4.471670008471376745e-01
3.699316707276957827e-01
1.959544223171422739e-01
-3.219605841794453971e-03
-1.504159936389413421e-01
-2.143387650905136110e-01
-2.247577756481093647e-01
-2.404540749128153965e-01
-2.962998660517803806e-01
-3.724126355199189331e-01
-4.102712461465034544e-01
-3.620139019511666167e-01
-2.314187637420509480e-01
-7.179271937294727512e-02
5.763825332631593301e-02
1.394479653156364962e-01
2.079887894794532621e-01
3.115079240614879175e-01
4.580010198897890850e-01
5.924229937849898597e-01
6.284429885155304873e-01
5.125098710176054784e-01
2.694870655463408315e-01
-7.985676644953920711e-03
-2.197936898287794205e-01
-3.220274030182065372e-01
-3.454743524794251508e-01
-3.572115377461101415e-01
-3.990983621924426572e-01
-4.538997101053875438e-01
-4.649616278824381110e-01
-3.902276537310577220e-01
-2.435484873972387776e-01
-8.811329149570204522e-02
1.249301933099652984e-02
4.490298052250435434e-02
5.651572888687968199e-02
1.171710294931759266e-01
2.622522062236315454e-01
4.613080571799655916e-01
6.350547259956900170e-01
7.059907718902300733e-01
6.441061128713396755e-01
4.764702809826063534e-01
2.594707698911677962e-01
3.993119239496928374e-02
-1.645424692155066371e-01
-3.554111669930181128e-01
-5.281409582490085297e-01
-6.574979244153331681e-01
-7.070343046659789410e-01
-6.546849260100048307e-01
-5.126341275047391344e-01
-3.244677677922317427e-01
-1.408906268888606705e-01
8.262651532639331275e-03
1.257966613901528863e-01
2.353390168471812816e-01
3.555541404213767298e-01
4.790999894037630269e-01
5.708462657783869298e-01
5.864689853808893183e-01
4.993989885699450237e-01
3.193847137609469589e-01
9.172075959098194287e-02
-1.219662380585306294e-01
-2.702234361486354763e-01
-3.315807490823745041e-01
-3.188554990458664085e-01
-2.680031029406492737e-01
-2.185248634225981645e-01
-1.946746554501736504e-01
-1.950293983464541081e-01
-1.945109434583612018e-01
-1.585611452668383714e-01
-6.389822957945709425e-02
8.434571343232216689e-02
2.496123092196624316e-01
3.788767341551141921e-01
4.283270210084728080e-01
3.845769781057563619e-01
2.683686302892491216e-01
1.194756251572910710e-01
-2.570216799564942201e-02
-1.484878743679207969e-01
-2.466110681253259884e-01
-3.221630163931563651e-01
-3.707933548965386406e-01
-3.807759361947747889e-01
-3.410647308817521539e-01
-2.504904385951635670e-01
-1.209856005382144856e-01
2.613798502203462659e-02
1.668089824771519791e-01
2.797579031577308584e-01
3.503904598195441977e-01
3.740211310450315407e-01
3.575159970512695740e-01
3.159770836075759814e-01
2.630508592299647397e-01
1.999058942785312265e-01
1.127149828209961652e-01
-1.529408060641379574e-02
-1.830613129227785518e-01
-3.584744077761721770e-01
-4.869716892866025604e-01
-5.204857130269271437e-01
-4.476018342344297851e-01
-3.019980830284555995e-01
-1.414183781621305702e-01
-1.213329903340953919e-02
7.492357054804524297e-02
1.401062046402408723e-01
2.094688662261740275e-01
2.900104916962743529e-01
3.646226639959054827e-01
4.071683981007158115e-01
4.017210584581073496e-01
3.493685739626345432e-01
2.598612904396316869e-01
1.398625455288648178e-01
-8.568155082257389310e-03
-1.772644536364207379e-01
-3.407009868320970969e-01
-4.585362436023037724e-01
-4.948791541782751047e-01
-4.414379241179851587e-01
-3.256872948129748702e-01
-1.952191172966281640e-01
-8.813940304851546059e-02
-1.133922192315299504e-02
5.685041616296282463e-02
1.420609325629511865e-01
2.470684433075157060e-01
3.438919473888911171e-01
3.905228372004350135e-01
3.587708114264916981e-01
2.523184541751899990e-01
1.034654522932284548e-01
-4.601176146899196850e-02
-1.643599633640394908e-01
-2.377808574774901151e-01
-2.665598699344282063e-01
-2.574974042544285746e-01
-2.194885286120894508e-01
-1.621302752916355949e-01
-9.334215178130306212e-02
-1.525031924035043229e-02
7.673805986177817395e-02
1.867801193686836614e-01
3.062779694589695123e-01
4.074548756948703221e-01
4.524164104051614510e-01
4.147377390977029510e-01
2.975565249874159712e-01
1.321383872314140229e-01
-4.344393323490114422e-02
-2.075516889587460390e-01
-3.590401043589748209e-01
-4.982638322349984827e-01
-6.042556922989126278e-01
-6.340481398464468121e-01
-5.515923696335343074e-01
-3.647008710812931209e-01
-1.356495954889950228e-01
5.100244699709433061e-02
1.438646390307188327e-01
1.605749075907325907e-01
1.726815599006581992e-01
2.476951844505365652e-01
3.922700486866355085e-01
5.419386565149428847e-01
6.069255166114431166e-01
5.387039622256751814e-01
3.650218902867977122e-01
1.665887415747755174e-01
1.582577506356896979e-02
-7.197667282345138196e-02
-1.367631883560856410e-01
-2.261450936514926568e-01
-3.451278757294709010e-01
-4.467285935333956126e-01
-4.707303057679820268e-01
-3.961858118113976701e-01
-2.618920979999186383e-01
-1.369574672205555455e-01
-6.628465047917381225e-02
-3.689521710841948965e-02
6.766398895241082512e-03
1.113916622464445338e-01
2.697549702201202937e-01
4.188601169865374674e-01
4.826640814487966336e-01
4.252496009265265275e-01
2.733161947816771242e-01
9.280739721999299585e-02
-5.887679661312644752e-02
-1.662047474768216515e-01
-2.502811800499700201e-01
-3.342174863568287413e-01
-4.117924487952125956e-01
-4.469899164072204667e-01
-4.039355137942290952e-01
-2.803388154853387881e-01
-1.150439922670405540e-01
3.703821736020866673e-02
1.416002014719070223e-01
2.031083140119573915e-01
2.510560728273846798e-01
3.082585530952434705e-01
3.694557339029662657e-01
4.078392890899115164e-01
4.014763621104997515e-01
3.538784484159296362e-01
2.889268577894040790e-01
2.247517430372682756e-01
1.520104217966624094e-01
3.984240641910724579e-02
-1.318073222517417986e-01
-3.406899097074854166e-01
-5.221847800629397796e-01
-6.069804920877709398e-01
-5.700235843518656198e-01
-4.511387554213593942e-01
-3.273582829287962070e-01
-2.551735904277972478e-01
-2.268989519856079162e-01
-1.769577148939479594e-01
-3.621165553724253749e-02
2.056417991343598151e-01
4.779873122502034111e-01
6.671194202003121188e-01
6.888238677431895995e-01
5.437246138184417266e-01
3.152111390762016296e-01
1.118073115312469001e-01
-3.356658626556929814e-03
-4.469011098738606691e-02
-7.684193805720238024e-02
-1.526748305759683677e-01
-2.669508987213076168e-01
-3.617123745894881282e-01
-3.765402215057880864e-01
-3.004892502034951507e-01
-1.821539429280470412e-01
-8.997438341225205694e-02
-5.663311645447886844e-02
-5.435636992304155451e-02
-2.160222512089757241e-02
8.145928439266986176e-02
2.348570065475885094e-01
3.692108806700394874e-01
4.154986981339608976e-01
3.537757238839656093e-01
2.232579997826355245e-01
8.904523216765712623e-02
-4.932415290504504890e-03
-5.935066680887711443e-02
-1.047761947177523745e-01
-1.663938255422654500e-01
-2.399504189589093950e-01
-2.970982402682085799e-01
-3.112881980002847326e-01
-2.791202015460906849e-01
-2.192080498069491623e-01
-1.524386208946486576e-01
-8.353111505032004280e-02
-7.102106727961132737e-04
1.072297591001013517e-01
2.324869272224259209e-01
3.446532234415160545e-01
4.048871964106263710e-01
3.868023470338630698e-01
2.896833615519874283e-01
1.375453033649360890e-01
-3.197088226902666808e-02
-1.804807686503621944e-01
-2.781576534508011789e-01
-3.092423819598149604e-01
-2.753318712395909085e-01
-1.958965224094995627e-01
-1.033284768960207323e-01
-3.129315933320818421e-02
7.868960467142735449e-05
-5.484885613044693242e-03
-2.162586058822116297e-02
-1.331839717134616907e-02
4.301796304365226864e-02
1.443205320536612157e-01
2.595928671657100617e-01
3.438031208126615113e-01
3.595426677929606796e-01
2.946580196225569437e-01
1.666710496492150306e-01
1.262182875732092979e-02
-1.288704866438491470e-01
-2.329280759193497474e-01
-2.935740024923098046e-01
-3.182760767705074545e-01
-3.177998096039515996e-01
-2.987021805174077116e-01
-2.618465809030330327e-01
-2.049209992945032477e-01
-1.249810138796675490e-01
-1.976761810900465322e-02
1.098306320788403623e-01
2.542808668245084003e-01
3.899930630969143941e-01
4.811266692948707457e-01
4.927075947456878713e-01
4.096330807772962657e-01
2.484480703322836659e-01
5.143727654437613150e-02
-1.347124747119093358e-01
-2.809594741436725052e-01
-3.830493215519058525e-01
-4.503168427328198553e-01
-4.876208148645964080e-01
-4.865341204724328295e-01
-4.325426572939268244e-01
-3.204140242722649523e-01
-1.631968092686435223e-01
1.301143873324467348e-02
1.831052881179200398e-01
3.329094151287111392e-01
4.569830987845460712e-01
5.484848247918390207e-01
5.931351391545141016e-01
5.752815352507472113e-01
4.918313545824983812e-01
3.609211480594293198e-01
2.154285107490918616e-01
8.452910820821042670e-02
-2.220956278776070603e-02
-1.148486229283736670e-01
-2.071546460326170735e-01
-2.987223833435294629e-01
-3.713573118816708152e-01
-4.038402668518738525e-01
-3.928736794183300129e-01
-3.615415808666012087e-01
-3.459734790307044117e-01
-3.687602828809284361e-01
-4.194319636879748070e-01
-4.580820337147364918e-01
-4.408835246153005594e-01
-3.492175050389024760e-01
-2.008893293926161117e-01
-3.531955312462596586e-02
1.155006380060375482e-01
2.475848491579256960e-01
3.810859134184174657e-01
5.352284598258751913e-01
7.019335813892971787e-01
8.392331202629910170e-01
8.908032289051381891e-01
8.190090606885839231e-01
6.298436702260685749e-01
3.743859610326970011e-01
1.266152326127783501e-01
-4.957656806505778002e-02
-1.275597115338051313e-01
-1.275656834416822871e-01
-1.055800806499291866e-01
-1.266843842221593297e-01
-2.340080233156114908e-01
-4.267880205771464319e-01
-6.580146313583912221e-01
-8.536559919619997050e-01
-9.449660802636546952e-01
-8.986697845654370020e-01
-7.308710754706488899e-01
-4.985369519312012332e-01
-2.727757600102426183e-01
-1.060317269887932901e-01
-8.112038146064426414e-03
5.705169894881320647e-02
1.504443106292949750e-01
3.210808216099984569e-01
5.714675952486835131e-01
8.454193864229178068e-01
1.048260467504928739e+00
1.091609866067545509e+00
9.395994040766504352e-01
6.307472569526557660e-01
2.625004968200370103e-01
-5.362619869041079790e-02
-2.420047065608995907e-01
-2.915594420504878936e-01
-2.498521874238371354e-01
-1.892627485044755531e-01
-1.667558618168150375e-01
-1.999372923492594989e-01
-2.698311792844338419e-01
-3.434302196660514173e-01
-3.977972021094431376e-01
-4.291765915023083022e-01
-4.432977953088319545e-01
-4.375593376807921930e-01
-3.918185454509763299e-01
-2.778586679592761621e-01
-8.302495449625768575e-02
1.684935562880147675e-01
4.137986902900134822e-01
5.740323002715295164e-01
5.906223901755712768e-01
4.544573320469847966e-01
2.113700897682618818e-01
-5.830651396407993126e-02
-2.736389339332103710e-01
-3.824447379189120921e-01
-3.738638652581395272e-01
-2.730853329766308457e-01
-1.254716333742038059e-01
2.126784782744645108e-02
1.315181769544570556e-01
1.907078082147244114e-01
2.073816106108532231e-01
2.068848460213637552e-01
2.171691895809652328e-01
2.518394089077707343e-01
2.994352441489811500e-01
3.267564972576129101e-01
2.966404146151739862e-01
1.909860122396117021e-01
2.488720587300832787e-02
-1.578888610358173961e-01
-3.060610970566977618e-01
-3.854315029215578114e-01
-3.915998981734305495e-01
-3.444126375348919300e-01
-2.709722832342348342e-01
-1.910468315387319760e-01
-1.141637363050311132e-01
-4.612198473417461475e-02
5.322797551407978944e-03
3.321793822027220566e-02
3.998482919305634820e-02
4.151223204232175334e-02
5.926467381304097171e-02
1.040753935028053689e-01
1.645743497732135852e-01
2.114183311372426211e-01
2.161647462867305747e-01
1.709759377450568718e-01
9.356214079968844244e-02
1.317651872850260364e-02
-5.100601482461403213e-02
-1.012887329744620868e-01
-1.532733332087480582e-01
-2.154563222134030231e-01
-2.746940526913316805e-01
-3.008485641098521679e-01
-2.674276694042061475e-01
-1.711224968296663207e-01
-3.417037263725306029e-02
1.114137388209283097e-01
2.430846133246016005e-01
3.538780914672198241e-01
4.421140478455218292e-01
4.975281887341405085e-01
5.002746632592078857e-01
4.365370838476408943e-01
3.169582654490029627e-01
1.783408668914900908e-01
6.171200135523865343e-02
-1.892622999026091768e-02
-9.136586217965239620e-02
-2.072659346506622313e-01
-4.000946139219072606e-01
-6.484083831167347656e-01
-8.736027354908921794e-01
-9.782206575612895083e-01
-9.015282959431479837e-01
-6.554797904099756156e-01
-3.171481710613067717e-01
1.608582721976187235e-02
2.772478265511709172e-01
4.534260669738175431e-01
5.712656052644332627e-01
6.608821819992882762e-01
7.274073791492028374e-01
7.492004479543059592e-01
6.991361002104594657e-01
5.689807202763546012e-01
3.781820659826843900e-01
1.635365514264224274e-01
-3.897948994627564723e-02
-2.060408425232883034e-01
-3.273073349076580096e-01
-3.999999105210892969e-01
-4.261737641929719267e-01
-4.145446649714943921e-01
-3.808994297288802455e-01
-3.410864239905484485e-01
-2.991436887703257108e-01
-2.415408087593742537e-01
-1.467462401872483557e-01
-6.567240224265635806e-03
1.572106372343378689e-01
2.971637242383080024e-01
3.660198320509387981e-01
3.455065131916771337e-01
2.553649792705864896e-01
1.353298112049066415e-01
1.602574253700150830e-02
-9.559436082143185631e-02
-2.042943813936489716e-01
-3.015850021368067235e-01
-3.550804406149822845e-01
-3.276162404195367417e-01
-2.130600782110508851e-01
-5.614501952493600179e-02
6.757993675423434876e-02
1.031974037742638128e-01
6.123027680290583918e-02
1.741345210634956397e-02
6.119141056554885938e-02
2.273556946501375520e-01
4.616133141109206028e-01
6.482447129618239545e-01
6.825087781535927878e-01
5.369796450344888061e-01
2.755317579878491241e-01
7.521274218170170833e-03
-1.823731644536279173e-01
-2.785639951203938702e-01
-3.259910574417511642e-01
-3.818429497800915895e-01
-4.674439762342705862e-01
-5.548413850019582316e-01
-5.929840832406702011e-01
-5.490942051919316391e-01
-4.330210452933799248e-01
-2.886565867860860779e-01
-1.619292680388118855e-01
-7.035645550669639148e-02
4.682188962897904094e-03
9.966335526497366315e-02
2.393595448947704041e-01
4.167774346956399367e-01
5.948273637557108806e-01
7.262289658970877415e-01
7.767206833562880774e-01
7.368598523604735773e-01
6.180197681571668600e-01
4.399194315482583550e-01
2.212914276495393517e-01
-2.018943262830708019e-02
-2.622498774296957436e-01
-4.755396387497202171e-01
-6.300086589846498608e-01
-7.071256030611261512e-01
-7.084765506996419937e-01
-6.528815199927342494e-01
-5.628829215469152158e-01
-4.502962852450344555e-01
-3.120147411315578045e-01
-1.396739007827807466e-01
6.420564060400019146e-02
2.765957495510321662e-01
4.593267595916554757e-01
5.765443074452600847e-01
6.120325582919148300e-01
5.742158094234182109e-01
4.859784217991817146e-01
3.677900195216610713e-01
2.273335978792336842e-01
6.343180277610258044e-02
-1.193922217732132363e-01
-2.984106357918679397e-01
-4.345733060123860292e-01
-4.908161962474546502e-01
-4.553940707163703361e-01
-3.523995722515297357e-01
-2.286347837508073411e-01
-1.232561952896333857e-01
-4.173426233392255047e-02
4.449593431380513553e-02
1.694032185517853062e-01
3.350716336865436351e-01
4.959180536155686769e-01
5.803871645962754844e-01
5.370562495394924918e-01
3.711968950957483804e-01
1.432661635100691833e-01
-7.033340047252301108e-02
-2.244183138039167746e-01
-3.244886217951481466e-01
-4.057365441624705138e-01
-4.915246178803469035e-01
-5.667006724450802668e-01
-5.869832421460973171e-01
-5.146616257379756920e-01
-3.496106695763696592e-01
-1.305931246436907445e-01
9.146277096337923629e-02
2.832110204707564693e-01
4.368730117110003475e-01
5.537929213609976697e-01
6.237105068017596565e-01
6.224423874309583660e-01
5.314451999224742984e-01
3.605845344648090922e-01
1.514212939836980520e-01
-4.405178201537723881e-02
-1.919782228850725470e-01
-2.891700182347208270e-01
-3.514725854563354734e-01
-3.913623950493548276e-01
-4.058530669033607596e-01
-3.834787725951300796e-01
-3.199063544260198899e-01
-2.245306787509350477e-01
-1.115759846554007645e-01
1.322896999530182027e-02
1.536253634781451494e-01
3.072303859049983488e-01
4.480440945688877186e-01
5.277836971031024671e-01
5.021111087181248100e-01
3.642806132455564949e-01
1.579855898785705037e-01
-4.504698369647733291e-02
-1.888214501576829518e-01
-2.654181433403187129e-01
-3.108930944762877679e-01
-3.686361592374132190e-01
-4.500366906213030815e-01
-5.233299346258072360e-01
-5.372503243006010454e-01
-4.580530950664239986e-01
-2.904772561787082319e-01
-7.035430755748314779e-02
1.586439777557546171e-01
3.620226649854856316e-01
5.154455646598727903e-01
5.992159813217801112e-01
6.013379071076211391e-01
5.304669802607979712e-01
4.225753338713283958e-01
3.249235952080690715e-01
2.620121657304459450e-01
2.113093244256636916e-01
1.164209978412526492e-01
-6.372531785699958595e-02
-3.062084310037317403e-01
-5.203901212044259594e-01
-6.017873232271740980e-01
-5.077351089342061474e-01
-2.954158406413331939e-01
-8.782764584866861735e-02
1.032244091728132251e-02
-1.689355465647277010e-02
-9.430690585889678346e-02
-1.219977932244174085e-01
-5.612964225783195760e-02
5.987923266295328006e-02
1.356953654943477694e-01
1.094385123642353935e-01
-4.237992745135449324e-03
-1.294610885967718561e-01
-1.902952403285944061e-01
-1.649537796121171573e-01
-9.098902334733723063e-02
-2.347262502465037592e-02
1.368332569848992875e-02
4.205752074410227387e-02
1.009550083895076888e-01
2.063213124406677312e-01
3.333443994000386823e-01
4.352918693724432408e-01
4.782839895550848874e-01
4.601660939255149962e-01
3.998264604156896995e-01
3.121343937759583076e-01
1.955495494341590590e-01
4.420538291843087442e-02
-1.300245925117932411e-01
-2.910814812568692234e-01
-3.984388058850979464e-01
-4.369735818433380103e-01
-4.289866686024971232e-01
-4.151830353690186826e-01
-4.196531851061666152e-01
-4.291857706054088561e-01
-4.051579197987859038e-01
-3.177023979112674201e-01
-1.726761885117763240e-01
-8.995834694984772284e-03
1.299307060827647464e-01
2.253647410751716818e-01
2.891217514979947389e-01
3.439724506998311782e-01
3.980169431206734831e-01
4.355008899468919559e-01
4.300376404678176723e-01
3.664314471555133457e-01
2.518492151316629180e-01
1.091260535257509989e-01
-3.833118243952632342e-02
-1.750355544415126974e-01
-2.897553272638584976e-01
-3.678033525363371692e-01
-3.911678961830238888e-01
-3.488818925726995257e-01
-2.476099470450370543e-01
-1.104458023103055408e-01
3.693580158836229366e-02
1.802971690059773646e-01
3.169220970869960352e-01
4.405746457425955276e-01
5.259566259624300910e-01
5.305998664205167081e-01
4.184348662090172644e-01
1.897187451838934780e-01
-1.063006072089721088e-01
-3.887044272334279627e-01
-5.830161776145796892e-01
-6.553750291527191685e-01
-6.209865916056107604e-01
-5.238377937251094130e-01
-4.045377299393256854e-01
-2.793747860645479086e-01
-1.427326092709442495e-01
1.351401460258283560e-02
1.816063802555549223e-01
3.352201563837943210e-01
4.431965530350188698e-01
4.876289394906944685e-01
4.723990675027917030e-01
4.172495134620827217e-01
3.437251319718409026e-01
2.638061892787631479e-01
1.777508920062527142e-01
7.989800676146452396e-02
-3.331045169515833848e-02
-1.578876917958668691e-01
-2.808647264968392454e-01
-3.822768606432879746e-01
-4.400258512665605193e-01
-4.369944997191811398e-01
-3.681771251461586902e-01
-2.439382074862321836e-01
-8.659148482974529659e-02
7.824692864061932873e-02
2.298545340777758961e-01
3.544732148437986230e-01
4.406906041168173749e-01
4.738280646401066276e-01
4.367383051952423711e-01
3.193238078149785997e-01
1.309442693094171883e-01
-9.436793974288326670e-02
-3.061753533489179335e-01
-4.563832391373093822e-01
-5.179357627290539501e-01
-4.929544477770863020e-01
-4.068836111975085434e-01
-2.934791428271991132e-01
-1.792946922240067353e-01
-7.468734615710766189e-02
2.573733180683235311e-02
1.341003652783035460e-01
2.557251618174148367e-01
3.782352822614646892e-01
4.712831692098667369e-01
5.003378042106936263e-01
4.481801774680903572e-01
3.294556393426859020e-01
1.854342106679713886e-01
5.967082586887548223e-02
-2.893492722718873922e-02
-9.497422673558217343e-02
-1.694854636669015369e-01
-2.699219282179768920e-01
-3.810819727069060248e-01
-4.623599856023418719e-01
-4.752005178383296169e-01
-4.084684153438958853e-01
-2.822945560902078155e-01
-1.299259579660174135e-01
2.466334757753541052e-02
1.739524247954746805e-01
3.150146499698066038e-01
4.330527308120578067e-01
4.989391009972631297e-01
4.857888181968744723e-01
3.908660421473065250e-01
2.426504859634739109e-01
8.494863736443589164e-02
-5.009666721246008869e-02
-1.582797745696252756e-01
-2.560682447467557687e-01
-3.569338906253788357e-01
-4.517927228739320733e-01
-5.096661642583397711e-01
-4.972117624059127494e-01
-4.008641524150199364e-01
-2.351238611542737500e-01
-3.348771464666872033e-02
1.678882363864626082e-01
3.408791220978324432e-01
4.659937109260997024e-01
5.287733616758871769e-01
5.202842002710362790e-01
4.432633693462714741e-01
3.171777586185022813e-01
1.742490999840250188e-01
4.592808269068483773e-02
-5.153371923095162455e-02
-1.216813616952155952e-01
-1.793452205986997838e-01
-2.363226025144979925e-01
-2.926980380275808757e-01
-3.391736291221191801e-01
-3.653295874150442879e-01
-3.641079522302509419e-01
-3.286707320782041863e-01
-2.481591011822827375e-01
-1.124564482596519532e-01
7.250116342392320945e-02
2.709238054258673034e-01
4.216361195310724952e-01
4.659634602643695223e-01
3.839411416583361492e-01
2.124151211675284756e-01
2.814325333272285623e-02
-9.593999307045668334e-02
-1.320914587158047993e-01
-1.080796205310130265e-01
-8.028321058447225600e-02
-9.039774027699179482e-02
-1.371287734601494557e-01
-1.810771160126281032e-01
-1.757860348268703299e-01
-1.006245888485822471e-01
2.646396517562654704e-02
1.611612537978081849e-01
2.579277061334254162e-01
2.913266533941468728e-01
2.636481094399878433e-01
1.987588046954047172e-01
1.275156512392759678e-01
7.115040731105359839e-02
2.956064084301318617e-02
-1.818328530251635267e-02
-9.780974487953283947e-02
-2.154209976737526677e-01
-3.421303780631755886e-01
-4.239123706805741909e-01
-4.155790101132958991e-01
-3.159151292152122537e-01
-1.744408962773232319e-01
-5.917700086143411198e-02
-6.838093452551277651e-03
5.092910592161721539e-03
3.927643834228947139e-02
1.449223740828116669e-01
3.121028303477861865e-01
4.718793085948435606e-01
5.433689363536579053e-01
4.903614164195549963e-01
3.427665032791097355e-01
1.682867421954427067e-01
2.105353589024028249e-02
-8.916020788451536894e-02
-1.847874136029509229e-01
-2.822149376942056365e-01
-3.659830926256452677e-01
-3.995454625500068913e-01
-3.607164464790559855e-01
-2.663056224996626642e-01
-1.609215381806224365e-01
-7.929310343040475717e-02
-1.734442299428207157e-02
5.967600374249720785e-02
1.774084278540145609e-01
3.161477198023366353e-01
4.121975510527186026e-01
3.994334170098111647e-01
2.593761298944838312e-01
4.012947325670934706e-02
-1.709992248136711079e-01
-3.005540445174862962e-01
-3.288497874144316047e-01
-2.902927815343442353e-01
-2.384926116510296956e-01
-2.049817890947638332e-01
-1.811246637084362177e-01
-1.323820001127226642e-01
-3.016692136741763730e-02
1.233087955996126639e-01
2.928985659287394738e-01
4.288192411520166947e-01
4.905243898338528252e-01
4.617668061908225541e-01
3.523009720588511362e-01
1.909177803371785442e-01
1.628489347922526531e-02
-1.321466447956880230e-01
-2.243050346094004055e-01
-2.499637424460356971e-01
-2.240587327998365685e-01
-1.805685910476979850e-01
-1.550224314511816914e-01
-1.649233487394910214e-01
-2.009175051458316208e-01
-2.348690648112317092e-01
-2.386758804627290009e-01
-1.999248136302117507e-01
-1.241297373245282276e-01
-2.519032716049957044e-02
8.473443624753648762e-02
1.960926880042677123e-01
2.945195327390702777e-01
3.559720164989849112e-01
3.542321743029993586e-01
2.787035089502382657e-01
1.483596928019006445e-01
7.414395061334233539e-03
-9.825703502618346463e-02
-1.484138294908381450e-01
-1.588808892824545571e-01
-1.662695509998342591e-01
-1.976978108004073809e-01
-2.477852273182408471e-01
-2.796268842611674965e-01
-2.486685802126190059e-01
-1.325372136563446879e-01
5.278501882913688714e-02
2.593471269469401208e-01
4.302306997276543199e-01
5.244157831165422445e-01
5.301106012088241393e-01
4.617876556325104520e-01
3.459295374239576004e-01
2.058845394558190822e-01
5.477591593198649633e-02
-1.014803641832255632e-01
-2.564422865160572163e-01
-3.985362644373771079e-01
-5.130386624964277109e-01
-5.870846954897525061e-01
-6.115416724293267769e-01
-5.783671672026645671e-01
-4.792529819070558972e-01
-3.122439527132804815e-01
-9.455784820392237888e-02
1.305382383924672540e-01
3.052702867033011969e-01
3.860362571963535383e-01
3.704284514168104669e-01
2.996510380991715405e-01
2.301293904463086459e-01
1.940508998723562417e-01
1.807782944268545022e-01
1.558923542366623116e-01
1.023297817081467859e-01
4.645529303493342588e-02
4.218261838956033349e-02
1.224373380295065983e-01
2.587874857693163722e-01
3.677573963116712585e-01
3.652554170588888649e-01
2.289872525763608224e-01
1.887091722096584379e-02
-1.626368584504281622e-01
-2.406479290273452476e-01
-2.150463734558052398e-01
-1.511991919599939282e-01
-1.261417242865764954e-01
-1.750322359302520503e-01
-2.770044581162886543e-01
-3.835229191816588168e-01
-4.586630325935007746e-01
-4.968401735515028950e-01
-5.087378421745342161e-01
-4.952684997396947786e-01
-4.369239082870088886e-01
-3.082470859289646037e-01
-1.031043855480914817e-01
1.521436601951227652e-01
4.081199133024951964e-01
6.154564464116724087e-01
7.434016110422929646e-01
7.837186737057441066e-01
7.438559840789253919e-01
6.400196002763200998e-01
4.952948215661009401e-01
3.385258091798813984e-01
1.974233749987210906e-01
8.664309660519969869e-02
-9.873163344015223331e-05
