0.000000000000000000e+00
2.041003872505205985e-01
-4.590343129103030551e-02
-1.396071826456939946e-01
-4.037007409739441499e-01
-4.921968372306744777e-01
-4.983329273740794152e-01
-1.036135419278237380e-01
9.330094094072238775e-02
3.784316288980325016e-01
5.746860243711133798e-01
5.269784366561982569e-01
3.435367199106966751e-01
-8.371010242400167556e-03
2.944333063271947215e-01
3.835838671493798646e-01
1.791157528846631930e-01
4.917764063208718284e-02
-3.394510813196127685e-02
-1.030606078898488320e-01
-9.446447638916366518e-02
-2.165153814885649730e-01
-6.324217319717267971e-01
-7.471678326154924665e-01
-2.277871622523406359e-01
5.611937365306451930e-02
2.325127684064932643e-01
1.810381039298429862e-01
8.833419717380586178e-02
3.187545639160130895e-01
4.399929604324168686e-01
3.111532479977090482e-01
6.921510260262836445e-02
-5.362114643896798150e-03
7.851517311754685480e-02
-1.054219794521869535e-01
-2.123817381115726266e-01
-2.576992433256226622e-01
-5.446394972705578263e-01
-5.338298766935154482e-01
-1.746668461149123441e-01
-1.998090492623300074e-02
1.416995945492763864e-01
1.024768914140778281e-01
4.669189426321227465e-01
2.993337428943225187e-01
2.415182192107532266e-01
2.851741266633196492e-01
-5.102925416698500527e-02
1.251202159949199033e-01
6.948398518531995194e-02
-2.469880688977049155e-01
-3.045951279481324270e-01
-5.030046254063382793e-01
-5.082568365078579120e-01
-4.803435692007679281e-01
-1.832986694772311687e-01
2.464975907888411477e-02
6.689200597049935193e-02
3.814061843992651024e-01
3.325652977129193166e-01
2.205958056304190840e-01
3.360495178145367912e-01
8.583512758854627833e-02
1.933497193321673802e-01
1.386177062126789927e-01
-9.939847980787247517e-02
-3.732791205775810583e-01
-6.162869995402522338e-01
-5.978451448273621738e-01
-4.744698970099941460e-01
-2.131756699881219574e-01
-4.672423694193850174e-03
9.342102881686908944e-02
5.778806689937313612e-01
5.456144785260097496e-01
2.985998604284885172e-01
2.992302538227584741e-01
4.481143643796103859e-02
8.929905206270083440e-02
1.959103543490905430e-01
4.381203265149041792e-02
-1.391801748239180903e-01
-5.076832169879741397e-01
-4.457680321722006789e-01
-5.905294062936199406e-01
-4.031644706470193795e-01
-1.071080859089151849e-02
1.208974778058558019e-01
4.638329899039315141e-01
6.056253540515019740e-01
4.969835150667301082e-01
3.281401551356586399e-01
3.350164343933665911e-01
3.643571564398899731e-01
2.014716798686942978e-01
1.084851586444716687e-01
5.548451002451448844e-02
-1.429867478217420329e-01
-1.083576482108628003e-01
-4.737439902425564231e-01
-1.015173318412363912e+00
-7.684709798398919878e-01
-2.424580153632869273e-01
5.297199670553465189e-02
2.885891215793749964e-01
2.716392892206194176e-01
2.611897885085496807e-01
-1.319153257376148858e-02
1.405049321799549666e-01
2.052062074524108048e-01
1.747535725697069164e-01
7.023291036374257335e-02
-8.718572572235272489e-02
-9.537978584877082611e-02
-2.027780990834336106e-01
-6.106859315202652905e-01
-4.316085152575508399e-01
8.823377842447466257e-03
3.710292520636473412e-01
4.592237836232668236e-01
4.682241974762046954e-01
4.809116182193079458e-01
2.691860179895794181e-01
3.090153328703925117e-01
2.388588592926815524e-01
-8.954636575624858041e-02
-5.476308096730353459e-02
-1.740353038289088605e-01
3.462786550802282592e-02
-4.533235203326868579e-01
-8.447365567367957073e-01
-7.171992235465077803e-01
-1.743419289935058680e-01
2.434647111137550057e-01
4.138242469078754482e-01
3.873253533540782501e-01
4.924100604941542558e-01
3.379048470592862508e-01
3.269439120659015652e-01
3.184229211296063511e-01
7.124164701145185852e-02
3.757197010987367580e-02
-5.945185245628503701e-02
-1.385386718447406962e-01
-1.146996829031166065e-01
-5.507156998375193346e-01
-7.479088338951340731e-01
-7.064640943644810989e-01
2.404375482937328723e-01
3.902964801604120737e-01
2.316432295260212326e-01
3.160243817387298204e-01
4.446968743271618729e-01
5.173070873314264961e-01
2.879957151823086536e-01
5.496696201596940057e-02
1.217038883185759257e-01
-9.242905769656845072e-02
-9.362186014986839666e-02
-7.096089364748980888e-02
-5.036789415503207801e-01
-4.993909020172387914e-01
-5.562280146103308898e-01
-2.118408357833928557e-02
1.811272062867739230e-01
2.583993860164293666e-01
2.752840117771140349e-01
2.689939267061063344e-01
3.122241987627608628e-01
3.583074041066406368e-01
3.734381530492525414e-02
-9.497603407945787168e-02
-2.013029904125787084e-01
-1.116988572869930252e-01
1.162056921110621310e-02
-4.714755057051955300e-01
-5.339881783046349639e-01
-5.476908664422239781e-01
-6.379107497167033070e-02
3.343158293404633330e-01
2.818367271078381364e-01
3.679042116985822286e-01
3.571683214368804871e-01
3.729737499036192006e-01
2.937114292556211037e-01
1.690708527601489930e-01
1.321464088536418169e-01
3.576152689790668138e-02
-9.865178064107094080e-02
-3.239706492350923894e-01
-4.961100915308670478e-01
-7.034000030204226039e-01
-7.902333628650015651e-01
-5.194373954277290428e-01
7.404976214984815286e-03
1.251839559190921491e-01
2.757703297213121019e-01
3.673446970533091882e-01
4.205151048159182503e-01
3.552083526221072596e-01
9.910273658938839603e-02
1.496457218080622376e-01
2.114442914131318130e-01
-2.497248203667018496e-02
-1.937759539747705428e-01
-3.194401161600952666e-01
-5.101269510674690810e-01
-6.828151042010159877e-01
-5.437934468807569255e-01
-1.213032305531958066e-02
5.138771188526125577e-02
1.045235292859321152e-01
4.176649476520599702e-01
5.724357278612761668e-01
4.470924227336535717e-01
2.084254877747224732e-01
2.954688590435488038e-01
1.015024909699819844e-01
2.529707252737798395e-01
-1.127270586238626748e-03
-2.293582725373506381e-01
-2.416423240923384341e-01
-5.402291724968488751e-01
-6.018243617704457371e-01
-5.528892878615109252e-01
-1.784208689844691831e-01
9.758130626353722636e-02
4.926317139809868739e-01
4.481986953650080596e-01
4.745694298604269390e-01
4.316024271706697668e-02
1.709348698541746092e-01
3.073655886984478780e-01
1.472369334846776456e-01
1.024741204070529071e-02
-2.319917361194981376e-01
-2.295383790161997228e-01
-3.813332948362975761e-01
-5.668506825814612071e-01
-6.422839907747315280e-01
-2.423052413514534820e-01
1.607405346553946179e-01
4.282166765524623719e-01
3.804948731531574424e-01
3.391438774209748486e-01
1.152966141897040497e-01
2.340832207900097606e-01
2.475935488536209483e-01
2.077136565280625624e-01
3.878408560914431424e-02
-2.267624331686683981e-01
-2.143157633779887439e-01
-3.971765362787306741e-01
-5.819025017695670376e-01
-6.963240341952331436e-01
-4.928727395156566882e-01
1.980319600485525022e-01
4.560781565128262383e-01
5.962074519055742261e-01
4.934296852373239450e-01
3.437804055492499344e-02
3.576041065391719620e-01
2.645247642100828078e-01
1.916919271696048699e-01
6.563580200495966466e-02
-2.220571913350979365e-01
-2.234323707288944361e-01
-5.220902039194488253e-01
-8.491102356969850717e-01
-4.871219573104720313e-01
-2.461173788518151717e-01
1.963390779635728611e-01
5.852756680213972995e-01
5.693754786090774456e-01
3.379864849536503568e-01
2.189262597880852201e-01
2.233439468315809584e-01
7.794796717911965656e-02
9.286104667344463603e-02
1.043591376111869806e-01
-3.515933575519878396e-01
-3.840925686947906925e-01
-5.750417014627555723e-01
-3.785276142784490538e-01
-5.592418477457727910e-03
3.102807419022284297e-01
3.641490430124263433e-01
4.917681722040384007e-01
4.650492775977582705e-01
1.567296984657353676e-01
8.677852905706708031e-02
2.367365419749925537e-02
6.358288633736711160e-02
-6.223787923930573784e-02
-2.152662997186256810e-01
-5.479724290975154233e-01
-6.461966062198941652e-01
-2.862461096356336276e-01
1.580601313374577765e-01
3.026816843506925370e-01
3.321563155331101469e-01
2.834176002129748517e-01
4.112229160876599288e-01
2.715406786123029104e-01
1.969919739192653174e-01
-1.806306632999107320e-01
1.329198137347055719e-01
5.019400942647500585e-02
-1.775623705600348767e-01
-4.738119667372977517e-01
-6.745937644912638476e-01
-1.378321507975842630e-01
2.497412475868932002e-01
2.367151213773127094e-01
2.544928881722436920e-01
2.059243306092573000e-01
1.473283788315080667e-01
2.326533738326403977e-01
5.396971498316627258e-02
-1.480980038865364889e-02
-6.864208032335628040e-02
-1.854028852439167929e-01
-2.863543872266702817e-01
-4.867895489707118051e-01
-4.181466761886971639e-01
-1.990181239629519594e-01
2.646751743051654060e-01
4.966283526297881057e-01
1.471255162285903806e-01
3.372238966491494239e-01
1.338930499165003063e-01
1.863108646959026338e-01
8.951019951949135134e-02
-1.556829005438178370e-01
-2.940870747970446564e-01
-3.041577093643972329e-01
-4.226570194522027979e-01
-4.203703484631411413e-01
-4.167439386158731107e-01
-2.429983869006979713e-02
5.688121504175991383e-02
3.314818566492360175e-01
5.844170060006614875e-01
2.074975382379755651e-01
2.785480192138611866e-01
3.843718386611824633e-02
1.785965196348787420e-01
4.997665122103489566e-02
-2.524870108504435051e-01
-4.687112866607546224e-01
-6.094263575905819463e-01
-6.164005652814803504e-01
-3.742914429202670590e-02
-6.027723128387485474e-02
3.422716467944956209e-01
2.956096106079380004e-01
5.144373727409177199e-01
3.182142633187888814e-01
9.153085196459365136e-02
2.326173312478859723e-01
1.355886284491679139e-01
2.362921281616517655e-01
1.426249474812957274e-03
-3.589138840341795644e-01
-5.948359121807196281e-01
-8.303497346119537159e-01
-3.164974303347901641e-01
2.293833129066937815e-01
2.220214154857200750e-01
3.293825800535988835e-01
4.589363559461402398e-01
3.715172070582046793e-01
3.596792916018003439e-01
2.503614349065422795e-01
1.550560650263461682e-01
4.253051398326216509e-02
8.668413062093271310e-03
-7.249168827873320176e-02
-3.718738256899447592e-01
-5.414496026162910480e-01
-6.499219612845215099e-01
-4.217297626811622457e-01
2.896400459192843835e-01
2.468464190225272692e-01
3.293940374853243647e-01
2.846618594162877436e-01
2.485086194278898208e-01
4.401049167857864486e-01
1.014574499615399361e-01
7.085453918556730568e-02
1.489344042403550894e-02
1.090789256769885140e-01
1.643073178542864277e-02
-3.737337530884267123e-01
-5.430728857433051449e-01
-6.274837832490127720e-01
-3.270885609539171401e-01
2.207084966873629761e-01
2.168267572532207588e-01
2.892563514839865402e-01
4.506043253063951592e-01
3.955444945473440832e-01
1.906158507359951848e-01
2.147039115437188173e-02
5.912339788006271135e-02
-1.895692857963471312e-02
2.624981217026367553e-02
5.461449875024315670e-02
-5.641306188012347178e-01
-7.529900013178920659e-01
-5.988630343656016208e-01
-3.331184527974667686e-02
4.751856324865714187e-01
3.844644740706139041e-01
2.348320455150683661e-01
1.945170590847248859e-01
2.473285315464898160e-01
1.800468740775761356e-01
8.608515970247365701e-03
1.106009502707649694e-01
-1.029108998325116153e-01
-5.121326900763384371e-02
-3.367964376025394113e-01
-6.175866245068755145e-01
-7.107413384711438464e-01
-3.841386358540670454e-01
4.645382892404570363e-03
2.987294267683709426e-01
1.875388569183404353e-01
3.868959823986855007e-01
4.034839208247220643e-01
3.184215422060927003e-01
2.393505108813700488e-01
4.147006440647871273e-02
7.219171522442757727e-02
9.876027637123974134e-02
-7.320562147227732686e-02
-2.599928504759981274e-01
-7.181415780843674046e-01
-8.322765198698892641e-01
-3.598829427152775429e-01
1.294578620979265349e-01
4.069778197852923496e-01
3.826264898155660732e-01
3.297264840608643555e-01
3.169627681911738604e-01
3.872525889214114558e-01
3.971051823317475749e-01
-4.421503225511203006e-02
-1.435017295004668014e-01
-2.009600497571285560e-01
-1.263797664214259819e-01
-3.052531780666112304e-01
-7.138723800035633449e-01
-4.621471704552844173e-01
-9.192480155330651215e-02
1.028894265888222748e-01
3.443124272221187443e-01
7.061772543964373039e-02
2.869642727980098451e-01
2.399870557274987881e-01
3.629211341298931304e-01
2.992269622949175201e-01
-1.248655303637036251e-01
-1.300055193978786328e-01
-2.313608317997946640e-01
-3.238313785384910881e-01
-6.093679608589555041e-01
-6.324422612071065597e-01
-9.495840690550660934e-02
3.537692681028656305e-01
4.576104399361238251e-01
3.682776002872943377e-01
1.884456695901774448e-01
2.211857968144363973e-01
3.284998574654958148e-01
1.555578344162023008e-01
6.989099818044675061e-02
-3.186884333665261360e-01
-2.195194709872140271e-01
-5.023373264327665177e-01
-6.388115811327684801e-01
-6.953523226706362914e-01
-1.863242054429402605e-01
2.924112069598769348e-01
5.356472875967759339e-01
5.303826286517034916e-01
4.065620110914032193e-01
1.252117051654561275e-01
2.490863228527913087e-01
2.027399500689536227e-01
1.114460695233948084e-01
-8.237942060931469079e-02
-2.083911447013708784e-01
-3.071511234840382798e-01
-6.035630599334351754e-01
-7.381836963618797487e-01
-3.195500399622538401e-01
2.021685393554502053e-01
5.173473465929367965e-01
4.859453671276001696e-01
5.240307924735545519e-01
3.978750886190167702e-01
2.277646332768785697e-01
1.078960572630438541e-01
2.145093671098554644e-01
-7.544525473491225931e-02
-2.285432554659311277e-02
-6.248926594444472737e-01
-5.597452883971794080e-01
-6.448661937954586199e-01
-3.972063066148281418e-01
2.506974787178100073e-01
2.507031078915682443e-01
4.849639445454634323e-01
6.578689882189885374e-01
4.394583968160816756e-01
2.004769366852483525e-01
1.362866937343445439e-01
-4.488190754826457129e-02
-7.368737728736110548e-02
-1.460045334501619552e-02
-1.194183872099392751e-01
-5.526038943309384832e-01
-7.952151032944887454e-01
-3.101685858279539243e-01
1.681292784799870432e-02
1.962781291492960989e-01
1.362172724003235524e-01
4.195325839840147175e-01
4.020905390173752370e-01
3.637637730553930915e-01
1.900659760115173125e-01
-5.612771260860016653e-02
-5.308961684558213823e-02
7.239959497740658390e-02
-4.014617925967089440e-01
-6.088457772108626376e-01
-7.882888610180212030e-01
-1.069909486089410944e-01
4.472653508469061623e-01
4.502941564298805210e-01
2.743605483640394471e-01
1.350145687850541343e-01
3.315044354792867631e-01
2.415606717931738368e-01
5.011067600688723367e-02
1.099674663966133670e-01
-1.101548365649145378e-01
-1.604539793578699247e-01
-3.306302575343098571e-01
-5.432811969359210291e-01
-2.666921851163905344e-01
7.669304762287998400e-02
2.755715812820600519e-01
3.725779604818708624e-01
1.872080802496004504e-01
6.209437195164342616e-02
3.805453878164621884e-02
1.098553716131323299e-01
1.588729859270215372e-01
-1.174892452160795075e-01
-2.258296964229406512e-01
-2.934909835689367696e-01
-5.210691224716875736e-01
-4.911632180163610917e-01
-1.157142040950103201e-01
2.240282707662761830e-01
1.058038951605235756e-01
4.181018447084019485e-01
2.631574056944020468e-01
3.231689365880366371e-01
1.573615647084931624e-01
1.068291035412494150e-02
1.297724935075862396e-01
2.192542494694271760e-02
-3.318469327767672450e-01
-4.820472088091931062e-01
-7.441852263429376002e-01
-2.471237239983390399e-01
3.027523570901110572e-01
4.127628821049187935e-01
3.416680145310613259e-01
1.462811988556289577e-02
3.260638076325179657e-01
2.930270410258228875e-01
1.895736447959185389e-01
8.405224174588626918e-02
-1.758387558840566189e-01
-1.776158031794983216e-03
-1.778647934172850054e-01
-6.265990163203093433e-01
-5.126418952117670624e-01
-3.082114035236367400e-01
2.308699080230107725e-01
2.036493184124106293e-01
1.563479010974182515e-01
1.776979063134913606e-01
1.963087959546305772e-01
2.218974788982082114e-01
2.863169186503042862e-01
1.114939670993608800e-02
-2.166921007399634780e-01
-2.992266531689189435e-01
-3.424996778730895475e-01
-4.760311535164361008e-01
-3.297346590114040299e-01
-9.419766498404791299e-02
8.644878224083818452e-02
1.103365202110833110e-01
3.918008007153139793e-01
1.376353736644467529e-01
1.532855499968530655e-01
1.075583653288352259e-01
1.544788412184920912e-01
6.974835714913740770e-02
-3.202229733068778783e-01
-3.088507729494037735e-01
-7.353316189768981381e-01
-6.612929908481068875e-01
-3.895497069815143654e-01
3.977260856796854815e-02
2.559068320502710936e-01
3.927042676124966603e-01
6.796327983050977073e-01
4.115055835689966912e-01
2.839923611961395755e-01
1.763289396020603639e-01
9.700534957703643713e-02
3.296295310504965270e-01
-5.668839255487911899e-02
-3.247344173623886165e-01
-5.768880401753712084e-01
-4.770760411368983878e-01
3.694752159348982379e-02
4.711516064609879706e-01
2.916797137438359444e-01
3.899067388345542895e-01
3.298198021947527092e-01
2.141327452663002173e-01
3.128905026580441895e-01
-3.674234772722062559e-02
-9.600978639780999302e-02
-1.674325172457611366e-01
-2.562233944438405686e-01
-3.160056417501949655e-01
-6.152497688818152621e-01
-3.575894517073543444e-01
1.181472744093584604e-01
3.967073757149751079e-01
4.790165097000748107e-01
2.945663518770432754e-01
1.838411678728101295e-01
1.614919428710526184e-01
2.665273092096087648e-01
9.310789689786996837e-02
-2.177794462872932879e-01
-2.978236317824261015e-01
-4.400662096765036724e-01
-3.885021919830570214e-01
-5.143290757204459496e-01
-1.436506508323442954e-02
2.362353930282119485e-01
4.055047980751762537e-01
4.609376733293290007e-01
2.143423947601681423e-01
3.091315332891109158e-02
1.680356616573548678e-01
8.308647759991356907e-02
1.922263116794584725e-01
-1.518296663148266390e-02
-3.071508946716708932e-01
-5.981667264686705288e-01
-8.150820399796259164e-01
-3.863457191002690472e-01
2.647001440827607688e-01
2.533799309404956013e-01
3.441088088043664506e-01
4.515820237704369355e-01
4.090439297268158025e-01
3.560989385675062957e-01
1.529831625695282360e-01
-1.526475015306851812e-01
-2.700105453364592956e-02
-6.111984192894361068e-02
-3.239101950445870681e-01
-7.072225396557607624e-01
-6.624988383642766987e-01
-1.455765658745691304e-01
1.064288504397217228e-01
4.674628865384913845e-01
3.355375758816978582e-01
2.898767156786632437e-01
3.575095694561274406e-01
2.836077658093575371e-01
2.434134953982165228e-01
-9.707274803519770623e-02
-8.023077692133398497e-02
-1.579677580890879174e-01
-2.965856030597757709e-01
-3.147547056555969336e-01
-6.940166441252361151e-01
-3.131280918953920911e-01
1.485611253407392862e-01
3.611434440911770460e-01
3.823836506248923239e-01
1.627885301872480373e-01
1.286327077953191012e-01
3.330895243162904085e-01
1.836057866449639364e-01
8.162955591641152253e-02
-2.499560155913275183e-01
-1.694888443652835530e-01
-1.799773768868277168e-01
-5.234020991804748668e-01
-5.881890761615184982e-01
-3.376664521958051557e-01
1.980393211431488165e-01
3.511106462388236538e-01
4.819741776730278593e-01
4.069915630848927046e-01
6.243041539281309060e-02
-9.628950066282493392e-02
1.594315741043660362e-01
1.122628220540797805e-01
3.950488995016665505e-02
-5.187350500499352535e-01
-4.345762439474775141e-01
-5.024300405153270255e-01
-5.494116780641618014e-01
-3.050776810042450660e-02
2.875868402001406920e-01
4.374215049951239997e-01
4.877219403995118885e-01
3.474014853472236486e-01
2.722049286899684839e-01
4.873623654593206567e-04
4.502220785782307111e-02
1.615659277518627368e-01
-1.288891722867235856e-01
-2.574631073066422360e-01
-6.232185658335269718e-01
-7.301212287304598147e-01
-3.129791638094725492e-01
4.112031679710204113e-02
3.528779200208527200e-01
2.533607847683299052e-01
3.692791090864437908e-01
2.238247713275800521e-01
2.608713324195370831e-01
2.701831915604279155e-01
1.729468837850458782e-02
-5.538956986079296430e-02
-1.102039407753195588e-01
-2.564689594664238959e-01
-6.301935858618157305e-01
-6.687519884854631336e-01
-1.190279228977501047e-01
3.195879809229170698e-01
3.604860311019710828e-01
4.659318373590165541e-01
1.740480011279201822e-01
3.112317888875249516e-01
2.869901710435046049e-01
8.155522902200018631e-02
2.152038075096096570e-02
-3.881012250339381797e-01
-3.216206303597778926e-01
-3.621381311727366326e-01
-6.329666974661283252e-01
-4.794609535876102613e-01
-1.467688774655429018e-02
2.729250900404704971e-01
5.757899235478599609e-01
5.591076403565051756e-01
2.451286107478030662e-01
1.623639147411795602e-01
1.253826567269766823e-01
1.552291885645333824e-01
1.895543545047417844e-02
-2.276199165586326179e-01
-4.078586893366405453e-01
-4.584427634824745912e-01
-5.820391087028233823e-01
-2.367514439720959096e-01
2.730462619565824922e-01
3.039580202299390077e-01
5.116809737659105961e-01
3.595720147666272570e-01
2.067669099619333095e-01
2.256214206436938097e-01
-6.509594968958137828e-02
9.838536286090018845e-02
-5.443025274636881239e-02
-1.718178919567624197e-01
-4.467980098097771857e-01
-6.870754392030784530e-01
-3.618803733845192827e-01
1.376884583466423395e-01
3.178381482742992925e-01
4.366681646853237675e-01
3.955133270705266657e-01
3.288132057747883419e-01
3.695599941423537427e-01
1.539059063091019475e-02
2.052320612262741317e-01
-7.235062845943968091e-02
-2.659825903321266782e-02
-2.163973271550704291e-01
-4.395318881131877742e-01
-7.107030946615160438e-01
-6.398730011310178600e-01
6.325209478053506196e-02
3.023004887831529652e-01
3.868519200021079962e-01
4.489312323187825693e-01
1.899012282857760470e-01
2.379302738352233604e-01
3.833774433258253511e-01
1.730642838555246366e-01
6.238657447223466823e-02
-1.467961337722547555e-01
-1.422335283569302611e-01
-3.703803167074714020e-01
-8.198199553098133308e-01
-5.702099805334608362e-01
-1.204794081435103248e-01
2.645326399012068452e-01
4.419428346143019493e-01
3.431481770698725509e-01
3.420099190964397406e-01
1.476719740559057081e-01
3.085775467281788309e-01
1.964140047478303286e-01
5.121101568269231796e-02
2.771488330342677942e-02
-1.641817566696475161e-01
-1.713150146526239981e-01
-2.621102040751589479e-01
-6.760933224639864569e-01
-5.401574162916380484e-01
-1.358116416896889556e-01
2.479320424554121161e-01
3.608867702312295034e-01
4.077049925822642251e-01
4.141596390376953707e-01
2.792889340135367160e-01
1.958774847265134511e-01
2.573155180071564629e-01
1.110625813207328227e-01
-1.143746505116873813e-01
-1.356151755630208289e-01
-7.755921058247694511e-02
-9.256478935816604692e-02
-5.217920853093114264e-01
-6.032041489529986755e-01
-3.207120907527388209e-01
1.202072299923344911e-01
3.610360155847130992e-01
2.760855086110781675e-01
2.135459645237743342e-01
1.958274155127338045e-01
3.584272264375474304e-01
1.823710364091331027e-01
1.255999454206468968e-01
-6.110190725891717634e-02
-1.012236845285086478e-01
-5.451160667252610836e-03
-2.255278738562940255e-01
-5.634103070478341246e-01
-5.598712100270057945e-01
-4.031178476879366812e-01
1.146168512203334378e-01
2.908382033759819296e-01
1.666448971728606843e-01
1.980982549848957497e-01
1.865411398272599497e-01
2.307932093924418560e-01
3.064435766328680311e-01
3.394135105657009044e-02
-7.338101605681340844e-02
-2.531747571620257542e-02
-1.895300217537114751e-01
-2.881450547258496142e-01
-7.710314162285405448e-01
-8.344436319754453546e-01
-2.566646558918084242e-01
1.544606135974495031e-01
5.187739608509056577e-01
2.271213551116787466e-01
2.972891425201222848e-01
2.865309906260673500e-01
3.703010390832608967e-01
4.034272883678852728e-01
-3.897243007426920425e-02
2.490390614818682735e-02
3.996007884154084699e-02
-2.090119129719703039e-02
-4.174924420625742982e-01
-1.067587074627457611e+00
-6.373163498517666614e-01
-3.733198234664103499e-01
8.025719336570291684e-02
3.737714563291744119e-01
3.980669607847037161e-01
4.180495523384319956e-01
4.217439109100057926e-01
2.887455408991362882e-01
3.265078562501754211e-01
-1.170699011319470406e-02
-1.693708270484955980e-02
-6.803176831212648379e-02
-1.126086903166613057e-01
-4.252594317078115527e-01
-6.887577100657348295e-01
-8.144181912547803215e-01
-1.947006472128727794e-01
3.362450718486580392e-01
5.397762358166324770e-01
1.662322821899301362e-01
2.978517526293134043e-01
2.785579830369676602e-01
3.310342205800883009e-01
1.877920474512558835e-01
5.446597102594388784e-02
1.388750906698179577e-01
5.622220544717367041e-02
-1.682103540988756640e-01
-5.805100957251587701e-01
-8.008302285912693996e-01
-3.545016959393004763e-01
2.383595994410668273e-01
3.088991561420554866e-01
3.720149001795131083e-01
1.869728581628913311e-01
1.944770690472130692e-01
3.620886603437410978e-01
1.783064416530107943e-01
2.372868409639816711e-02
-2.546401806566399029e-01
-5.527977907208181385e-02
-2.447098596344405297e-01
-5.706298546446013642e-01
-6.099215583696910858e-01
-2.626133114630485599e-01
3.799410077346910830e-01
3.037500129117954861e-01
5.327438092254387358e-01
3.806263525134872538e-01
9.189091977038632564e-02
1.356558068685521645e-01
1.631149886510359637e-01
5.059966910553592712e-02
-8.538047961859707158e-02
-3.733207068549385665e-01
-5.104310913944350991e-01
-6.236543078379457317e-01
-5.910340156887470275e-01
-4.940905195597622424e-02
2.716521324966673090e-01
3.345973836544748892e-01
6.389354808689919896e-01
3.520647760314894459e-01
3.534243823149755270e-01
6.823022313169424535e-02
2.660384288667758113e-01
1.553459946300879135e-01
-1.054616655142708304e-01
-2.191878890585925443e-01
-5.142846889208543271e-01
-6.661864089506970288e-01
-2.611048326207578985e-01
8.727447703803259405e-02
2.656657460644623603e-01
3.919664416950248143e-01
3.880125607591614623e-01
4.313233575060192448e-01
2.090901224116995527e-01
1.363769905428691143e-01
4.603304171594402305e-02
6.171279416636954451e-02
8.572500921531922558e-02
-2.265677565741700816e-01
-7.234719180774735747e-01
-8.802257204562868864e-01
-3.173754572609833735e-01
2.560114771660289557e-01
3.703856103308217351e-01
3.424884271579503592e-01
1.910933122352850289e-01
2.452894900972945047e-01
2.346031686975749986e-01
3.694116431693847402e-01
1.101085373303208048e-01
-2.757196220744649873e-01
-4.526243686306041791e-02
-1.421649961318210975e-01
-4.454244333343133633e-01
-6.890866757723617120e-01
-5.602162249685376239e-01
4.026229181263474288e-02
3.567145391135082555e-01
3.054181190944436075e-01
4.149344149156006800e-01
1.604323082680688684e-01
2.295479271994400050e-01
3.200512240991836843e-01
2.066772242370986667e-01
3.142336661452249658e-03
-1.001630249694380193e-01
-2.096793981198505907e-01
-2.859088917930576734e-01
-4.945324354603783945e-01
-6.363327041191637612e-01
-4.831489911773650947e-01
-5.458120261237947579e-02
3.991532005432931740e-01
4.691874935144617620e-01
5.012138278100701783e-01
3.009215561357210245e-01
3.429910452110491725e-01
4.316450831979670721e-01
1.188349004826983468e-01
-4.333680776966708503e-02
-5.315201329900065552e-02
-5.003176189615732294e-02
-9.164898560796053140e-02
-4.093331887078732190e-01
-6.459597958088549863e-01
-6.096908388129484990e-01
-1.431609507615668742e-01
8.043248048418139007e-02
1.039843169306022830e-01
3.431115614831636851e-01
2.988452440266285981e-01
4.077570644588363602e-01
3.412389972911015201e-01
1.423402201489495922e-01
7.870970220880302293e-02
2.483396170837819383e-01
8.174168669303694124e-02
-9.072306791966261441e-02
-2.138762807285176093e-01
-3.028789076852667073e-01
-5.560105813998427182e-01
-5.796356704160665618e-01
-3.574476915484614548e-01
-1.530888337666752586e-01
1.335496382585310282e-01
2.437816799153040837e-01
4.127723651352276368e-01
4.795002855278752141e-01
1.982126114441827291e-01
2.574603481535605587e-01
8.492420486748863961e-02
9.511429182245806357e-02
3.263668577202372134e-02
-1.086849869540182922e-01
-2.316589053316097657e-01
-3.106824137281849474e-01
-4.074853060251006354e-01
-4.814389053927345952e-01
-4.862503029084889183e-01
-1.687448423836618305e-01
1.481522303036427179e-01
3.928276421155755815e-01
3.678735787409285196e-01
1.952605026590373827e-01
5.952236352281004006e-02
1.945890791964746125e-01
3.318415348846126545e-01
1.290386639374850875e-01
-7.721869383410401300e-02
-8.486079693920789424e-02
-2.125957181279061192e-01
-1.514110806635615702e-01
-5.730536406758763857e-01
-8.938707671522401199e-01
-4.113361486073001672e-01
4.456317617575572543e-02
4.239530518176966023e-01
5.591586484807653523e-01
3.153249237397330873e-01
3.626878821407349407e-01
2.550232083334695310e-01
3.643768897413662833e-01
3.275794773345594990e-01
-4.098662739835801094e-02
-9.422102413172728230e-02
-1.241066157716275153e-01
-3.176608127482891675e-01
-4.892263551296944790e-01
-8.787677602967030044e-01
-6.401564960093681922e-01
-1.283892039967332588e-01
2.256312385692385014e-01
4.705083276217236765e-01
4.471710305653135986e-01
3.812459357099711177e-01
3.738420815727820923e-01
2.838013764353202184e-01
8.252041030550483214e-02
-6.921297281590188533e-02
1.177274624322244279e-02
-9.553999604791418854e-02
-1.823052748585559657e-01
-3.289193672208421404e-01
-8.428514767506156691e-01
-7.675532591113056746e-01
2.388014369622837307e-02
3.075125879769533555e-01
5.160807017661837026e-01
4.893385614574750075e-01
4.145740676883311604e-01
2.826856347129433900e-01
1.979842109646563486e-01
1.534808341232929974e-01
-7.229587565221202994e-02
-1.698006332279244912e-02
4.855748523559766383e-02
-3.039123866529713780e-01
-3.526169889183390360e-01
-7.199908837632531533e-01
-6.556462597343158949e-01
-2.191666077330101103e-01
3.366022026230020003e-01
7.006984904271755799e-01
4.182039377875104158e-01
3.297423719877830006e-01
3.098319509022507967e-01
3.953063616236335842e-01
1.558996994157766380e-01
9.910251997517105504e-03
-4.945787030787240912e-02
-5.452322707585388617e-02
-2.975599984825203492e-01
-3.652873033622154875e-01
-7.699985084092640930e-01
-6.631388686212065231e-01
-3.675729760166013271e-02
4.051973450787722530e-01
5.180150784737916903e-01
3.062824118692588082e-01
1.812270687397996571e-01
2.677709195592483660e-01
1.762477013099830181e-01
1.983869474183134196e-01
-1.189772662068317444e-01
-6.754491545050334000e-02
-1.119954151895834471e-01
-3.460654540745562446e-01
-4.474659881957182561e-01
-7.777387011887018087e-01
-2.792596552970321166e-01
1.483763451638129283e-01
5.038745388577616779e-01
3.277591495351703799e-01
1.795653501681071518e-01
1.642318719537119165e-01
2.621441998631049985e-01
2.835021436186880850e-01
1.741321795794148197e-01
-4.190840319261668334e-02
-8.081756515264876262e-02
-8.366398646454305255e-02
-3.725400566306860117e-01
-5.934914338052841298e-01
-8.012052013187920263e-01
-6.229153853152893383e-01
3.093644760818125006e-01
3.949982692254307981e-01
4.173914280705988133e-01
2.902202725705623765e-01
3.929644627020927317e-01
2.849722221351237428e-01
3.563684102812803567e-01
1.914336812094848406e-01
-1.449608476990849049e-01
-9.942939773766124034e-02
-1.862767945382304280e-02
-2.675920171887335997e-01
-5.600857972085020453e-01
-8.285070651135822972e-01
-4.041531161798495031e-01
1.668701104128565704e-01
4.632354437282902859e-01
5.110288730266683288e-01
2.715486269325402269e-01
3.305333169718089881e-01
4.402491249584516986e-01
9.106556344074023812e-02
2.866641827271756426e-01
1.456840081006722798e-01
1.203775594191894838e-01
-5.324292621698134553e-02
-2.571422246943644296e-01
-5.947422219284521638e-01
-7.621284100768672687e-01
-6.279363105129918132e-01
-1.542159459645873198e-01
1.458669423196655712e-01
4.951329368191641489e-01
2.284211867814618380e-01
3.147154616845000419e-01
4.578616781528018764e-01
3.241378729302510919e-01
2.220044645518054471e-01
1.163491565380248005e-01
9.535013952383650238e-02
6.613329502117293313e-03
-1.013727465320330978e-01
-2.855931500342268059e-01
-5.693970898629738819e-01
-5.110280287406695487e-01
-5.180803860666094440e-01
3.536246476911975023e-02
1.692965064229082217e-01
2.853358810652619759e-01
4.254207067527190356e-01
4.056784468264560406e-01
2.220122695141502622e-01
2.120982208639907718e-01
3.415278009735817077e-02
9.620023611369721284e-02
1.259346384331585522e-01
2.773618720060883058e-02
-1.968664981909765688e-01
-3.489726749184398624e-01
-4.503788800046074625e-01
-5.326340801390341273e-01
-4.131496257342132106e-01
1.317084778647061860e-01
2.831160151964908778e-01
4.276611971908419463e-01
4.535168289051290103e-01
-7.745175942054682849e-02
2.828279820653589738e-02
9.184023360169046857e-02
2.626867083031590999e-01
1.622597248851830321e-01
1.211947308305831861e-01
-2.550065640244830734e-02
-4.554444525075234118e-01
-2.174796728612540253e-01
-4.775432625050521906e-01
-6.359851860221521491e-01
-3.776338407906562056e-01
-3.331771926961790697e-02
2.904246635914913277e-01
5.524964082365955154e-01
3.655297513044975521e-01
3.965509570186521726e-01
1.420833939811072533e-01
1.906120702364144659e-01
3.841921227574010000e-01
3.463642905160729812e-02
7.102257216675511575e-03
-2.214007974604543794e-01
-8.970989275515550698e-02
-2.489167244746086638e-01
-4.513815300912908945e-01
-9.044926163920714579e-01
-7.076868115997871911e-01
1.211524201328391115e-01
3.350193216094818904e-01
3.290543028802094816e-01
4.330753360934264107e-01
1.939771690149918459e-01
3.454284675984908848e-01
4.760625455500164804e-01
2.074302058082589939e-01
7.762409071167392094e-02
-1.427741291752812058e-01
-3.131584830595368629e-02
1.484627665549964615e-02
-4.706869758034364359e-01
-5.118683162691403110e-01
-7.093840676967233527e-01
-5.180521280692185204e-01
-1.692157679785325497e-01
8.496611590661828917e-02
1.231714390950953142e-01
3.424740893874944625e-01
3.099870309151014913e-01
4.033911909000878482e-01
1.690755928600521374e-01
1.896259181971500229e-01
5.428156574192227746e-02
2.185525606523546216e-01
1.306597373557382147e-01
-3.249769921700007558e-02
-3.954204302275928229e-01
-4.069318959805314773e-01
-4.452969818391694368e-01
-3.989164519010219845e-01
-2.576758649191843720e-01
-1.059044431247513351e-02
2.817973203317336583e-04
3.636821127949629862e-01
4.433800126640348171e-01
4.798157833520165783e-01
3.153091852137202000e-01
2.325813013528001960e-01
2.164941121215413489e-01
-1.791234261271590356e-03
-1.057963327401498788e-01
-1.395449492320443019e-01
-2.717501918422762230e-01
-3.868318221282755487e-01
-4.319809309603201974e-01
-8.528371830861354308e-01
-7.572672502556673235e-01
-2.226929336774524093e-01
5.788234552082238693e-02
5.324650089076222725e-01
3.530099682161149666e-01
4.454888322083568886e-01
4.204459487062084388e-01
4.905862862090570875e-01
5.030497130387753257e-01
3.375717574566400869e-01
2.603893984992271537e-01
1.857597812991138575e-01
9.900539875821334768e-02
-1.683650502992721787e-01
-5.807063374932760480e-01
-6.839419144693360542e-01
-9.733853215984120677e-01
-7.831528690803979398e-01
-2.449891514138480275e-01
-7.116056346577681602e-02
7.852270379255055222e-02
3.743927692703966637e-01
4.402311368718407891e-01
6.014827923924794817e-01
3.539468878821087072e-01
2.645209049202241758e-01
2.991613231663614592e-01
2.341315125678567477e-01
9.869778013278301954e-02
-1.676512794389473093e-01
-3.452797022534979110e-01
-4.051654408741224844e-01
-4.176334811518804813e-01
-6.105149054295431199e-01
-6.203403206911333179e-01
-2.708854742712984986e-03
2.735548955518447567e-01
6.006251223691476682e-01
6.025288521346703341e-01
2.788630615852740746e-01
2.823003741670581102e-01
2.290554401590416678e-01
3.211821450612000750e-01
1.230905005049852674e-01
-5.808929319653705070e-02
-1.033463566582148996e-02
3.279094875276422627e-02
-2.375168613875791035e-01
-2.863975553545663466e-01
-7.788304526034443009e-01
-6.688175154562028268e-01
-1.744604039723333666e-01
2.721024881642305493e-01
5.915403216010508558e-01
3.506289207092243565e-01
2.507127231280180668e-01
2.631260826507397788e-01
3.874360953317612655e-01
4.013921090437685413e-01
-3.269956137667079377e-02
9.147271295654169077e-02
-1.993481612647984846e-02
-9.670900165229437406e-02
-1.787395115635059817e-01
-5.920188696113664051e-01
-6.810630435379303460e-01
-3.807668405249511334e-01
1.181695669820450600e-01
3.483184995158453701e-01
2.447766679843666748e-01
2.168874072312588774e-01
2.927933952863979172e-01
2.338746641208417909e-01
2.813781281822720359e-01
4.102309368656026356e-02
3.223977348128881371e-02
-1.827102947494660401e-02
-1.917918741359130319e-01
-2.158497421699853147e-01
-6.544507807686772427e-01
-6.709112976692319652e-01
-4.413848637834091315e-01
4.038276955597930318e-02
3.188619098220530912e-01
1.260221619936865434e-01
4.061159355863217524e-01
4.210170387119901436e-01
3.436165253538236430e-01
2.758210231478662733e-01
3.312092437670931949e-02
6.033140355898969354e-03
1.307042447286650422e-01
-1.922477764895313967e-02
-1.778582720674757311e-01
-5.048513924797790597e-01
-7.629143588225316686e-01
-5.284450131401678963e-01
-7.611481640453643394e-02
2.485967758723665599e-01
2.659986233002582523e-01
4.200447139735539182e-01
4.014001609582736885e-01
2.790785715853513760e-01
3.728460512989916209e-01
-3.725026698443676537e-02
1.765770686681840118e-01
1.874046771235511333e-01
-1.027614644076982331e-02
-2.213606598474803233e-01
-5.168257968579041961e-01
-5.463703683502153519e-01
-4.372501182470447390e-01
-3.665827837335875472e-01
7.170056131288315981e-02
2.292429833681478568e-01
3.466365212478844660e-01
4.147920631289991888e-01
2.224567402795898374e-01
2.879631153370161289e-01
5.712638483657690724e-02
1.688191461949076766e-01
1.997823032329393844e-01
-8.184345196729531091e-02
-9.458610267322077603e-02
-4.612900840377665013e-01
-4.078592484767661341e-01
-5.635713112969319427e-01
-3.574051521217809224e-01
1.350375466614250342e-01
1.008123078390501248e-01
3.097552523486529763e-01
4.142908450159507039e-01
2.707737449375713368e-01
1.518198444539045622e-01
-6.392582858168927018e-02
1.942910146851863917e-01
2.359757031552949247e-01
4.693786633637175854e-03
-2.113316119959152140e-02
-3.225385258941491085e-01
-4.134005129397707035e-01
-4.314232089753253785e-01
-4.380981811445643359e-01
-1.080363535562168797e-01
1.801357290664118427e-02
1.793046881979102891e-01
5.407325777861651250e-01
2.087380664326962676e-01
3.491380418880262182e-01
6.218664855569167038e-02
1.981867578100376948e-01
1.599931549621951277e-01
1.170518790137098364e-01
-2.872146830408350837e-02
-2.887464672792691700e-01
-4.462025795978510345e-01
-4.433165556434639498e-01
-8.865020295660808181e-01
-4.557266363524701269e-01
-1.028928449483848540e-01
2.686594830177961857e-01
4.517065984147036195e-01
4.331444063018738966e-01
4.525583751001157617e-01
2.087035214148221796e-01
3.177667941094559634e-01
3.482857763373137239e-01
1.058151176137401561e-01
5.457758297250581148e-02
-2.153614783348056783e-01
-1.267309541900469017e-01
-3.068699818402218504e-01
-5.504749991406076015e-01
-8.671889607618266105e-01
-5.813124817354695661e-01
1.509018535767081559e-02
4.101925224256618430e-01
3.937714923179885806e-01
4.003893622377531769e-01
2.879706108861698199e-01
4.269809835721132263e-01
4.539809514626070852e-01
2.414755438207503158e-01
1.513944911421466477e-01
-6.801644049618423005e-02
4.660824301725624563e-02
5.349122677270373716e-02
-3.322831743338343635e-01
-3.886234038475664399e-01
-6.642785813630529557e-01
-7.659467112282560830e-01
-3.839946921037851735e-01
5.060081490426959760e-02
3.644734977682658195e-01
4.591845180870202103e-01
3.509750787304738440e-01
3.276451228516350511e-01
2.338076317079650912e-01
2.703734818078024071e-01
9.450168231320832390e-02
1.573730527067020990e-01
7.482095092929075264e-02
-6.023194529574527056e-02
-3.482073167154512428e-01
-3.834027890920654880e-01
-5.362831375869103745e-01
-6.401633140754561246e-01
-2.675097677907000149e-01
2.009737796117596620e-01
3.049570125275846699e-01
4.777979178155944417e-01
3.737928533840652046e-01
1.996079840243095704e-01
3.232732328390235388e-01
1.751399799115818112e-01
2.929679239782813083e-01
1.135217724938545336e-01
-4.896290947116088699e-02
-2.122920568517590312e-01
-3.635197305577301252e-01
-3.505753471311585656e-01
-5.455170352756593122e-01
-6.325756696174588134e-01
-2.667573996262370128e-01
1.891660605938625395e-01
2.306110508511887147e-01
5.293524456489799856e-01
3.239407430631285334e-01
3.822813426683241422e-01
2.064408030410405104e-01
2.304299372852544048e-01
3.258392939279466383e-01
-2.527323616528290295e-02
-1.402498847227838796e-01
-2.217683693784840704e-01
-2.591333266060910079e-01
-5.159351395749967040e-01
-7.516664597525324343e-01
-4.481701899583100945e-01
1.371826158458600009e-04
4.188142886615202620e-01
5.128978793508185419e-01
3.056613938419283638e-01
1.966753294911005590e-01
1.761381724584081820e-01
3.307376861249058386e-01
3.551040576422080930e-01
-1.004379732080074722e-02
-6.315658661774564697e-02
-2.656658288120705702e-01
-2.732592166568926784e-01
-1.807399235264675053e-01
-7.738680954334458129e-01
-5.869808089928989503e-01
-1.426046702902462604e-01
4.254370058873787053e-01
3.443546693624629507e-01
3.462918928194068657e-01
2.286285315349429470e-01
7.032779891478346812e-02
2.511968802026866010e-01
2.884214284054091859e-01
1.978045465669130420e-01
-6.633947024169142836e-02
-1.711944550008805965e-01
-1.067292247034668240e-01
-2.791485331878544862e-01
-6.267954510541124957e-01
-5.198219502014889137e-01
-2.077518834369043166e-01
2.346995932411688468e-01
4.123815008800975068e-01
3.790709923477617593e-01
3.196430282401361289e-01
1.787113484029341226e-01
3.044400014198935800e-01
3.507375442254230258e-01
8.975045294045580491e-02
1.770775592319335789e-01
-1.857217209010855186e-01
-4.226913311509008508e-01
-3.114418455091265692e-01
-4.838217810336726821e-01
-7.859307975123717149e-01
-6.107874422407494341e-01
-1.236832802731178127e-01
5.100677890265397085e-01
3.010840220040515991e-01
4.773508538053325423e-01
2.719340781083376957e-01
4.097001566877578327e-01
4.025576176235381443e-01
1.667462948545492818e-01
1.550058919656209788e-01
-5.444783567979061267e-02
-1.166078046317036154e-01
-3.155250751222560268e-01
-4.780861231587949511e-01
-4.729920488989864946e-01
-3.904357260188913159e-01
-7.009234651114694126e-01
-7.543316306587355413e-02
2.063889334419176935e-01
3.688077806161491612e-01
5.334120796836631095e-01
4.595259834292759193e-01
2.611533072223314322e-01
4.325171312524267453e-02
1.193412198312963080e-01
9.009210851621099470e-02
1.895277670987969010e-01
2.918765692079428042e-02
-2.970216229189333035e-01
-2.459169302435497972e-01
-5.105051836566434353e-01
-5.116274689954347643e-01
-5.382366242820552094e-01
-2.247852816719031477e-01
2.138927005378042923e-01
3.175130988203105353e-01
4.577837020827069114e-01
3.088570337035256852e-01
2.156402359315470196e-01
1.427239040020240324e-01
1.772095170015317578e-01
2.254699865860159136e-01
2.229890374704307510e-02
-1.128374984878375287e-01
-3.441266291465865379e-01
-3.194670936749237633e-01
-5.737828195025169720e-01
-5.987018029713437883e-01
-4.669567794060751620e-01
3.806314173062286255e-02
4.283074555112618143e-01
4.558310774500402562e-01
3.794312800947579056e-01
2.519223184487325851e-01
2.846620096977376946e-01
2.960112352451647055e-01
3.142414192123533234e-01
2.577478019519756081e-01
-2.226699635948102274e-01
-2.880625438498248259e-01
-1.684093458864610038e-01
-2.974565014831833665e-01
-5.522155243885005227e-01
-7.674266726737744015e-01
-2.109931018634461086e-01
2.393536819237908619e-01
3.940723163197700218e-01
3.832588174504718559e-01
2.658541755697985676e-01
3.572649497651210204e-01
3.284777317775846583e-01
1.923060878610477753e-01
2.823560716536357429e-01
2.724546562929869298e-02
-2.958207536998175291e-02
-5.939519944564164433e-02
-1.926714645355680489e-01
-3.004591434785155446e-01
-7.138007388307153755e-01
-6.469711744260947528e-01
-2.322718594538638048e-01
3.000670049116938021e-01
4.995777437231484486e-01
2.784006402665542002e-01
4.064127262167653853e-01
3.230614844584603906e-01
2.737244190104096697e-01
3.269063789651405760e-01
2.519783457956503714e-02
6.442998031557845007e-03
1.328397149889693485e-01
-3.590651718235937651e-02
-3.358787425222012346e-02
-4.826634692223064071e-01
-5.184815076520047361e-01
-6.119209239799062727e-01
-6.412621249358616549e-01
-2.446030785313885181e-03
1.408160822345951302e-01
3.817892141604993794e-01
4.447886422286585484e-01
3.913264811024300127e-01
2.460920186336194027e-01
1.935276062907863304e-01
1.996088662953789949e-01
2.017974037881428151e-01
1.531633815644325991e-01
3.018891215748364942e-02
-4.783782820921406165e-02
-1.865628418344804640e-01
-4.189186833829627865e-03
-3.905717307306519892e-01
-5.031730575056224675e-01
-9.553935768599304268e-01
-3.789130382867342828e-01
2.149442946748559014e-01
5.157563037102095294e-01
4.627213507935094561e-01
2.445980024421167132e-01
2.839887457103945634e-01
4.007459484122886106e-01
2.084198957039306022e-01
9.892948444881116687e-02
-3.527861462250181379e-02
-1.050833719547583645e-01
-3.268027531452832868e-04
-4.422008413541383964e-02
-2.352532043532495898e-01
-8.288172871724261981e-01
-6.517429842242219440e-01
-4.078018506562006706e-01
4.823000446708802791e-03
3.419903036848161437e-01
2.520765227946470954e-01
3.100721238179568462e-01
2.882436017107025128e-01
2.450678977432705352e-01
2.880310053094117251e-01
1.635181834066763429e-01
8.569521206995567297e-02
1.081704868367213135e-01
2.979272092105311742e-02
-1.214248241452284827e-01
-4.716287007971473599e-01
-5.441301950350970751e-01
-7.195785651942470107e-01
-5.741667930933458397e-01
-6.699922483415521324e-02
1.636956152088144822e-01
2.714464997131518231e-01
5.770624471521023091e-01
3.058526145509776195e-01
1.932086942407562624e-01
6.150546205310458703e-02
1.896066267979354958e-01
1.070890403140279945e-01
2.127018484969045442e-01
-2.353181202643319647e-01
-3.440987656072331258e-01
-3.382550290198534926e-01
-5.529534237355764326e-01
-7.272932244960232939e-01
-3.036284770406900146e-01
1.313068370253399897e-01
2.070947293317088045e-01
4.763789705558050258e-01
4.072394618786274179e-01
3.328810991522151985e-01
4.866635403281516226e-02
2.779217988377051807e-01
3.874195414280353633e-01
9.409547865970824265e-02
-5.447745200208853333e-02
-4.004221266429236481e-01
-3.945586539052587938e-01
-4.991472008652665382e-01
-7.900888130336374271e-01
-4.866273426248493017e-01
-2.272638032494258553e-01
2.954220792376283100e-02
5.411953654454615403e-01
5.236018169290809210e-01
3.597186489206722904e-01
2.182566377348400533e-01
1.251839326017464282e-01
3.208207922374075594e-01
-5.254431053065733437e-02
-1.701797853145985417e-01
-4.962190423231063185e-01
-2.921071343710078816e-01
-3.428498419073429115e-01
-6.113636729828493266e-01
-5.759754356241268969e-01
-1.465446757034065683e-01
3.796603685792416805e-01
3.913183387235257271e-01
6.114575221773297375e-01
4.165805360595316031e-01
2.926692137178015241e-01
4.079064784470870508e-01
3.102529556912703157e-01
2.897493535454981894e-01
1.276580096339422488e-01
-5.239040378829218358e-02
-1.320552765466127543e-01
-3.022671118961652303e-01
-4.898373514648899363e-01
-7.810286067664335974e-01
-4.079388079517986543e-01
1.947174685860137977e-01
3.518353145665317760e-01
4.851052491910206044e-01
2.723129537121498078e-01
2.294458723011866264e-01
2.914878917184549056e-01
1.747333403447459688e-01
3.903566287557370673e-01
1.437265631234763696e-01
-1.659315933762240403e-01
-1.466080309081295718e-01
-2.159395060860164195e-01
-5.530362131025654548e-01
-5.860450482903160063e-01
-6.752860798438846679e-01
-1.015283712320821929e-01
4.174541519538292889e-01
4.410021900812549078e-01
3.895200346083351750e-01
1.498326599619653754e-01
4.001971803243518089e-01
2.555891259123841408e-01
2.287229600675003693e-01
3.298922458612860709e-01
-2.037451805761090196e-01
3.580634241527613781e-02
-1.265426132513084445e-01
-4.533862747735465937e-01
-5.437230829688129985e-01
-8.431897891299291459e-01
-5.123992090685542955e-01
1.964846134677129541e-01
4.669873743612344974e-01
6.734004135412563485e-01
3.653365096805084034e-01
3.542816718033539036e-01
3.572437167809274783e-01
2.713177810667501966e-01
9.380357252515486577e-02
1.758382173983943919e-02
7.374753422931512592e-02
9.831296387025693917e-02
-1.889116884054658496e-01
-3.506366253482094963e-01
-5.505702345167722278e-01
-6.212806616488145695e-01
-4.633434478269140566e-01
-1.228246618615553842e-01
3.975238463375377895e-01
2.185604377607995308e-01
5.133661659006558686e-01
4.662289557772235082e-01
3.106659569862553760e-01
1.857876356365070203e-01
1.140798940725371580e-01
1.304351932261715863e-01
3.742192874590000162e-01
-9.565277054189458283e-02
-3.829204238651220393e-01
-2.894207793357796987e-01
-2.671202273543542560e-01
-4.596576116431538850e-01
-6.930498971322052171e-01
-6.522459144328998093e-01
-3.337075943106029285e-01
3.417876893959217455e-01
3.644219352121780275e-01
4.659551323445896287e-01
5.133652647676001379e-01
7.617616201213195382e-02
1.377961944088781365e-01
