BVP Green Neck Signal
1.535941645461072480e-03
-6.691346768370869461e-03
-1.437272981813721151e-02
-2.139956868736589066e-02
-2.766322455958483695e-02
-3.305505861832198217e-02
-3.746643204710527197e-02
-4.078870602946264162e-02
-4.291324174892201249e-02
-4.373140038901131982e-02
-4.313454313325851275e-02
-4.101570419045304228e-02
-3.735267907397067655e-02
-3.224637168659186953e-02
-2.580736485391426499e-02
-1.814624140153550669e-02
-9.373585123912437853e-03
3.780783754359384220e-04
1.089757895783661362e-02
2.195613335741511754e-02
3.332495830829699385e-02
4.477527054460773981e-02
5.607857457088039066e-02
6.700918997781332709e-02
7.734302884318666749e-02
8.685602133124478708e-02
9.532409760623206108e-02
1.025246612684624636e-01
1.082943386470866520e-01
1.125478317499541969e-01
1.152051771250584278e-01
1.161864113203928128e-01
1.154115835548010505e-01
1.128405083099160988e-01
1.085608204572684754e-01
1.026857863894390932e-01
9.532867249900880968e-02
8.660274517855856558e-02
7.662955858020858990e-02
6.560228474536172749e-02
5.375075359239461087e-02
4.130509155995088638e-02
2.849542508667390200e-02
1.555140868451817746e-02
2.687314713265811974e-03
-9.901003139256594338e-03
-2.201877660150562341e-02
-3.347123740193785890e-02
-4.406364991035227607e-02
-5.363475875594605341e-02
-6.211995134773446586e-02
-6.947194944777751457e-02
-7.564347481813524232e-02
-8.058724922086757392e-02
-8.426715579715360338e-02
-8.673260156510387286e-02
-8.807254598654690181e-02
-8.837616278909843359e-02
-8.773262570037426711e-02
-8.623163478681003524e-02
-8.397705251132073223e-02
-8.108815028827767724e-02
-7.768497573816859902e-02
-7.388757648148128188e-02
-6.981596929229630377e-02
-6.557552323344978396e-02
-6.123357720086853445e-02
-5.685137804120649757e-02
-5.249017260111762950e-02
-4.821120772725589337e-02
-4.407017534107856432e-02
-4.008490676046256446e-02
-3.625743790657957183e-02
-3.258975215492939531e-02
-2.908383288101180908e-02
-2.574148819132615965e-02
-2.256057543869106202e-02
-1.953504539742179080e-02
-1.665868240821888335e-02
-1.392527081178287010e-02
-1.132860288596028789e-02
-8.864577735704476727e-03
-6.534022732187862864e-03
-4.338468845597395762e-03
-2.279447046119990189e-03
-3.584883039425635146e-04
1.425813996143565805e-03
3.092720220355532623e-03
4.668198957918488594e-03
6.178230830407364232e-03
7.648796459397089187e-03
9.106936115836440637e-03
1.059994544121663565e-02
1.219332235330935175e-02
1.395321232961386528e-02
1.594576084762945947e-02
1.823707079765094635e-02
2.088613882869344227e-02
2.393696033745383242e-02
2.743162699512072603e-02
3.141223047288274617e-02
3.592086244192844308e-02
4.098653059779607671e-02
4.656719441306380464e-02
5.259681174499342138e-02
5.900932171707876789e-02
6.573866345281370593e-02
7.271553961537782773e-02
7.981765108612307036e-02
8.687942374578283555e-02
9.373401747388845906e-02
1.002145921499713599e-01
1.061543671438927028e-01
1.113933192417051465e-01
1.157843184316221241e-01
1.191816843505804635e-01
1.214397366355169094e-01
1.224127949233683177e-01
1.219753607061960787e-01
1.200999888676763661e-01
1.167889703565658244e-01
1.120446027874732464e-01
1.058691837750072307e-01
9.827105975385294623e-02
8.934417661964652591e-02
7.924595121185643021e-02
6.813529900256418137e-02
5.617113546385135714e-02
4.351257497780409295e-02
3.033501651409088035e-02
1.684198154856073049e-02
3.239781924746176940e-03
-1.026527051382024325e-02
-2.346686392360601212e-02
-3.616955135153755024e-02
-4.822515797445325880e-02
-5.949836230033259815e-02
-6.985384309736622499e-02
-7.915627913374465030e-02
-8.727559979922991373e-02
-9.414641135428233887e-02
-9.974684232761055203e-02
-1.040558317141710432e-01
-1.070523185089202467e-01
-1.087158048599839166e-01
-1.090604727199495916e-01
-1.081547761933968066e-01
-1.060718990828612984e-01
-1.028850251908788593e-01
-9.866733832628249434e-02
-9.350210804308287105e-02
-8.751191699093241461e-02
-8.082892516182932363e-02
-7.358529254777176898e-02
-6.591317914075789375e-02
-5.794555812661988936e-02
-4.982417553135628369e-02
-4.169613004150601876e-02
-3.370859671417845982e-02
-2.600875060648294435e-02
-1.874331384713568555e-02
-1.203732662509514675e-02
-5.985049655659600495e-03
-6.784009104548027053e-04
3.790701638893641603e-03
7.330341955182662766e-03
9.872425968765259630e-03
1.143207453873797477e-02
1.204256805542405599e-02
1.173718690914676496e-02
1.054921149022935989e-02
8.519779241598589986e-03
5.764649668463250193e-03
2.440818864067256962e-03
-1.294282696428507642e-03
-5.283224537863161555e-03
-9.368336976808241609e-03
-1.338281476576503454e-02
-1.714807905612826186e-02
-2.048477351670152311e-02
-2.321354181628844729e-02
-2.515503811110870666e-02
-2.615405308017343736e-02
-2.613101207989371177e-02
-2.502111611362932073e-02
-2.275956618474007237e-02
-1.928156329658574711e-02
-1.453512901197559840e-02
-8.575948446307818732e-03
-1.513522037773096934e-03
6.542251162126902844e-03
1.548147210189053727e-02
2.519268830256075203e-02
3.551611914536156878e-02
4.623540711113170026e-02
5.713097864754817373e-02
6.798326020228795397e-02
7.857268585219462365e-02
8.868606964561118189e-02
9.812818561304137432e-02
1.067069451059655671e-01
1.142302594758639045e-01
1.205060400742170856e-01
1.253539685941815751e-01
1.286814429280069561e-01
1.304354615290463648e-01
1.305632158551636446e-01
1.290118973642224165e-01
1.257316579571067516e-01
1.207489637065589372e-01
1.141714642463620977e-01
1.061107446993313219e-01
9.667839018828169872e-02
8.598605050673108208e-02
7.417179791019540280e-02
6.144063279913446890e-02
4.800799239637545263e-02
3.408931392474542910e-02
1.990003460707151159e-02
5.655085803424075332e-03
-8.433956513436629415e-03
-2.215688238051564951e-02
-3.530348581930113638e-02
-4.766356085128119896e-02
-5.902946506972884394e-02
-6.924908663978535106e-02
-7.822400223330464031e-02
-8.585798354945714528e-02
-9.205480228741325099e-02
-9.671842551180520609e-02
-9.979890431542262630e-02
-1.013515014118153423e-01
-1.014460935975960709e-01
-1.001525576693775565e-01
-9.754077042377265472e-02
-9.369366093955641683e-02
-8.877139901160785440e-02
-8.296246316424482625e-02
-7.645537467769064621e-02
-6.943865483216868362e-02
-6.210050438903038511e-02
-5.462322130153497712e-02
-4.718391719408233237e-02
-3.995952722065100604e-02
-3.312698653521949088e-02
-2.686296205322665984e-02
-2.130348480083057647e-02
-1.650083132593873833e-02
-1.249694455234010362e-02
-9.333767403823613196e-03
-7.053242804178223510e-03
-5.678067040604996979e-03
-5.129134944807082000e-03
-5.293808431270027176e-03
-6.059428906922483676e-03
-7.313337778693095731e-03
-8.941005777235578114e-03
-1.079832463549522219e-02
-1.271757550934995637e-02
-1.453038160055535738e-02
-1.606836611086700020e-02
-1.716339744809941559e-02
-1.767301521805022049e-02
-1.750259842413717445e-02
-1.656275098201384285e-02
-1.476407680733377026e-02
-1.201717981575052552e-02
-8.253259391176685431e-03
-3.501007276068003084e-03
2.182065848741874918e-03
8.738444994481911476e-03
1.611061517238106602e-02
2.423660121063863845e-02
3.299337465040445144e-02
4.221365556191117308e-02
5.172917370052489139e-02
6.137165882161164931e-02
7.097279336445391773e-02
8.036064945348583843e-02
8.935720787130924103e-02
9.778386291173737921e-02
1.054620088685836732e-01
1.122130400356614321e-01
1.178722230234336976e-01
1.223336391518423105e-01
1.255069540034594033e-01
1.273018332682171183e-01
1.276279426360475699e-01
1.264016037348524302e-01
1.236185660252308860e-01
1.193268145063849650e-01
1.135752504322839473e-01
1.064127750568971964e-01
9.788908843246363345e-02
8.810012796181804218e-02
7.721254341812111566e-02
6.539895703501281965e-02
5.283199104613318930e-02
3.968426772074631209e-02
2.613572563039333330e-02
1.239409382430358905e-02
-1.326301311871990254e-03
-1.481113339248246036e-02
-2.784607603187689434e-02
-4.022112621132554328e-02
-5.177152468659582812e-02
-6.235948425675073153e-02
-7.184757736406416351e-02
-8.009837645080994384e-02
-8.697586933056006275e-02
-9.240815489457529508e-02
-9.641229074126092535e-02
-9.901188711392097663e-02
-1.002305542558594442e-01
-1.000919060222768275e-01
-9.864657155961484292e-02
-9.603715825942354956e-02
-9.242583081032812453e-02
-8.797475390095374492e-02
-8.284609221992558781e-02
-7.720288013093584700e-02
-7.121617304781702185e-02
-6.506135597348022825e-02
-5.891385609848640709e-02
-5.294910061339616614e-02
-4.734116780192395429e-02
-4.221513071619768798e-02
-3.763432092298499287e-02
-3.365813113582453303e-02
-3.034595406825499331e-02
-2.775716481453878448e-02
-2.592039894276900250e-02
-2.477037851419555334e-02
-2.422395340936714034e-02
-2.419797350883248765e-02
-2.460928869314029169e-02
-2.537047821661951238e-02
-2.635926211149874562e-02
-2.743634622992009026e-02
-2.846232143980476081e-02
-2.929777860907397530e-02
-2.980413794524339882e-02
-2.986746957640977473e-02
-2.940205740883453794e-02
-2.832373153675307037e-02
-2.654832205440076434e-02
-2.399169524983350149e-02
-2.059478325196512083e-02
-1.636733831455228563e-02
-1.133081963324793912e-02
-5.506686403705014082e-03
1.083602178423540181e-03
8.411118827325677130e-03
1.639279942699295792e-02
2.492172310562933493e-02
3.389086492222484481e-02
4.319319993576954675e-02
5.272100945469454514e-02
6.234942868315942327e-02
7.193575843023597427e-02
8.133646802942398613e-02
9.040802681422333009e-02
9.900691698847471911e-02
1.069941859629399139e-01
1.142421638626293923e-01
1.206248933672442736e-01
1.260164171564855662e-01
1.302907779100543340e-01
1.333299258181244173e-01
1.350668624339429746e-01
1.354548682966577322e-01
1.344472754064001963e-01
1.319974157633018730e-01
1.280616881422083075e-01
1.226603707073262439e-01
1.158741282293038743e-01
1.077859930044737513e-01
9.847899732916845505e-02
8.803632794516905169e-02
7.657373499456429644e-02
6.427953414032624990e-02
5.135184605444215178e-02
3.798879140889925565e-02
2.438849087568482552e-02
1.075010616882342632e-02
-2.721201807610176132e-03
-1.581812766619908328e-02
-2.833336332767018989e-02
-4.005960071275038031e-02
-5.079319353759940980e-02
-6.039550271971286938e-02
-6.878373253261302334e-02
-7.587690300114660613e-02
-8.159403415016022731e-02
-8.585454145031728990e-02
-8.863244672274336877e-02
-9.001166947175956445e-02
-9.008930930201825005e-02
-8.896246581817190968e-02
-8.672823862487291646e-02
-8.349570257897762082e-02
-7.943563471017303645e-02
-7.473862783668783205e-02
-6.959528403037043565e-02
-6.419620536307099612e-02
-5.873000509010743025e-02
-5.335491963101933466e-02
-4.820548096611266403e-02
-4.341559252397027280e-02
-3.911915773317323208e-02
-3.544958204529443518e-02
-3.249207936323483120e-02
-3.024414281885989125e-02
-2.869396115559906535e-02
-2.782972311688245576e-02
-2.763961744613971372e-02
-2.809541877444809294e-02
-2.909319536665944811e-02
-3.050720334988327870e-02
-3.221169682719163263e-02
-3.408092990165599578e-02
-3.598873094693543634e-02
-3.780328918581726816e-02
-3.938879872560992895e-02
-4.060936904463745972e-02
-4.132910962122438026e-02
-4.141252846167212814e-02
-4.075253675415484861e-02
-3.928886807741198417e-02
-3.696562943105759919e-02
-3.372692781470639639e-02
-2.951687022797214177e-02
-2.429811162544446082e-02
-1.810993658057789488e-02
-1.101141641377455932e-02
-3.061622469409727189e-03
5.680373908138667410e-03
1.515063587930420667e-02
2.522895912734236107e-02
3.575897680895994551e-02
4.658372558953962489e-02
5.754624213446782321e-02
6.848933006208662855e-02
7.924309172117197098e-02
8.961864602460961615e-02
9.942555844755776584e-02
1.084733944651710968e-01
1.165717197550509288e-01
1.235427343455317017e-01
1.292554056992391565e-01
1.335895199820728851e-01
1.364248633599342009e-01
1.376412219987231400e-01
1.371278207499665447e-01
1.348697270327360587e-01
1.309078310144267399e-01
1.252837169750933843e-01
1.180389691947890118e-01
1.092166811745647892e-01
9.892472007300109893e-02
8.735880758916250710e-02
7.472092566135504765e-02
6.121305622788880685e-02
4.703718292192680256e-02
3.240360943110673353e-02
1.755025036328340324e-02
2.720740469693488667e-03
-1.184128549843157380e-02
-2.589219278985514447e-02
-3.919590693656722219e-02
-5.158408317499467433e-02
-6.292408447641625879e-02
-7.308359473926850924e-02
-8.193029786199182429e-02
-8.933404996555990851e-02
-9.523985933393172565e-02
-9.968529985337271082e-02
-1.027136478054634094e-01
-1.043681794717830069e-01
-1.046921888322910887e-01
-1.037530186977530244e-01
-1.016896502487935061e-01
-9.865434438414402707e-02
-9.479936200253519241e-02
-9.027696400269877297e-02
-8.523833981304082541e-02
-7.982617622031687454e-02
-7.417910803316613011e-02
-6.843574517336345475e-02
-6.273469756268165720e-02
-5.721317583800648865e-02
-5.196862092330009619e-02
-4.705396837741308153e-02
-4.251980358429367779e-02
-3.841671192789179040e-02
-3.479524315734172646e-02
-3.168523098317434922e-02
-2.906103046428405723e-02
-2.688780728472440693e-02
-2.513072712854805268e-02
-2.375495567980837053e-02
-2.272095852361751336e-02
-2.195605375527547726e-02
-2.137330250489648253e-02
-2.088571055140598862e-02
-2.040628367372926411e-02
-1.984761356078643471e-02
-1.911247232849098976e-02
-1.809364549060583915e-02
-1.668347106208015879e-02
-1.477428705786356863e-02
-1.225845981808401305e-02
-9.037148724812336942e-03
-5.032718748665936798e-03
-1.706673984489103651e-04
5.623507817033318416e-03
1.242430938897722166e-02
2.029371744425139887e-02
2.921501382185381912e-02
3.914098095576582642e-02
5.002433453134762925e-02
6.181779023395574807e-02
7.446976569537827606e-02
8.784253716422041336e-02
1.017187614241742977e-01
1.158781041241391252e-01
1.301002309130189771e-01
1.441646761389182019e-01
1.578260989425836758e-01
1.707850465017711206e-01
1.827349546722215889e-01
1.933692593096718870e-01
2.023813962698625957e-01
2.094794213748361889e-01
2.144534399329094398e-01
2.171221609572415168e-01
2.173043228554036588e-01
2.148186640349664112e-01
2.094928987493268335e-01
2.013084260983301621e-01
1.903757199236148223e-01
1.768092608543306854e-01
1.607235295196234037e-01
1.422336445214367195e-01
1.215353242680113355e-01
9.898268968394302592e-02
7.494832424606184818e-02
4.980481143120602666e-02
2.392473471620519543e-02
-2.315983845460282270e-03
-2.852466421228586763e-02
-5.430337958207696880e-02
-7.925420133966570857e-02
-1.029792008698752204e-01
-1.250882779700812075e-01
-1.453068838237114857e-01
-1.634486176307396454e-01
-1.793293001257196539e-01
-1.927647520432115569e-01
-2.035718466178428887e-01
-2.116618657547622850e-01
-2.171139589925517310e-01
-2.200245637182995928e-01
-2.204901173190927099e-01
-2.186070571820186159e-01
-2.144958724828401608e-01
-2.083851445904164323e-01
-2.005338073014399092e-01
-1.912007959937043200e-01
-1.806450460450062523e-01
-1.691247670112476231e-01
-1.568888617634214555e-01
-1.441797886817068330e-01
-1.312398771105142414e-01
-1.183114563942494757e-01
-1.056361186800256757e-01
-9.340627908958015757e-02
-8.173514010695334675e-02
-7.072872858949924568e-02
-6.049307139457587440e-02
-5.113419537953756838e-02
-4.273184417138284341e-02
-3.525994653292659209e-02
-2.866580592086185458e-02
-2.289672579161432242e-02
-1.790000960161190757e-02
-1.361785340501829589e-02
-9.935195585916921715e-03
-6.701014594014549283e-03
-3.763732097389986368e-03
-9.717697641209305237e-04
1.826325686939866706e-03
4.775580081265997159e-03
8.011630359671381707e-03
1.166936933416560206e-02
1.588368981675700176e-02
2.078948368633084728e-02
2.649645219286518236e-02
3.302342425725526831e-02
4.036874485144861108e-02
4.853075894739516949e-02
5.750781151704214417e-02
6.728772314457442949e-02
7.775459292155303959e-02
8.873350113539371642e-02
1.000488453139598000e-01
1.115250229851185437e-01
1.229857178402885554e-01
1.342255475036875090e-01
1.450005924735493223e-01
1.550642778363299501e-01
1.641700286784814333e-01
1.720712769615205806e-01
1.785449128686451004e-01
1.834437121320206254e-01
1.866357672315163696e-01
1.879891706470029344e-01
1.873720148583502554e-01
1.846684991749980576e-01
1.799030119785674231e-01
1.731721241091202790e-01
1.645730029559638041e-01
1.542028159084025962e-01
1.421609189640533899e-01
1.286188511153366909e-01
1.138350730444732117e-01
9.807321371846278169e-02
8.159690210431055912e-02
6.466976372179918109e-02
4.755169291286963362e-02
3.049174584864545318e-02
1.373702184083058254e-02
-2.465379798877002926e-03
-1.786835975877354432e-02
-3.223771583442645861e-02
-4.543876186173213816e-02
-5.738311254954005236e-02
-6.798263995380929292e-02
-7.714921613050287896e-02
-8.479742891946812078e-02
-9.091573760713295149e-02
-9.557342857845130268e-02
-9.884389866484522003e-02
-1.008005446977363051e-01
-1.015167969138518755e-01
-1.010825812533590606e-01
-9.963091761424847093e-02
-9.730177553869101548e-02
-9.423512456885818622e-02
-9.057093424692061467e-02
-8.644706738991303485e-02
-8.198692987673431021e-02
-7.730785923086760936e-02
-7.252717213763551496e-02
-6.776218528236230276e-02
-6.312893412771597434e-02
-5.871428210224297756e-02
-5.457608415108344130e-02
-5.077094670719242697e-02
-4.735547620352353881e-02
-4.438620796107890787e-02
-4.190021723587336600e-02
-3.988878052186738826e-02
-3.833659083278299906e-02
-3.722834118234287504e-02
-3.654872458426920018e-02
-3.627474023878035636e-02
-3.633631318482402617e-02
-3.664557111360339237e-02
-3.711460845319746599e-02
-3.765551963168515398e-02
-3.817950513032239424e-02
-3.858051615606084006e-02
-3.873691552139892080e-02
-3.852650533570640273e-02
-3.782708770835301743e-02
-3.651656440844804757e-02
-3.448988477105399686e-02
-3.167820183918664684e-02
-2.801729540018368936e-02
-2.344294524138399588e-02
-1.789093115012497376e-02
-1.131433340124955549e-02
-3.760797309139517555e-03
4.689883773480381032e-03
1.395788991712658064e-02
2.396340119231237659e-02
3.462248509170142569e-02
4.578326135639197714e-02
5.723805723587604977e-02
6.877754809761890686e-02
8.019240930908982934e-02
9.127332308791075155e-02
1.018117661595011880e-01
1.116007401572197411e-01
1.204334194106248257e-01
1.281029782492716096e-01
1.344025910027181470e-01
1.391456974098090327e-01
1.422448399887198123e-01
1.436428081238854404e-01
1.432823986363819246e-01
1.411064083472852171e-01
1.370647902809061791e-01
1.312096198613751652e-01
1.236691266710209514e-01
1.145733622787014072e-01
1.040523782532717101e-01
9.223662092477030727e-02
7.928944125802306342e-02
6.543134679136568266e-02
5.088855880776827628e-02
3.588729859020591689e-02
2.065378742164850068e-02
5.409248905314491089e-03
-9.646979049107606841e-03
-2.432154776099700738e-02
-3.842110870023074387e-02
-5.175231333668072614e-02
-6.412682352980619838e-02
-7.541851344580188798e-02
-8.554336166993695145e-02
-9.441814246084495599e-02
-1.019596300771629105e-01
-1.080853127565300498e-01
-1.127573450508095043e-01
-1.160081861157772898e-01
-1.178764698441428782e-01
-1.184008301286147979e-01
-1.176199008661116541e-01
-1.155881952986017036e-01
-1.124225239634832618e-01
-1.082549725375036298e-01
-1.032176266974086931e-01
-9.744257211994603041e-02
-9.106350614641681163e-02
-8.423164645317818278e-02
-7.710896264339744954e-02
-6.985758029411959225e-02
-6.263962498238692667e-02
-5.561668398582982759e-02
-4.892421155915450265e-02
-4.266035132645407124e-02
-3.692038385582640386e-02
-3.179958971537151513e-02
-2.739324752123027673e-02
-2.376897960721927050e-02
-2.089717649321650578e-02
-1.872687224155748092e-02
-1.720710091457679919e-02
-1.628689657460971954e-02
-1.590745451550666656e-02
-1.593497112311734187e-02
-1.619395435748758119e-02
-1.650846458642400358e-02
-1.670256217773332177e-02
-1.660049010827234495e-02
-1.603355425710321566e-02
-1.484221467649095641e-02
-1.286754112102733369e-02
-9.950603345304691663e-03
-5.932486224253902610e-03
-6.917520144762642764e-04
5.774848636403478487e-03
1.344732487371813265e-02
2.230568584280302052e-02
3.232994068899051887e-02
4.348466078331039014e-02
5.560384738820297462e-02
6.845584773045493288e-02
8.180851174566358686e-02
9.542968936942272662e-02
1.090863045809951082e-01
1.225161393810829669e-01
1.354226667935092832e-01
1.475073918474312518e-01
1.584718195720104528e-01
1.680174938074505686e-01
1.758800612558391041e-01
1.818917731898259393e-01
1.859018682322848559e-01
1.877595850060878868e-01
1.873141621341080365e-01
1.844363862351802441e-01
1.791587441040222994e-01
1.715871657571541864e-01
1.618279489153039430e-01
1.499873912992027991e-01
1.361751108171461999e-01
1.205872290803548796e-01
1.035124100633272315e-01
8.524384738441048714e-02
6.607473466194561940e-02
4.629827213930214763e-02
2.621046804120731252e-02
6.114487191014118632e-03
-1.368538204434619279e-02
-3.288485129793534967e-02
-5.117963220282193554e-02
-6.827918694965592894e-02
-8.398480562504878622e-02
-9.813539214261407517e-02
-1.105699638758203263e-01
-1.211275381981320454e-01
-1.296516570076672870e-01
-1.360848439047273595e-01
-1.404658603769270431e-01
-1.428374435376112972e-01
-1.432423305001254143e-01
-1.417234444397719451e-01
-1.383688869193238358e-01
-1.333705310500678809e-01
-1.269347634749297959e-01
-1.192679708368318270e-01
-1.105765397786996063e-01
-1.010717292881216089e-01
-9.099382443433415291e-02
-8.059381480799907016e-02
-7.012270689689123482e-02
-5.983150718878376545e-02
-4.996832249101437057e-02
-4.072736119493435697e-02
-3.225520789162301949e-02
-2.469680844416315829e-02
-1.819710871563863172e-02
-1.290066498670793330e-02
-8.891595213120058461e-03
-6.128701915206188899e-03
-4.555216674355074338e-03
-4.114371071954742859e-03
-4.749396689394148885e-03
-6.383721815072603348e-03
-8.835339174333845316e-03
-1.188729123145285463e-02
-1.532259768151385954e-02
-1.892427821960144391e-02
-2.247564636602161076e-02
-2.576470230514766799e-02
-2.858320843942416256e-02
-3.072303330495297635e-02
-3.197604543783586634e-02
-3.213466157981426791e-02
-3.104985712897287420e-02
-2.868237850818831924e-02
-2.500504867479223445e-02
-1.999069058611421812e-02
-1.361212719948566574e-02
-5.872070360719466517e-03
3.084360715897526990e-03
1.306968047371069933e-02
2.389639630658618730e-02
3.537701560839163345e-02
4.732074392299756571e-02
5.949121367779573039e-02
7.161883724696452291e-02
8.343327344461196060e-02
9.466418108484400684e-02
1.050416825319792080e-01
1.143318905839459942e-01
1.223619953119728376e-01
1.289651119797411427e-01
1.339743558509356725e-01
1.372228421892375816e-01
1.385753968414258352e-01
1.380321622864003339e-01
1.356293683854917775e-01
1.314032453389037125e-01
1.253900233468398240e-01
1.176337607550930475e-01
1.082726728930044069e-01
9.750725389771139340e-02
8.553910695538713416e-02
7.256983525220714326e-02
5.880131919665824297e-02
4.445173352212037493e-02
2.976431613737247350e-02
1.498443851947373409e-02
3.574721454754382910e-04
-1.387121155347099261e-02
-2.747022572005682756e-02
-4.026164719314957730e-02
-5.208032722065265852e-02
-6.276111705046258371e-02
-7.213886793047818990e-02
-8.005710248597960876e-02
-8.645077903739986636e-02
-9.130968258755281508e-02
-9.462434181823203838e-02
-9.638528541123100868e-02
-9.658438872292796074e-02
-9.527536724417795533e-02
-9.259823451653267923e-02
-8.869941327412472765e-02
-8.372532625108447535e-02
-7.782239773878604772e-02
-7.115013706984152364e-02
-6.391289043186096364e-02
-5.632459979394972144e-02
-4.859920712521692554e-02
-4.095065439477183628e-02
-3.358785503175228115e-02
-2.667300385733396839e-02
-2.034292932179388586e-02
-1.473420777540701554e-02
-9.983415568445419899e-03
-6.225045783418176049e-03
-3.516963980646156847e-03
-1.819944940865868277e-03
-1.088515517336635305e-03
-1.277202563318763882e-03
-2.340515691075148105e-03
-4.200816488423242401e-03
-6.681625872948380312e-03
-9.587531218422958371e-03
-1.272311989861964546e-02
-1.589297928731054840e-02
-1.890254891596762632e-02
-2.156427354047238745e-02
-2.369403749125007994e-02
-2.510774889128965237e-02
-2.562131586358077154e-02
-2.505320266408478380e-02
-2.329871328760595856e-02
-2.034159793016276224e-02
-1.617049862250305448e-02
-1.077405739537616244e-02
-4.140980166069863425e-03
3.693709407446811414e-03
1.256702292985526111e-02
2.229405892300085484e-02
3.268991590873025765e-02
4.356969240888815265e-02
5.474287739290825683e-02
6.597801426666499713e-02
7.702549316857840167e-02
8.763562278053912968e-02
9.755871178444347480e-02
1.065470887683666601e-01
1.144035291828992551e-01
1.209835763193513047e-01
1.261452578653092238e-01
1.297466015083557633e-01
1.316457682908744875e-01
1.317498842355090127e-01
1.300878356069812836e-01
1.267071155546312389e-01
1.216552172277989563e-01
1.149796337758258458e-01
1.067419747283790132e-01
9.709560284225621229e-02
8.623055266356230431e-02
7.433695517118465990e-02
6.160494134400419652e-02
4.822528860752581942e-02
3.440237122281369908e-02
2.035348933590520534e-02
6.296455241594074888e-03
-7.550918765318472003e-03
-2.097092006476262635e-02
-3.376743851683412789e-02
-4.579279556952089297e-02
-5.690590213952757825e-02
-6.696566914356116840e-02
-7.583100749832721865e-02
-8.337563195169733765e-02
-8.955913455946346025e-02
-9.437199775531904256e-02
-9.780474463745947311e-02
-9.984789830408191680e-02
-1.004956038108406335e-01
-9.980689559171590508e-02
-9.789686538851347097e-02
-9.488244862449754513e-02
-9.088058072293314638e-02
-8.600832039161968035e-02
-8.040014309242521362e-02
-7.422578551713271411e-02
-6.765924342151891091e-02
-6.087451256135961025e-02
-5.404558869243181879e-02
-4.733962001983342549e-02
-4.088824119472415919e-02
-3.481160903267738194e-02
-2.922987459993178772e-02
-2.426318896272314229e-02
-2.002693496504602197e-02
-1.656303638803291109e-02
-1.385576788015333710e-02
-1.188785618659563004e-02
-1.064202805254961526e-02
-1.010060359967132441e-02
-1.020578132507785930e-02
-1.082629834758786803e-02
-1.182304248516882761e-02
-1.305690155578819248e-02
-1.438876337741316555e-02
-1.567833234719514732e-02
-1.677981905296079684e-02
-1.754584104031950420e-02
-1.782901568699758743e-02
-1.748196037072147213e-02
-1.636206645726601475e-02
-1.439048043746317396e-02
-1.153377519131164666e-02
-7.759499302872327475e-03
-3.035201356207540418e-03
2.670840291712621786e-03
9.337452047891462922e-03
1.685575601563713000e-02
2.510861972318322727e-02
3.397891069876445708e-02
4.334949647061380612e-02
5.309114150499930074e-02
6.302428286545877500e-02
7.295627818659447539e-02
8.269448507579538199e-02
9.204626114045569296e-02
1.008210570532326322e-01
1.088527189148332519e-01
1.159908620377334276e-01
1.220853659159283622e-01
1.269861100434094003e-01
1.305438178784275038e-01
1.326559001380360758e-01
1.332899482311497574e-01
1.324193423175291928e-01
1.300174625569361642e-01
1.260576894034832196e-01
1.205371033146477033e-01
1.135410807733287786e-01
1.051755563996168430e-01
9.554646481359765908e-02
8.475974063536129144e-02
7.292605534510698817e-02
6.020454216084841076e-02
4.678272525448781693e-02
3.284848811266154189e-02
1.858971422200378365e-02
4.194263051272727541e-03
-1.015105060521264216e-02
-2.426083696186228864e-02
-3.794980862379426084e-02
-5.103267819612434392e-02
-6.332416167645885108e-02
-7.465736662578204008e-02
-8.492682640613241629e-02
-9.403988302272101030e-02
-1.019038784807635989e-01
-1.084261547854710461e-01
-1.135236607579030998e-01
-1.172000353554074614e-01
-1.195048917131198984e-01
-1.204882647143535879e-01
-1.202001892424224561e-01
-1.186919844755685294e-01
-1.160599438956587126e-01
-1.124560703329157141e-01
-1.080358288073417772e-01
-1.029546843389400612e-01
-9.736810020157221635e-02
-9.142901971589592613e-02
-8.528283205391856692e-02
-7.907351682862134856e-02
-7.294505365298226129e-02
-6.704142213998251498e-02
-6.149712146500082438e-02
-5.637088772376565998e-02
-5.168513504967924693e-02
-4.746204900526690418e-02
-4.372381515305299310e-02
-4.049058877155049807e-02
-3.772417703009713769e-02
-3.532072231499434195e-02
-3.317286698878520179e-02
-3.117325341401320365e-02
-2.921451314149543094e-02
-2.718271894389171980e-02
-2.494626930885940341e-02
-2.237061560218623832e-02
-1.932120918965859677e-02
-1.566350143706416245e-02
-1.127142730029098011e-02
-6.079164106262214054e-03
-4.695778306807504160e-05
6.864841482239617161e-03
1.469588350260990495e-02
2.348302932309282234e-02
3.319632531551959531e-02
4.373748354371444907e-02
5.500512332846206609e-02
6.689786399054498123e-02
7.931424804714048982e-02
9.212818503410269422e-02
1.051538142655751018e-01
1.181963854487781407e-01
1.310611482909391778e-01
1.435533524992785859e-01
1.554782758274498577e-01
1.666413734782193901e-01
1.768481698505088573e-01
1.859041895005172917e-01
1.936149569844459184e-01
1.997882247371924880e-01
2.042768259993963942e-01
2.069754967650298816e-01
2.077805642312256784e-01
2.065883555951166239e-01
2.032954238095872890e-01
1.978422302761820295e-01
1.902653289143514947e-01
1.806139901724295171e-01
1.689374844987447666e-01
1.552850823416307147e-01
1.397247947279145475e-01
1.224305050355685986e-01
1.036132376403757493e-01
8.348405710508619015e-02
6.225402799244732222e-02
4.013685647448577559e-02
1.739188723652635576e-02
-5.682987863791613345e-03
-2.878866631825047206e-02
-5.162604561862851188e-02
-7.389616119712064113e-02
-9.531786141438647331e-02
-1.156452105837375843e-01
-1.346364070855114725e-01
-1.520496493000556837e-01
-1.676431356077072998e-01
-1.811999016593606182e-01
-1.926284706832231131e-01
-2.018769056367820669e-01
-2.088932842577100601e-01
-2.136256842836817826e-01
-2.160296319432530032e-01
-2.161715361851979933e-01
-2.142028737301062136e-01
-2.102772928537296193e-01
-2.045484418318213871e-01
-1.971702890705241962e-01
-1.883260615510039815e-01
-1.782513161025852666e-01
-1.671870387597284013e-01
-1.553742155568879069e-01
-1.430538325285240220e-01
-1.304573569092234986e-01
-1.177731988284035358e-01
-1.051775998944567414e-01
-9.284680097487668649e-02
-8.095704293715480504e-02
-6.967870885066562714e-02
-5.910646130485319033e-02
-4.928222905991461872e-02
-4.024686988186293446e-02
-3.204124153670647596e-02
-2.470562978651642469e-02
-1.824153406397531832e-02
-1.258761584866507216e-02
-7.676800413309581989e-03
-3.442013030635825317e-03
1.838210266302793897e-04
3.275647927722211139e-03
5.940309401507045013e-03
8.292724844558499106e-03
1.044781365408946339e-02
1.252049522731247047e-02
1.462546992181133591e-02
1.687496342102220298e-02
1.937963822623863658e-02
2.225013224524307817e-02
2.559708338581952874e-02
2.953064687115613401e-02
3.413580607096835390e-02
3.946056355471776883e-02
4.554996731252080461e-02
5.244906533449111841e-02
6.020290487012592423e-02
6.883241894528052685e-02
7.827098906168664105e-02
8.843213306817759856e-02
9.922936881358812578e-02
1.105762141467508120e-01
1.223783911746871567e-01
1.344642181465999231e-01
1.466177116717426454e-01
1.586223664080194662e-01
1.702616770133409674e-01
1.813190679323636034e-01
1.915750671315874787e-01
2.008063404200171043e-01
2.087892852313001368e-01
2.153002989990790705e-01
2.201157882996100379e-01
2.230461690827915122e-01
2.240125789005927293e-01
2.229586495588677386e-01
2.198280128634711728e-01
2.145643006202589131e-01
2.071275926956304969e-01
1.976221619853711087e-01
1.862269660353181311e-01
1.731215928895200040e-01
1.584856305920179231e-01
1.425001685457219502e-01
1.253964036432925755e-01
1.074662132021025895e-01
8.900511481164646854e-02
7.030862606142837534e-02
5.167224488112846792e-02
3.336898761558183824e-02
1.560615495877483265e-02
-1.420896005049634807e-03
-1.751680819165191139e-02
-3.248622451678984113e-02
-4.615177735533905479e-02
-5.847588224825315401e-02
-6.948638199995973985e-02
-7.921149241928468476e-02
-8.767942931505895432e-02
-9.492092039510144352e-02
-1.010357675632751473e-01
-1.061997774473084910e-01
-1.105926586530849298e-01
-1.143941197864851433e-01
-1.177838506060219781e-01
-1.209318563335730901e-01
-1.239826847935408538e-01
-1.270767507843278132e-01
-1.303544691043370396e-01
-1.339562545519709935e-01
-1.380061956796670708e-01
-1.425155787996181811e-01
-1.474480513387901592e-01
-1.527670919345475720e-01
-1.584361792242577338e-01
-1.644155539169963598e-01
-1.705909843711972407e-01
-1.767737665946502446e-01
-1.827719586668597462e-01
-1.883936186673267343e-01
-1.934467968003032445e-01
-1.977373205730567074e-01
-2.010657544562012566e-01
-2.032319011834295697e-01
-2.040355634884349068e-01
-2.032765441049111388e-01
-2.007702568711956514e-01
-1.964282723147364740e-01
-1.901987410171370740e-01
-1.820298847495488426e-01
-1.718699252831185353e-01
-1.596725835328084153e-01
-1.454986955460945974e-01
-1.295064451573580688e-01
-1.118575562755853292e-01
-9.271375280977128819e-02
-7.223701098843490764e-02
-5.063356543532065296e-02
-2.820420735931802175e-02
-5.261896972719986437e-03
1.788040551218422064e-02
4.090973988310133563e-02
6.351417794774785741e-02
8.538746985289114022e-02
1.062253083276221421e-01
1.257233877997888383e-01
1.435774026972493900e-01
1.594888350313559411e-01
1.732556412012051794e-01
1.847554423316794814e-01
1.938682465230002760e-01
2.004740618753827752e-01
2.044536095424708544e-01
2.057720742733852304e-01
2.045577139747925266e-01
2.009573882651083110e-01
1.951179567627484013e-01
1.871862790861301418e-01
1.773337903302174834e-01
1.658528914219220274e-01
1.530731392911351130e-01
1.393241008562592365e-01
1.249353430356893446e-01
1.102352765785795941e-01
9.553567394175171978e-02
8.113582946573033583e-02
6.733473501023487517e-02
5.443138243498212708e-02
4.272386965933697850e-02
3.243441966930263320e-02
2.365268671168476236e-02
1.645497335168987635e-02
1.091758215452532862e-02
7.116815685395665864e-03
5.091873157530291127e-03
4.718416139127765314e-03
5.827063197877515970e-03
8.248431518069301513e-03
1.181313828399238597e-02
1.634770525005721509e-02
2.162739398894873016e-02
2.739257462226241460e-02
3.338294820818907271e-02
3.933821580492035536e-02
4.499866679023008242e-02
5.014198457980578033e-02
5.460505110261574396e-02
5.822998809685898947e-02
6.085891730073417910e-02
6.233396045492064358e-02
6.252860134267779202e-02
6.144016022277640210e-02
5.909651871239449128e-02
5.552555842870877251e-02
5.075516098889704120e-02
4.482026668712345979e-02
3.783314092535566137e-02
2.995377753961795189e-02
2.134287424415667878e-02
1.216112875321704104e-02
2.569437289862683271e-03
-7.261529705390257564e-03
-1.714706699789949815e-02
-2.690138360989812252e-02
-3.633868856361757022e-02
-4.527319159005555038e-02
-5.353074300496245969e-02
-6.097838217914850617e-02
-6.749225430626976108e-02
-7.294850457998572346e-02
-7.722327819395233273e-02
-8.019994825541001959e-02
-8.183155472171768641e-02
-8.211008956007842530e-02
-8.102797092804051027e-02
-7.857761698315249288e-02
-7.475291829379759889e-02
-6.960544515532154919e-02
-6.326195127143779962e-02
-5.585424075344778971e-02
-4.751411771265449252e-02
-3.837339384413858412e-02
-2.858416885434666987e-02
-1.836293068507793141e-02
-7.938911392380860327e-03
2.458656967701628934e-03
1.260054233912106733e-02
2.225971227600600719e-02
3.122787165996988162e-02
3.930620308512379479e-02
4.629596253942921263e-02
5.199840601084927683e-02
5.621720149256147908e-02
5.883281533887615294e-02
5.981664049656624377e-02
5.914533284742713726e-02
5.679554827325480892e-02
5.274399490321379780e-02
4.701566816011390482e-02
3.977320891541900882e-02
3.120362280917835657e-02
2.149391548143651104e-02
1.083109257224250041e-02
-5.908420570765338803e-04
-1.252500244899346429e-02
-2.470033873753244014e-02
-3.684567681772084324e-02
-4.868984258458811804e-02
-5.996351460031496688e-02
-7.044615957478153612e-02
-7.996973263051715408e-02
-8.836878285026536495e-02
-9.547785931676872062e-02
-1.011316267679792380e-01
-1.052156319283464869e-01
-1.077459051336018825e-01
-1.087591000941182384e-01
-1.082918705202687570e-01
-1.063808701224259468e-01
-1.030761069392844009e-01
-9.851737826250930863e-02
-9.288148604808396658e-02
-8.634534762949680475e-02
-7.908588034023550373e-02
-7.127989569973872119e-02
-6.310186726084729414e-02
-5.472398260207585186e-02
-4.631833388798872048e-02
-3.805701328315164861e-02
-3.011199056620170178e-02
-2.262463450190349556e-02
-1.566559745485812671e-02
-9.295573201682659839e-03
-3.575255518990795058e-03
1.434661816600298935e-03
5.686803590016861580e-03
9.213667785494218318e-03
1.207739265814893916e-02
1.434016532318211495e-02
1.606417289579552266e-02
1.731330612477561745e-02
1.818341803616007821e-02
1.879876254846081507e-02
1.928458181920464712e-02
1.976611800591829282e-02
2.036856829549897954e-02
2.120998363853464005e-02
2.239350882867537779e-02
2.402042341212620030e-02
2.619200693509299988e-02
2.900953894378086734e-02
3.256130871052119458e-02
3.686598766409435873e-02
4.191902374162623235e-02
4.771584878810405939e-02
5.425189464851386950e-02
6.151800533953054317e-02
6.943120312279496553e-02
7.784891376271918517e-02
8.662686117459253432e-02
9.562076927370907753e-02
1.046861410273502990e-01
1.136543941702213845e-01
1.223115306798497892e-01
1.304385196565056027e-01
1.378163302004542790e-01
1.442259314119628266e-01
1.494592511511628474e-01
1.533607716818135291e-01
1.557907106366675232e-01
1.566092885510038946e-01
1.556767259601020137e-01
1.528615296627029996e-01
1.481475294037651325e-01
1.416030982227411139e-01
1.332985528752503035e-01
1.233042101169073423e-01
1.116912106411168115e-01
9.859579789910188907e-02
8.426534203377936127e-02
6.895807519212232561e-02
5.293222952111142909e-02
3.644603716772486235e-02
1.975919628545452778e-02
3.137701442042241471e-03
-1.315076274089520270e-02
-2.883851162075367486e-02
-4.365786055492649337e-02
-5.734934704650596071e-02
-6.975319087691031483e-02
-8.077592482908960148e-02
-9.032528042424736725e-02
-9.830898918359212701e-02
-1.046360673034072430e-01
-1.092922142912488848e-01
-1.123817609616709623e-01
-1.140192163916440293e-01
-1.143190896581368909e-01
-1.133958898644982505e-01
-1.113768055358203279e-01
-1.084378134407361360e-01
-1.047666232628131910e-01
-1.005509446856187594e-01
-9.597848739272094032e-02
-9.123207995028054240e-02
-8.644268938106500211e-02
-8.171000455542593022e-02
-7.713328281244802298e-02
-7.281178149121361742e-02
-6.884356585762671510e-02
-6.527120117278997768e-02
-6.205935943330396359e-02
-5.916687998288707590e-02
-5.655260216525945932e-02
-5.417536394706759517e-02
-5.198093625164283693e-02
-4.987002663637626898e-02
-4.773363556433435351e-02
-4.546276349858314331e-02
-4.294841090218914220e-02
-4.008429713794587484e-02
-3.678958767210226133e-02
-3.299734560027890035e-02
-2.864077486740791018e-02
-2.365307941841904640e-02
-1.796867230374096791e-02
-1.156699773568964536e-02
-4.484880615571274626e-03
3.237129579106083881e-03
1.155848337083064184e-02
2.043862020366521079e-02
2.981486281670913882e-02
3.955610268527606777e-02
4.951803670135133256e-02
5.955636175692190226e-02
6.952677474397295221e-02
7.928214241007819352e-02
8.865190044537296643e-02
9.745391112165890934e-02
1.055059547882676030e-01
1.126258117945348192e-01
1.186323303459874412e-01
1.233768269160089026e-01
1.267482017614022793e-01
1.286374529686666879e-01
1.289355786242992186e-01
1.275336306861331037e-01
1.243635839268189824e-01
1.194711812697413778e-01
1.129217773906309730e-01
1.047807269652179518e-01
9.511338466923438539e-02
8.400012857645844377e-02
7.163175643994931785e-02
5.824831773123656520e-02
4.409008917130022298e-02
2.939734748111261578e-02
1.441100431189873236e-02
-6.120039753250462733e-04
-1.539788450685369153e-02
-2.967204298460267287e-02
-4.315988511047950255e-02
-5.558692470447407913e-02
-6.671979110167058913e-02
-7.642798511592399646e-02
-8.459683450215937928e-02
-9.111166701530387657e-02
-9.585781041028396121e-02
-9.874444162359102828e-02
-9.983680252036858382e-02
-9.926289532185444964e-02
-9.715089317541947267e-02
-9.362896922843313985e-02
-8.882827898396805644e-02
-8.294332229654502453e-02
-7.622915718916342676e-02
-6.894326645046217061e-02
-6.134313286908386204e-02
-5.368612863728743773e-02
-4.620497861952770763e-02
-3.907681445280253990e-02
-3.247115148808379231e-02
-2.655750507634424898e-02
-2.150539056855363396e-02
-1.745992030485355243e-02
-1.442370157962606300e-02
-1.234776097922808333e-02
-1.118305394421136544e-02
-1.088053591512883403e-02
-1.138677184623135968e-02
-1.256894505763741718e-02
-1.422527418865553173e-02
-1.615168371547935286e-02
-1.814409811430268971e-02
-1.999851489256463527e-02
-2.152148932753283547e-02
-2.254107922418388185e-02
-2.288795808450049332e-02
-2.239279941046558656e-02
-2.088627670406173475e-02
-1.822256317557824357e-02
-1.437850991021102573e-02
-9.370869091683093829e-03
-3.216414302688127072e-03
4.068080874077632282e-03
1.245944693002345137e-02
2.183512372923503836e-02
3.199410849137417079e-02
4.273326582071410723e-02
5.384946032152965883e-02
6.513939678152999568e-02
7.638369920230653198e-02
8.733337473777852411e-02
9.773624274349987373e-02
1.073401225750230392e-01
1.158928335879053362e-01
1.231595426528225290e-01
1.289864739279921735e-01
1.332435070655371701e-01
1.358005245328067490e-01
1.365274087971476702e-01
1.353028437088855396e-01
1.321240213680112130e-01
1.270730554461700912e-01
1.202339089273228023e-01
1.116905447954297248e-01
1.015277365230133066e-01
8.989000970704946747e-02
7.702153991053689586e-02
6.317595308081203065e-02
4.860687516521400298e-02
3.356793211107399200e-02
1.831511588783983971e-02
3.114320785047797017e-03
-1.176596874403727094e-02
-2.605726823765557726e-02
-3.949109323403935529e-02
-5.180642927225285327e-02
-6.283001251222897210e-02
-7.244562843437540867e-02
-8.053803312358290278e-02
-8.699198266474425512e-02
-9.169370038737251205e-02
-9.461180295319443490e-02
-9.583947439926907008e-02
-9.548025520689534806e-02
-9.363768585737000660e-02
-9.041530704193309620e-02
-8.593901659235941848e-02
-8.041854477041349147e-02
-7.408326742906773399e-02
-6.716256042128609938e-02
-5.988579960004199870e-02
-5.247879745232943843e-02
-4.513063505447180435e-02
-3.800874910796209899e-02
-3.128029753869369239e-02
-2.511243827256055827e-02
-1.967059362266353889e-02
-1.504367289185496587e-02
-1.121562058036129801e-02
-8.162776309480312964e-03
-5.861479700510895119e-03
-4.288065693645473284e-03
-3.390736429154073486e-03
-3.023130349334835106e-03
-3.019038582028553755e-03
-3.212252255075678971e-03
-3.436562496316602176e-03
-3.528524700671664682e-03
-3.349820381094914187e-03
-2.775534876495584953e-03
-1.680879007708677153e-03
5.893640443154889857e-05
2.566477985397784371e-03
5.885527440515705283e-03
9.961722654898957224e-03
1.473454849536399644e-02
2.014348982872826363e-02
2.612801067737318891e-02
3.259557927061638299e-02
3.935714111221185613e-02
4.620551245464534634e-02
5.293350955041215694e-02
5.933394865199804330e-02
6.520267031709410521e-02
7.035985481239126482e-02
7.463742119186794755e-02
7.786736417714446024e-02
7.988167848983962482e-02
8.051536166984682441e-02
7.969067748936456419e-02
7.742865360886597159e-02
7.375563108643473642e-02
6.869795098015246682e-02
6.228202179141038158e-02
5.457697816799397805e-02
4.576780978416122858e-02
3.605895384509121698e-02
2.565484755594994726e-02
1.475992812191761344e-02
3.580269212598711712e-03
-7.666354804544927432e-03
-1.875707550042942859e-02
-2.946900346668009096e-02
-3.957924929492169508e-02
-4.886757363829258294e-02
-5.717788713280763657e-02
-6.442007936181301520e-02
-7.050705585368810535e-02
-7.535172213682173048e-02
-7.886711686359587636e-02
-8.101041150661353329e-02
-8.184652047093782246e-02
-8.145649187984507766e-02
-7.992137385661277071e-02
-7.732221452451676358e-02
-7.374828297606503269e-02
-6.934121314104862988e-02
-6.426318495094701655e-02
-5.867642681252521059e-02
-5.274316713254750821e-02
-4.662460254485072814e-02
-4.046085016598209572e-02
-3.437232309547325754e-02
-2.847867815272487474e-02
-2.289957215712917424e-02
-1.775448837136667235e-02
-1.312824479102151984e-02
-9.029336782467452596e-03
-5.456089038506728092e-03
-2.406826251937143821e-03
1.201268844427567928e-04
2.139291596415782842e-03
3.738241965695912779e-03
5.030340827477651836e-03
6.128980366063086979e-03
7.147552765754034559e-03
8.199843768056009480e-03
9.406500182397709714e-03
1.089399659602056578e-02
1.278899276779845925e-02
1.521814845660773505e-02
1.830784405172843077e-02
2.214757664023507544e-02
2.675349127948971686e-02
3.213306035213177314e-02
3.829375624080542939e-02
4.524305132815600872e-02
5.296509937494549985e-02
6.132546697120248858e-02
7.015211687275638153e-02
7.927299666408840761e-02
8.851605392968028840e-02
9.770620578125580047e-02
1.066228693034221575e-01
1.150103560354990839e-01
1.226120698742880766e-01
1.291714147166018734e-01
1.344322301765927541e-01
1.381789382753623174e-01
1.402689701761403451e-01
1.405673878434245683e-01
1.389392532417151327e-01
1.352496283355096307e-01
1.294024905894327060e-01
1.214789922012941281e-01
1.116106803398984604e-01
9.992910573087687709e-02
8.656581909985797130e-02
7.166100333199651451e-02
5.546733345919638292e-02
3.831627599453701905e-02
2.054092043244238469e-02
2.474356267311782556e-03
-1.555051254194433907e-02
-3.321357176976744152e-02
-5.021554814470309547e-02
-6.625908551769288390e-02
-8.104682773969670850e-02
-9.428141866167269458e-02
-1.057051142461700177e-01
-1.152217223318509343e-01
-1.227762297197272090e-01
-1.283136232217375605e-01
-1.317788896498179041e-01
-1.331294881263321295e-01
-1.324648855797190827e-01
-1.299747701321150029e-01
-1.258502720671462183e-01
-1.202825216684344223e-01
-1.134631329460199234e-01
-1.056093171215213011e-01
-9.697610713726620424e-02
-8.782158198170972319e-02
-7.840382064329781686e-02
-6.898090154055100398e-02
-5.978822149414773218e-02
-5.097829478792228336e-02
-4.268470916925861530e-02
-3.504105238553122115e-02
-2.818091218411553078e-02
-2.222702825972867891e-02
-1.719362346589653479e-02
-1.303244827880000595e-02
-9.694503685394142631e-03
-7.130790672628645188e-03
-5.291342324327796484e-03
-4.085735965191015714e-03
-3.369297920292868218e-03
-2.993552888623182001e-03
-2.810025569170993172e-03
-2.670242332683563612e-03
-2.432529050467402941e-03
-1.977489915081714206e-03
-1.190284786460283836e-03
4.392647546350506027e-05
1.839984010756906888e-03
4.304075319122443836e-03
7.465985059307242780e-03
1.131569046896636552e-02
1.584282557065699523e-02
2.103702438694226434e-02
2.688626557977858572e-02
3.332261783020688817e-02
4.021005898152697766e-02
4.740844563880249052e-02
5.477763440710438358e-02
6.217747370536621382e-02
6.945790975791585331e-02
7.643976099554569692e-02
8.293851697664825218e-02
8.876966725962359694e-02
9.374870140287086540e-02
9.769815476454654646e-02
1.004956952234571099e-01
1.020449514048345774e-01
1.022497036999286124e-01
1.010137324999908492e-01
9.824374643963526554e-02
9.392786374492312351e-02
8.814428609328905928e-02
8.097588375366199243e-02
7.250552699496476405e-02
6.281615270116948369e-02
5.202633996529976851e-02
4.034894187672621868e-02
2.801221969198860670e-02
1.524443466763999652e-02
2.273848060215718017e-03
-1.067176099949765020e-02
-2.336796734587716362e-02
-3.559177092561362915e-02
-4.712017689310226548e-02
-5.773019040275152031e-02
-6.720206095708944338e-02
-7.539141867536200414e-02
-8.222969929178347570e-02
-8.765166788916620155e-02
-9.159208955033021349e-02
-9.398589812853583303e-02
-9.481717572635015023e-02
-9.418709271010089479e-02
-9.221388203476249545e-02
-8.901577665531176797e-02
-8.471100952672200313e-02
-7.942446604783617858e-02
-7.332228266975845954e-02
-6.658638611116299288e-02
-5.939873506746547877e-02
-5.194128823407435230e-02
-4.439376683317237254e-02
-3.689189480579820740e-02
-2.953118503921991350e-02
-2.240567211567435352e-02
-1.560939061739054570e-02
-9.236154711034288631e-03
-3.340122268520181840e-03
2.109783460775741838e-03
7.155685487615864523e-03
1.183970682275726008e-02
1.620397047696393866e-02
2.029686012071131931e-02
2.420143442388138569e-02
2.801268936495541692e-02
3.182563195123166988e-02
3.573526919001246416e-02
3.983446938062567416e-02
4.418013142076676614e-02
4.879928388305439929e-02
5.371804966360675671e-02
5.896255165854691338e-02
6.455860781568817375e-02
7.049513733729706466e-02
7.668939657273662891e-02
8.305040826699328083e-02
8.948719516504671789e-02
9.590878001188563040e-02
1.022160968308818696e-01
1.082700047488741046e-01
1.139189746867797504e-01
1.190114739348141770e-01
1.233959697831989721e-01
1.269225970522392943e-01
1.294656908830252307e-01
1.309178391568992517e-01
1.311720780260700880e-01
1.301214436427481635e-01
1.276594481396081393e-01
1.237207481458962866e-01
1.183123089161966790e-01
1.114484326995041907e-01
1.031434217448214119e-01
9.341157830113999694e-02
8.228674083335721368e-02
6.988941573569276700e-02
5.636413453375299643e-02
4.185542964311043251e-02
2.650783347932331516e-02
1.046917850354958310e-02
-6.071065209644128935e-03
-2.289492325061981068e-02
-3.978386663737074058e-02
-5.651936638790817230e-02
-7.288303680272908980e-02
-8.866574613129696303e-02
-1.036730973429161595e-01
-1.177120077485536154e-01
-1.305893946591614174e-01
-1.421121753859247161e-01
-1.521087727916166921e-01
-1.604930775646924157e-01
-1.672002096468647447e-01
-1.721652889798396535e-01
-1.753234355053305271e-01
-1.766187618795784509e-01
-1.760946524558590076e-01
-1.738561217377048718e-01
-1.700091081068208498e-01
-1.646595499449094724e-01
-1.579141929486130302e-01
-1.499201029025562792e-01
-1.408825730550184452e-01
-1.310114377737192359e-01
-1.205165314263889897e-01
-1.096076879605509813e-01
-9.848667488864151776e-02
-8.732653323486178065e-02
-7.629391204075128274e-02
-6.555546034786147169e-02
-5.527782719773170761e-02
-4.561792207472431526e-02
-3.663808188445535907e-02
-2.834745596298291620e-02
-2.075460069320355164e-02
-1.386807245800484450e-02
-7.694983515249905967e-03
-2.185144851260403288e-03
2.786747582681663778e-03
7.351086752895820073e-03
1.163826562569682949e-02
1.577867706266875003e-02
1.990241082122707825e-02
2.413858855363474470e-02
2.861613904334922576e-02
3.346399107382173888e-02
3.881107342850818182e-02
4.477634214085506742e-02
5.139319038842956461e-02
5.865147447976376549e-02
6.654070611539206204e-02
7.505039699584026280e-02
8.416794904329624738e-02
9.381279973331280164e-02
1.038234636172788161e-01
1.140337290051355867e-01
1.242773842068134182e-01
1.343882074723757869e-01
1.441901877834631807e-01
1.534792336877403296e-01
1.620462502280850814e-01
1.696821424473628770e-01
1.761778153884483999e-01
1.813325609750432998e-01
1.850094891640785832e-01
1.871010469892213923e-01
1.874998363363731824e-01
1.860984590914351866e-01
1.827925336834048120e-01
1.775579743367862173e-01
1.704575683905284189e-01
1.615584377471304123e-01
1.509277043091010739e-01
1.386325691628217394e-01
1.247764148336095447e-01
1.095559836122063646e-01
9.318287306798589409e-02
7.586868077034414348e-02
5.782500428865980369e-02
3.926759009738085837e-02
2.044027051337877696e-02
1.598523839641550863e-03
-1.700213410542513598e-02
-3.510618750339578736e-02
-5.245982711845369184e-02
-6.884732864544682029e-02
-8.409041572717312896e-02
-9.801239118109839055e-02
-1.104365578246737922e-01
-1.211864006875896793e-01
-1.301323377269060499e-01
-1.372539061064411703e-01
-1.425461153854013785e-01
-1.460039751229842420e-01
-1.476224948783934066e-01
-1.474155292615916824e-01
-1.455107053669882355e-01
-1.420781335705874893e-01
-1.372879973262550735e-01
-1.313104800878620582e-01
-1.243174461142792508e-01
-1.165125891424881599e-01
-1.081280455298822551e-01
-9.939695237854248577e-02
-9.055244679055909907e-02
-8.182747965479572616e-02
-7.342468338326502142e-02
-6.548307031482469842e-02
-5.813363563045190890e-02
-5.150737451113462928e-02
-4.573528213785282154e-02
-4.092490782643418146e-02
-3.705732053024431150e-02
-3.407113004502696635e-02
-3.190491491934120682e-02
-3.049725370174821010e-02
-2.978258795702820594e-02
-2.962820459404229972e-02
-2.984686899831047457e-02
-3.024977064752795708e-02
-3.064809901938945341e-02
-3.085316345528850424e-02
-3.068960984666783964e-02
-3.000738058156943167e-02
-2.865924175264660673e-02
-2.649795945255417617e-02
-2.337629977394568848e-02
-1.917083325931694116e-02
-1.387303364891713173e-02
-7.508998696111783902e-03
-1.048332074352360116e-04
8.313358010570098475e-03
1.771304229599906035e-02
2.797148016606997370e-02
3.889942418418518982e-02
5.030607728378849036e-02
6.200064239831133001e-02
7.379217966373391446e-02
8.547826498971758391e-02
9.683675691674309416e-02
1.076435721962495373e-01
1.176746275796602403e-01
1.267058398184103818e-01
1.345307175263478761e-01
1.410188159791427032e-01
1.460602346668928020e-01
1.495450734088791256e-01
1.513634320243792963e-01
1.514136641209490319e-01
1.496949868665939376e-01
1.462741023292491727e-01
1.412189508118222303e-01
1.345974726172262381e-01
1.264784030414590199e-01
1.169786741567724053e-01
1.062902103345424731e-01
9.461142059213001332e-02
8.214071394691152550e-02
6.907649941907709201e-02
5.561951819792457924e-02
4.197954343898181728e-02
2.836853445639350019e-02
1.499845056430438792e-02
2.081251076873497259e-03
-1.017677770442538925e-02
-2.163008546083616118e-02
-3.216996525437938736e-02
-4.168822710035357398e-02
-5.007668101404725430e-02
-5.722844995486264102e-02
-6.309863757810738050e-02
-6.772983399525950299e-02
-7.117123413446632685e-02
-7.347203292387338713e-02
-7.468142726232421258e-02
-7.486985139032226177e-02
-7.418145089130093184e-02
-7.277635291437795084e-02
-7.081468460867013093e-02
-6.845657312329642141e-02
-6.586112645480263206e-02
-6.317784413917179598e-02
-6.055094706983605440e-02
-5.812460159450551916e-02
-5.604297406089388950e-02
-5.444869741107454669e-02
-5.342657558226806408e-02
-5.298730562536129590e-02
-5.313673270338643145e-02
-5.388070197937649269e-02
-5.522504324121239871e-02
-5.714266178690454584e-02
-5.950394301926690416e-02
-6.215937512284026162e-02
-6.495944628216576699e-02
-6.775464468178157840e-02
-7.039263569335957316e-02
-7.269754764510177880e-02
-7.448181369559944698e-02
-7.555778230989249056e-02
-7.573780195301890727e-02
-7.483607475617584659e-02
-7.272381227570351436e-02
-6.933859068930844916e-02
-6.462172443234087682e-02
-5.851452794014912889e-02
-5.095837689347929023e-02
-4.194343847988563773e-02
-3.159637407949286714e-02
-2.006753096853053711e-02
-7.507256423226461167e-03
5.934102280177915717e-03
2.009515987233692624e-02
3.473284041755019674e-02
4.956740971819485059e-02
6.431895970963874554e-02
7.870758232722882553e-02
9.245433317505730164e-02
1.053048473938521801e-01
1.170307613501570532e-01
1.274049596989477451e-01
1.362003270951981648e-01
1.431898793213188803e-01
1.481983049306422051e-01
1.511803761701088766e-01
1.521110143700136752e-01
1.509651408606486056e-01
1.477176769723071992e-01
1.423647301408333121e-01
1.350419868626944186e-01
1.259416100530326432e-01
1.152559218466528701e-01
1.031772443783741389e-01
8.990020737599010991e-02
7.566893633890844906e-02
6.077514232563302476e-02
4.551246175960349527e-02
3.017453106425900533e-02
1.505490479831198859e-02
4.283709024368834335e-04
-1.347286874181323132e-02
-2.642248693244993868e-02
-3.819415646748344773e-02
-4.856155014491161936e-02
-5.732005160257722109e-02
-6.439267325797337627e-02
-6.974891280723055642e-02
-7.335833506890521161e-02
-7.519050486154765789e-02
-7.522096147150789114e-02
-7.353426217769154505e-02
-7.031021151170629979e-02
-6.573181857199095202e-02
-5.998209245698245956e-02
-5.324423506559419761e-02
-4.572997692347730014e-02
-3.770949896241983929e-02
-2.946014291188818468e-02
-2.125925050134841107e-02
-1.338416346027537784e-02
-6.099199821102506761e-03
3.997584118201158269e-04
5.939229537850461080e-03
1.034574469575716069e-02
1.344583502430185540e-02
1.507424545388770867e-02
1.519447201748390375e-02
1.387220261405624870e-02
1.117593805260536782e-02
7.174179142129934704e-03
1.936054519968179611e-03
-4.404875079249947686e-03
-1.159568122257576689e-02
-1.937049314293074961e-02
-2.746344007323719277e-02
-3.560865124640866242e-02
-4.354171085290404336e-02
-5.100504576908152649e-02
-5.774309266341379893e-02
-6.350028847308908375e-02
-6.802107013528693735e-02
-7.105855799890153923e-02
-7.248375841017706822e-02
-7.225263621551039628e-02
-7.032303187822924739e-02
-6.665278586165895858e-02
-6.120087771016987505e-02
-5.401171425334520132e-02
-4.527300080157820039e-02
-3.518613586213410055e-02
-2.395251794227618719e-02
-1.177354554927998592e-02
1.135562027444164245e-03
1.450136713378124588e-02
2.803510516947878978e-02
4.144801145967422912e-02
5.445132132948598408e-02
6.676165963473076892e-02
7.815946186520297823e-02
8.846688795919963044e-02
9.750681868822769216e-02
1.051021348237923814e-01
1.110770285273657010e-01
1.153304540943903556e-01
1.178750469352579655e-01
1.187329687740405759e-01
1.179263813348126744e-01
1.154774465162640151e-01
1.114336732058271162e-01
1.059382293422752586e-01
9.915684546245900899e-02
9.125525210322321668e-02
8.239917980141114873e-02
7.275579515103169914e-02
6.250717980532985441e-02
5.184425551574846358e-02
4.095805989032549888e-02
3.003963053709859596e-02
1.927939146735754838e-02
8.840348585196288606e-03
-1.152320678188417831e-03
-1.057620241049228929e-02
-1.930888269942479529e-02
-2.722795083747305694e-02
-3.423243530070484153e-02
-4.029389175353007002e-02
-4.539919738326719800e-02
-4.953522937724134934e-02
-5.268886492277623929e-02
-5.485358346068082425e-02
-5.608331479257142732e-02
-5.646442711305047629e-02
-5.608359846165034829e-02
-5.502750687790233797e-02
-5.338330415859116052e-02
-5.125514280272922690e-02
-4.876847354913103894e-02
-4.605009410963471078e-02
-4.322680219607469287e-02
-4.042538839878986184e-02
-3.776099859326186720e-02
-3.531342685681793103e-02
-3.315578363728097916e-02
-3.136117938247124509e-02
-3.000272454020948276e-02
-2.914425559467624660e-02
-2.877444314660008301e-02
-2.884548891073102778e-02
-2.930935386977381180e-02
-3.011799900643379740e-02
-3.122198176362454142e-02
-3.253061063802498848e-02
-3.390624673438567827e-02
-3.520870194276538162e-02
-3.629778815322470820e-02
-3.703332891435741347e-02
-3.728286690274094234e-02
-3.693500653049721499e-02
-3.588191126161958955e-02
-3.401574456010120900e-02
-3.122866988993402981e-02
-2.742623244569741825e-02
-2.261031692936292525e-02
-1.682500597256156999e-02
-1.011456109792227553e-02
-2.523243828072650914e-03
5.901793574353699813e-03
1.504269379782051039e-02
2.470846857520456186e-02
3.470475354494281794e-02
4.483718434548612797e-02
5.491138631785268814e-02
6.472945451473555156e-02
7.408481239292469267e-02
8.276957606760201869e-02
9.057586165395953293e-02
9.729578526718796194e-02
1.027358254022655015e-01
1.067945620964672326e-01
1.094069360168552774e-01
1.105079768255144146e-01
1.100327141845271472e-01
1.079206556593388100e-01
1.042036816153115997e-01
9.900050469810348086e-02
9.243320602363599980e-02
8.462386670782237608e-02
7.569469918191765179e-02
6.579485908592103138e-02
5.513318191782329986e-02
4.392651141500605178e-02
3.239169131483954356e-02
2.074556535469358060e-02
9.199886250421713749e-03
-2.062737464873271205e-03
-1.287005022243247268e-02
-2.304980883357846469e-02
-3.242977010963293827e-02
-4.084151941016789245e-02
-4.818399444551723504e-02
-5.441366548439137418e-02
-5.948885208363361571e-02
-6.336787380009525905e-02
-6.600934835038926862e-02
-6.741214690910146690e-02
-6.765567218094512003e-02
-6.682891655297953926e-02
-6.502087241226442438e-02
-6.232053214585810824e-02
-5.882547975039236626e-02
-5.467727859073847479e-02
-5.003152671877744706e-02
-4.504382828451369836e-02
-3.986978743795118602e-02
-3.466396861839336763e-02
-2.956519168222482286e-02
-2.470005969296774559e-02
-2.019485582609077678e-02
-1.617586325705595157e-02
-1.276895833849947190e-02
-1.006139706418394952e-02
-8.070547714989615221e-03
-6.806420004912843227e-03
-6.279023647947757844e-03
-6.498368358089513797e-03
-7.454828133787647776e-03
-9.048797521405230540e-03
-1.115491261722178704e-02
-1.364780742584316767e-02
-1.640211595187844248e-02
-1.929040644653755299e-02
-2.215810684561752425e-02
-2.483152667209380729e-02
-2.713657607175710626e-02
-2.889916519040108128e-02
-2.994570980578416947e-02
-3.013806442886641374e-02
-2.939616652575721689e-02
-2.764533753173575858e-02
-2.481089888208062172e-02
-2.081817201206883836e-02
-1.562322333450262904e-02
-9.308321312617851354e-03
-1.988111450958566367e-03
6.222760725707840099e-03
1.520964969262496476e-02
2.485149352620597690e-02
3.495360366220376380e-02
4.527424424954221843e-02
5.557091545276086897e-02
6.560111743641025561e-02
7.512269998716730735e-02
8.391228769944350518e-02
9.177440573125428269e-02
9.851584427444715075e-02
1.039433935208781967e-01
1.078638443809810388e-01
1.101194825558269308e-01
1.106831368979899199e-01
1.095576399227460584e-01
1.067458241453728696e-01
1.022505220811451010e-01
9.608588455332922607e-02
8.838013308210257435e-02
7.932754284027559999e-02
6.912319582075457380e-02
5.796217401643636441e-02
4.604007462894177394e-02
3.357431527391824266e-02
2.081174145264756692e-02
8.001278165336968631e-03
-4.608149587819973872e-03
-1.676762133448120307e-02
-2.824841514526958697e-02
-3.888841291480654716e-02
-4.853920528051343386e-02
-5.705238287980147344e-02
-6.427953635009467370e-02
-7.008391407526473604e-02
-7.443244864861947585e-02
-7.734641427285349202e-02
-7.884756355840677466e-02
-7.895764911572256128e-02
-7.770013612722070917e-02
-7.515702965136478175e-02
-7.148203244029197045e-02
-6.683322533933638843e-02
-6.136868919382828386e-02
-5.524651052298067827e-02
-4.863204519934689191e-02
-4.171216742370364300e-02
-3.467771413186642587e-02
-2.771952225965827743e-02
-2.102842874289238828e-02
-1.478806177553880150e-02
-9.125245062173614058e-03
-4.139893460112868337e-03
6.823943615229168674e-05
3.399400032136185978e-03
5.756541928080258913e-03
7.118715344025271230e-03
7.549650306394959515e-03
7.117506822471406092e-03
5.890444899537291765e-03
3.936680759061676922e-03
1.355770910394996868e-03
-1.669316823021195148e-03
-4.941890450875317115e-03
-8.265257982852217827e-03
-1.144272742864133746e-02
-1.428020457195488049e-02
-1.660179096102941398e-02
-1.823936680868910865e-02
-1.902484163267495823e-02
-1.879012495072987857e-02
-1.737102374500181651e-02
-1.469482742256679117e-02
-1.078134228903107443e-02
-5.654479017333926411e-03
6.618517195893522734e-04
8.143552901400771815e-03
1.671051088316323485e-02
2.614834358357165031e-02
3.622296899449025526e-02
4.670030510777239269e-02
5.734626991528588014e-02
6.792246657859202230e-02
7.816356254209691490e-02
8.779385068077144583e-02
9.653760202191780104e-02
1.041190875928486026e-01
1.102671030010589914e-01
1.148002641156182224e-01
1.176197407782066939e-01
1.186297709101553077e-01
1.177345924327984072e-01
1.148388523042475073e-01
1.099227037238120208e-01
1.031295663257507378e-01
9.462416699374892604e-02
8.457123261150126248e-02
7.313549006268932340e-02
6.049726009860258852e-02
4.692380266625265084e-02
3.271249632917266198e-02
1.816074901484350523e-02
3.565968650730931902e-03
-1.077700179145225055e-02
-2.461684464849244955e-02
-3.773859194193636413e-02
-4.992839090698108356e-02
-6.097238877883789238e-02
-7.065726066955738127e-02
-7.883494146078318110e-02
-8.548486296906715465e-02
-9.060121120085531943e-02
-9.417817216258847490e-02
-9.620993186071313819e-02
-9.671275779173033049e-02
-9.581303439225591356e-02
-9.367140377144692054e-02
-9.044851895436775702e-02
-8.630503296608063590e-02
-8.140256097589923523e-02
-7.591679997903574839e-02
-7.003412845525580632e-02
-6.394119063507472389e-02
-5.782463074901444261e-02
-5.187070967292362750e-02
-4.623193445754435887e-02
-4.100114452603621784e-02
-3.626507981597010266e-02
-3.211048026492185209e-02
-2.862408581046216316e-02
-2.587116705692985019e-02
-2.382113169273750164e-02
-2.241664167255270901e-02
-2.160035777006499846e-02
-2.131494075896227594e-02
-2.149881323747543024e-02
-2.203649149995406953e-02
-2.277537683449639208e-02
-2.356213795030365210e-02
-2.424344355657623296e-02
-2.466608049159308563e-02
-2.468458890166363301e-02
-2.416592573468989008e-02
-2.297816410683420699e-02
-2.098937713426029389e-02
-1.806763793313076807e-02
-1.410549197783478662e-02
-9.093374175677272631e-03
-3.046191792184637509e-03
4.021147907108872481e-03
1.209373765667526995e-02
2.114712696230949124e-02
3.105070178691771501e-02
4.160755737889287875e-02
5.261977898406887399e-02
6.388945184826774759e-02
7.521814858497111178e-02
8.638147006156265961e-02
9.711729545337868807e-02
1.071605382130469686e-01
1.162461117931846977e-01
1.241089307734010994e-01
1.305094325369426655e-01
1.352995341177165856e-01
1.383516402125176403e-01
1.395381555181349209e-01
1.387314847313611543e-01
1.358199073675437074e-01
1.308469968184843291e-01
1.239441758267962324e-01
1.152438648726294146e-01
1.048784844361433655e-01
9.298226803511164262e-02
7.976232173198044562e-02
6.552182236292800055e-02
5.057051082361447431e-02
3.521812800971618751e-02
1.977441154865991826e-02
4.538842284451469720e-03
-1.022206806731723941e-02
-2.424841901257185350e-02
-3.728031005721765823e-02
-4.905784070717514322e-02
-5.933713999098588071e-02
-6.801285453907229828e-02
-7.505053171993431027e-02
-8.041629240788877864e-02
-8.407625747724720155e-02
-8.599937170940100128e-02
-8.624662335209282160e-02
-8.498921399600212201e-02
-8.240484012771051581e-02
-7.867119823380266941e-02
-7.396599495077529896e-02
-6.847734769337857075e-02
-6.242342521314703935e-02
-5.602778642610957427e-02
-4.951399024830373946e-02
-4.310559559576027100e-02
-3.701652750522378688e-02
-3.138689157790255924e-02
-2.632265395389856918e-02
-2.192959583105004093e-02
-1.831349840719977140e-02
-1.557729418283337539e-02
-1.374726468796508630e-02
-1.276629376741415453e-02
-1.257306421484417902e-02
-1.310625882391880381e-02
-1.430450687185235228e-02
-1.608102483862900930e-02
-1.828304941365396785e-02
-2.074724798917277485e-02
-2.331028795742770207e-02
-2.580883671066369622e-02
-2.808100944952925115e-02
-2.997478917632218770e-02
-3.134227572791380145e-02
-3.203558263642036774e-02
-3.190682343395748188e-02
-3.081077951804091219e-02
-2.866236887064736727e-02
-2.543597364365462674e-02
-2.110850936609681705e-02
-1.565689156701287332e-02
-9.058211647013144491e-03
-1.336244159915053742e-03
7.376035634700281451e-03
1.693006210419355576e-02
2.717726961591256790e-02
3.796909253721519190e-02
4.914553777247465671e-02
6.047715957997560482e-02
7.170841664638050172e-02
8.258372085146328812e-02
9.284748407498635836e-02
1.022456983387314555e-01
1.105545603365036267e-01
1.175774098738288920e-01
1.231185523929329562e-01
1.269822933360358064e-01
1.289733263527793050e-01
1.289611226614759409e-01
1.269518987180372760e-01
1.229692245560252695e-01
1.170366702089990774e-01
1.091778057105245170e-01
9.944393991267660993e-02
8.803700819081303197e-02
7.520983079420723305e-02
6.121526768885005021e-02
4.630617884074755830e-02
3.073730516819406927e-02
1.479419094065048332e-02
-1.212469190760279841e-03
-1.697124480571922389e-02
-3.217070548388489132e-02
-4.649986998620713602e-02
-5.969877889226497120e-02
-7.160482280470456540e-02
-8.206633788764752802e-02
-9.093166030521324106e-02
-9.804912622151204515e-02
-1.033003156746210294e-01
-1.067283238146541080e-01
-1.084252275128548271e-01
-1.084831146205618713e-01
-1.069940729891141751e-01
-1.040553896353330066e-01
-9.983792720847795010e-02
-9.456710378120242178e-02
-8.846962555158152663e-02
-8.177219871769841886e-02
-7.470129367052821823e-02
-6.746407548051081005e-02
-6.023437008725545522e-02
-5.318269545942069798e-02
-4.647956956566533238e-02
-4.029551037465529950e-02
-3.477553992136400707e-02
-2.995374979983950886e-02
-2.583406952567284670e-02
-2.242042800383560811e-02
-1.971675413930289514e-02
-1.772091424483849056e-02
-1.635609595241342001e-02
-1.549523422186479746e-02
-1.501032821403898085e-02
-1.477337708978333775e-02
-1.465630926137010889e-02
-1.452669633928560522e-02
-1.424529175806631826e-02
-1.367225476330138564e-02
-1.266774460057954951e-02
-1.109192052594166859e-02
-8.821680201239325697e-03
-5.799165703787832055e-03
-1.982413766175169893e-03
2.670538879011807865e-03
8.201655499181137801e-03
1.464521137923906549e-02
2.195254285532348762e-02
3.002438189486390102e-02
3.876073845341988788e-02
4.806162248653913366e-02
5.782619085739274661e-02
6.791276241149496462e-02
7.812168273629005455e-02
8.824888485243539971e-02
9.809030178058825156e-02
1.074418667091938673e-01
1.161015792257444057e-01
1.238746572655706757e-01
1.305678939839305386e-01
1.359880825360803847e-01
1.399420160772710531e-01
1.422461456584011574e-01
1.428086478318320585e-01
1.415883871984798537e-01
1.385447623018763730e-01
1.336371716855564717e-01
1.268273839541859960e-01
1.181676823320027825e-01
1.078270021751850660e-01
9.598198209067221320e-02
8.280926068540142571e-02
6.848548805256701733e-02
5.321374958254516258e-02
3.727996882734643108e-02
2.098625222586260677e-02
4.634706216984950562e-03
-1.147256276037776461e-02
-2.703909926398539998e-02
-4.181590337625817194e-02
-5.557769568962021844e-02
-6.809937249575068186e-02
-7.915583008631008055e-02
-8.852524257664373675e-02
-9.608775931120963620e-02
-1.018429102355122018e-01
-1.057970113149635516e-01
-1.079563785149731669e-01
-1.083273849220679208e-01
-1.069641717648193713e-01
-1.040553503049391204e-01
-9.981302156330904007e-02
-9.444928656080905927e-02
-8.817624631832510218e-02
-8.120794674889078579e-02
-7.377292769885149260e-02
-6.610627247971004317e-02
-5.844309629438254605e-02
-5.101851434579605243e-02
-4.406478397070818370e-02
-3.774049255584931845e-02
-3.212585686898311588e-02
-2.729729455021734363e-02
-2.333122323966090039e-02
-2.030394023767865055e-02
-1.824257572123496804e-02
-1.704971945311071005e-02
-1.660854027561063651e-02
-1.680220703104056551e-02
-1.751388856170597169e-02
-1.861991931828001559e-02
-1.995130123653737070e-02
-2.132058095862530631e-02
-2.254025129486276341e-02
-2.342280505556844708e-02
-2.378288194388773757e-02
-2.348162638234260399e-02
-2.242514485407088448e-02
-2.052138209321222734e-02
-1.767828283390505267e-02
-1.380400213672555373e-02
-8.856308178333905171e-03
-2.906237800545560281e-03
3.959438933818907637e-03
1.165395196194800136e-02
2.009053122101990552e-02
2.916817768007708145e-02
3.870168820690467193e-02
4.847499885854997248e-02
5.827199908164543835e-02
6.787657832282353865e-02
7.707304057711658607e-02
8.565332433452013672e-02
9.341607590964373653e-02
1.001601698580586453e-01
1.056844807353346516e-01
1.097882033167713878e-01
1.123190429822058523e-01
1.132246901356484259e-01
1.124651713293230437e-01
1.100005131154538074e-01
1.057907420462670944e-01
9.982196426374506659e-02
9.221822898288403736e-02
8.314902321351774761e-02
7.278386175363482646e-02
6.129225940122206423e-02
4.884754813134571660e-02
3.568341684624196097e-02
2.208173261481364419e-02
8.325705083187891556e-03
-5.301456102508393664e-03
-1.851677280053638450e-02
-3.106150360858874609e-02
-4.272207334584562921e-02
-5.328983978537979449e-02
-6.255616070027969489e-02
-7.031239386361978760e-02
-7.638123936392987590e-02
-8.073376178509722445e-02
-8.338488255592199638e-02
-8.434952966105604966e-02
-8.364263108514882750e-02
-8.128761144154891816e-02
-7.742420158202567571e-02
-7.227643121228488621e-02
-6.607021658341447057e-02
-5.903147394650081620e-02
-5.138625696206225446e-02
-4.337110391330729203e-02
-3.524024279293475059e-02
-2.724960480069122531e-02
-1.965512113631198363e-02
-1.271272299954324253e-02
-6.649834345762085930e-03
-1.573016455606372072e-03
2.443194638421125955e-03
5.324263124445125298e-03
6.995653190588727206e-03
7.394433243956343577e-03
6.596149238797350753e-03
4.767416582143520036e-03
2.076448114928100726e-03
-1.308543321916880858e-03
-5.218739949781003862e-03
-9.450307996141139866e-03
-1.374586252481090412e-02
-1.784349559737025137e-02
-2.148129927540497544e-02
-2.439736574104794595e-02
-2.635454563705291395e-02
-2.720973293862544856e-02
-2.684214709192355580e-02
-2.513100754310640741e-02
-2.195553373833127042e-02
-1.720958115223876483e-02
-1.094017041619015432e-02
-3.285631458458054301e-03
5.614488281346020210e-03
1.562064136361232883e-02
2.659182666531391057e-02
3.832119658913991228e-02
5.051053684368603941e-02
6.285490312176481020e-02
7.504935111620597565e-02
8.678893807657603321e-02
9.778036504138329366e-02
1.077699763482772022e-01
1.165125456735673637e-01
1.237628466935743743e-01
1.292756530846165541e-01
1.328210841877643933e-01
1.343107930629615365e-01
1.337328296050882270e-01
1.310759881221327527e-01
1.263290629220805150e-01
1.194835880963432406e-01
1.106306329424976143e-01
9.998667074613262762e-02
8.777617505232171435e-02
7.422361940612223763e-02
5.955348771224956012e-02
4.400833785395141112e-02
2.788594622039963083e-02
1.149459754137377270e-02
-4.857423453363790555e-03
-2.086183203405064107e-02
-3.621832705835098531e-02
-5.069177385686055720e-02
-6.407884438230104784e-02
-7.617642554103357111e-02
-8.678140423941743675e-02
-9.569387819877867019e-02
-1.028093781026973574e-01
-1.081326651865270050e-01
-1.116744868022059023e-01
-1.134455903016787781e-01
-1.134567864334575515e-01
-1.117627909093472927e-01
-1.085388637736558470e-01
-1.039807707803224457e-01
-9.828427768328312775e-02
-9.164515023647226699e-02
-8.426245630877865489e-02
-7.635920108536903284e-02
-6.816893833186277174e-02
-5.992526782946897695e-02
-5.186178935938520751e-02
-4.420952773209761710e-02
-3.713586713690969487e-02
-3.074199643597302217e-02
-2.512601833140327284e-02
-2.038603552530913327e-02
-1.661999857884552748e-02
-1.387189250965708068e-02
-1.205232879563445519e-02
-1.105167471845636303e-02
-1.076029755979944318e-02
-1.106856460134134253e-02
-1.185616769146371000e-02
-1.293387743930276418e-02
-1.408508706865646207e-02
-1.509312032907912313e-02
-1.574130097012648236e-02
-1.581532045174814660e-02
-1.515018846177643846e-02
-1.362753630492534104e-02
-1.113082313950134426e-02
-7.543508123809525984e-03
-2.749367932745718293e-03
3.300875309753988074e-03
1.050731569262323625e-02
1.874988968226793534e-02
2.790853374510150406e-02
3.786318434753868645e-02
4.847498209061599367e-02
5.949675305544852716e-02
7.064260498254956722e-02
8.162659701134075685e-02
9.216278828125937239e-02
1.019671238607292030e-01
1.107890293794467906e-01
1.184066913868835891e-01
1.245992315961802765e-01
1.291457717204860245e-01
1.318259943647653865e-01
1.324970346037636637e-01
1.311719040158753902e-01
1.278823085495462142e-01
1.226599541532207016e-01
1.155365467753405873e-01
1.065731754843421974e-01
9.598232510357018743e-02
8.402510153610875943e-02
7.096263339023481387e-02
5.705604927420748762e-02
4.256740012609486895e-02
2.777282438781696408e-02
1.295945362716578904e-02
-1.585289092092516915e-03
-1.557398070620768724e-02
-2.871978380380073997e-02
-4.079253727426247755e-02
-5.166524516648297871e-02
-6.122185407698414045e-02
-6.934631060229962118e-02
-7.592256133896116421e-02
-8.086499796205470769e-02
-8.422843315865313762e-02
-8.610813701205272119e-02
-8.659938335975606027e-02
-8.579744603926747759e-02
-8.380165772975611826e-02
-8.076511394614388495e-02
-7.687899904726575029e-02
-7.233530423225684181e-02
-6.732602070024812368e-02
-6.204285156256311023e-02
-5.665696784535030617e-02
-5.130569361648538995e-02
-4.612319148643671818e-02
-4.124362406566689510e-02
-3.680115396463896904e-02
-3.290688877714809113e-02
-2.957668585818454959e-02
-2.680180773374881559e-02
-2.457351690004278347e-02
-2.288307585326476018e-02
-2.171590302922838528e-02
-2.098983267723937909e-02
-2.057926338782326697e-02
-2.035787729179104610e-02
-2.019935651995323489e-02
-1.997734908656958672e-02
-1.956364362374092211e-02
-1.882724971366142586e-02
-1.763694952547999184e-02
-1.586152522834483047e-02
-1.336975935115253949e-02
-1.005288611826308381e-02
-5.885247166045467007e-03
-8.604093555194310822e-04
5.028060452289768133e-03
1.178659539636464117e-02
1.941151817417915287e-02
2.779648775324893364e-02
3.677536742045906665e-02
4.618127694968876540e-02
5.584733611482680521e-02
6.560594549677040144e-02
7.525863891753850621e-02
8.456508464733611397e-02
9.328196774832564486e-02
1.011659732826794833e-01
1.079737909806959550e-01
1.134850264083851479e-01
1.175553335896371288e-01
1.200561214771545815e-01
1.208587990236377196e-01
1.198347751817891993e-01
1.168718291849920876e-01
1.120043953904686085e-01
1.053442261109676092e-01
9.700376856280482074e-02
8.709546996228917370e-02
7.573394770719762970e-02
6.310890074373615155e-02
4.950250664380469179e-02
3.520264001652352592e-02
2.049717547102838239e-02
5.673981524250638377e-03
-8.987351460067715889e-03
-2.323189267051800969e-02
-3.680928247596829822e-02
-4.946916124527221681e-02
-6.096116934729810949e-02
-7.105154573393990258e-02
-7.963824724063348071e-02
-8.668200154550009806e-02
-9.214392185922898326e-02
-9.598512139251724751e-02
-9.816989059939926210e-02
-9.875282181344774424e-02
-9.788956211126090268e-02
-9.574109492203025651e-02
-9.246840367494993385e-02
-8.823248606281053341e-02
-8.320263181812076470e-02
-7.757033719613534717e-02
-7.153077669690102725e-02
-6.527912482047093512e-02
-5.901055606689190741e-02
-5.290915515441358546e-02
-4.708079601599036990e-02
-4.159771358356163101e-02
-3.653201218914139264e-02
-3.195579616473775975e-02
-2.793826338929164543e-02
-2.447968921832597775e-02
-2.151025412439478215e-02
-1.895699763416566763e-02
-1.674695927430887646e-02
-1.480714080070881511e-02
-1.305281870972801322e-02
-1.137099247701783139e-02
-9.644484431861522281e-03
-7.756116903544172173e-03
-5.588712221349075374e-03
-3.032706051258033872e-03
-2.638097918432075889e-05
3.473437405944553372e-03
7.509882933422971571e-03
1.212608943254894940e-02
1.736216519496209046e-02
2.319758083190618519e-02
2.955576026152719610e-02
3.635802184633065565e-02
4.352568394881479313e-02
5.097994238390580329e-02
5.861877607347042163e-02
6.628965936914893442e-02
7.383342937930745253e-02
8.109092321230410016e-02
8.790297797650503675e-02
9.411266086724945357e-02
9.957555466894216223e-02
1.041516052916177937e-01
1.077007631290413103e-01
1.100829785749828649e-01
1.111619255550309882e-01
1.108650324784245800e-01
1.091732730043475097e-01
1.060692829641124990e-01
1.015356981890358223e-01
9.555555838001619784e-02
8.816292706046793826e-02
7.949214469303456099e-02
6.968923948542612989e-02
5.890023964536345719e-02
4.727117338055702306e-02
3.496034108864680412e-02
2.218764343412694615e-02
9.192267517133258584e-03
-3.786592897883528028e-03
-1.650974404648657481e-02
-2.874028265692175899e-02
-4.027511430472025672e-02
-5.093693553974886629e-02
-6.054909290428068386e-02
-6.893493294057875809e-02
-7.591852005857085972e-02
-8.138831099686613668e-02
-8.534725820480260072e-02
-8.781010547267187327e-02
-8.879159659076332756e-02
-8.830647534936914012e-02
-8.639538921516201619e-02
-8.321540049727624289e-02
-7.895626094339516787e-02
-7.380772400404936318e-02
-6.795954312976493217e-02
-6.160190792980466817e-02
-5.493060055892671351e-02
-4.814527577618155085e-02
-4.144566588041345007e-02
-3.503150317047386275e-02
-2.910163786806754804e-02
-2.379607851179468478e-02
-1.916005350885586697e-02
-1.523020542889577320e-02
-1.204317684156312393e-02
-9.635610316502318459e-03
-8.014071480593343982e-03
-7.064037815531552453e-03
-6.640518409381396606e-03
-6.598522349905320758e-03
-6.793058724865293913e-03
-7.077906204859695308e-03
-7.293049594952511969e-03
-7.269810642513365243e-03
-6.839376961424904408e-03
-5.832936165570264467e-03
-4.082886093341016320e-03
-1.483828631465083751e-03
1.978769975073264333e-03
6.312241903166738999e-03
1.152391932970328256e-02
1.762113308660692018e-02
2.457490523986326572e-02
3.222527811137582132e-02
4.038276927754393814e-02
4.885789631475585121e-02
5.746117679940841716e-02
6.600025436773221399e-02
7.425444897856056659e-02
8.198696407017400101e-02
8.896081663674407225e-02
9.493902367243511886e-02
9.968611297190313469e-02
1.030281292623439759e-01
1.048726792436281696e-01
1.051329896668845021e-01
1.037222872832403719e-01
1.005538123968591491e-01
9.558704928031122594e-02
8.893107789916024353e-02
8.072517263039871716e-02
7.110860785101696946e-02
6.022065793801581468e-02
4.820971446883903777e-02
3.530352243233504661e-02
2.177068538235230055e-02
7.880144546829413732e-03
-6.099158846280081092e-03
-1.989893013514655237e-02
-3.327219920372641998e-02
-4.599767463714086319e-02
-5.785559185279533917e-02
-6.862618626807792666e-02
-7.808973112640596459e-02
-8.606744156603712836e-02
-9.249945904494566440e-02
-9.734739747193324466e-02
-1.005728707557992929e-01
-1.021374928053400410e-01
-1.020183820572524713e-01
-1.003122922425513930e-01
-9.717163865740024997e-02
-9.274914597318900666e-02
-8.719753886131262344e-02
-8.067084538602117827e-02
-7.335854691712109799e-02
-6.548891637318118852e-02
-5.729219940947047340e-02
-4.899864168126930736e-02
-4.083844210750826181e-02
-3.301872097356221142e-02
-2.568630712803256569e-02
-1.897830638514899290e-02
-1.303182455914203217e-02
-7.983967464248464124e-03
-3.952852536118985766e-03
-9.262936366062042917e-04
1.162590798999980999e-03
2.380870154333222192e-03
2.795613813026052909e-03
2.477110876627140051e-03
1.568959891020147400e-03
2.876578427824876515e-04
-1.147160765138341074e-03
-2.515861429793014858e-03
-3.598858078818874089e-03
-4.189817859554483340e-03
-4.113599030776148024e-03
-3.199543511004760213e-03
-1.276993218760023689e-03
1.824709927436163337e-03
6.250812902829451512e-03
1.199108627133637153e-02
1.897651956533718751e-02
2.713799245585804543e-02
3.640638461391616787e-02
4.670652276535417619e-02
5.784643819683221028e-02
6.952861263133261471e-02
8.145173125137322723e-02
9.331447923945537792e-02
1.048155395687935532e-01
1.156532172948983861e-01
1.255250148940504351e-01
1.341283322749032003e-01
1.411605693461083499e-01
1.463191260163102803e-01
1.493326809619277273e-01
1.501008836432849991e-01
1.485815062195737779e-01
1.447323688999783975e-01
1.385112918936878823e-01
1.298860997709463116e-01
1.189899085235929244e-01
1.060915563718203558e-01
9.146389994585601979e-02
7.537979587594670350e-02
5.811241294933903317e-02
3.997112513766509778e-02
2.133479543921012675e-02
2.590156501445312932e-03
-1.587605902815834510e-02
-3.367711850211010938e-02
-5.044799495511586435e-02
-6.592980748580765105e-02
-7.989607171917101347e-02
-9.212031124535535742e-02
-1.023760496544973420e-01
-1.104476205730890170e-01
-1.162736219514572400e-01
-1.199076888889038794e-01
-1.214062087459467087e-01
-1.208255688830999486e-01
-1.182229420547957488e-01
-1.137209661657488657e-01
-1.075559945196824796e-01
-9.997574815479579047e-02
-9.122794810928602782e-02
-8.156031542135994128e-02
-7.122051165324577715e-02
-6.045593791177090309e-02
-4.951392402763960671e-02
-3.864179982976499034e-02
-2.808689514707177898e-02
-1.809005302790333072e-02
-8.811572368115199935e-03
-3.572409076979636555e-04
7.168183744552697988e-03
1.365994397982982222e-02
1.901425929948341587e-02
2.318847692515717956e-02
2.623615887119297441e-02
2.821931753784117161e-02
2.919996532535062278e-02
2.924011463796886284e-02
2.841686458692232325e-02
2.686650192869420931e-02
2.473982608075348325e-02
2.218763646056829894e-02
1.936073248561067175e-02
1.640795121406999485e-02
1.345679698208740623e-02
1.062168260297823019e-02
8.016830976606638404e-03
5.756465002831299971e-03
3.953742088057150654e-03
2.670092729383380728e-03
1.893095898511530824e-03
1.604663521350226975e-03
1.786707523806700931e-03
2.421138256781075332e-03
3.467550593825549296e-03
4.807084382764628683e-03
6.303647236849806157e-03
7.821146769329720763e-03
9.223490593452957770e-03
1.037581708748656038e-02
1.115504020800742874e-02
1.144461941119987586e-02
1.112808442970476819e-02
1.008896499616213083e-02
8.212631542311898264e-03
5.455648549247600100e-03
1.866854557617172311e-03
-2.498766092890077929e-03
-7.586229062582629940e-03
-1.334053491691470153e-02
-1.966926997972880120e-02
-2.636203130188829319e-02
-3.318521488120006191e-02
-3.990521671545667337e-02
-4.628843280245099195e-02
-5.210147314617701725e-02
-5.711275777909403245e-02
-6.109161686291070953e-02
-6.380738745303471404e-02
-6.502940660487918634e-02
-6.453020718183921645e-02
-6.218290148531704226e-02
-5.797901442232013952e-02
-5.191686315648880168e-02
-4.399476485146855409e-02
-3.421111249509740937e-02
-2.263092501847564081e-02
-9.507955385013928951e-03
4.870855663245630615e-03
2.021856738423332550e-02
3.624823903587666429e-02
5.266392786964445294e-02
6.910213840325876711e-02
8.516869311976615897e-02
1.004692608881174176e-01
1.146095105772957923e-01
1.271982568447536099e-01
1.379262742819781229e-01
1.465720188829344461e-01
1.529182383573869375e-01
1.567476804151064218e-01
1.578432966930968795e-01
1.560744723310053539e-01
1.515308823512792058e-01
1.443367859828908195e-01
1.346164424548212946e-01
1.224941109960589747e-01
1.081198850176244286e-01
9.181638174038189715e-02
7.397688624346523967e-02
5.499489677137125304e-02
3.526391156855573916e-02
1.517793454224735869e-02
-4.857968164657708310e-03
-2.442797482351486554e-02
-4.311581938807309416e-02
-6.050523581208382823e-02
-7.618022357342171813e-02
-8.978925502884349541e-02
-1.011288921606428026e-01
-1.100164088273317131e-01
-1.162690788873972092e-01
-1.197041761993338782e-01
-1.201769972410619558e-01
-1.177693511310702601e-01
-1.126465825282343680e-01
-1.049741679524465732e-01
-9.491758392358182195e-02
-8.264919871658360506e-02
-6.846948254340670670e-02
-5.279209449086119665e-02
-3.603458845839931785e-02
-1.861451834547639059e-02
-9.494198187427029326e-04
1.654600001683546873e-02
3.346289891843413217e-02
4.939316337560390596e-02
6.392867987785888495e-02
7.666133491471707750e-02
8.721759163255030090e-02
9.540800424190587492e-02
1.011041502984835194e-01
1.041776471131096726e-01
1.045001119966166847e-01
1.019554503746101237e-01
9.662356945082942183e-02
8.874171679344003416e-02
7.855157860439548889e-02
6.629484108565589229e-02
5.221379382236381733e-02
3.661517905665077205e-02
1.992655864379119790e-02
2.588786491489776867e-03
-1.495728349251330969e-02
-3.227079740047726630e-02
-4.892748886690389404e-02
-6.458212384746128687e-02
-7.891298049677397675e-02
-9.159834088172999489e-02
-1.023164870692440387e-01
-1.107593531695824640e-01
-1.168073028595216223e-01
-1.204780536048325745e-01
-1.217924385896776707e-01
-1.207712909982260052e-01
-1.174367585496969291e-01
-1.119130505866347269e-01
-1.044975793011989063e-01
-9.550455953833755784e-02
-8.524820614301406585e-02
-7.404273396019547815e-02
-6.220509625872768650e-02
-5.006393181634594125e-02
-3.795099580099436931e-02
-2.619804340985515748e-02
-1.513682984013656196e-02
-5.087402401770557345e-03
3.771014135779499673e-03
1.135234008482670712e-02
1.757215446737472181e-02
2.234603630543108288e-02
2.559134280945876694e-02
2.732994795615292793e-02
2.774448856835677601e-02
2.703128682614680534e-02
2.538666490959832003e-02
2.300694504024819106e-02
2.010107879630014180e-02
1.692630039194271963e-02
1.375138050788552585e-02
1.084508982483127666e-02
8.476199023489661838e-03
6.903456626847909172e-03
6.279932103965647078e-03
6.695327637033821576e-03
8.238485882971883362e-03
1.099824949869606869e-02
1.506124044841861652e-02
2.041210510589588217e-02
2.689318267254426492e-02
3.433624346595905846e-02
4.257305780372200310e-02
5.143539349702934416e-02
6.073395796117778828e-02
7.020729361778810240e-02
7.957849846199102628e-02
8.857067048893726979e-02
9.690690769375734370e-02
1.043181823310811163e-01
1.106086239625550527e-01
1.156220836968737120e-01
1.192028074095592138e-01
1.211950409761378966e-01
1.214457634362620664e-01
1.199024860788831803e-01
1.166400994188507012e-01
1.117416910023702192e-01
1.052903483756537084e-01
9.736917808925801832e-02
8.809672269564788882e-02
7.770047446477992836e-02
6.642879566116435819e-02
5.453004854928692607e-02
4.225259539365730510e-02
2.984300257907796655e-02
1.753307333051558684e-02
5.547362141707036856e-03
-5.889626635221988094e-03
-1.655338864814732969e-02
-2.622208031818665241e-02
-3.475384338859153349e-02
-4.209888652012832438e-02
-4.821251046502502552e-02
-5.305001597549356684e-02
-5.656676568515232872e-02
-5.876298624473109272e-02
-5.976285275496531074e-02
-5.971176563778930052e-02
-5.875512531513687325e-02
-5.703833220894171524e-02
-5.471104205601731718e-02
-5.195397122919663546e-02
-4.896160687362110381e-02
-4.592849792602983483e-02
-4.304919332316210767e-02
-4.051575954614108910e-02
-3.845826410911247495e-02
-3.694192308746636899e-02
-3.602889924475178446e-02
-3.578135534452123873e-02
-3.626131502676865209e-02
-3.747971878913593236e-02
-3.932047969565653778e-02
-4.164809901583767932e-02
-4.432707801919174434e-02
-4.722191797522624218e-02
-5.018986808199631805e-02
-5.304104074018075460e-02
-5.556670878747473757e-02
-5.755809552072190666e-02
-5.880642423676740033e-02
-5.910626793965952780e-02
-5.832265466677152843e-02
-5.638759080880960395e-02
-5.323573656942084953e-02
-4.880175215225601715e-02
-4.302062054018441356e-02
-3.589728057811264472e-02
-2.759350835625099668e-02
-1.829241880930849301e-02
-8.177126871973893971e-03
2.569252521044432594e-03
1.374995635255987260e-02
2.508904881764976308e-02
3.628211537365153005e-02
4.702470398809081853e-02
5.701236262849456587e-02
6.594461035911960978e-02
7.359211064597948049e-02
7.978698791732397044e-02
8.436338800488546452e-02
8.715545674038244206e-02
8.799796945194440778e-02
8.681463220119722823e-02
8.370919648351024533e-02
7.880716076750243770e-02
7.223402352178170949e-02
6.411528321496576255e-02
5.460085472647095706e-02
4.396728413031322086e-02
3.253204418537458675e-02
2.061262815104891732e-02
8.526529286731428237e-03
-3.410967176438474933e-03
-1.491859281193057968e-02
-2.574177486842346707e-02
-3.562665738464309423e-02
-4.431938439929190843e-02
-5.156691200667934405e-02
-5.719632198832539510e-02
-6.118140363038167967e-02
-6.351162182117489619e-02
-6.417644144903608683e-02
-6.316532740229077736e-02
-6.049796279566533458e-02
-5.633431319591059028e-02
-5.087502193183797428e-02
-4.432073661909206874e-02
-3.687210487332298614e-02
-2.873115263551319354e-02
-2.011831295285273699e-02
-1.126713418473016849e-02
-2.411446391606458448e-03
6.214920366038463942e-03
1.437876055965651816e-02
2.189213584388506953e-02
2.864216428822138200e-02
3.452302814014751586e-02
3.942890964715782542e-02
4.325399105673370659e-02
4.591996253762474500e-02
4.746289872055645814e-02
4.794860125097314546e-02
4.744287183616786169e-02
4.601151218343502852e-02
4.372539377343521300e-02
4.071447811777135356e-02
3.714692254119583009e-02
3.319152426269483813e-02
2.901708050126213315e-02
2.479224280189431737e-02
2.067760416969710580e-02
1.682164394282801428e-02
1.337184228149321079e-02
1.047567934589159998e-02
8.280634998578138839e-03
6.910223443781914922e-03
6.398673144113816921e-03
6.759423987431310843e-03
8.005915861590585936e-03
1.015158865444598657e-02
1.320056327648818847e-02
1.706162030148469788e-02
2.158768586573448292e-02
2.663097921411724037e-02
3.204371959150313642e-02
3.767757419458439561e-02
4.336019849837614848e-02
4.888649431592048678e-02
5.404901002166618423e-02
5.864029399007302662e-02
6.245289877937729162e-02
6.530205838372793448e-02
6.707876030124451661e-02
6.768978831734695500e-02
6.704192621745755365e-02
6.504195778700061492e-02
6.161104235596740614e-02
5.680006152008327397e-02
5.072869218170427547e-02
4.351724234299314542e-02
3.528602000612517109e-02
2.615693147947385083e-02
1.630785363279818947e-02
5.985993670124945334e-03
-4.557132506216012013e-03
-1.507000899391746501e-02
-2.530113132914104182e-02
-3.501550259297075279e-02
-4.402761109022272634e-02
-5.216117877292794636e-02
-5.923992759312454032e-02
-6.508757950284693727e-02
-6.954502247502244994e-02
-7.259032703277643050e-02
-7.426733108149305429e-02
-7.462028639484896697e-02
-7.369344474651684518e-02
-7.153371364712649005e-02
-6.826432353985534274e-02
-6.409439846200287727e-02
-5.923764069823802408e-02
-5.390775253321904159e-02
-4.831842474398878595e-02
-4.267636717144617647e-02
-3.716947776011188254e-02
-3.198251764014743703e-02
-2.730024794171032748e-02
-2.330742979496059838e-02
-2.017166668295695270e-02
-1.793872483237278839e-02
-1.660164799581219028e-02
-1.615326906721877703e-02
-1.658642094053931759e-02
-1.789038570805218456e-02
-1.996937360890465446e-02
-2.264058815252284126e-02
-2.571729500999314633e-02
-2.901275985240870520e-02
-3.234023734866291883e-02
-3.550945346874632980e-02
-3.832157203936292778e-02
-4.057648344223844378e-02
-4.207407805910088477e-02
-4.261424627167832019e-02
-4.201347488699968408e-02
-4.019325590862965480e-02
-3.711602803788924959e-02
-3.274432304829898166e-02
-2.704067271338547393e-02
-1.997279410849904860e-02
-1.161332814719392981e-02
-2.132442786755281601e-03
8.295990551491036480e-03
1.949810044624182559e-02
3.129986679846637893e-02
4.349835238373965518e-02
5.582733558765559656e-02
6.801221997336284741e-02
7.977840910401864938e-02
9.085130654277268070e-02
1.009662741198369129e-01
1.099149315415892947e-01
1.175086342965523112e-01
1.235587592275922963e-01
1.278766831775588753e-01
1.302802902145637209e-01
1.306998883330345307e-01
1.291607409530670658e-01
1.256910937586877552e-01
1.203191924339149232e-01
1.130737730285369391e-01
1.040468949551076883e-01
9.345580717864707121e-02
8.153245490162014386e-02
6.850878332649576463e-02
5.461673765571449513e-02
4.009566212795444978e-02
2.522228379842459886e-02
1.028510862888725591e-02
-4.427353015900225772e-03
-1.862659077114846642e-02
-3.202869100404529684e-02
-4.441816980182913821e-02
-5.563204163736311381e-02
-6.550866112841141620e-02
-7.388638289275881177e-02
-8.060437076911106113e-02
-8.557574799579811820e-02
-8.884591643885755841e-02
-9.047400182994613793e-02
-9.051912990072524812e-02
-8.904042638285580846e-02
-8.611960093535564464e-02
-8.194051879867594868e-02
-7.671591576401598500e-02
-7.065852938040698139e-02
-6.398109719689107355e-02
-5.689521028707728023e-02
-4.959763987785296979e-02
-4.227483624640474696e-02
-3.511304005728033834e-02
-2.829849197501214941e-02
-2.201652514766465341e-02
-1.639093602632001739e-02
-1.144582510886049849e-02
-7.196192077799515655e-03
-3.657036615648533683e-03
-8.433584049116916309e-04
1.255277362816049295e-03
2.752367593826146163e-03
3.787510049501180073e-03
4.500302493289150274e-03
5.030342688635778756e-03
5.516995698566767165e-03
6.096997574567959884e-03
6.905423695384809574e-03
8.077323312434121078e-03
9.747745677135277037e-03
1.205060732998985973e-02
1.506075428485146445e-02
1.876625009639184757e-02
2.314822483866129516e-02
2.818780858570815034e-02
3.386613054245871113e-02
4.013602126613694671e-02
4.684756739929402808e-02
5.382754508841781221e-02
6.090273048001117878e-02
6.789989972056212353e-02
7.464512140203941049e-02
8.095743881329320324e-02
8.665187435248580816e-02
9.154340304460722999e-02
9.544699991465763200e-02
9.817902588580793011e-02
9.961301376759407189e-02
9.969872923487338445e-02
9.839123526662263419e-02
9.564559484182250104e-02
9.141688062846753393e-02
8.569620723816104291e-02
7.859202816029295380e-02
7.023663550706102376e-02
6.076232139064469823e-02
5.030137792324090862e-02
3.899231414779191079e-02
2.702814024883486502e-02
1.463009522827919510e-02
2.019656399639769943e-03
-1.058169892359559286e-02
-2.295306735962303335e-02
-3.489270035900726014e-02
-4.622204597167012263e-02
-5.676394383193548304e-02
-6.634123357412941013e-02
-7.477678254334410579e-02
-8.192514613987000871e-02
-8.773350673788565812e-02
-9.216588136837289280e-02
-9.518628706232251657e-02
-9.675874085071536901e-02
-9.686002723330802699e-02
-9.556613753963877356e-02
-9.299949809976820747e-02
-8.928279997223279030e-02
-8.453873421556062917e-02
-7.889138521481223187e-02
-7.250315215583935657e-02
-6.557859332325743917e-02
-5.832443139193314169e-02
-5.094738903673402819e-02
-4.365416113369888218e-02
-3.663715840992794875e-02
-3.005124335750346265e-02
-2.404518248671964897e-02
-1.876774230785807629e-02
-1.436768933121346584e-02
-1.097708037694413927e-02
-8.612520710406426638e-03
-7.241857847504765133e-03
-6.832766550286155718e-03
-7.352921580797077208e-03
-8.766366673994798603e-03
-1.095363194175504387e-02
-1.371173387287950504e-02
-1.683405792907493106e-02
-2.011398957204706822e-02
-2.334490554406810567e-02
-2.631772162753985567e-02
-2.881752639492218826e-02
-3.062856502706539502e-02
-3.153508270482345555e-02
-3.132132460904610977e-02
-2.979201915731986144e-02
-2.687806138204670847e-02
-2.255834278519992450e-02
-1.681184827613337734e-02
-9.617562764188182858e-03
-9.609799612203652822e-04
9.045624640584287376e-03
2.017475442722432497e-02
3.219472274213568824e-02
4.487384292875178787e-02
5.798027422496229710e-02
7.125514480463621125e-02
8.438183187503825455e-02
9.703628035614528247e-02
1.088944351679058120e-01
1.196322412302779081e-01
1.289445510775448500e-01
1.366302499616942612e-01
1.425238131401147801e-01
1.464597469931450402e-01
1.482725579011314188e-01
1.478056887963195565e-01
1.450515477832462208e-01
1.401255525017169323e-01
1.331468062971483957e-01
1.242344125149632550e-01
1.135079753680096060e-01
1.011464285158910348e-01
8.744325248494810854e-02
7.270499413214240314e-02
5.723820031446460316e-02
4.134941788889592851e-02
2.534077903145364602e-02
9.492685899748507308e-03
-5.921133965815082723e-03
-2.062695481914617046e-02
-3.435105091418501344e-02
-4.682702971634036121e-02
-5.789403005408552683e-02
-6.747033545382818964e-02
-7.547614798093826849e-02
-8.183166970079022717e-02
-8.645790093582481073e-02
-8.934359563482766053e-02
-9.059588693225281708e-02
-9.033383054101784548e-02
-8.867648217403703570e-02
-8.574289754422623200e-02
-8.166476543729636606e-02
-7.662945648071581295e-02
-7.083967769271468096e-02
-6.449813656254982375e-02
-5.780754057946439761e-02
-5.096806930145898751e-02
-4.414826159937727812e-02
-3.749511936444095694e-02
-3.115523150406390718e-02
-2.527518692565910302e-02
-2.000076017734024950e-02
-1.542596451469850985e-02
-1.156286987468357896e-02
-8.416293185107332278e-03
-5.991051373790131501e-03
-4.291961366811177306e-03
-3.301853455991750862e-03
-2.916741288864915099e-03
-3.011213205351563442e-03
-3.459857545371219749e-03
-4.137262648844539786e-03
-4.916933419298269783e-03
-5.660506128779753399e-03
-6.222291211572699918e-03
-6.456491063685157808e-03
-6.217308081126115757e-03
-5.359906437586476821e-03
-3.786806511741040368e-03
-1.468527434103130899e-03
1.619151225886610295e-03
5.500449898782871182e-03
1.019958700130500079e-02
1.570770600848033632e-02
2.189891799340564285e-02
2.862146122587064939e-02
3.572357397566357923e-02
4.305349451258799059e-02
5.045513023622529708e-02
5.773064509113107201e-02
6.465886349284225010e-02
7.101835448926241412e-02
7.658768712829674974e-02
8.114673653342305282e-02
8.452654159301570269e-02
8.662483128628856166e-02
8.734381446572084262e-02
8.658569998378684573e-02
8.425271426921668305e-02
8.029410346061566228e-02
7.480834055235932589e-02
6.792343443290221883e-02
5.976739399070279957e-02
5.046822811420175608e-02
4.016341327950993800e-02
2.907107538524513965e-02
1.745013441014787309e-02
5.559826235666080751e-03
-6.340613256751517768e-03
-1.799297536841015441e-02
-2.917175694767527860e-02
-3.969017707483930152e-02
-4.936369611722644241e-02
-5.800777444213812972e-02
-6.543792239075374439e-02
-7.151583641747349951e-02
-7.623486890100458768e-02
-7.961167677648978147e-02
-8.166291697907560043e-02
-8.240524644391250542e-02
-8.186756225190819358e-02
-8.017125421031204291e-02
-7.747997568876005547e-02
-7.395759735544371605e-02
-6.976798987855684087e-02
-6.507480294185177816e-02
-6.003586682374973532e-02
-5.480275103313528295e-02
-4.952671567369570232e-02
-4.435902084912944632e-02
-3.945085399575240515e-02
-3.492143286256644413e-02
-3.080799097316960083e-02
-2.713480396794912958e-02
-2.392614748729441840e-02
-2.120629717158815236e-02
-1.898838770021966590e-02
-1.721064631122203384e-02
-1.578042878940759397e-02
-1.460499466493809725e-02
-1.359160346797455218e-02
-1.264709922068121481e-02
-1.166914527586030564e-02
-1.054642847888367409e-02
-9.167261005986804268e-03
-7.419955033407442391e-03
-5.192913472027320398e-03
-2.397226254000330882e-03
1.003588867608111793e-03
5.038631028232632390e-03
9.736999363304271737e-03
1.512779300826431333e-02
2.122656823888976335e-02
2.796766298579302437e-02
3.525527573643615076e-02
4.299355529532702253e-02
5.108665046697220824e-02
5.943645144073870373e-02
6.790247398668047829e-02
7.630658100936005273e-02
8.446932524218192517e-02
9.221125941853264285e-02
9.935299118038751209e-02
1.057238536366725268e-01
1.111713801312015637e-01
1.155453814520597811e-01
1.186956683873305607e-01
1.204720517251036682e-01
1.207429026725718446e-01
1.194760619605539642e-01
1.166725518942099138e-01
1.123334177710458015e-01
1.064597048885721209e-01
9.905849591710347291e-02
9.023401958966975611e-02
8.016893091153851070e-02
6.904812444377958491e-02
5.705649474748409472e-02
4.437915020387908638e-02
3.122450742717317387e-02
1.784493365765915662e-02
4.497666650179902095e-03
-8.560055840412595859e-03
-2.107099605929418223e-02
-3.279373816174627893e-02
-4.356274268518949000e-02
-5.323518839405970426e-02
-6.166825824334363354e-02
-6.871913518803152154e-02
-7.425356360634627340e-02
-7.825644032123590943e-02
-8.080001285693053092e-02
-8.195853699829788730e-02
-8.180626853019978828e-02
-8.041805245270716718e-02
-7.791529011454892406e-02
-7.449885189429775179e-02
-7.037737581763187089e-02
-6.575949991023286034e-02
-6.085386219777211975e-02
-5.585949633819217025e-02
-5.093418577837752204e-02
-4.622464177779445765e-02
-4.187757545840418982e-02
-3.803969794216691125e-02
-3.484895329082200038e-02
-3.233699694400767044e-02
-3.046477651166091399e-02
-2.919196142027528917e-02
-2.847822109634853827e-02
-2.828243471034699863e-02
-2.851631040089056685e-02
-2.901858135197610267e-02
-2.962171968332728833e-02
-3.015819751466753545e-02
-3.046048698387477521e-02
-3.036978579898655384e-02
-2.976086616778457483e-02
-2.851657451267172738e-02
-2.651975725605191722e-02
-2.365326082033122890e-02
-1.980957177703581221e-02
-1.498360263233573103e-02
-9.232039873375156094e-03
-2.612422256433703793e-03
4.817711462197013864e-03
1.299963302116753996e-02
2.181923371996024111e-02
3.108467940173990224e-02
4.059831582228590197e-02
5.016248873737085695e-02
5.957954408176263650e-02
6.865352608148125868e-02
7.719433573666573123e-02
8.501313565449300502e-02
9.192108844212160124e-02
9.772935670671259456e-02
1.022581862748034309e-01
1.054128325586831394e-01
1.071449797575967922e-01
1.074067826159814665e-01
1.061503958782700208e-01
1.033298175309258493e-01
9.896769410290970348e-02
9.317414711832036622e-02
8.606497609660879178e-02
7.775598055723212387e-02
6.836296897248014814e-02
5.801962307091395460e-02
4.691492619657888080e-02
3.524852468191654736e-02
2.322006485939214979e-02
1.102919306147187931e-02
-1.126657617563378566e-03
-1.306837771032617196e-02
-2.462590842929607282e-02
-3.562925505223592249e-02
-4.590842285688364471e-02
-5.529507028525361412e-02
-6.367112039431097048e-02
-7.097668026269482455e-02
-7.715510465082231484e-02
-8.214974831912338904e-02
-8.590400657549088215e-02
-8.839207620810171639e-02
-8.967378417175164707e-02
-8.982371864931620875e-02
-8.891646782366791069e-02
-8.702661987768214868e-02
-8.423472830028308489e-02
-8.066519066806251970e-02
-7.646196082400133487e-02
-7.176908284448582642e-02
-6.673060080591122767e-02
-6.148972259632861509e-02
-5.616855193419991593e-02
-5.086699290338436708e-02
-4.568389413048840053e-02
-4.071810424210741547e-02
-3.606838477520851044e-02
-3.180037851922556252e-02
-2.789686478674861803e-02
-2.432787421228896699e-02
-2.106343743036634061e-02
-1.807358507549959581e-02
-1.531907409080199289e-02
-1.269997598317341644e-02
-1.009195806044277909e-02
-7.370621166257314283e-03
-4.411566144269738962e-03
-1.091506380053582255e-03
2.689214680082852981e-03
7.007662890467399042e-03
1.193999956764002501e-02
1.756238602815141103e-02
2.395076983569205745e-02
3.113346194613667711e-02
3.903132666655551725e-02
4.755050808635809256e-02
5.659715029493728872e-02
6.607739738168443011e-02
7.588204338540974203e-02
8.581224341967025326e-02
9.563670715578906356e-02
1.051240995127762645e-01
1.140430854096206037e-01
1.221634937970049462e-01
1.292761997539094154e-01
1.351903626833095839e-01
1.397157502302760756e-01
1.426621300398888403e-01
1.438397071215926915e-01
1.431219141125049943e-01
1.405109564718649284e-01
1.360247043607390738e-01
1.296810279401989507e-01
1.214977973713213533e-01
1.115195133775552794e-01
9.992969886762070875e-02
8.695709385165811822e-02
7.283046258972744602e-02
5.777856934191587246e-02
4.203194595090324615e-02
2.584859192317753851e-02
9.508185229780830375e-03
-6.709006787153344240e-03
-2.252271678552610068e-02
-3.765309796504588691e-02
-5.186261856003576004e-02
-6.499168067720703656e-02
-7.688907480662640626e-02
-8.740359143833206779e-02
-9.638402106236615419e-02
-1.037070109053376543e-01
-1.093793704382975962e-01
-1.134458952563641154e-01
-1.159513854753659867e-01
-1.169406412111227700e-01
-1.164636932592979790e-01
-1.146410021098310528e-01
-1.116434973157545141e-01
-1.076432074801809968e-01
-1.028121612062141699e-01
-9.732235976635525421e-02
-9.134378952242624972e-02
-8.504307652426021380e-02
-7.858652814379721296e-02
-7.214045175299083068e-02
-6.587115472379456715e-02
-5.992662593061232751e-02
-5.437818732851561893e-02
-4.927710699917444565e-02
-4.467465295841633460e-02
-4.062209322207990109e-02
-3.716382769520985146e-02
-3.426357610622807887e-02
-3.183260557176947891e-02
-2.978129080974929038e-02
-2.802000653807850544e-02
-2.645871398157147170e-02
-2.498415460061844881e-02
-2.344796476843419644e-02
-2.169886224589872778e-02
-1.958556479389520280e-02
-1.695679031533392847e-02
-1.367638141909242877e-02
-9.664893729412107892e-03
-4.856173201207528156e-03
8.159342106172605413e-04
7.417582551148290022e-03
1.500401494890725961e-02
2.351800408730433944e-02
3.283604824240392295e-02
4.283379208801558341e-02
5.338688029797048623e-02
6.436968393699976643e-02
7.560042809965816790e-02
8.682031371609999493e-02
9.776496118446131867e-02
1.081699909028540907e-01
1.177710252665764845e-01
1.263156894672614605e-01
1.335919540872662070e-01
1.393962575213807120e-01
1.435250381644067874e-01
1.457747344111333387e-01
1.459583162062841888e-01
1.440390188860385667e-01
1.400602386435520208e-01
1.340661221098646827e-01
1.261008159160029729e-01
1.162113316712402311e-01
1.045462385230845059e-01
9.138061770729294375e-02
7.699748199515046854e-02
6.167984415793429515e-02
4.571072088574028303e-02
2.937914416113024396e-02
1.299229249071119641e-02
-3.139247272415199297e-03
-1.870488827518172401e-02
-3.339404366448644329e-02
-4.691140254689542960e-02
-5.908459546136970303e-02
-6.980054631489213124e-02
-7.894656121653698122e-02
-8.640994627539741457e-02
-9.208173222643034617e-02
-9.596119280756568171e-02
-9.817010618450719428e-02
-9.883684113764945600e-02
-9.808976644739042516e-02
-9.605728367442109561e-02
-9.288856108924498090e-02
-8.878907739329808257e-02
-8.397376360855660082e-02
-7.865755075698613319e-02
-7.305536986056238025e-02
-6.737285435653925236e-02
-6.174916008124176764e-02
-5.629450092251212651e-02
-5.111897157412834125e-02
-4.633266672985750234e-02
-4.204241346635376880e-02
-3.827593972215578150e-02
-3.497961912150504560e-02
-3.209610652455081176e-02
-2.956805679143948568e-02
-2.733806545480645112e-02
-2.532905999024625057e-02
-2.341595158682671651e-02
-2.146646134495832151e-02
-1.934831036504743029e-02
-1.692921974750444258e-02
-1.408400737262515204e-02
-1.073269524609546562e-02
-6.813041780031300551e-03
-2.262847233010723685e-03
2.980088136398101675e-03
8.974370143218777726e-03
1.570517930593055833e-02
2.308906206222738344e-02
3.103993053456178403e-02
3.947169684539081347e-02
4.829811679690319132e-02
5.740172363975162839e-02
6.659630783314263169e-02
7.568649924394549311e-02
8.447692773904891261e-02
9.277222318532196699e-02
1.003791372276231220e-01
1.071164877512164049e-01
1.128073522051256661e-01
1.172748128860098826e-01
1.203419520905371354e-01
1.218364361206539792e-01
1.216658463993163519e-01
1.198056440985742488e-01
1.162334471995500329e-01
1.109268736833665947e-01
1.038640175966782653e-01
9.508582473908921973e-02
8.475823795156467444e-02
7.306197892556395845e-02
6.017776935252090731e-02
4.628633092389385778e-02
3.158260718504904419e-02
1.633386711402897568e-02
8.303139874665651718e-04
-1.463783966510687207e-02
-2.978038131419311063e-02
-4.430999295616094846e-02
-5.798281548568898214e-02
-7.058852050986094695e-02
-8.191764656144506773e-02
-9.176073217321964459e-02
-9.990913218576355503e-02
-1.062302317735632773e-01
-1.107281972897193045e-01
-1.134214912420533072e-01
-1.143285761383921462e-01
-1.134679144865562428e-01
-1.108876055605831079e-01
-1.067706790897138824e-01
-1.013385439572239699e-01
-9.481261175516106365e-02
-8.741429407555847964e-02
-7.936560332084499625e-02
-7.089638150428631547e-02
-6.224195463647983623e-02
-5.363776168981245623e-02
-4.531924163666526534e-02
-3.752090264467289327e-02
-3.041308864523944999e-02
-2.406158752726934164e-02
-1.852256925470677565e-02
-1.385220379148442010e-02
-1.010666110154708787e-02
-7.308638775731060230e-03
-5.344322503492423410e-03
-4.065101606805739121e-03
-3.322365398419024202e-03
-2.967503191078951948e-03
-2.849748771520064020e-03
-2.793793439193189773e-03
-2.608736023245430274e-03
-2.103426111384748901e-03
-1.086713291319069997e-03
6.314357996980114393e-04
3.181943934558966684e-03
6.608393739227130630e-03
1.094733373041366364e-02
1.623531242483929049e-02
2.250887738874622623e-02
2.976674986146514781e-02
3.786942704920209096e-02
4.664584218456172687e-02
5.592492850014677691e-02
6.553561922858001931e-02
7.530234518350317763e-02
8.500449791681749523e-02
9.439554019626619774e-02
1.032286237185780220e-01
1.112569001804833146e-01
1.182346783805702239e-01
1.239646308760537219e-01
1.283142858172538758e-01
1.311557160949770040e-01
1.323609946000351145e-01
1.318022049192618117e-01
1.293949343361096571e-01
1.251973084455425544e-01
1.192966003320526658e-01
1.117800830801370104e-01
1.027350297742758989e-01
9.225915163527903529e-02
8.054232865964378041e-02
6.782246263490782079e-02
5.433786938709841974e-02
4.032686474224497081e-02
2.602766982905206639e-02
1.167530736501988520e-02
-2.499095167108092777e-03
-1.626464604596582555e-02
-2.939045355021654982e-02
-4.164565247615308746e-02
-5.283145416636243763e-02
-6.284342470561063432e-02
-7.159439219265112397e-02
-7.899718472624089882e-02
-8.496463040515234155e-02
-8.942372023239369971e-02
-9.241226820302742007e-02
-9.402027253227474013e-02
-9.433803650328712043e-02
-9.345586339921982399e-02
-9.146563204370733446e-02
-8.850302366713988511e-02
-8.475218887445032379e-02
-8.039979020485252259e-02
-7.563249019755086122e-02
-7.063692914645097742e-02
-6.558784505158879452e-02
-6.062849422767390556e-02
-5.589698761436154295e-02
-5.153143615130636318e-02
-4.766995077815373155e-02
-4.443594175969516752e-02
-4.185055237034129155e-02
-3.989147225847330946e-02
-3.853623228204231671e-02
-3.776236329899769484e-02
-3.754438654312911017e-02
-3.778689631168639235e-02
-3.832416571516508719e-02
-3.898737938907829298e-02
-3.960772196894059988e-02
-4.001638217423846011e-02
-4.004573803305904595e-02
-3.953100092118794900e-02
-3.830779510161815699e-02
-3.621174483734466293e-02
-3.307847439135774142e-02
-2.876229810429858924e-02
-2.323342537516329478e-02
-1.650642844657325414e-02
-8.595969399971842284e-03
4.832896831942117347e-04
1.071117080352493312e-02
2.195903191782314426e-02
3.399910091437553794e-02
4.659996129847613494e-02
5.953019657544609405e-02
7.255829170848879239e-02
8.543500235830317480e-02
9.787297799299421452e-02
1.095799295837690535e-01
1.202635681018368319e-01
1.296316045184292831e-01
1.374113727795163165e-01
1.434388897285281961e-01
1.475875876756356231e-01
1.497309334989624652e-01
1.497423940766383355e-01
1.475037031045026981e-01
1.430356279800282793e-01
1.364743948427670772e-01
1.279597305731783319e-01
1.176313620517024927e-01
1.056294348381813519e-01
9.214475469791552631e-02
7.746651705139670496e-02
6.189522166251069935e-02
4.573136829514594381e-02
2.927545671315602213e-02
1.282185668232295635e-02
-3.365432595895537574e-03
-1.903180026133886871e-02
-3.392263820531692814e-02
-4.778333831914178403e-02
-6.036623331103336404e-02
-7.152438570301494769e-02
-8.118683201528426041e-02
-8.928447462103519805e-02
-9.574821589347831674e-02
-1.005096720455547210e-01
-1.035621647154717218e-01
-1.050074585860486520e-01
-1.049583218131779350e-01
-1.035275225527562681e-01
-1.008278289606768241e-01
-9.698366907828223638e-02
-9.217119734743972614e-02
-8.658090723458336524e-02
-8.040329273731089410e-02
-7.382884785322171850e-02
-6.704602360308256626e-02
-6.021749418843477114e-02
-5.348828748016773438e-02
-4.700308802711804929e-02
-4.090658037810847303e-02
-3.534271460531492048e-02
-3.040800435136872815e-02
-2.612343199111110889e-02
-2.250324248644338873e-02
-1.956168079926500630e-02
-1.731299189124051174e-02
-1.574841111610617017e-02
-1.476772854891817560e-02
-1.424802027890882672e-02
-1.406636239531261490e-02
-1.409983098736309476e-02
-1.422313909207533963e-02
-1.428491371836398613e-02
-1.411758706958068932e-02
-1.355334857784759942e-02
-1.242438767528702970e-02
-1.056372908150149392e-02
-7.846114648956358656e-03
-4.206531208723265566e-03
4.153359440893637268e-04
6.079801514370309495e-03
1.284717822371209649e-02
2.073970523854609324e-02
2.964403276688346717e-02
3.941664087327748783e-02
4.991400962226270194e-02
6.099261907837157104e-02
7.250058982855098200e-02
8.420487066308643409e-02
9.582675939567419920e-02
1.070870449073715036e-01
1.177065160792105103e-01
1.274066972429053202e-01
1.359382945932385567e-01
1.430902682172530416e-01
1.486541698389932387e-01
1.524215511825083025e-01
1.541839814977316869e-01
1.537837498199103314e-01
1.512251425779650160e-01
1.465447198074894264e-01
1.397790415440820777e-01
1.309646678233473138e-01
1.201545318028922615e-01
1.075420425450175355e-01
9.339208733704754128e-02
7.797011923888685914e-02
6.154159131046983006e-02
4.437248496118180452e-02
2.674580186167885981e-02
8.964809121049551258e-03
-8.666042564157133005e-03
-2.584230249739264546e-02
-4.225955611311300875e-02
-5.764854789562278564e-02
-7.184087576750111670e-02
-8.468610819494357123e-02
-9.603381364411495147e-02
-1.057335605811843549e-01
-1.136516928186046549e-01
-1.197822022929734831e-01
-1.241777606372639897e-01
-1.268913492181885649e-01
-1.279759494024496069e-01
-1.274865210864320197e-01
-1.255306896214403722e-01
-1.222730598315334150e-01
-1.178810795509205589e-01
-1.125221966138144070e-01
-1.063638565256728730e-01
-9.957244072099227794e-02
-9.231158498845593030e-02
-8.474448823331084957e-02
-7.703434936081943185e-02
-6.934436727624454511e-02
-6.183071632743463580e-02
-5.460201840957353697e-02
-4.774717746896770670e-02
-4.135503393413740569e-02
-3.551442823361772305e-02
-3.031208613754839826e-02
-2.578754166629163014e-02
-2.193392638766696739e-02
-1.874241508464129582e-02
-1.620418254017964160e-02
-1.431030499529094280e-02
-1.302647695685971510e-02
-1.225938031845607082e-02
-1.190732936805068490e-02
-1.186863839361598089e-02
-1.204162168312349068e-02
-1.232010725756482739e-02
-1.257083837457902142e-02
-1.265044468978592657e-02
-1.241553846183432105e-02
-1.172273194937262578e-02
-1.043040914525991680e-02
-8.430505450766297149e-03
-5.644937593614264559e-03
-1.996677185108380534e-03
2.591304163444337928e-03
8.195733905802428040e-03
1.484434249498229295e-02
2.246204543103198087e-02
3.096080186756408961e-02
4.025257095817524888e-02
5.024931185645980375e-02
6.084513632173296077e-02
7.183787709413208544e-02
8.299304627547612889e-02
9.407613218171459457e-02
1.048526231287730259e-01
1.150884054533583001e-01
1.245558264670056925e-01
1.330324790176435901e-01
1.402961075718674178e-01
1.461244565962760977e-01
1.502958167126936806e-01
1.526492461183965865e-01
1.531390657105690389e-01
1.517324625086284851e-01
1.483966235319907068e-01
1.430987358000769538e-01
1.358370704458855549e-01
1.267599404674562558e-01
1.160608712816808830e-01
1.039333975155354861e-01
9.057105379601854134e-02
7.617093126163310135e-02
6.098003219184785356e-02
4.528215750099930104e-02
2.936196550863758720e-02
1.350411453432402015e-02
-2.007139626030493736e-03
-1.691991340634978538e-02
-3.103790340672705345e-02
-4.417027982559287164e-02
-5.612621286134727994e-02
-6.671487271239362471e-02
-7.577406594361291159e-02
-8.326538931470378602e-02
-8.918388184627376591e-02
-9.352458309479613763e-02
-9.628253261673114238e-02
-9.745968867004478620e-02
-9.714255794597281835e-02
-9.547421605452013904e-02
-9.259877655068196600e-02
-8.866035298945673659e-02
-8.380332819687882906e-02
-7.818840966454032593e-02
-7.200170542525216599e-02
-6.543151991757514829e-02
-5.866615758008308229e-02
-5.189392283873942718e-02
-4.529271235451152317e-02
-3.900011585637369604e-02
-3.314396690889333946e-02
-2.785209907662542644e-02
-2.325234592413767329e-02
-1.946546425841948202e-02
-1.653644623524521198e-02
-1.446432400831798581e-02
-1.324748486180379187e-02
-1.288431607986857338e-02
-1.337207974308122702e-02
-1.465491997994092938e-02
-1.660200432634576298e-02
-1.907683993749754656e-02
-2.194293396859409856e-02
-2.506379265772133019e-02
-2.829303895620240844e-02
-3.144999254180345233e-02
-3.434653570209243029e-02
-3.679455072464346554e-02
-3.860591989702429061e-02
-3.959848104731427537e-02
-3.964622019743942877e-02
-3.865396975136552171e-02
-3.652688085751793629e-02
-3.317010466432496890e-02
-2.849097432603446556e-02
-2.247911252452025957e-02
-1.522959457196651836e-02
-6.844399920782810384e-03
2.574491976606189080e-03
1.292508630336591281e-02
2.407248676058588305e-02
3.577934879547876174e-02
4.778844454124127339e-02
5.984254613109596388e-02
7.168442569823965660e-02
8.305846769612507119e-02
9.372250034998855228e-02
1.034410318740178192e-01
1.119786188572530761e-01
1.190998178887300585e-01
1.245719914874917345e-01
1.282487984321122876e-01
1.300843549005472610e-01
1.300384357430052762e-01
1.280708158096904026e-01
1.241413347613674889e-01
1.182614639751097541e-01
1.105871145038509473e-01
1.012992620797877052e-01
9.057888243509615300e-02
7.860695130197187241e-02
6.557203124064248101e-02
5.171883388030803358e-02
3.731726745305260357e-02
2.263735969630375350e-02
7.949138347499405677e-03
-6.478849199911693169e-03
-2.041581351577948650e-02
-3.367090706739220979e-02
-4.605519988581120022e-02
-5.737976200206914429e-02
-6.745577211745984458e-02
-7.613723210673972730e-02
-8.338594910601163090e-02
-8.918042855642224764e-02
-9.349917589913017690e-02
-9.632069657528102846e-02
-9.763752059820329787e-02
-9.753457517077460115e-02
-9.613417320642672625e-02
-9.355873301728503955e-02
-8.993067291547787723e-02
-8.537368866570363424e-02
-8.003887622908351096e-02
-7.410367429507500048e-02
-6.774658740937861134e-02
-6.114612011770754335e-02
-5.448071803500205423e-02
-4.791531752575390463e-02
-4.158419915183819010e-02
-3.561741455560974573e-02
-3.014501537941076392e-02
-2.529705326559638506e-02
-2.118881949508521004e-02
-1.784883547108007812e-02
-1.527401905130612580e-02
-1.346124245954630899e-02
-1.240737791958406583e-02
-1.210515530278178514e-02
-1.247171767333807996e-02
-1.335816912744080751e-02
-1.461339189891066453e-02
-1.608626822156652633e-02
-1.762557660968017484e-02
-1.906474822787393095e-02
-2.020577007669429812e-02
-2.084677691147327622e-02
-2.078590348754415923e-02
-1.982128456023852375e-02
-1.776651515421757976e-02
-1.451642985485632198e-02
-9.992454370436366917e-03
-4.116029650738159754e-03
3.191403354470847414e-03
1.200014839412971192e-02
2.225110745133977372e-02
3.378247420106418597e-02
4.642961519278817478e-02
6.002789697597274432e-02
7.441211152635665571e-02
8.935808408034201511e-02
1.045323973655144789e-01
1.195897895897888863e-01
1.341849989611122729e-01
1.479727636873993113e-01
1.606151598505224376e-01
1.718087736575098223e-01
1.812603274196120662e-01
1.886765448032637071e-01
1.937641494749146320e-01
1.962412619782674672e-01
1.959807268628430965e-01
1.929668957253712902e-01
1.871865818880647236e-01
1.786265986731414013e-01
1.672752253880520623e-01
1.532306853507338085e-01
1.367756255049125957e-01
1.182103157935512627e-01
9.783502615957215265e-02
7.595002654593668856e-02
5.287495690006121379e-02
2.901105095839709783e-02
4.781023370136202634e-03
-1.939241111093498171e-02
-4.308653773108161306e-02
-6.588538112091346655e-02
-8.745275846001790421e-02
-1.075046616188213566e-01
-1.257579838397837879e-01
-1.419296183653215582e-01
-1.557383217742636938e-01
-1.670090791577524547e-01
-1.757284035766905894e-01
-1.818963439031862084e-01
-1.855129490093595790e-01
-1.865782680541218375e-01
-1.851339824848058091e-01
-1.813788932099637263e-01
-1.755488600803302712e-01
-1.678797429466460933e-01
-1.586074016596346337e-01
-1.479712831278044149e-01
-1.362480898653536387e-01
-1.237366056405250492e-01
-1.107359036141513930e-01
-9.754505694709209029e-02
-8.446210413746466084e-02
-7.173885056114423509e-02
-5.956331424361979016e-02
-4.811885329325441690e-02
-3.758882581838689924e-02
-2.815658387022777071e-02
-1.996495878072758121e-02
-1.301970325531327105e-02
-7.297611847802280491e-03
-2.775479112008537828e-03
5.699003982632174642e-04
2.772734240919455181e-03
3.967965521864492973e-03
4.344593257510309843e-03
4.092132795325915430e-03
3.400099482779358768e-03
2.458190608024636136e-03
1.462632371202895847e-03
6.178303012479668781e-04
1.287072156256107228e-04
2.001859318006048508e-04
1.037168929920470259e-03
2.811304138014120678e-03
5.593283107864375527e-03
9.434710525788734398e-03
1.438719107810169061e-02
2.050232945112866884e-02
2.781535663805129871e-02
