BVP Signal
9.398960282653343046e-03
2.151692223123107678e-02
3.134314124940517504e-02
3.860222619463353488e-02
4.301878592437408111e-02
4.431742929608473852e-02
4.222276516722334172e-02
3.645940239524798898e-02
2.675194983761640388e-02
1.282501635178663613e-02
-5.596789204783431115e-03
-2.878191367441117199e-02
-5.664698138960594376e-02
-8.859762522574687882e-02
-1.239993033235936987e-01
-1.622174738239058334e-01
-2.026175925083281704e-01
-2.445116881560990552e-01
-2.870202947723921039e-01
-3.292210594433162552e-01
-3.701916292549805032e-01
-4.090096512934936479e-01
-4.447705437542206486e-01
-4.767435689892402517e-01
-5.042963325477971548e-01
-5.267975568991650759e-01
-5.436159645126178441e-01
-5.541273660439293147e-01
-5.579924720204195721e-01
-5.552475878004716758e-01
-5.459546813526114928e-01
-5.301757206453642235e-01
-5.079727126714019825e-01
-4.795301349279663117e-01
-4.454261308042616330e-01
-4.063177845815112432e-01
-3.628621805409380507e-01
-3.157164029637655744e-01
-2.655483289403122171e-01
-2.131191005987173037e-01
-1.592375981157649889e-01
-1.047130878144104660e-01
-5.035483601761292505e-02
3.031866608694588905e-03
5.477131342661833990e-02
1.043429624121892108e-01
1.512354154253676697e-01
1.949372743261170715e-01
2.349372457500786826e-01
2.708315048595830721e-01
3.025264411745749449e-01
3.299840858801557086e-01
3.531664701614287694e-01
3.720356252034933142e-01
3.865808674875103046e-01
3.970005866098070824e-01
4.035898627391870108e-01
4.066442998422181709e-01
4.064595018854685882e-01
4.033319715580534481e-01
3.975823938144740222e-01
3.895577643649017485e-01
3.796064042899929269e-01
3.680766346704056335e-01
3.553167019715290920e-01
3.416394208858437587e-01
3.272656138337812770e-01
3.124013670013736643e-01
2.972527665746493852e-01
2.820258987396382366e-01
2.669127528499362079e-01
2.520092387323300542e-01
2.373711819545594182e-01
2.230542747382808777e-01
2.091142093051532314e-01
1.956054443990127290e-01
1.825546348336415381e-01
1.699609423811765385e-01
1.578223575160845327e-01
1.461368707128309907e-01
1.349024515123817269e-01
1.241115128909345278e-01
1.137434699710162533e-01
1.037758821967819101e-01
9.418630901238778108e-02
8.495230986198798462e-02
7.604336831291336196e-02
6.737988520821414085e-02
5.886381944783614095e-02
5.039709685293369823e-02
4.188164324466292499e-02
3.321694664071572767e-02
2.425589604816202893e-02
1.480950476195186383e-02
4.687296316947309194e-03
-6.301205751992222659e-03
-1.834637923752313604e-02
-3.162213711661787663e-02
-4.626763519368859434e-02
-6.241761843366266937e-02
-8.020683180146970237e-02
-9.977002026203829477e-02
-1.212071816988220530e-01
-1.444296314069125620e-01
-1.692849436515181938e-01
-1.956206429466260666e-01
-2.232842538062237980e-01
-2.521122748940882174e-01
-2.817606404144905596e-01
-3.117378569413982170e-01
-3.415481180839142761e-01
-3.706956174511414348e-01
-3.986843492856284032e-01
-4.249956620858472700e-01
-4.490676960960808817e-01
-4.703337334353977495e-01
-4.882270562228653854e-01
-5.021809465775521897e-01
-5.116766873873463961e-01
-5.164287729151009199e-01
-5.162224220412405806e-01
-5.108428695003324194e-01
-5.000753500269439211e-01
-4.837264705980793833e-01
-4.619052860084703616e-01
-4.349451123769036975e-01
-4.031845609275106490e-01
-3.669622428844250273e-01
-3.266182417213270295e-01
-2.826131726908260866e-01
-2.356158021995415908e-01
-1.863155498010702349e-01
-1.354018350490073797e-01
-8.356407749694860776e-02
-3.148132031513772855e-02
2.021254000700645204e-02
7.089588239984676021e-02
1.199470860422571505e-01
1.667445301131116886e-01
2.106833357853243882e-01
2.513648512030439708e-01
2.885291984718860725e-01
3.219190839288565975e-01
3.512772139109641145e-01
3.763485618169748470e-01
3.970177100593577091e-01
4.133877221443700289e-01
4.255807017221495681e-01
4.337187524428385288e-01
4.379239779786265885e-01
4.383538028008335807e-01
4.353033278667324257e-01
4.291011944798146516e-01
4.200760439435755611e-01
4.085565175615055722e-01
3.948719137068819052e-01
3.793586193066933454e-01
3.623573462979645665e-01
3.442088683260016158e-01
3.252539590361107624e-01
3.058323524992159759e-01
2.862340177693559751e-01
2.666782779600516684e-01
2.473790790516098292e-01
2.285503670243373975e-01
2.104060847142011914e-01
1.931214531298484083e-01
1.767364301412530647e-01
1.612614558956917410e-01
1.467069705404446811e-01
1.330834142227899086e-01
1.203891974933819498e-01
1.085084802603033527e-01
9.726228685837634558e-02
8.647097655887980849e-02
7.595490863309062313e-02
6.553389142993393257e-02
5.500669311229022806e-02
4.414496597413408718e-02
3.271857168346092859e-02
2.049737190826594890e-02
7.251243228458548185e-03
-7.215618381467392428e-03
-2.299147302446116758e-02
-4.014357151136246915e-02
-5.873916465300998979e-02
-7.884550326024278299e-02
-1.005082337061853348e-01
-1.235915742035741394e-01
-1.478690566114061744e-01
-1.731135410694391030e-01
-1.990978877174300887e-01
-2.255919706915564538e-01
-2.522727676119733142e-01
-2.787085037869771464e-01
-3.044612226548966127e-01
-3.290929676540604309e-01
-3.521657980765945384e-01
-3.732550311206821458e-01
-3.919733057431223910e-01
-4.079397804136594141e-01
-4.207736136020375217e-01
-4.300939637780013536e-01
-4.355466413873094744e-01
-4.369760755818395959e-01
-4.343163643806720597e-01
-4.275020428294177277e-01
-4.164676459736875169e-01
-4.011543865828813837e-01
-3.816756155007947626e-01
-3.583278052841349925e-01
-3.314163055760966370e-01
-3.012464660198738708e-01
-2.681237611054756442e-01
-2.324046738951796587e-01
-1.945748922588401153e-01
-1.551402523555971691e-01
-1.146065903445906697e-01
-7.347974238496066124e-02
-3.226022867269162653e-02
8.586691376108568363e-03
4.861011334080395097e-02
8.735917467252102275e-02
1.243830128223866738e-01
1.592362311939068409e-01
1.915918334098499487e-01
2.212372957294590214e-01
2.479647745675526704e-01
2.715664263389493960e-01
2.918347572998976069e-01
3.086447964931540722e-01
3.220599756785413326e-01
3.321698960916167898e-01
3.390641589679375123e-01
3.428323655430609573e-01
3.435876256216054969e-01
3.415821678753943602e-01
3.371192080536650759e-01
3.305020389136562597e-01
3.220339532126064719e-01
3.120187830849198152e-01
3.007702940579276008e-01
2.886109793427352743e-01
2.758636291192829715e-01
2.628510335675099396e-01
2.498955924308736698e-01
2.372605575999212624e-01
2.250872715484847353e-01
2.135020355715199214e-01
2.026311509639835418e-01
1.926009190208324284e-01
1.835018620860513483e-01
1.752352564881703989e-01
1.676400418146700710e-01
1.605551195300633505e-01
1.538193910988641389e-01
1.472666149731881313e-01
1.406492286657783641e-01
1.336547576080027167e-01
1.259689183312855121e-01
1.172774273670508238e-01
1.072664245747155243e-01
9.566636901510272573e-02
8.229031051475210745e-02
6.696031927930107264e-02
4.949846551438735753e-02
2.972681942564830981e-02
7.517825210725193052e-03
-1.701761856851391475e-02
-4.369812575782777708e-02
-7.234229966628691333e-02
-1.027687436029625645e-01
-1.347830605271511106e-01
-1.680128979014207657e-01
-2.019569209030518953e-01
-2.361109081821197719e-01
-2.699706383887001127e-01
-3.030317377285554059e-01
-3.347782005917068204e-01
-3.646743961086650332e-01
-3.921828038435710706e-01
-4.167659033605659591e-01
-4.378861742237905585e-01
-4.550543931886512627e-01
-4.679861034778031170e-01
-4.764511057340564681e-01
-4.802192009740008372e-01
-4.790601902142258006e-01
-4.727659060743182873e-01
-4.613910926500464638e-01
-4.451633971883385832e-01
-4.243134998011175996e-01
-3.990720806003067445e-01
-3.696719444385198616e-01
-3.364688838912818225e-01
-3.000067808881990983e-01
-2.608454036349092675e-01
-2.195445203370506304e-01
-1.766638992121844498e-01
-1.327657573519341883e-01
-8.842161372985596346e-02
-4.420519554511304072e-02
-6.902299968685743359e-04
4.154955571571405937e-02
8.195594073376066824e-02
1.201329771157991777e-01
1.557814558021712315e-01
1.886034576422436215e-01
2.183010634853832788e-01
2.445796674560528627e-01
2.672947427691746425e-01
2.865100081151495393e-01
3.023045214209334475e-01
3.147573406134827612e-01
3.239475302506077958e-01
3.300037505683370842e-01
3.332235188920683600e-01
3.339402565618514451e-01
3.324873849177359952e-01
3.291983252997717213e-01
3.244060370204221999e-01
3.184392180920669890e-01
3.116242663696265902e-01
3.042875572952169483e-01
2.967554663109535085e-01
2.893514788596671106e-01
2.822940878973749235e-01
2.756695067871272053e-01
2.695555099971397306e-01
2.640298719956287177e-01
2.591703290576975460e-01
2.549879837247566727e-01
2.512903632595749892e-01
2.478462535948563472e-01
2.444244406633040434e-01
2.407937103976219850e-01
2.367133466382778106e-01
2.318650718736955940e-01
2.258927522452006120e-01
2.184399980556026855e-01
2.091504196077115241e-01
1.976705214262586274e-01
1.837328311090237754e-01
1.671683364452519471e-01
1.478134210971930873e-01
1.255044687270971127e-01
1.000780036198408995e-01
7.146793752446478631e-02
3.987556669467459680e-02
5.547671969785727963e-03
-3.126896581088589588e-02
-7.032756580802493329e-02
-1.113510068149815291e-01
-1.538422276833700808e-01
-1.972072451979073326e-01
-2.408516533446943830e-01
-2.841810461098328022e-01
-3.266003603647595344e-01
-3.674982923358966480e-01
-4.062466456614103882e-01
-4.422164364128337577e-01
-4.747786806616998700e-01
-5.033046263452083391e-01
-5.272477659001166828e-01
-5.462648555369998826e-01
-5.600435040008149290e-01
-5.682713200365190342e-01
-5.706359123890676344e-01
-5.668738018462130546e-01
-5.570372882849548013e-01
-5.413041076003174412e-01
-5.198523140001309883e-01
-4.928599616922246240e-01
-4.605148277306062576e-01
-4.232072112110453199e-01
-3.815188598163115063e-01
-3.360390271890827396e-01
-2.873569669720371644e-01
-2.360621207742084060e-01
-1.827835611794638715e-01
-1.282386759446806079e-01
-7.315678591915975026e-02
-1.826721195220275956e-02
3.570072510688890310e-02
8.804028019884463374e-02
1.381748052730404352e-01
1.855741570345892377e-01
2.297082505635573701e-01
2.700470009400113280e-01
3.060734841605449175e-01
3.375044196259557872e-01
3.642572342207714975e-01
3.862558808498950391e-01
4.034243124182308460e-01
4.156875167057352272e-01
4.231133853931787758e-01
4.260574105500467557e-01
4.249095763467367615e-01
4.200598669536428353e-01
4.118982665411627941e-01
4.008378180562499615e-01
3.874103741871741668e-01
3.721859436319965297e-01
3.557345529069506629e-01
3.386262285282772844e-01
3.214226360791703208e-01
3.045577377141853725e-01
2.883658427410103475e-01
2.731786180522136620e-01
2.593277305403578481e-01
2.471432203971052899e-01
2.367977044103846129e-01
2.281772490759039762e-01
2.211375270021112005e-01
2.155342107974556054e-01
2.112229730703845121e-01
2.080112796240192186e-01
2.054842533177843045e-01
2.031629566796440134e-01
2.005684462931411893e-01
1.972217787418215629e-01
1.926473065949614316e-01
1.864130405771673438e-01
1.781179214903045871e-01
1.673615453315693280e-01
1.537435080981568447e-01
1.368655832002976247e-01
1.164847287827022182e-01
9.261372363302444732e-02
6.528924133211500003e-02
3.454795546083389013e-02
4.265396000323606884e-04
-3.696177722003671229e-02
-7.718748231861287390e-02
-1.197393945341386767e-01
-1.641063326061135141e-01
-2.097771152740220413e-01
-2.562311438588364965e-01
-3.028389110584014388e-01
-3.489009151231144967e-01
-3.937164997634392538e-01
-4.365850086898561688e-01
-4.768071442218649869e-01
-5.137576540715546036e-01
-5.469219548849090229e-01
-5.757945194818773205e-01
-5.998698206823984691e-01
-6.186423325721166488e-01
-6.316855204752205299e-01
-6.388652444448043033e-01
-6.401150041609681152e-01
-6.353682993038134441e-01
-6.245586295534428789e-01
-6.076453770579326452e-01
-5.848507404510073782e-01
-5.565499937577186307e-01
-5.231203143771105957e-01
-4.849388797082163638e-01
-4.423852891426873768e-01
-3.959430906124874472e-01
-3.462368207106065188e-01
-2.939010624401850458e-01
-2.395703988043814681e-01
-1.838794124547548092e-01
-1.274609601331836983e-01
-7.094217098019825474e-02
-1.494898755145634972e-02
3.989264759740424049e-02
9.295679191072597769e-02
1.436343337518090624e-01
1.914669432908843172e-01
2.360757842797341910e-01
2.770827349273602414e-01
3.141096734427789583e-01
3.467831241154910593e-01
3.748903512111704250e-01
3.984166038853111935e-01
4.173593279202382211e-01
4.317159690982672604e-01
4.414840283857194292e-01
4.467359916142941145e-01
4.477677148728020917e-01
4.449164607484632494e-01
4.385194918284968102e-01
4.289140707001238839e-01
4.164495244493994219e-01
4.015709178678408264e-01
3.847689400485736488e-01
3.665345603048750789e-01
3.473587479500165887e-01
3.277309231513897414e-01
3.080964770958538046e-01
2.888515291573804378e-01
2.703895968353600132e-01
2.531041976291876217e-01
2.373887212085279419e-01
2.235622443662753089e-01
2.117448300644803050e-01
2.020235770053175339e-01
1.944855838909573809e-01
1.892179494235740056e-01
1.862730950821371301e-01
1.854588809188657539e-01
1.864779794207470087e-01
1.890326546949531727e-01
1.928251708486571903e-01
1.975525781649345447e-01
2.027882882838163425e-01
2.079799711315366006e-01
2.125696621585740909e-01
2.159993968154054755e-01
2.177112834510942507e-01
2.171700604683365343e-01
2.138950416499172391e-01
2.074136027789690306e-01
1.972531196386237973e-01
1.829409680120113180e-01
1.640567092868696619e-01
1.405078714894272274e-01
1.123290856313685637e-01
7.955526089207198837e-02
4.222130645092780910e-02
3.791653464277899843e-04
-4.557782759706396902e-02
-9.494079315232228922e-02
-1.469889977567202521e-01
-2.010017078476460384e-01
-2.562576477087630256e-01
-3.119328294815792990e-01
-3.669798317677317456e-01
-4.203218698310081658e-01
-4.708821589351785963e-01
-5.175839143440317258e-01
-5.593924829485444894e-01
-5.955096607734390313e-01
-6.252196736250044129e-01
-6.478068320179656281e-01
-6.625554464670401211e-01
-6.687781182342698028e-01
-6.662718440627934946e-01
-6.552404481943313597e-01
-6.359003837654356728e-01
-6.084681039126532687e-01
-5.731621559590550641e-01
-5.304656612492792966e-01
-4.813817075236916931e-01
-4.269739870317494912e-01
-3.683061920229299124e-01
-3.064420147466889732e-01
-2.424615791129904885e-01
-1.775274877642869509e-01
-1.128281666202803901e-01
-4.955205052370770247e-02
1.111242568267378772e-02
6.800131453847835239e-02
1.203121149118051569e-01
1.675180538816438691e-01
2.090993075177807192e-01
2.445360518900192570e-01
2.733119013750597848e-01
2.952188845652730098e-01
3.105974199860401797e-01
3.198444021008992610e-01
3.233567253733797831e-01
3.215312842670190463e-01
3.148351580252881643e-01
3.040508463740252409e-01
2.900494195190850277e-01
2.737019522800809845e-01
2.558795194766345649e-01
2.374422507690316930e-01
2.191099340196465128e-01
2.015051762541256730e-01
1.852486386804054197e-01
1.709609825064161148e-01
1.592592229028292339e-01
1.505171548498974721e-01
1.447168027260652967e-01
1.418047016284536277e-01
1.417273866541843841e-01
1.444313929003795405e-01
1.497759672122009889e-01
1.572689386524727118e-01
1.663297119770454913e-01
1.763776919408912569e-01
1.868322832989810500e-01
1.971118768462571946e-01
2.066234961529878067e-01
2.147670257519596060e-01
2.209422396394686849e-01
2.245489118118089156e-01
2.249899997489275272e-01
2.218320880671633688e-01
2.148807791821809587e-01
2.039606191899618892e-01
1.888961541864867533e-01
1.695119339861900221e-01
1.457328918414916297e-01
1.178460828416589834e-01
8.622018962192118385e-02
5.122389481749672902e-02
1.322588106361663809e-02
-2.738408333923315896e-02
-7.000842354413697177e-02
-1.139313202251199253e-01
-1.584355861439092350e-01
-2.028040340622466187e-01
-2.463196513690786293e-01
-2.882725359428253697e-01
-3.279622130751734255e-01
-3.646888576564554230e-01
-3.977526445769906660e-01
-4.264537718781245546e-01
-4.501714305880254452e-01
-4.685403479920963732e-01
-4.812468288425224006e-01
-4.879771778914943070e-01
-4.884176998911988754e-01
-4.822953304885845838e-01
-4.696906445998053070e-01
-4.508663037434536003e-01
-4.260864742860814292e-01
-3.956153225942331542e-01
-3.597230684955777802e-01
-3.188795824132772405e-01
-2.737951510510501785e-01
-2.251943560464363392e-01
-1.738017790369917326e-01
-1.203420182452021592e-01
-6.555762300804920950e-02
-1.024328631603260709e-02
4.479688417048299787e-02
9.875878079115282815e-02
1.508382958856128442e-01
2.002580552526349589e-01
2.464469641256540611e-01
2.889299013908610547e-01
3.272322793702173716e-01
3.608795103856987097e-01
3.894057209034498812e-01
4.125820689293399068e-01
4.304390626309244627e-01
4.430203993780899574e-01
4.503697765407198572e-01
4.525310970090301033e-01
4.496497506178301906e-01
4.421362552776145205e-01
4.304438853752203809e-01
4.150259152974882237e-01
3.963356194312543379e-01
3.748367684175382131e-01
3.510651611342670009e-01
3.255868305890118886e-01
2.989679136104780866e-01
2.717745470273801311e-01
2.445686892216095698e-01
2.178171599255855628e-01
1.918921736096048380e-01
1.671618729756905453e-01
1.439944007258559533e-01
1.227575148052013065e-01
1.037136829168297247e-01
8.687757488943476103e-02
7.222824010399003791e-02
5.974472794147451388e-02
4.940608778286251918e-02
4.115174844863923181e-02
3.467872260853487043e-02
2.959237255727030849e-02
2.549788929562470802e-02
2.200046382437899697e-02
1.870244486727848029e-02
1.515133759928040738e-02
1.084508436407690540e-02
5.279844766630688302e-03
-2.048221588097649815e-03
-1.164240847477999302e-02
-2.391250604480253672e-02
-3.906973194487074058e-02
-5.729992674678641151e-02
-7.878893102234535428e-02
-1.037225853433502848e-01
-1.322125209296724502e-01
-1.639647382178140156e-01
-1.985473406578181499e-01
-2.355283177003938133e-01
-2.744756587962368100e-01
-3.149424791528958600e-01
-3.562361426717630675e-01
-3.974622247127421737e-01
-4.377203261604032392e-01
-4.761100478993302576e-01
-5.117313509731563625e-01
-5.437259690739904006e-01
-5.713158106183715557e-01
-5.937318638299370344e-01
-6.102051169323143842e-01
-6.199665581491387023e-01
-6.223472678436132721e-01
-6.171678012806950386e-01
-6.043981049128704930e-01
-5.840081619226596965e-01
-5.559679554925887057e-01
-5.202792563642617552e-01
-4.773974587597204500e-01
-4.281162305251238753e-01
-3.732373326955184534e-01
-3.135625263059318435e-01
-2.498948706746298432e-01
-1.831456412700280811e-01
-1.144140890351742490e-01
-4.481825617006462981e-02
2.452381512528117868e-02
9.249408265086744851e-02
1.580325938836238953e-01
2.203337809206719622e-01
2.786616906401613858e-01
3.322803716694879839e-01
3.804538726360275902e-01
4.224796484779879124e-01
4.580699489556431803e-01
4.872177511633455360e-01
5.099213372742941175e-01
5.261789894616968333e-01
5.359922781399302227e-01
5.395684851133111248e-01
5.374386811094710170e-01
5.301623747009568399e-01
5.182990744603168665e-01
5.024082889645218319e-01
4.830662190727378347e-01
4.609145522263375372e-01
4.366110330111058757e-01
4.108134060128184606e-01
3.841794158172604501e-01
3.573510708037742623e-01
3.307993117382695969e-01
3.048900981488963380e-01
2.799878666432487062e-01
2.564570538289113744e-01
2.346587436703471141e-01
2.147912581125820397e-01
1.968205405655136797e-01
1.806947027179750531e-01
1.663618562588060623e-01
1.537701090192121756e-01
1.428129120811045816e-01
1.331915585633031140e-01
1.245651350967102999e-01
1.165927283122265568e-01
1.089334248407543004e-01
1.012448708093157679e-01
9.317093005017296203e-02
8.434780545507358784e-02
7.441161766326154225e-02
6.299848731397772461e-02
4.974733633142269795e-02
3.440543396251205532e-02
1.686047758546649344e-02
-2.990482380373471472e-03
-2.525039551566155005e-02
-5.002217602270442320e-02
-7.732104906337511352e-02
-1.068857042963584636e-01
-1.384004542770236323e-01
-1.715496115607486605e-01
-2.060174887029017077e-01
-2.414660352438974256e-01
-2.773680580903228332e-01
-3.131012583289278783e-01
-3.480426166751123818e-01
-3.815691138442678931e-01
-4.130587396106027986e-01
-4.419212411530188955e-01
-4.676037537797826937e-01
-4.895555574168473090e-01
-5.072259319901737395e-01
-5.200642817715390720e-01
-5.276292724102784604e-01
-5.297890787252275135e-01
-5.264663009172565467e-01
-5.175835391872349867e-01
-5.030633937360304841e-01
-4.828752488653269559e-01
-4.573395654847378644e-01
-4.269362613322034150e-01
-3.921460524895459265e-01
-3.534496550385943792e-01
-3.113319672921974757e-01
-2.663868508260622825e-01
-2.193247369986122131e-01
-1.708617628751629702e-01
-1.217140655210138256e-01
-7.259765580922872275e-02
-2.417505867767255623e-02
2.302751856759388538e-02
6.850526968114023507e-02
1.117533884175180292e-01
1.522670685312949301e-01
1.895810890886627798e-01
2.234945846814347936e-01
2.539149731513477004e-01
2.807499989700676934e-01
3.039074066092539717e-01
3.233013710619203618e-01
3.389867459555573337e-01
3.511551638805547881e-01
3.600039078211334509e-01
3.657302607615122714e-01
3.685315777693556338e-01
3.686227167582667441e-01
3.662587384363293896e-01
3.617003262910727379e-01
3.552081638100206273e-01
3.470429344807015593e-01
3.374587320193678242e-01
3.266703928129606194e-01
3.148782755476962070e-01
3.022827160567227445e-01
2.890840501731840595e-01
2.754801859782253226e-01
2.616239052053990211e-01
2.476281166508960130e-01
2.336043570889697607e-01
2.196641632938743927e-01
2.059188457761496338e-01
1.924446133612076615e-01
1.792448935231751861e-01
1.663140703651609376e-01
1.536465279902669845e-01
1.412366505016025009e-01
1.290624205972758509e-01
1.170144975503590035e-01
1.049545942669213583e-01
9.274440479523039793e-02
8.024562318355180079e-02
6.731880175020514556e-02
5.380628163107363526e-02
3.953578494120138509e-02
2.433462138728240132e-02
8.030100676013632310e-03
-9.549924480851790243e-03
-2.851959823418424855e-02
-4.888433505717174749e-02
-7.063758745305868947e-02
-9.377280792510137020e-02
-1.182834489765444419e-01
-1.441177495276867448e-01
-1.710085257215261945e-01
-1.986245051975398523e-01
-2.266344049312946363e-01
-2.547069418983617384e-01
-2.825029480542319282e-01
-3.095744239602081782e-01
-3.353940386552946573e-01
-3.594326616308795019e-01
-3.811611623783484060e-01
-4.000511794890952433e-01
-4.156340651346357440e-01
-4.275425079330669731e-01
-4.354190272941393380e-01
-4.389061426276057443e-01
-4.376463733432162106e-01
-4.313580140029749654e-01
-4.200827098423940420e-01
-4.039483399858298518e-01
-3.830827843674100008e-01
-3.576139229212609294e-01
-3.276911025549129053e-01
-2.937218750646957699e-01
-2.562845782262317407e-01
-2.159605911390256594e-01
-1.733312929025904170e-01
-1.289786514093915759e-01
-8.351924209762312534e-02
-3.762287212843287709e-02
8.036119847550871054e-03
5.278339517972382988e-02
9.594461538731710593e-02
1.368971850894558639e-01
1.752163252565683282e-01
2.105245223338997607e-01
2.424442627666749672e-01
2.705980330001255263e-01
2.946327986446494740e-01
3.144536468737344492e-01
3.301204397431642956e-01
3.416951387030620069e-01
3.492397052035480787e-01
3.528187418958417254e-01
3.526181370280900840e-01
3.489930331794899310e-01
3.423111431274519223e-01
3.329401796493831611e-01
3.212478566285257298e-01
3.076111799213787634e-01
2.924389950133703397e-01
2.761469615637128783e-01
2.591507392316283465e-01
2.418659876763369354e-01
2.246962679280180009e-01
2.079327364003227263e-01
1.918055182108573398e-01
1.765441319265350639e-01
1.623780961142575752e-01
1.495333516401357032e-01
1.381042430617642203e-01
1.280183760442514529e-01
1.191926263717338341e-01
1.115438698283537922e-01
1.049889521841713691e-01
9.938875415261028134e-02
9.443208914892031736e-02
8.977481002949949662e-02
8.507276965074583863e-02
7.998182086905525345e-02
7.415784092889299295e-02
6.725690755861579717e-02
5.893519692443671687e-02
4.884888587349900391e-02
3.665415125293414178e-02
2.201229413782046507e-02
4.738654669544040132e-03
-1.517412070443757699e-02
-3.772357897478739730e-02
-6.290726713215777366e-02
-9.072257109573356182e-02
-1.210500999675101497e-01
-1.534478366911338210e-01
-1.874185166953490356e-01
-2.224648754089025848e-01
-2.580896482605356534e-01
-2.937746309700109970e-01
-3.288487749440290875e-01
-3.625732678695428035e-01
-3.942089933671756863e-01
-4.230168350575683189e-01
-4.482629230209090876e-01
-4.693444169002324307e-01
-4.857955343587768704e-01
-4.971569459756171039e-01
-5.029693223298182803e-01
-5.027737917356233099e-01
-4.962795529022115959e-01
-4.836137418454731218e-01
-4.649673619908191169e-01
-4.405314167636581457e-01
-4.104969095894074327e-01
-3.751086603717844747e-01
-3.349612837524963971e-01
-2.907891997984445309e-01
-2.433271962113376374e-01
-1.933100606928587761e-01
-1.414738007423985977e-01
-8.858008009769949287e-02
-3.541495269997768647e-02
1.723456112216434355e-02
6.858144104009589181e-02
1.178391997567955207e-01
1.643368737863958040e-01
2.076624977566831343e-01
2.474393448668502637e-01
2.832906883160986045e-01
3.148398013036242671e-01
3.417677963029692179e-01
3.640913125251364901e-01
3.819476793607245457e-01
3.954743850784806503e-01
4.048089179471583421e-01
4.100967409708327072e-01
4.116261889635379756e-01
4.098090223173784796e-01
4.050610607961738219e-01
3.977981241637436605e-01
3.884359366847825457e-01
3.773767311929323576e-01
3.649954263362796825e-01
3.516636415908680480e-01
3.377529964327397605e-01
3.236351103379390692e-01
3.096509514683873920e-01
2.959825206196007308e-01
2.827604409835429711e-01
2.701153100167456023e-01
2.581777251757333413e-01
2.470692136504153424e-01
2.367715664246525242e-01
2.271569124369930137e-01
2.180944361542810350e-01
2.094533220433654752e-01
2.011022643394212994e-01
1.928615860214406286e-01
1.844630438852072341e-01
1.756289314870045637e-01
1.660815423831145943e-01
1.555431701298208846e-01
1.437433032883222994e-01
1.304448318815571994e-01
1.154203313684735166e-01
9.844237822872420329e-02
7.928354894195355218e-02
5.772714694786329481e-02
3.369973090013611561e-02
7.229930730566769270e-03
-2.165143126108959315e-02
-5.291353277506416486e-02
-8.652380861742303697e-02
-1.223233655305632772e-01
-1.599438487686144494e-01
-1.989971894381855344e-01
-2.390953186458919522e-01
-2.798501674983419063e-01
-3.208361930168844856e-01
-3.614720260867532176e-01
-4.011358004333266392e-01
-4.392056496977234104e-01
-4.750597075210821751e-01
-5.080809371123964358e-01
-5.377085920302305810e-01
-5.634183119314388755e-01
-5.846863460489878372e-01
-6.009889436158295517e-01
-6.118053724545193806e-01
-6.167818857455821258e-01
-6.158157505061497838e-01
-6.088249382594064230e-01
-5.957274205285374435e-01
-5.764411700363120117e-01
-5.509807453541849531e-01
-5.197205424097323112e-01
-4.831187387696067592e-01
-4.416335120004405423e-01
-3.957230396688851126e-01
-3.458629769005797105e-01
-2.927077877498354130e-01
-2.370166901712043583e-01
-1.795502278802563467e-01
-1.210689445925520746e-01
-6.233241588684264312e-02
-4.058107553515294397e-03
5.309395530327839369e-02
1.084678748470009890e-01
1.614077532411059002e-01
2.112577075708692020e-01
2.574427499728496604e-01
2.996580731671738551e-01
3.376552085236516620e-01
3.711856874121124972e-01
4.000010412023654593e-01
4.238828728184257377e-01
4.428841453491471625e-01
4.572017316867078573e-01
4.670338248925630653e-01
4.725786180281720816e-01
4.740373098774378624e-01
4.717163556345227438e-01
4.660525908564391306e-01
4.574909538975411305e-01
4.464763831121850712e-01
4.334538085875804247e-01
4.188562296243810712e-01
4.030808802023027049e-01
3.865183207057545367e-01
3.695591115191374509e-01
3.525938130268607140e-01
3.359906653747858352e-01
3.199395361397248116e-01
3.045447784003568192e-01
2.899102071002361281e-01
2.761396371829136220e-01
2.633319578906367919e-01
2.514444992769481191e-01
2.402752811187728599e-01
2.296138317349461500e-01
2.192496794443048458e-01
2.089723071233329232e-01
1.985436306999626421e-01
1.876512799936941867e-01
1.759704978892956961e-01
1.631765272715288984e-01
1.489446110251617661e-01
1.329663301375921258e-01
1.150492832289744805e-01
9.505127307551571036e-02
7.283030324030970171e-02
4.824437728644762058e-02
2.115876977475122933e-02
-8.387042593480276143e-03
-4.017541891813186661e-02
-7.398065476406845420e-02
-1.095770456961479566e-01
-1.467386401307274046e-01
-1.851602193149604614e-01
-2.243442282044402769e-01
-2.637645056365278684e-01
-3.028948904486061799e-01
-3.412092214780363952e-01
-3.781800925071705510e-01
-4.132722198842527783e-01
-4.459472481580153413e-01
-4.756668148949443342e-01
-5.018925576615329565e-01
-5.240937002877013029e-01
-5.418929735552633353e-01
-5.550557934495065071e-01
-5.633529942427917270e-01
-5.665554102074794596e-01
-5.644345354246781410e-01
-5.568901937221504284e-01
-5.441030552990242519e-01
-5.262909565258536704e-01
-5.036717337731811961e-01
-4.764632234115596665e-01
-4.449201779678685909e-01
-4.095059027768404025e-01
-3.707568654228031169e-01
-3.292096126524425292e-01
-2.854006912124384399e-01
-2.398676025882186535e-01
-1.931643430803282047e-01
-1.458588408296893624e-01
-9.851946153436252906e-02
-5.171457089241349170e-02
-6.011987201194890496e-03
3.809115980766430987e-02
8.023749087576526051e-02
1.200860323160466425e-01
1.572958104414678981e-01
1.915258515649682636e-01
2.224792206226413604e-01
2.500814828496802367e-01
2.743283108319820585e-01
2.952154033619815987e-01
3.127384592321209578e-01
3.269029171509854059e-01
3.378592100836328438e-01
3.458690086911124784e-01
3.511968232385731525e-01
3.541071639911623770e-01
3.548647723228475215e-01
3.537555119844841833e-01
3.511030247381412561e-01
3.472348718025610737e-01
3.424786143964830831e-01
3.371618137386468428e-01
3.315869519438935376e-01
3.259430689254324554e-01
3.203871442940127157e-01
3.150761557083272546e-01
3.101670808270686752e-01
3.058048790618125290e-01
3.019791566656470083e-01
2.985713276701937868e-01
2.954606087843805184e-01
2.925262167171294170e-01
2.896464307341293232e-01
2.866359641367024480e-01
2.832065466453350666e-01
2.790605070517182540e-01
2.739001741475517449e-01
2.674278767245308330e-01
2.593552387624105116e-01
2.494315489060059399e-01
2.374156345149995850e-01
2.230663229498262012e-01
2.061424415709218749e-01
1.864161610938002145e-01
1.638104032915808084e-01
1.383433151457647003e-01
1.100345418139809794e-01
7.890372845384663325e-02
4.497291509743117643e-02
8.389033744031770823e-03
-3.051750069832631640e-02
-7.140161396302144303e-02
-1.139182317834115665e-01
-1.577222785894192292e-01
-2.024262392179163039e-01
-2.474885130535915412e-01
-2.923325406386554359e-01
-3.363817625153265878e-01
-3.790596192258149921e-01
-4.197893296092736204e-01
-4.579919112167187834e-01
-4.930871217049502819e-01
-5.244947038869895994e-01
-5.516344005758748725e-01
-5.739289006944849891e-01
-5.909224278211759884e-01
-6.023212595719006357e-01
-6.078429344475116958e-01
-6.072049909488554942e-01
-6.001249965919879248e-01
-5.864284518361242426e-01
-5.662922458049006735e-01
-5.399646559118946865e-01
-5.076939595706811970e-01
-4.697284341948437802e-01
-4.263514706434914370e-01
-3.781542841585298076e-01
-3.258875273444236109e-01
-2.703031987980504813e-01
-2.121532971162565229e-01
-1.521916717540776620e-01
-9.123394411101731771e-02
-3.017054172524230582e-02
3.010362017895949760e-02
8.869362637726693754e-02
1.447046336689369883e-01
1.973241599260709689e-01
2.459804716843322914e-01
2.901455907804014189e-01
3.292915390509686402e-01
3.628903383327189980e-01
3.904676133633725454e-01
4.119654985249698864e-01
4.275210807607399133e-01
4.372725584491007345e-01
4.413581299684752324e-01
4.399244723221837905e-01
4.333514144835352022e-01
4.222753305919547673e-01
4.073457654633965141e-01
3.892122639138205775e-01
3.685243767009316329e-01
3.459347076905987528e-01
3.221038863456603396e-01
2.976938450901593924e-01
2.733665163481351357e-01
2.497838325436306794e-01
2.275670052225259310e-01
2.070558948908317598e-01
1.884715412769846221e-01
1.720345631148618715e-01
1.579655791383332009e-01
1.464743559982286669e-01
1.375210624353007116e-01
1.308162692802282701e-01
1.260596952806375404e-01
1.229510591841601608e-01
1.211898674657629904e-01
1.204157151306854967e-01
1.201263351744011887e-01
1.197989284286626877e-01
1.189106957252210606e-01
1.169388378958288732e-01
1.133809324729405654e-01
1.078600673945319666e-01
1.000470774321431944e-01
8.961289027886970571e-02
7.622843362780043486e-02
5.957640860642970937e-02
3.956884531222006063e-02
1.632619133860525873e-02
-1.002352657091603455e-02
-3.935228167283306988e-02
-7.153131125351738784e-02
-1.063027589182566346e-01
-1.431329639286408884e-01
-1.814527707788642363e-01
-2.206930239631262891e-01
-2.602845679756197184e-01
-2.996394334614541632e-01
-3.380661342593072050e-01
-3.748377706977354951e-01
-4.092274121366866746e-01
-4.405081279361278135e-01
-4.679613767709160932e-01
-4.910084604851547851e-01
-5.091861578696399437e-01
-5.220347077236140443e-01
-5.290943488463086819e-01
-5.299069150099074976e-01
-5.242031699389149146e-01
-5.120786428370390775e-01
-4.936704716092779055e-01
-4.691157941606298731e-01
-4.385517483960992280e-01
-4.021939002416302644e-01
-3.606438553723313456e-01
-3.146217958731868380e-01
-2.648479357056399142e-01
-2.120424888311074896e-01
-1.569323663412964809e-01
-1.003408569225657521e-01
-4.316352896457094357e-02
1.370229701768629904e-02
6.935930050921472467e-02
1.229116103242195446e-01
1.735863699237617519e-01
2.208256540500265763e-01
2.640931842832826559e-01
3.028526822037921895e-01
3.365678693918377484e-01
3.647990188716119242e-01
3.875319661818297234e-01
4.048697590942299529e-01
4.169154489804853814e-01
4.237720872122593962e-01
4.255636813641681115e-01
4.226765359621101892e-01
4.156754941352309718e-01
4.051288225918486807e-01
3.916047880402825920e-01
3.756716925272501895e-01
3.579000842346701239e-01
3.388640672018312094e-01
3.191380602058935811e-01
2.992964820240214818e-01
2.799137514283493999e-01
2.615008038411649194e-01
2.443179036935529402e-01
2.285634528193922210e-01
2.144358530525534712e-01
2.021335062269159766e-01
1.918315472843809544e-01
1.834502312603753515e-01
1.767524901790083203e-01
1.714989359329438801e-01
1.674501804148442741e-01
1.643651851085796700e-01
1.619216483344915747e-01
1.596805826757102253e-01
1.571939738115122887e-01
1.540138074211763186e-01
1.496920705106371541e-01
1.438025389189450109e-01
1.359960861108721053e-01
1.259406298198864071e-01
1.133040877794521673e-01
9.775437772303774420e-02
7.898197298554426871e-02
5.689475095442719788e-02
3.152214359840396773e-02
2.894912866075544100e-03
-2.895617929396049339e-02
-6.399572101128557511e-02
-1.020061459416728156e-01
-1.425324560657962591e-01
-1.851037040111522258e-01
-2.292489424052290281e-01
-2.744972014117521564e-01
-3.203174164370095056e-01
-3.659877996411875500e-01
-4.107488140704431689e-01
-4.538409227709570004e-01
-4.945045887888862568e-01
-5.319870604374692391e-01
-5.655933861677450158e-01
-5.946578508887753189e-01
-6.185149659119519860e-01
-6.364992425486737382e-01
-6.479526012225524934e-01
-6.524528688436795898e-01
-6.498571774093769848e-01
-6.400388254144206979e-01
-6.228711113535904120e-01
-5.982275133138160728e-01
-5.661474893999417501e-01
-5.271436324134923801e-01
-4.818122852364186137e-01
-4.307497907506459001e-01
-3.745524918381228918e-01
-3.138526590302792574e-01
-2.495540503323843140e-01
-1.826844770481583780e-01
-1.142723883026963705e-01
-4.534623322108943810e-02
2.306869785975251830e-02
9.003029814959040422e-02
1.546859533379523199e-01
2.161874718035043941e-01
2.736866619249043175e-01
3.263357126392858465e-01
3.734542378569869481e-01
4.147912021609256872e-01
4.501634304552173393e-01
4.793877476439962759e-01
5.022809786313758851e-01
5.187229131353212619e-01
5.290166915255318791e-01
5.336399288247397621e-01
5.330707840533025488e-01
5.277874162315792095e-01
5.182725507834520240e-01
5.051098080408100710e-01
4.889814595183239465e-01
4.705738943179866851e-01
4.505735015417964284e-01
4.296663232849300407e-01
4.084516370882300684e-01
3.873282148174728157e-01
3.666665922658736143e-01
3.468373052266331413e-01
3.282108894929662846e-01
3.111005889794196122e-01
2.954760605225916770e-01
2.811794586911009475e-01
2.680527278742643738e-01
2.559378124613951311e-01
2.446680253679014427e-01
2.339147423623719746e-01
2.232054458525313256e-01
2.120626113248134104e-01
2.000087142656550854e-01
1.865664738673829537e-01
1.712973363744975108e-01
1.538435278283575569e-01
1.338573824632225406e-01
1.109912345133418632e-01
8.489741821297352997e-02
5.529045866341442128e-02
2.221817602145337300e-02
-1.416042721341193023e-02
-5.368627150065730103e-02
-9.620027729975211273e-02
-1.415252652616295626e-01
-1.891928159249304242e-01
-2.384993909187476113e-01
-2.887347377710320351e-01
-3.391886040097611410e-01
-3.891501722004488406e-01
-4.378470391454081234e-01
-4.843906738886423757e-01
-5.278796764439004363e-01
-5.674126468249059974e-01
-6.020881850453917439e-01
-6.310585020796680711e-01
-6.537329084366609866e-01
-6.695976930660330062e-01
-6.781391591167937882e-01
-6.788436097379531020e-01
-6.712290699100629254e-01
-6.552550488953872154e-01
-6.312047082462848291e-01
-5.993686505332631587e-01
-5.600374783268118328e-01
-5.135049637215343132e-01
-4.603153161184853626e-01
-4.014402271064995142e-01
-3.378931722345610567e-01
-2.706876270516860306e-01
-2.008370671068798741e-01
-1.293761085509391728e-01
-5.743016521219512782e-02
1.385097759592890387e-02
8.331753425733073870e-02
1.498197191558964247e-01
2.122343698182618255e-01
2.697610929874735275e-01
3.218142155745213895e-01
3.678119459807982494e-01
4.071724926077181506e-01
4.393194912029275701e-01
4.640005402721665284e-01
4.814644181055828254e-01
4.920029029356919326e-01
4.959077729949994406e-01
4.934708067139020882e-01
4.850788989592956790e-01
4.714849363572165553e-01
4.535298216184140974e-01
4.320544574536366866e-01
4.078997465736374783e-01
3.818987571178829588e-01
3.548013154342002373e-01
3.273070440146029769e-01
3.001148727100216851e-01
2.739237313713721589e-01
2.494270609975160480e-01
2.270627550915027548e-01
2.069100508147234674e-01
1.890213291175935062e-01
1.734489709505390720e-01
1.602453455722962772e-01
1.493518798569147543e-01
1.403274017110462402e-01
1.326483234430453906e-01
1.257910573612647798e-01
1.192320157740579534e-01
1.124465596189246352e-01
1.049002100841660567e-01
9.605311428626112091e-02
8.536536487669649231e-02
7.229705450695272928e-02
5.631452324975677604e-02
3.711678619095287734e-02
1.469934316169574373e-02
-1.092306120435793115e-02
-3.973568227353951876e-02
-7.172370487331494737e-02
-1.067314917256449169e-01
-1.441676880862032273e-01
-1.833569262888288809e-01
-2.236238386673679857e-01
-2.642930575556581285e-01
-3.046735540508517248e-01
-3.439446382565949367e-01
-3.812215761793580349e-01
-4.156191804893130670e-01
-4.462522638566503441e-01
-4.722420906780377958e-01
-4.929060906998424252e-01
-5.077887657145963018e-01
-5.164472920898249830e-01
-5.184388461930454772e-01
-5.133208496838156387e-01
-5.008370578365741732e-01
-4.812492457853210781e-01
-4.549084867420367662e-01
-4.221658539187003734e-01
-3.833724205272982521e-01
-3.389300873612970388e-01
-2.896143301689702576e-01
-2.363672544934001807e-01
-1.801317347143828462e-01
-1.218506452116837058e-01
-6.246685476663817876e-02
-2.923090863637151093e-03
5.583806764422585833e-02
1.128740489704010419e-01
1.672422813283069853e-01
2.180005705129378912e-01
2.643503103351313999e-01
3.058521534278490495e-01
3.421220249667845104e-01
3.727758501276393077e-01
3.974295540861119136e-01
4.157690345583012204e-01
4.279380774899123052e-01
4.342646051895745485e-01
4.350770414563217559e-01
4.307038100891880661e-01
4.214821675866275985e-01
4.079369743657084713e-01
3.907724430580326591e-01
3.706999676069587801e-01
3.484309419558550558e-01
3.246765348090294712e-01
3.000977184648578877e-01
2.752422448258043941e-01
2.506423545718543533e-01
2.268302883829975969e-01
2.043382869392114942e-01
1.836366000455921799e-01
1.648334724856218569e-01
1.479061187678648026e-01
1.328315726694623278e-01
1.195868679675654023e-01
1.081362514443251210e-01
9.821277623073512708e-02
8.934864048003016146e-02
8.106936075023535304e-02
7.290045359937435965e-02
6.436755208555738905e-02
5.501313111413919099e-02
4.441396661172680727e-02
3.215100708778456662e-02
1.780520105178012846e-02
9.574970131736582069e-04
-1.874269855607968438e-02
-4.128860124346178662e-02
-6.655718911254054904e-02
-9.442537788867244597e-02
-1.247700832972002405e-01
-1.574486139876274393e-01
-1.920135909692257115e-01
-2.277771648481092259e-01
-2.640449485762078052e-01
-3.001225551054573226e-01
-3.353153332700373190e-01
-3.689020563042474943e-01
-4.001125517323916303e-01
-4.281713788255161468e-01
-4.523030968546646879e-01
-4.717322650908925552e-01
-4.857590966201589811e-01
-4.940373014405551322e-01
-4.963237529338037635e-01
-4.923753367590308905e-01
-4.819489385753616961e-01
-4.648324466586709058e-01
-4.412311911635862782e-01
-4.116496360224893292e-01
-3.765987593168620973e-01
-3.365895391281836790e-01
-2.921349206199175264e-01
-2.438928692961012112e-01
-1.927632043545912388e-01
-1.396686813819937867e-01
-8.553205596492508000e-02
-3.127608368997195076e-02
2.220726936467687374e-02
7.415489794879248642e-02
1.238374031192637781e-01
1.705253860436554691e-01
2.134894478895057457e-01
2.520291247399829571e-01
2.857838531506382562e-01
3.146140492072624362e-01
3.383838886148897718e-01
3.569575470785597560e-01
3.702029031171717444e-01
3.781957672932575454e-01
3.813263147936103437e-01
3.800108568594549041e-01
3.746657047320098299e-01
3.657071699468754100e-01
3.535829127265378014e-01
3.388581412685824357e-01
3.221256103831290352e-01
3.039780748802756172e-01
2.850082895701444019e-01
2.657947035088582544e-01
2.467683011001447491e-01
2.282731716311865444e-01
2.106522851959274079e-01
1.942486118883124668e-01
1.794009151908569077e-01
1.662625137075616211e-01
1.547323224448226286e-01
1.446908244345964378e-01
1.360185027088417764e-01
1.285958297510279569e-01
1.222398830650053697e-01
1.165546485419223510e-01
1.110993877618468573e-01
1.054333623048386848e-01
9.911583375096569282e-02
9.171331319225643763e-02
8.285820697908427568e-02
7.221807406968611120e-02
5.946080250869736905e-02
4.425428034075050421e-02
2.627257299926455403e-02
5.408721541456384951e-03
-1.817145102409542523e-02
-4.428501992598202208e-02
-7.274906039279738224e-02
-1.033805745690906663e-01
-1.358843820645336820e-01
-1.696268778713368452e-01
-2.039108928325378822e-01
-2.380392577912224250e-01
-2.713148035904269784e-01
-3.030388775656825961e-01
-3.325008877343796909e-01
-3.589844839055096881e-01
-3.817732787709728348e-01
-4.001508850226641600e-01
-4.134099249164278067e-01
-4.211048516382216444e-01
-4.230864465188356460e-01
-4.192214330444910542e-01
-4.093765347014015066e-01
-3.934187576854342172e-01
-3.713942081607106704e-01
-3.438346347682185722e-01
-3.113533065401773992e-01
-2.745634925087649947e-01
-2.340784617062079687e-01
-1.905385974260888904e-01
-1.447781495522791340e-01
-9.771577048614626948e-02
-5.027046023100403827e-02
-3.361218790165515502e-03
4.209980890034506484e-02
8.536641837360325891e-02
1.258630767198454237e-01
1.630220525486483774e-01
1.962756144696424232e-01
2.250565630783394333e-01
2.489740611533001746e-01
2.680678303786829253e-01
2.824420654940630881e-01
2.922009612390372713e-01
2.974487123531956434e-01
2.983349350852797510e-01
2.952985655768701756e-01
2.888920582637483081e-01
2.796681354115295171e-01
2.681795192858245636e-01
2.549774205087851908e-01
2.405821662458849652e-01
2.254852154419664800e-01
2.101769190210303617e-01
1.951476279070560871e-01
1.808870764366324879e-01
1.677618451594179438e-01
1.558673665392903696e-01
1.452629401304161294e-01
1.360078654869488202e-01
1.281614421630438982e-01
1.217363938879891805e-01
1.164805745024566075e-01
1.120483348050402006e-01
1.080939191824117074e-01
1.042715720212439023e-01
1.002341971803082377e-01
9.561132846467590429e-02
9.001264920104379286e-02
8.304721198762154977e-02
7.432406942261016169e-02
6.345312386511398062e-02
5.015646593153633148e-02
3.437930173745912255e-02
1.609321714770395317e-02
-4.730201972923953058e-03
-2.811936975962270324e-02
-5.403754157933243762e-02
-8.211660699125794549e-02
-1.118833798974558369e-01
-1.428646318069857202e-01
-1.745871342289098127e-01
-2.065693550673234347e-01
-2.382050905064336810e-01
-2.687919462667016091e-01
-2.976250410952529513e-01
-3.239994937392553509e-01
-3.472114423238438774e-01
-3.666519691233783296e-01
-3.818829641933581542e-01
-3.924841701512217229e-01
-3.980353296144254482e-01
-3.981161852004186374e-01
-3.924018162813643351e-01
-3.810013520046132696e-01
-3.641473811408760808e-01
-3.420725011745293642e-01
-3.150093095899423878e-01
-2.832136404490206427e-01
-2.472441410880781842e-01
-2.078715545949905985e-01
-1.658709928985574178e-01
-1.220175679275211783e-01
-7.708638900629960489e-02
-3.185238592818888381e-02
1.290980406057640195e-02
5.642557062459946371e-02
9.792030342853119684e-02
1.366193921370202347e-01
1.718366285877732658e-01
2.032463392211394382e-01
2.306147493843841989e-01
2.537080844491683695e-01
2.722925697871481088e-01
2.861659774543676704e-01
2.954852651979635869e-01
3.006355906274893464e-01
3.020057590658480340e-01
2.999845758359449555e-01
2.949622472939221751e-01
2.874031178690437116e-01
2.778810763245931348e-01
2.669788337906702225e-01
2.552791013973689793e-01
2.433645887032014343e-01
2.317554603915383815e-01
2.207433312017434979e-01
2.105676256409245717e-01
2.014677682161785111e-01
1.936831834346017800e-01
1.874227424468807301e-01
1.825896805602302830e-01
1.789112806901944630e-01
1.761127148286107391e-01
1.739191549673116954e-01
1.720538098954442763e-01
1.701578317864940182e-01
1.677623352439725490e-01
1.643907240144617532e-01
1.595664018445424048e-01
1.528127865149357945e-01
1.437103765406555489e-01
1.320266934282527949e-01
1.175675027930505046e-01
1.001385702503552189e-01
7.954566141547436686e-02
5.563035572275287777e-02
2.855046873835487276e-02
-1.371418568762994283e-03
-3.381130464089743271e-02
-6.844518792039222532e-02
-1.049446794990185339e-01
-1.428332072364604244e-01
-1.814537317440092501e-01
-2.201382907459632499e-01
-2.582189219666604085e-01
-2.950276764144864616e-01
-3.299126738731034125e-01
-3.622693012209475261e-01
-3.915015927581758648e-01
-4.170135827849816290e-01
-4.382093056015524679e-01
-4.545273525921665891e-01
-4.656767200940715723e-01
-4.714937324595167567e-01
-4.718154583978464434e-01
-4.664789666184137040e-01
-4.553300086265672508e-01
-4.384557307802805504e-01
-4.162103939271160069e-01
-3.889621021723694838e-01
-3.570789596213119754e-01
-3.209292207707890032e-01
-2.809616067388381877e-01
-2.378376736543613701e-01
-1.922537634573415755e-01
-1.449062180878104567e-01
-9.649137948573427437e-02
-4.770045635991837507e-02
8.110525134986668050e-04
4.840282164206666238e-02
9.443458098026513703e-02
1.382660604826249640e-01
1.792651642908765219e-01
2.169897192213472992e-01
2.511885455549223711e-01
2.816188519197334039e-01
3.080378469439488676e-01
3.302031714514408467e-01
3.479983275372904306e-01
3.616066627220277940e-01
3.712552192483300484e-01
3.771710393588646459e-01
3.795811652963102523e-01
3.787340350391720234e-01
3.750107591048091882e-01
3.688432330153889049e-01
3.606634551373586461e-01
3.509034238371604442e-01
3.399900593585621911e-01
3.282504266316168540e-01
3.159203284155312486e-01
3.032322123391701929e-01
2.904185260313859596e-01
2.777110839071000314e-01
2.652277750402445289e-01
2.528416248961630197e-01
2.403939250386625814e-01
2.277259670315637252e-01
2.146790424386684770e-01
2.010738047015269425e-01
1.866166019153301381e-01
1.709744311091554447e-01
1.538142529558397809e-01
1.348030281282036058e-01
1.136160914436432079e-01
9.006961647512895519e-02
6.409673452139375005e-02
3.563412307170585325e-02
4.618459615306325095e-03
-2.901222206007034177e-02
-6.515577604850453231e-02
-1.033913262972947777e-01
-1.432613766943210409e-01
-1.843084311274199028e-01
-2.260749934844859532e-01
-2.680621029892349405e-01
-3.095653656455379932e-01
-3.498168826387710872e-01
-3.880487365424761248e-01
-4.234930099302389173e-01
-4.553900473656477543e-01
-4.831000969812103696e-01
-5.060738424337873909e-01
-5.237641883952675048e-01
-5.356240395375650998e-01
-5.411088427751149510e-01
-5.398938004459643558e-01
-5.320403199439616149e-01
-5.176489960257711909e-01
-4.968204234480741999e-01
-4.696551969675258897e-01
-4.363487548923115078e-01
-3.975172871369277994e-01
-3.538936197545377027e-01
-3.062105831188474125e-01
-2.552010076035193253e-01
-2.016061828339064665e-01
-1.462741312186556231e-01
-9.012594244303628876e-02
-3.408412776882974171e-02
2.092880154224299738e-02
7.399236868716274618e-02
1.243174930828810087e-01
1.713243114752768526e-01
2.144516228620635956e-01
2.531382262409092032e-01
2.868229206106367446e-01
3.150548347673486349e-01
3.378215725603869179e-01
3.552196501447378862e-01
3.673455836753700132e-01
3.742958893072708682e-01
3.761944578313594079e-01
3.734673720581237477e-01
3.667283225465703955e-01
3.565938122243768049e-01
3.436803440192148784e-01
3.286047148585102828e-01
3.119984050299918765e-01
2.945140995079273960e-01
2.768061370053584991e-01
2.595288562353459949e-01
2.433365913308612738e-01
2.287957529838474668e-01
2.161596356630148819e-01
2.056118617819939209e-01
1.973360537544259774e-01
1.915158339939408150e-01
1.882960632761431774e-01
1.874452209869925667e-01
1.885201098129150599e-01
1.910751725962624159e-01
1.946648521793873932e-01
1.988407596251975384e-01
2.030421441441428720e-01
2.065609621509794658e-01
2.086791912206681920e-01
2.086788089281680636e-01
2.058418192324903417e-01
1.995265813779699138e-01
1.893353309806107276e-01
1.749188894386770055e-01
1.559280781504507329e-01
1.320137185141993519e-01
1.028830184736765352e-01
6.872696365287844777e-02
2.998269982661716515e-02
-1.291067879535978680e-02
-5.951407800325830832e-02
-1.093802469791815279e-01
-1.617991777485379146e-01
-2.157480064464147862e-01
-2.701855970990828526e-01
-3.240708137327552585e-01
-3.763625428303774001e-01
-4.260415234676662166e-01
-4.721511786984805559e-01
-5.137461009050477978e-01
-5.498808824695328168e-01
-5.796101157741474497e-01
-6.020517538937011359e-01
-6.168058784641489156e-01
-6.236942050684319838e-01
-6.225396191576526572e-01
-6.131650061829165832e-01
-5.954085224740554017e-01
-5.695148119583488544e-01
-5.361683030293766805e-01
-4.960753672760332411e-01
-4.499423762872559740e-01
-3.984759099977686070e-01
-3.424777476640141760e-01
-2.829953134533811365e-01
-2.211151182166606888e-01
-1.579236728047295757e-01
-9.450748806839864846e-02
-3.192421857436511523e-02
2.896382254026685921e-02
8.737532179476270588e-02
1.425292266339857061e-01
1.936444845027420758e-01
2.399545046199235143e-01
2.810154322186838582e-01
3.167007506825445518e-01
3.468973254999531131e-01
3.714920221593227545e-01
3.903722872370302133e-01
4.035752398007501629e-01
4.114859879407938292e-01
4.145389823325813516e-01
4.131686736515253755e-01
4.078095125730421544e-01
3.989119893070282585e-01
3.870234289146733397e-01
3.727273151318594713e-01
3.566071938930199803e-01
3.392466111326059020e-01
3.212230843588486096e-01
3.029999705088718964e-01
2.849386133550905753e-01
2.673967673686812874e-01
2.507321870208392700e-01
2.353019108467693243e-01
2.213464116057322351e-01
2.088615612734444626e-01
1.978124081720121774e-01
1.881640006235581475e-01
1.798813869501933727e-01
1.728916590299033329e-01
1.669171500431565203e-01
1.616114561614270806e-01
1.566281229702096989e-01
1.516206960550048610e-01
1.462415725124800447e-01
1.401245062983180190e-01
1.328881153745279375e-01
1.241505802074377995e-01
1.135300812633865397e-01
1.006456613078889339e-01
8.521230621861228260e-02
6.712698481495416036e-02
4.630697964114804943e-02
2.266957324145532637e-02
-3.867951839884697929e-03
-3.332268291685305805e-02
-6.539491303975769609e-02
-9.968947500234012771e-02
-1.358111821523775298e-01
-1.733648478376079716e-01
-2.119427271566303728e-01
-2.509608360630074531e-01
-2.897052523880982444e-01
-3.274590264154936259e-01
-3.635052084287440088e-01
-3.971274003627047744e-01
-4.276535697019430149e-01
-4.544878555334839199e-01
-4.770418984108908411e-01
-4.947273388876927136e-01
-5.069558175174431192e-01
-5.132258329708649924e-01
-5.134113569475384775e-01
-5.074877962163670819e-01
-4.954305591715619794e-01
-4.772150542073518853e-01
-4.528459275449001620e-01
-4.226851196839793712e-01
-3.873336264236608706e-01
-3.473968298276857158e-01
-3.034801119598360408e-01
-2.561904155293187602e-01
-2.062292980052740088e-01
-1.544455337234388326e-01
-1.017006269834324073e-01
-4.885608208494851556e-02
3.226596727490316230e-03
5.373139069963889236e-02
1.020184361467290080e-01
1.474905071570973281e-01
1.895503778190768540e-01
2.276008222209560117e-01
2.610746510008271071e-01
2.897262498528898056e-01
3.135050768437119273e-01
3.323633271204493589e-01
3.462531958302402790e-01
3.551307299221395652e-01
3.591338099522276561e-01
3.586569766779562629e-01
3.541141474968795277e-01
3.459192398065460416e-01
3.344861736181248268e-01
3.202570346530513312e-01
3.037716672111743232e-01
2.855911109074527054e-01
2.662764053568451583e-01
2.463885901743281259e-01
2.264773262995596337e-01
2.069849977482334236e-01
1.882950533370073565e-01
1.707903328882978133e-01
1.548536762245515952e-01
1.408636913334868623e-01
1.290393919091228359e-01
1.193952742720151283e-01
1.119324446866784006e-01
1.066520094176297562e-01
1.035550364223544184e-01
1.025605626156967931e-01
1.033321976021341904e-01
1.054839772625409955e-01
1.086299374777935922e-01
1.123841141287652556e-01
1.163498314819448320e-01
1.200410987322496070e-01
1.229275458851673553e-01
1.244784815629707830e-01
1.241632143879282668e-01
1.214548990052378430e-01
1.159449743343393679e-01
1.073625739136587764e-01
9.544458749195317004e-02
7.992790481797446001e-02
6.054958464776594163e-02
3.718132639188809208e-02
1.007148656021039645e-02
-2.046621686850613742e-02
-5.411806591550438750e-02
-9.057034260199248177e-02
-1.294677187194926971e-01
-1.701469144820186852e-01
-2.118064584338354983e-01
-2.536442236878881928e-01
-2.948580833570597637e-01
-3.346460780434119542e-01
-3.722105203618715219e-01
-4.067582420349533656e-01
-4.374962917422766662e-01
-4.636317181634581619e-01
-4.843719360130025464e-01
-4.990686016497799526e-01
-5.074364927736692010e-01
-5.092466321216087000e-01
-5.042700424305270879e-01
-4.922777464373594425e-01
-4.731137644813062648e-01
-4.471030423235444751e-01
-4.147651175598877082e-01
-3.766200763840746313e-01
-3.331880049898948148e-01
-2.849989471300464761e-01
-2.327965271438178774e-01
-1.775297071456873044e-01
-1.201557574461556976e-01
-6.163194835572148589e-02
-2.915401734234546183e-03
5.507079129845066090e-02
1.114807637179339173e-01
1.654793014417992036e-01
2.162311903876271701e-01
2.629012164729443990e-01
3.047157566244004245e-01
3.412632550762891293e-01
3.722640291382816047e-01
3.974385865382217831e-01
4.165074350039134621e-01
4.292090124237826765e-01
4.356089339647966074e-01
4.360586642779923361e-01
4.309192853393235545e-01
4.205518791247355725e-01
4.053182839305474738e-01
3.856922505462211381e-01
3.623768198260626239e-01
3.361031231009597442e-01
3.076022917017954827e-01
2.776054569594840205e-01
2.468309339396895785e-01
2.159296916784254894e-01
1.855306556834915299e-01
1.562627388277392781e-01
1.287548539840612793e-01
1.036185477560829238e-01
8.119315064912102642e-02
6.160193077770159675e-02
4.496220897215330581e-02
3.139130606280859936e-02
2.100471418434057824e-02
1.373025204053268666e-02
9.148052221939595441e-03
6.800549768469110745e-03
6.230179720029038748e-03
6.979377116528961977e-03
8.563967150167162146e-03
1.037462852252390988e-02
1.176528266840781711e-02
1.208984610825414308e-02
1.070223536249303997e-02
6.972950524794185867e-03
4.976302790609121729e-04
-8.965833010258883462e-03
-2.165596492690458064e-02
-3.781129105462244233e-02
-5.766691924857908491e-02
-8.120163910197324142e-02
-1.079642836964158636e-01
-1.374626006873082007e-01
-1.692043377300549434e-01
-2.026972424800277395e-01
-2.373788026599275014e-01
-2.723905445669141390e-01
-3.067960777643303771e-01
-3.396590114361810464e-01
-3.700429547664216834e-01
-3.970252387217074741e-01
-4.198456565872401569e-01
-4.378502323847319744e-01
-4.503868253822642664e-01
-4.568032948479121558e-01
-4.564531140661438613e-01
-4.490098105041115950e-01
-4.346335766611413298e-01
-4.135253868652584153e-01
-3.858862154444682169e-01
-3.519170376450915239e-01
-3.119521257590101015e-01
-2.668288125819240353e-01
-2.175030851487160799e-01
-1.649309304942235821e-01
-1.100683356532781154e-01
-5.387498541736775171e-02
2.651030085280087212e-03
5.848885803111592008e-02
1.126173472731974989e-01
1.640153466645796199e-01
2.116673188230309144e-01
2.548085731997218328e-01
2.930205099723970363e-01
3.259098126091424241e-01
3.530831645780980743e-01
3.741472723379166698e-01
3.888626429690802411e-01
3.975100797950363862e-01
4.004802998280296844e-01
3.981640200803111540e-01
3.909519575641271505e-01
3.792592693655399971e-01
3.637248863597178916e-01
3.451078191370955395e-01
3.241682252650952556e-01
3.016662623111360242e-01
2.783595333776944791e-01
2.549139750058110887e-01
2.318806851621786902e-01
2.098034990320434279e-01
1.892262518006200545e-01
1.706927058386693563e-01
1.546275609649912508e-01
1.410940590016390994e-01
1.300871043321714104e-01
1.216016013401315793e-01
1.156324544090667067e-01
1.121387271499347527e-01
1.107889921344970136e-01
1.111108818683614052e-01
1.126310985081695054e-01
1.148763442105644322e-01
1.173720567956504923e-01
1.196065162130191817e-01
1.210257112686200232e-01
1.210733343851466970e-01
1.191930779852940492e-01
1.148287625140426149e-01
1.075089721035079326e-01
9.699356964764752065e-02
8.308149996263472503e-02
6.557170786463276113e-02
4.426313816979915439e-02
1.900535859474328237e-02
-9.987612129233158775e-03
-4.234212109061720464e-02
-7.768383863575409332e-02
-1.156384351109932818e-01
-1.558236296154517087e-01
-1.976626604848750191e-01
-2.403776126113623124e-01
-2.831812846276106077e-01
-3.252864751663769871e-01
-3.659060309594590610e-01
-4.042692886669453922e-01
-4.396460898540748286e-01
-4.713123826606669953e-01
-4.985441152265798759e-01
-5.206172356916652921e-01
-5.368621202616823407e-01
-5.469581756573913545e-01
-5.507226018332460615e-01
-5.479729360016578621e-01
-5.385267153750287195e-01
-5.222176600557333348e-01
-4.992133202303625783e-01
-4.699950530445965446e-01
-4.350563891055002075e-01
-3.948908590200932434e-01
-3.499925092176285890e-01
-3.009612222432375694e-01
-2.486313101944711002e-01
-1.938685424819485137e-01
-1.375386885162340755e-01
-8.050751770788924788e-02
-2.362575762476459840e-02
3.234197305568588254e-02
8.666164434255052562e-02
1.385992628229132384e-01
1.874208350838544312e-01
2.324067036478145998e-01
2.730894107967176687e-01
3.092169285223644870e-01
3.405441534452604002e-01
3.668259821859577996e-01
3.878185017323914630e-01
4.034385062172501923e-01
4.139243023319038595e-01
4.195524824342473091e-01
4.205996388821872656e-01
4.173423640336235696e-01
4.100936707034987250e-01
3.993530034432636877e-01
3.856793008620312269e-01
3.696315274193097133e-01
3.517686475746042429e-01
3.326470199403548378e-01
3.127835421758121126e-01
2.926644927556016351e-01
2.727753484127328210e-01
2.536015858801862755e-01
2.356273552575968711e-01
2.192108671619857896e-01
2.044824311069688982e-01
1.915483606068294486e-01
1.805149691758355379e-01
1.714885703282572060e-01
1.645083029137267561e-01
1.593054820356338830e-01
1.555233019829159735e-01
1.528049498888118807e-01
1.507936128865565162e-01
1.491235309796248854e-01
1.473113948433112941e-01
1.447910900510306076e-01
1.409947724056098417e-01
1.353545977098740971e-01
1.273041525095470194e-01
1.163773012588566191e-01
1.022722607106226200e-01
8.470248216810012665e-02
6.338141693452986614e-02
3.802251631314718106e-02
8.446670840730238772e-03
-2.508421214711371861e-02
-6.219508278607385754e-02
-1.025108911411557466e-01
-1.456565872774197579e-01
-1.912291605615988321e-01
-2.385047580402551159e-01
-2.865545091124129251e-01
-3.344462139674456713e-01
-3.812476727947781696e-01
-4.260270566234843903e-01
-4.678724506774400993e-01
-5.059015339461885308e-01
-5.392343879112126981e-01
-5.669910940540355826e-01
-5.882917364895582368e-01
-6.023864774295428770e-01
-6.090038818147749389e-01
-6.079824692941303566e-01
-5.991607595164879507e-01
-5.823772721307197697e-01
-5.575222437927284114e-01
-5.250071370376917512e-01
-4.855452348867219659e-01
-4.398535069826943200e-01
-3.886489229684416680e-01
-3.326521434569336133e-01
-2.727401511354811126e-01
-2.100007509114525384e-01
-1.455366452823542156e-01
-8.045053674562530066e-02
-1.584511255753456860e-02
4.724493019553682727e-02
1.080090890792151925e-01
1.656830065594731560e-01
2.195023251022236166e-01
2.687026871734577438e-01
3.125686047414197311e-01
3.508192360185808933e-01
3.834015403122243981e-01
4.102644824242845378e-01
4.313570271567308545e-01
4.466348010337148899e-01
4.562811444483896861e-01
4.607582941690214762e-01
4.605455172790492435e-01
4.561220808619174116e-01
4.479672624808823667e-01
4.365737663924098566e-01
4.224740417901000078e-01
4.062078571468816790e-01
3.883149809357000493e-01
3.693351816294768719e-01
3.497852278078930066e-01
3.300006501564457517e-01
3.102311251814178217e-01
2.907258148710535339e-01
2.717338812135742243e-01
2.534989494903062690e-01
2.361090135183017691e-01
2.194788814685325606e-01
2.035143013932952383e-01
1.881210213448683555e-01
1.732047141854771155e-01
1.586291331467166721e-01
1.441464635163144381e-01
1.294905336349164715e-01
1.143951718431837072e-01
9.859420648175654112e-02
8.182936576089944181e-02
6.389771148243700294e-02
4.461996048334293530e-02
2.381691871730590160e-02
1.309392137995080141e-03
-2.307533091386609891e-02
-4.935780561180413972e-02
-7.740471007417526472e-02
-1.070758959047032333e-01
-1.382312147071427244e-01
-1.707301858607437328e-01
-2.043324609980269324e-01
-2.385583148470786785e-01
-2.728929006463025608e-01
-3.068213716340641994e-01
-3.398288810487777312e-01
-3.713885918747579229e-01
-4.008988168542566566e-01
-4.277290393863497631e-01
-4.512486821587804453e-01
-4.708271678593225484e-01
-4.858430216347888742e-01
-4.958554672204513736e-01
-5.005898087666353913e-01
-4.997775227243558271e-01
-4.931500855446306897e-01
-4.804400278665444946e-01
-4.615744784261527345e-01
-4.369013435937145751e-01
-4.068234437455910957e-01
-3.717435992581761828e-01
-3.320646305078179816e-01
-2.882445263212798370e-01
-2.410488516077320398e-01
-1.913497258171386051e-01
-1.400193722841149846e-01
-8.793001434322378351e-02
-3.594979716711277362e-02
1.512233731418710647e-02
6.454524150095775070e-02
1.115795409319564335e-01
1.554858611459923878e-01
1.955264001037613220e-01
2.311577493861034505e-01
2.622162841816080281e-01
2.885823289665161440e-01
3.101362082170453505e-01
3.267582464094394012e-01
3.384056911375949994e-01
3.454193935619607192e-01
3.482595449314114244e-01
3.473863745214800236e-01
3.432601116077047543e-01
3.363447935891998863e-01
3.271601930971844152e-01
3.162683595972521911e-01
3.042323943844832956e-01
2.916153987539711334e-01
2.789790916792882491e-01
2.667634807200390812e-01
2.551934205961969848e-01
2.444717721644300568e-01
2.348013962814166078e-01
2.263851538038244016e-01
2.193582992425666678e-01
2.135542173965865320e-01
2.087220714775306352e-01
2.046110209781790701e-01
2.009702253913072667e-01
1.975408052501332890e-01
1.939616317588623851e-01
1.898011764798701595e-01
1.846265214218920647e-01
1.780047485936666618e-01
1.695040659270345973e-01
1.587665804212793352e-01
1.455527472767874642e-01
1.296336602231057400e-01
1.107804129897972389e-01
8.876409930640849488e-02
6.343142336766016687e-02
3.493153122901140883e-02
3.489179411060916447e-03
-3.067087556555011391e-02
-6.732387718021332068e-02
-1.062228637273774923e-01
-1.468738521647849904e-01
-1.886286142124877219e-01
-2.308365715165341947e-01
-2.728471457229278418e-01
-3.140090178105979790e-01
-3.536333439738623685e-01
-3.909767789360202306e-01
-4.252916924521841224e-01
-4.558304542774292423e-01
-4.818454373547795266e-01
-5.026612114281938659e-01
-5.178611163290454122e-01
-5.270864456989642344e-01
-5.299784931795625820e-01
-5.261785524124641400e-01
-5.153711150649117334e-01
-4.976632533099320521e-01
-4.734010920375386622e-01
-4.429334711477777020e-01
-4.066092305407291163e-01
-3.647829254148324818e-01
-3.180388294984612951e-01
-2.672640635937330034e-01
-2.133664406043140060e-01
-1.572537734339289894e-01
-9.983387400369916898e-02
-4.201147068538654827e-02
1.531861982720594817e-02
7.126356840575243101e-02
1.249305459218469916e-01
1.754267232471438676e-01
2.219006330414996508e-01
2.638582319409138455e-01
3.009884253429558343e-01
3.329815984912683491e-01
3.595281366294614256e-01
3.803276413062249839e-01
3.953801137082527117e-01
4.050452551686744562e-01
4.097039642272803928e-01
4.097371394238566444e-01
4.055257411751628238e-01
3.975141971692350840e-01
3.863301371849776067e-01
3.726340510838180853e-01
3.570864287272019766e-01
3.403477599765602490e-01
3.230559949889632021e-01
3.056763738216899950e-01
2.885942628552302103e-01
2.721945957737696986e-01
2.568623062615112973e-01
2.429732717697748456e-01
2.306596902880374556e-01
2.197886320073522137e-01
2.102138116468368900e-01
2.017889439256187467e-01
1.943675671552506090e-01
1.877194508293696940e-01
1.813968736627518119e-01
1.749172745403934637e-01
1.677980923473004204e-01
1.595567659684719863e-01
1.497217407041925852e-01
1.378964780811280932e-01
1.237157363022359235e-01
1.068143776833910125e-01
8.682726454048669829e-02
6.339992356737970958e-02
3.641826812354582998e-02
6.005910361160771149e-03
-2.770341078549487523e-02
-6.457595638210383848e-02
-1.044774217638417546e-01
-1.471233353871866656e-01
-1.918779570386500988e-01
-2.380553965577527353e-01
-2.849697637839505582e-01
-3.319351685567488719e-01
-3.782434629882670540e-01
-4.230512234898707868e-01
-4.654641990828405351e-01
-5.045880476208023380e-01
-5.395284269573398239e-01
-5.694006182268445126e-01
-5.935038531442299314e-01
-6.113026686842212287e-01
-6.222674826810139503e-01
-6.258687129687934281e-01
-6.215781905196452461e-01
-6.091035471505338306e-01
-5.886501894980392668e-01
-5.604866940329100711e-01
-5.248816372258839902e-01
-4.821035955477384061e-01
-4.325100623552120549e-01
-3.769413648861412725e-01
-3.164009420310935350e-01
-2.518923599927218593e-01
-1.844191849737471522e-01
-1.149896368167692140e-01
-4.468814554005415274e-02
2.533863460170915349e-02
9.394222899675293281e-02
1.599741630332111586e-01
2.222875747272223257e-01
2.799187780518940238e-01
3.322535881175910921e-01
3.787171162368186961e-01
4.187344737220726754e-01
4.517307718858077914e-01
4.772514987206089021e-01
4.954269914154902366e-01
5.065649508741227880e-01
5.109731177593044293e-01
5.089592327338280375e-01
5.008524804399309138e-01
4.872855085187874913e-01
4.691159786799865561e-01
4.472068655117282798e-01
4.224211436022398680e-01
3.956212250277860165e-01
3.676234695055991542e-01
3.391647070906193551e-01
3.109738767558529737e-01
2.837799174743069197e-01
2.583117682190166908e-01
2.351992982498053164e-01
2.146413337001152333e-01
1.967194997215120367e-01
1.815154190928733591e-01
1.691107145930924871e-01
1.595585193376098943e-01
1.525610323185097872e-01
1.475843024345112608e-01
1.440899810267569914e-01
1.415397194363958444e-01
1.393944831825044695e-01
1.370730038475875823e-01
1.339279190248569562e-01
1.293061063626032570e-01
1.225544435091152351e-01
1.130198081633397578e-01
1.001302005953071950e-01
8.362982769539969996e-02
6.333992969378102189e-02
3.908174682060916449e-02
1.067651930606897115e-02
-2.201537652014248780e-02
-5.871135902911672755e-02
-9.887124225828591850e-02
-1.419511648037826423e-01
-1.874072652616806112e-01
-2.346920642147652392e-01
-2.830848858899844833e-01
-3.316191866291621770e-01
-3.793097088273889583e-01
-4.251711948797543550e-01
-4.682183903701662153e-01
-5.075053110514785581e-01
-5.422231512826445332e-01
-5.715930411471745742e-01
-5.948361107285696781e-01
-6.111734901103081929e-01
-6.198757139739934363e-01
-6.206825353178669902e-01
-6.135929999261157120e-01
-5.986088849460818873e-01
-5.757319675251245661e-01
-5.449732214726150659e-01
-5.066948488227346337e-01
-4.617117024788374158e-01
-4.108685266381089107e-01
-3.550100654977264569e-01
-2.949810914327939404e-01
-2.316912274618228851e-01
-1.662533138415394629e-01
-9.981989042497357856e-02
-3.354349706515352691e-02
3.142332638482137064e-02
9.396035874888020167e-02
1.532187822627725238e-01
2.084854393913275761e-01
2.590481774428776696e-01
3.041948437256793980e-01
3.432251256303322506e-01
3.758070632182781701e-01
4.020399205219638006e-01
4.220474738851089924e-01
4.359534996514198291e-01
4.438819400540530147e-01
4.460954641439327517e-01
4.432472648438379181e-01
4.360587533366802049e-01
4.252513408053610888e-01
4.115464384327971459e-01
3.956611972843484537e-01
3.782810207217637277e-01
3.600769792140321446e-01
3.417200733747209895e-01
3.238813038174234160e-01
3.072212016673522283e-01
2.921304160326010924e-01
2.787124936040298318e-01
2.670570633728935883e-01
2.572537543304493912e-01
2.493918270807734539e-01
2.434100305409366838e-01
2.388658672474401889e-01
2.352573879059307593e-01
2.320826432220555180e-01
2.288396839014636974e-01
2.250168934209511029e-01
2.200385325351132959e-01
2.133027570346244239e-01
2.042076465651720962e-01
1.921512807724401473e-01
1.765427714380076729e-01
1.570302019290858997e-01
1.334927000114993767e-01
1.058188395838859375e-01
7.389719454488008488e-02
3.761717839219858028e-02
-2.933745496879414105e-03
-4.721595820102852947e-02
-9.462703558182794517e-02
-1.445645535009166815e-01
-1.964260878198688109e-01
-2.495661452960877824e-01
-3.030843586036100490e-01
-3.559869490418048343e-01
-4.072799968268366877e-01
-4.559695821748669387e-01
-5.010685667296420620e-01
-5.417147017106913598e-01
-5.771554688929505517e-01
-6.066420837516495190e-01
-6.294257617620104828e-01
-6.447591911712609036e-01
-6.521181728382664522e-01
-6.514383641848209283e-01
-6.427121597167435585e-01
-6.259319539398473520e-01
-6.010901413599636367e-01
-5.682740225048561467e-01
-5.280728854119307591e-01
-4.812413704264525971e-01
-4.285342190173207499e-01
-3.707061726534262580e-01
-3.085228371247615287e-01
-2.429216040782628261e-01
-1.749769882391766784e-01
-1.057673255308800020e-01
-3.637095187674786734e-02
3.213461858801244797e-02
9.875790666863293321e-02
1.626677630359007198e-01
2.230505492306129045e-01
2.790926267936543748e-01
3.299803572658280837e-01
3.749908078565640235e-01
4.138304173948362807e-01
4.463325478287848425e-01
4.723305800794240783e-01
4.916578950677581439e-01
5.041734882864890022e-01
5.100869807047514470e-01
5.098621269152925350e-01
5.039683688315474974e-01
4.928751483669422395e-01
4.770531434513340940e-01
4.570673426186968591e-01
4.336418557406984675e-01
4.075161132675055864e-01
3.794295456492493557e-01
3.501215833361015495e-01
3.202958586710646927e-01
2.905042301208570210e-01
2.612583402951824674e-01
2.330698315266654941e-01
2.064503461479337831e-01
1.818855943794287500e-01
1.595518287092709819e-01
1.394217874320151096e-01
1.214646390340661242e-01
1.056495520018328194e-01
9.194284233566307751e-02
8.014571376181407747e-02
6.980685812774686805e-02
6.045363979311624975e-02
5.161342311756237505e-02
4.281357248737295562e-02
3.358692232798896754e-02
2.348708463739358765e-02
1.207260391735481830e-02
-1.097975330369621583e-03
-1.646610860402430987e-02
-3.444392392575140738e-02
-5.513663904643517633e-02
-7.846650738168953199e-02
-1.043533427143673586e-01
-1.327169588273259260e-01
-1.634719277857085151e-01
-1.962953912574412207e-01
-2.305350392472219623e-01
-2.655142945482192873e-01
-3.005565799536508154e-01
-3.349853149520245488e-01
-3.680992017319085763e-01
-3.991127881466236538e-01
-4.272227283471739523e-01
-4.516256764845973382e-01
-4.715182867099270148e-01
-4.861318294234543980e-01
-4.950168421651836015e-01
-4.978961959597865139e-01
-4.944944410547125191e-01
-4.845361276974026188e-01
-4.677551085583090407e-01
-4.442231895139587827e-01
-4.144379622651688244e-01
-3.789241818999198319e-01
-3.382066035061443987e-01
-2.928100375388900112e-01
-2.433558907657440429e-01
-1.907606850583118963e-01
-1.359971040763094940e-01
-8.003783147939458331e-02
-2.385555092722846382e-02
3.159353404807063725e-02
8.548773986506930100e-02
1.370710397907801692e-01
1.855878508104864544e-01
2.302825899094615991e-01
2.704094612991929658e-01
3.055135685423553404e-01
3.354729724512957034e-01
3.601839807562792206e-01
3.795429011876096936e-01
3.934462385128791873e-01
4.019269546613395416e-01
4.053926648185590675e-01
4.043147161658372513e-01
3.991644558844793522e-01
3.904132311557846902e-01
3.785434247748731273e-01
3.641174176539531127e-01
3.477328438875113559e-01
3.299874913533658027e-01
3.114791479293088639e-01
2.927992081073660380e-01
2.743810533039501287e-01
2.564937087893517376e-01
2.393985372179106008e-01
2.233569012439478030e-01
2.086297989107257500e-01
1.953488979699540273e-01
1.833262318722579387e-01
1.723253181518535904e-01
1.621096743429422116e-01
1.524428179797292504e-01
1.430644991783318609e-01
1.335610241745404103e-01
1.234577471335649435e-01
1.122798675455549677e-01
9.955258490064777810e-02
8.480769927191689206e-02
6.771449758612702041e-02
4.807223614840050452e-02
2.568526686139122051e-02
3.579416277326719076e-04
-2.810452787466921620e-02
-5.971565426979988378e-02
-9.408498851520914752e-02
-1.307674985138937707e-01
-1.693181521688870150e-01
-2.092919173832245017e-01
-2.501915586113768741e-01
-2.912190086432904224e-01
-3.314686643368854879e-01
-3.700347875658880348e-01
-4.060116402040787609e-01
-4.384998127503874077e-01
-4.667122466584253671e-01
-4.899583966023529635e-01
-5.075508553916276977e-01
-5.188022158357333824e-01
-5.230269439716915825e-01
-5.197981762171599573e-01
-5.092096345133290125e-01
-4.914174749604419690e-01
-4.665778536587328884e-01
-4.348469267084262846e-01
-3.964857924809916945e-01
-3.522962616473029329e-01
-3.032537958226861896e-01
-2.503339377144239153e-01
-1.945122300297257578e-01
-1.367682826909297489e-01
-7.814382755152546323e-02
-1.972907305927162902e-02
3.738448692279119911e-02
9.210535853168561049e-02
1.433443028330262659e-01
1.902303008082407987e-01
2.322895487141897197e-01
2.690903747357274445e-01
3.002011070577541574e-01
3.251900738651610778e-01
3.437481656407113673e-01
3.561315636371513160e-01
3.627593178427475640e-01
3.640504933590196779e-01
3.604241552874934973e-01
3.523146312314152651e-01
3.403584137073054627e-01
3.253352210812605616e-01
3.080278056887933991e-01
2.892189198653993820e-01
2.696897445224724632e-01
2.501094648093045714e-01
2.309626418658065616e-01
2.127165921229899892e-01
1.958386320118457591e-01
1.807960779633669135e-01
1.679555250879896100e-01
1.572674451867028533e-01
1.485748617037971897e-01
1.417207979533774975e-01
1.365482772495374975e-01
1.328814674054879241e-01
1.303264800193317252e-01
1.283492842114152821e-01
1.264135374889453212e-01
1.239828973591263206e-01
1.205221738405176657e-01
1.155589898386398251e-01
1.087148489853240751e-01
9.961893728684295679e-02
8.790044074946257169e-02
7.318854701702803833e-02
5.521464413519516778e-02
3.408842614054985454e-02
1.000710053552666956e-02
-1.683212517741439207e-02
-4.623204349584975059e-02
-7.796559899728539023e-02
-1.115026536686462011e-01
-1.461365414299417020e-01
-1.811584012112956721e-01
-2.158593719428704150e-01
-2.495304322367017935e-01
-2.814556800747933796e-01
-3.109098810252194367e-01
-3.371671356574358347e-01
-3.595015445409314170e-01
-3.771872307775112620e-01
-3.896089286409736285e-01
-3.965184464738302772e-01
-3.977436392076134641e-01
-3.931123617738547238e-01
-3.824524691040826485e-01
-3.656421867368718770e-01
-3.430109913381572118e-01
-3.151262633966938065e-01
-2.825575215878269875e-01
-2.458742845868726601e-01
-2.056505459603891195e-01
-1.626151166340518150e-01
-1.176874974820148745e-01
-7.179893660895203533e-02
-2.588068211958616249e-02
1.913606717291926884e-02
6.238709049734647571e-02
1.032076860439557486e-01
1.409701371489498478e-01
1.750467271484916765e-01
2.048097393787862153e-01
2.296875795909794071e-01
2.495540123782540309e-01
2.644950404069996708e-01
2.745979698897519361e-01
2.799501070390635338e-01
2.806473716977047062e-01
2.770304956147348063e-01
2.697141738764693430e-01
2.593275686285779758e-01
2.464998420167408000e-01
2.318601366900379102e-01
2.160262611000082211e-01
1.995856701151415002e-01
1.831207908960771347e-01
1.672140506034716090e-01
1.524478763979648654e-01
1.393564430389651054e-01
1.281336247946766593e-01
1.188269303326540127e-01
1.114833000711983324e-01
1.061496744285997940e-01
1.028626135378327144e-01
1.014125233909330404e-01
1.013394688019874090e-01
1.021722968176816682e-01
1.034398544847002777e-01
1.046709556879979186e-01
1.053841198500320431e-01
1.050730399296272710e-01
1.032277414634457657e-01
9.933824998815171670e-02
9.289459104040789783e-02
8.343550648147840532e-02
7.080590170838862996e-02
5.496933534339157323e-02
3.588962568397580100e-02
1.353059102761408616e-02
-1.212928423878525952e-02
-4.081757866841778659e-02
-7.199018825540798305e-02
-1.050928024551351925e-01
-1.395711107229435366e-01
-1.748704611564871891e-01
-2.103715309235647535e-01
-2.453143161151078999e-01
-2.789203247025133781e-01
-3.104110646571420773e-01
-3.390080439503917464e-01
-3.639715992320888827e-01
-3.847799796322396437e-01
-4.009874019017530822e-01
-4.121481608591430201e-01
-4.178165513229400996e-01
-4.175667966446269808e-01
-4.113143374366377558e-01
-3.992611912308069999e-01
-3.816182715893142730e-01
-3.585964920743587858e-01
-3.304080405965773570e-01
-2.974261029033486436e-01
-2.603402732252503293e-01
-2.198770246776478587e-01
-1.767628303759500863e-01
-1.317241634355233448e-01
-8.549184562800205001e-02
-3.881852680858155491e-02
7.536309010066827296e-03
5.281317545370911581e-02
9.625258614816126213e-02
1.371107509576970362e-01
1.748755642802742594e-01
2.092116603420089427e-01
2.397881276228514824e-01
2.662740546027200783e-01
2.883406048071547878e-01
3.058450721949550477e-01
3.189757084132219811e-01
3.279548487871189466e-01
3.330048286418005876e-01
3.343479833024318726e-01
3.322486961964958851e-01
3.271603209630976061e-01
3.195892743215290044e-01
3.100419757552267952e-01
2.990248447476194782e-01
2.870371295713216586e-01
2.744861272912594852e-01
2.617154625993672323e-01
2.490674852980474530e-01
2.368845451897156340e-01
2.255065599361984474e-01
2.151112037415466305e-01
2.056148147052971886e-01
1.969100573014286315e-01
1.888895960039290722e-01
1.814460952867776311e-01
1.744178123864887908e-01
1.674239639435799454e-01
1.600286512518859228e-01
1.517959756047042585e-01
1.422900382953249943e-01
1.310821503342945449e-01
1.178244488725388450e-01
1.022198328663219136e-01
8.397198723664985043e-02
6.278459690454844810e-02
3.836562307233003927e-02
1.064282253190040883e-02
-2.013498224299201111e-02
-5.369352228192059151e-02
-8.975852861442235042e-02
-1.280557286021130059e-01
-1.682118294519402424e-01
-2.094963344234588298e-01
-2.510982277943817342e-01
-2.922064938423629687e-01
-3.320101168451023987e-01
-3.696993979710035960e-01
-4.044776168032145902e-01
-4.355554378024536488e-01
-4.621436108614538352e-01
-4.834528858729197909e-01
-4.987007056778052227e-01
-5.073770372844406129e-01
-5.093331727506302808e-01
-5.044453013409480047e-01
-4.925896123199693388e-01
-4.736423441616339769e-01
-4.476476413742581095e-01
-4.151928116166456184e-01
-3.769747946587194698e-01
-3.336905302703946918e-01
-2.860369582216338857e-01
-2.347343702049609071e-01
-1.807063061284213124e-01
-1.249809571088130733e-01
-6.858737914895463028e-02
-1.255462825172504182e-02
4.209318357733005111e-02
9.449500344563122045e-02
1.439861318215172048e-01
1.899135441660306789e-01
2.316242159401469269e-01
2.684652722317747431e-01
2.999457903704753070e-01
3.260452798469166691e-01
3.468281878801941498e-01
3.623589616893956311e-01
3.727020484935932298e-01
3.779615659619277590e-01
3.785477349869904584e-01
3.750131941702269378e-01
3.679113736918139255e-01
3.577957037319339229e-01
3.452192222677317179e-01
3.307242990470173893e-01
3.148416310798642925e-01
2.981013217615050559e-01
2.810334744871939572e-01
2.641679955313267492e-01
2.479374519343203742e-01
2.325201182865092031e-01
2.180532601334320697e-01
2.046741430206300283e-01
1.925200324936576501e-01
1.816904161805315554e-01
1.720255390549709218e-01
1.632568279888783613e-01
1.551153361830819311e-01
1.473321168384186808e-01
1.396356501247054682e-01
1.316958311187179653e-01
1.231242982569202837e-01
1.135301826359503830e-01
1.025226153524593231e-01
8.971098075160610641e-02
7.477396562957117077e-02
5.755335831723051854e-02
3.791439266410345788e-02
1.572230251970574422e-02
-9.157678266420998803e-03
-3.680895093202085633e-02
-6.700064341129341461e-02
-9.938306619980896706e-02
-1.336063077241386177e-01
-1.693204564108182764e-01
-2.061659818994282523e-01
-2.435977531976289967e-01
-2.809029095981433466e-01
-3.173625572787803772e-01
-3.522578024172963174e-01
-3.848699016382769456e-01
-4.145058466484499160e-01
-4.405272824346707639e-01
-4.623028385378386007e-01
-4.792011444988495406e-01
-4.905908298585808236e-01
-4.959108493993291678e-01
-4.949845580095668662e-01
-4.877659900488739986e-01
-4.742092879094508273e-01
-4.542685939835156006e-01
-4.279204526670676856e-01
-3.955115328480176551e-01
-3.576924158637406759e-01
-3.151226811711498321e-01
-2.684619082272174939e-01
-2.183704809651972889e-01
-1.656020896108915674e-01
-1.110895082301699560e-01
-5.578579217738149909e-02
-6.439968068736590112e-04
5.338282252694559471e-02
1.053877810339314269e-01
1.546897792099368729e-01
2.006766288104542273e-01
2.427361585338250194e-01
2.802561970783448153e-01
3.126505290556980121e-01
3.397033422190753882e-01
3.614750393291936703e-01
3.780326315846611607e-01
3.894431301840644011e-01
3.957754789200755852e-01
3.972597096188970056e-01
3.944056700076732369e-01
3.877511800397690500e-01
3.778340596685447750e-01
3.651921288473691796e-01
3.503556870562096748e-01
3.338221003371728557e-01
3.160797221825115688e-01
2.976169058580182547e-01
2.789220046295035615e-01
2.604647234521363375e-01
2.424832175379430521e-01
2.250589324713809236e-01
2.082703523976803250e-01
1.921959614620957213e-01
1.769122379683473190e-01
1.623701753714896778e-01
1.483232544655037621e-01
1.345076088344281384e-01
1.206593720623023724e-01
1.065146777341798856e-01
9.181342942751991032e-02
7.631032102325674416e-02
5.976367294732720659e-02
4.193180562566700686e-02
2.257303948423383666e-02
1.463922058826394590e-03
-2.142085299857399150e-02
-4.598499318914606171e-02
-7.213044202851826014e-02
-9.975914303237365388e-02
-1.287701044975653186e-01
-1.589198375577507427e-01
-1.897614073451840966e-01
-2.208322674281638642e-01
-2.516698713749867533e-01
-2.818116715020075880e-01
-3.107773810522823643e-01
-3.380243476100444067e-01
-3.629962204699941353e-01
-3.851366489267724624e-01
-4.038892822750284051e-01
-4.187156177408423163e-01
-4.292479160276092554e-01
-4.352133573615069029e-01
-4.363401410823151139e-01
-4.323564665298154086e-01
-4.229961099477652642e-01
-4.082085495256611019e-01
-3.882228330850949760e-01
-3.632866288355212081e-01
-3.336476049864047777e-01
-2.995534663597414493e-01
-2.613426660176527694e-01
-2.196398399946083435e-01
-1.751258984773879090e-01
-1.284817516528590220e-01
-8.038830970789601071e-02
-3.152976953229519319e-02
1.738187360051449831e-02
6.562064666921993417e-02
1.124604707791526659e-01
1.571752670357445814e-01
1.990445025583326144e-01
2.375221903006821123e-01
2.722678367793616161e-01
3.029527358117667379e-01
3.292481812153029708e-01
3.508256149776713961e-01
3.674866747329792460e-01
3.794018086439270299e-01
3.868063180533534151e-01
3.899355043040628743e-01
3.890246687388807523e-01
3.843349038317414035e-01
3.763208435091440762e-01
3.655250270307179861e-01
3.524904337669840793e-01
3.377600430884335481e-01
3.218737597032570452e-01
3.052913814970562578e-01
2.883870074265855177e-01
2.715305417683699374e-01
2.550918887989330752e-01
2.394406707051768834e-01
2.248269474578853400e-01
2.111960552138740788e-01
1.984454902964116751e-01
1.864727490287954037e-01
1.751753277343215398e-01
1.644193156381068555e-01
1.538610615439992557e-01
1.430710020192429432e-01
1.316193144819917116e-01
1.190761763503744852e-01
1.050149875962891333e-01
8.907964705719684240e-02
7.098259817755248058e-02
5.043911600706074694e-02
2.716447559542856105e-02
8.745685431024163847e-04
-2.856500658788485580e-02
-6.094478497350008794e-02
-9.600720851234545439e-02
-1.334947191029552394e-01
-1.731497586438557890e-01
-2.146591936717067717e-01
-2.573788109032492111e-01
-3.005422982108363894e-01
-3.433831507335323718e-01
-3.851348636104917622e-01
-4.250301719207095763e-01
-4.622876829678624899e-01
-4.961135209736314833e-01
-5.257133806185888547e-01
-5.502929565833198922e-01
-5.690590154674315393e-01
-5.813846172742067608e-01
-5.869876219385408156e-01
-5.856287321518147682e-01
-5.770686506053956943e-01
-5.610680799906708760e-01
-5.374855984037347767e-01
-5.067008865883431135e-01
-4.692663627693300921e-01
-4.257345577055552388e-01
-3.766580021557826008e-01
-3.226053404950940395e-01
-2.644022376008025033e-01
-2.030806814757014633e-01
-1.396784805795093232e-01
-7.523344337195081444e-02
-1.078290877400195358e-02
5.268593983365987832e-02
1.142799380492169892e-01
1.731162650333180619e-01
2.283120999464791634e-01
2.789846219492266854e-01
3.243448152699658915e-01
3.640506039038876596e-01
3.978928768984313358e-01
4.256625454255102414e-01
4.471505206570942637e-01
4.621758191961989892e-01
4.709453771720809589e-01
4.739489006515332781e-01
4.716825100238259405e-01
4.646423256782432620e-01
4.533255238260008868e-01
4.383112555953520006e-01
4.203177869822525836e-01
4.000768797122044029e-01
3.783202955107471954e-01
3.557797961034254719e-01
3.331293199076159617e-01
3.107960594739509474e-01
2.891414030811201297e-01
2.685267383898422011e-01
2.493134530608836497e-01
2.318336635777771826e-01
2.160674125234389176e-01
2.017618681685275361e-01
1.886600518027507500e-01
1.765049847158129959e-01
1.650379067796570176e-01
1.538953512916531596e-01
1.425527967486136527e-01
1.304720114367116657e-01
1.171147636421429050e-01
1.019428218576829415e-01
8.448088199393460895e-02
6.449421449661135730e-02
4.180557176147942089e-02
1.623770618425796064e-02
-1.238662983928806582e-02
-4.420498156169827553e-02
-7.893625115636337952e-02
-1.160483139839234568e-01
-1.550056404321182857e-01
-1.952727008886826487e-01
-2.363105460490217968e-01
-2.774231922057981414e-01
-3.176955137795547390e-01
-3.561961099396330210e-01
-3.919935798552869888e-01
-4.241565309628030911e-01
-4.518230360554994496e-01
-4.743691960750064940e-01
-4.912220536738161059e-01
-5.018086515044537510e-01
-5.055560322194065925e-01
-5.019486943645883326e-01
-4.910049414028752057e-01
-4.730329119206305166e-01
-4.483436249886312286e-01
-4.172480996776737894e-01
-3.800653363073581148e-01
-3.374079044326568910e-01
-2.902603400392175792e-01
-2.396311156727029545e-01
-1.865287038788751572e-01
-1.319615721862762991e-01
-7.692883286781110330e-02
-2.240083500679235229e-02
3.065758208096851234e-02
8.128157907977252850e-02
1.285063166738071028e-01
1.714197503577103154e-01
2.095438392095860247e-01
2.426136386468317752e-01
2.703656781377530294e-01
2.925364871506708209e-01
3.088737726128339967e-01
3.194612462801056374e-01
3.247693774784985443e-01
3.252900265501368349e-01
3.215150538371307487e-01
3.139363957417253825e-01
3.031011322560599464e-01
2.897086918006859246e-01
2.744845914186972990e-01
2.581543481531556328e-01
2.414434790471566838e-01
2.250442007393234078e-01
2.094056616650192826e-01
1.948692456638221326e-01
1.817758530188828825e-01
1.704663840133500141e-01
1.612702833740945474e-01
1.542308949804981344e-01
1.490922988291228934e-01
1.455844850833000192e-01
1.434374439063730855e-01
1.423809461074906357e-01
1.420642204105826423e-01
1.419362131389527715e-01
1.414152643075019533e-01
1.399197139311347815e-01
1.368679020247536293e-01
1.317026656348483371e-01
1.240260668819925804e-01
1.135038067205029755e-01
9.980175345050534830e-02
8.258577537213751540e-02
6.153646936022338920e-02
3.664422122371036039e-02
8.193918834855207223e-03
-2.351788118821351858e-02
-5.819462222730509282e-02
-9.553905392036110555e-02
-1.351035709635621807e-01
-1.761034804351551131e-01
-2.177082261986484912e-01
-2.590872521176410537e-01
-2.994100020556409447e-01
-3.378470748850100902e-01
-3.735757697063645244e-01
-4.057757957167115737e-01
-4.336268652856662409e-01
-4.563086907828541872e-01
-4.730189303246093990e-01
-4.832767500398276739e-01
-4.868790637273241462e-01
-4.836319200917728045e-01
-4.733413678378380895e-01
-4.558152529677166331e-01
-4.311153307744789442e-01
-3.998174106539925665e-01
-3.625593925566570341e-01
-3.199791764327905019e-01
-2.727146622327865089e-01
-2.214575138525908260e-01
-1.671782319389836236e-01
-1.109374360376242930e-01
-5.379579083553542862e-02
3.186038980259486841e-03
5.895795269103820679e-02
1.126325976972367138e-01
1.634503427117367513e-01
2.106549858180888912e-01
2.534903250997333490e-01
2.912027138324538855e-01
3.232906266253785521e-01
3.497141639776547573e-01
3.704827508168191952e-01
3.856058120704508596e-01
3.950927726660826700e-01
3.990389066996767320e-01
3.979380269402511550e-01
3.923995105847065679e-01
3.830327470087286912e-01
3.704471255880139591e-01
3.552518240439321850e-01
3.380531935205748351e-01
3.194555711874680348e-01
3.000632509563532224e-01
2.804805267390106938e-01
2.613092547560437184e-01
2.429746030435365745e-01
2.256087772584731699e-01
2.093164099530979705e-01
1.942021336796213582e-01
1.803705809902887980e-01
1.678497681116214446e-01
1.563491224130584278e-01
1.454952742173201141e-01
1.349148536748597804e-01
1.242344909361380312e-01
1.130801502496632249e-01
1.010700345376123743e-01
8.781732979855888521e-02
7.293513798255388259e-02
5.603656103967669111e-02
3.673783673409171391e-02
1.482867292898882618e-02
-9.640460756801083608e-03
-3.659758615566849338e-02
-6.597072510006216084e-02
-9.768789822714343818e-02
-1.315808911963649852e-01
-1.671229595055786221e-01
-2.037038813701492201e-01
-2.407134350054647154e-01
-2.775413986268877586e-01
-3.135685399835303477e-01
-3.480834427939505926e-01
-3.803206854381220303e-01
-4.095141628067759942e-01
-4.348977697905732076e-01
-4.557092001275507842e-01
-4.713513810797629322e-01
-4.814526299524168884e-01
-4.856574589307768308e-01
-4.836103802001126550e-01
-4.749559331323096600e-01
-4.594860430943902285e-01
-4.374848884839515062e-01
-4.093392933835357517e-01
-3.754360818756780072e-01
-3.361620780429420141e-01
-2.919419865032650829e-01
-2.435423388477055973e-01
-1.919109469686855474e-01
-1.379972857493672045e-01
-8.275083007302302951e-02
-2.712050948568517361e-02
2.796384345309843589e-02
8.159605148413837106e-02
1.328714074630862052e-01
1.808852042457018416e-01
2.247328335511156738e-01
2.636523626743066950e-01
2.973095622921536618e-01
3.254500099784009559e-01
3.478192833068219914e-01
3.641629598511810784e-01
3.742873938645124854e-01
3.784846374740625796e-01
3.772795936886892409e-01
3.711986308271426060e-01
3.607681172081730336e-01
3.465192873695664977e-01
3.291232255829829034e-01
3.094084025815571071e-01
2.882116780145083657e-01
2.663699115310100285e-01
2.447198046851767339e-01
2.240021529030721548e-01
2.046993083153775816e-01
1.872505285860409929e-01
1.720950713789950459e-01
1.596721943581803083e-01
1.503531245699486762e-01
1.440260004559470175e-01
1.403699141677972884e-01
1.390631217958159804e-01
1.397838794303274401e-01
1.422013355806755752e-01
1.457664348507153040e-01
1.497069551031308399e-01
1.532405738951231888e-01
1.555849687839011286e-01
1.559580419955767794e-01
1.536497531111055970e-01
1.481249038882451463e-01
1.388743003086070349e-01
1.253887483538021486e-01
1.071590540054561391e-01
8.376067193051939253e-02
5.530462705780925248e-02
2.211078953867773311e-02
-1.550049576855630495e-02
-5.720888400550445951e-02
-1.026763905858488202e-01
-1.512080935603051790e-01
-2.017772965571853760e-01
-2.533447044978649476e-01
-3.048710223038302303e-01
-3.553169610493031039e-01
-4.036444285085850070e-01
-4.488179514036175211e-01
-4.898024030380813132e-01
-5.255626567156922446e-01
-5.550635857401479134e-01
-5.773587771591381923e-01
-5.920029942593846295e-01
-5.987268175773929890e-01
-5.972610178858313024e-01
-5.873363659573508366e-01
-5.687123713974664430e-01
-5.416450584239023147e-01
-5.068098171127968232e-01
-4.648952085588381467e-01
-4.165897938566226477e-01
-3.625832483891031632e-01
-3.037091411092656124e-01
-2.410855168861369691e-01
-1.758638157526269397e-01
-1.091954777416526967e-01
-4.223194288598824953e-02
2.391182693081872479e-02
8.830517166227405679e-02
1.500755027052129431e-01
2.083502531640605282e-01
2.622568561431088408e-01
3.109484690220401526e-01
3.539611962332749329e-01
3.911249341762405574e-01
4.222770789820541326e-01
4.472550267818976022e-01
4.658984276403771996e-01
4.782529316885852921e-01
4.847326264197336920e-01
4.857898245863581099e-01
4.818768389410106323e-01
4.734459822362324655e-01
4.609757056224651484e-01
4.450626940361621653e-01
4.263370468828865389e-01
4.054288656026696080e-01
3.829682516355822353e-01
3.595737697420794410e-01
3.357148564777530098e-01
3.117570914060914244e-01
2.880639448139372671e-01
2.649988869880823272e-01
2.429229792150600087e-01
2.220339337681550840e-01
2.022648202540873741e-01
1.835245501872123097e-01
1.657220350818822685e-01
1.487661864524121302e-01
1.325195533836173167e-01
1.166568215874209530e-01
1.008050996860876958e-01
8.459149629808744575e-02
6.764312004192335470e-02
4.959448356099595279e-02
3.016374896888293633e-02
9.121917399758830425e-03
-1.375917869703871532e-02
-3.870770687222148398e-02
-6.594812494379463652e-02
-9.551142931003239744e-02
-1.271443958160621002e-01
-1.605710925188245652e-01
-1.955155874752552148e-01
-2.317019462090512683e-01
-2.687717504920321132e-01
-3.060671082961002321e-01
-3.428621831036199885e-01
-3.784311383970350162e-01
-4.120481376587093458e-01
-4.429907518027381141e-01
-4.705703841054709735e-01
-4.941178015954762470e-01
-5.129639994404404657e-01
-5.264399728080874086e-01
-5.338828736248534268e-01
-5.348838360479512000e-01
-5.293726535726545057e-01
-5.173026526088131405e-01
-4.986271595662957745e-01
-4.732995414043557059e-01
-4.414240038817533462e-01
-4.035958265919716292e-01
-3.605100559247886860e-01
-3.128617382698871685e-01
-2.613459200170408780e-01
-2.066777791573789491e-01
-1.497489787195114275e-01
-9.154259199886953524e-02
-3.304246398907941668e-02
2.476756031635785407e-02
8.090823485814729876e-02
1.345538019006240205e-01
1.850643788480899055e-01
2.318112339181079007e-01
2.741656353282513892e-01
3.114989835176247279e-01
3.433338780430800763e-01
3.696348867881209532e-01
3.904469039686875309e-01
4.058148238007620034e-01
4.157835405002807128e-01
4.204366136144147559e-01
4.201580432084582872e-01
4.154724542990870240e-01
4.069052736135107540e-01
3.949819278789204469e-01
3.802281139059216497e-01
3.631769554732039440e-01
3.443697485089347587e-01
3.243482084882500782e-01
3.036540508862912713e-01
2.828288279695133633e-01
2.623302288362729939e-01
2.423954944534605360e-01
2.232260758821432711e-01
2.050234241833482907e-01
1.879889904181429872e-01
1.722887654678325609e-01
1.578437366945401044e-01
1.444714210461493509e-01
1.319889688639373504e-01
1.202135304891553957e-01
1.089590769334853326e-01
9.796645462790715131e-02
8.690338542267750377e-02
7.543441183848015319e-02
6.322407639600047258e-02
4.993709605086663061e-02
3.528741998309042893e-02
1.910557241789602456e-02
1.238949877186666659e-03
-1.846505111717306608e-02
-4.015903404328129839e-02
-6.395249968015528919e-02
-8.968945748327018797e-02
-1.171129183495031728e-01
-1.459656966193868532e-01
-1.759906066335157893e-01
-2.069215831148798201e-01
-2.383195990596038150e-01
-2.695884373364572095e-01
-3.001261645590809768e-01
-3.293308473411173387e-01
-3.566006182424683035e-01
-3.813451771911910981e-01
-4.029989374117202150e-01
-4.209994926176239827e-01
-4.347844365224228236e-01
-4.437913628396543686e-01
-4.475177407349124614e-01
-4.457904836860715481e-01
-4.385492093771414801e-01
-4.257336340503468097e-01
-4.072834739478818911e-01
-3.831588235411698129e-01
-3.536594660826478664e-01
-3.193656863570087934e-01
-2.808661737500668387e-01
-2.387496176476457954e-01
-1.936054794782048338e-01
-1.461146717480814594e-01
-9.713467079484472411e-02
-4.754309354526853326e-02
1.782443073767736585e-03
4.996432213541934786e-02
9.616772385557226244e-02
1.397684852799341848e-01
1.802071490463230674e-01
2.169242751871268138e-01
2.493604237348106267e-01
2.769811384271886334e-01
2.996115004964268191e-01
3.173462312660970119e-01
3.302865883791620827e-01
3.385338294785985025e-01
3.421910737161623084e-01
3.415194394353509577e-01
3.370561012833909187e-01
3.293660369619147432e-01
3.190142241725635874e-01
3.065656406169761650e-01
2.925764341348368047e-01
2.775638338494334501e-01
2.620343495432214120e-01
2.464944906694350735e-01
2.314507666812760656e-01
2.173896721151170608e-01
2.045471861021446736e-01
1.929887685573576372e-01
1.827766095929144741e-01
1.739728993209702645e-01
1.666374195567957850e-01
1.606768789444361634e-01
1.557556559419545072e-01
1.515166797534504006e-01
1.476028795830338358e-01
1.436571846339018688e-01
1.393110214242222755e-01
1.341503968548052039e-01
1.277501088091040626e-01
1.196849551705757714e-01
1.095297338226597084e-01
9.687667725660828455e-02
8.150900742671057797e-02
6.332783332613556304e-02
4.223600249493869585e-02
1.813636247318384243e-02
-9.064180703539093109e-03
-3.925888796953329318e-02
-7.205408010786651385e-02
-1.070338799774206706e-01
-1.437824104370083733e-01
-1.818837903114873256e-01
-2.208558850056497047e-01
-2.599821287662737457e-01
-2.984941292421283143e-01
-3.356234940819839419e-01
-3.706018309346901796e-01
-4.026677647719706932e-01
-4.311275576202677207e-01
-4.553252886201969440e-01
-4.746054506852854238e-01
-4.883125367290743757e-01
-4.957975354914749277e-01
-4.966659010295495502e-01
-4.908547736073619050e-01
-4.783235743428512210e-01
-4.590317243539663861e-01
-4.329387040743454262e-01
-4.001626743140347942e-01
-3.613254011520734554e-01
-3.171483273095717093e-01
-2.683528955076546763e-01
-2.156605484673421724e-01
-1.598184506638916091e-01
-1.017928767295384340e-01
-4.266093156679967580e-02
1.649942167019771699e-02
7.461021982732743418e-02
1.305984051919546474e-01
1.835471095385372009e-01
2.327243875701368592e-01
2.774089975402307950e-01
3.168796977021901551e-01
3.504154519222870690e-01
3.774852525559781458e-01
3.980997780769918726e-01
4.123655914001044254e-01
4.203892554401102433e-01
4.222773331118190865e-01
4.181912517691632192e-01
4.087070221913198242e-01
3.945900946209766058e-01
3.766068933058420720e-01
3.555238424936352226e-01
3.321070298620741879e-01
3.071136798537497659e-01
2.812914814571125799e-01
2.553876524215276667e-01
2.301494104964154630e-01
2.063236123360711327e-01
1.844982524227722076e-01
1.648539333243538296e-01
1.475068679431722485e-01
1.325732691815935671e-01
1.201693499419526912e-01
1.103498497815369184e-01
1.027561856554451702e-01
9.685943270563676655e-02
9.213013496231159394e-02
8.803883645566590310e-02
8.405460335406073069e-02
7.961384839687579706e-02
7.412105704931060135e-02
6.697938216871404671e-02
5.759197661244574995e-02
4.536262076784583486e-02
2.985200075753130511e-02
1.098339881975318733e-02
-1.126884046085732671e-02
-3.693037249964968571e-02
-6.602685271202919648e-02
-9.850730382845560018e-02
-1.338611720932390281e-01
-1.714073587912959273e-01
-2.104644840750350965e-01
-2.503511680968619202e-01
-2.903796345566281856e-01
-3.297421017759340489e-01
-3.675241542525440330e-01
-4.028076660479098514e-01
-4.346745112234031705e-01
-4.622073995947966196e-01
-4.846218498447717460e-01
-5.014104033748262301e-01
-5.121002661831720593e-01
-5.162186442680223308e-01
-5.132927436275945832e-01
-5.029495463163830005e-01
-4.853507570548363237e-01
-4.608364562029290123e-01
-4.297468477216206395e-01
-3.924221355718889859e-01
-3.492225502750431199e-01
-3.008305654129046491e-01
-2.481888022385594916e-01
-1.922473108322796942e-01
-1.339561412744483815e-01
-7.426535016608035167e-02
-1.412570491215410506e-02
4.551068677106270832e-02
1.036915686369225820e-01
1.594646844387396789e-01
2.118777779299459985e-01
2.600574988650630193e-01
3.035089027568439457e-01
3.418503439822645484e-01
3.747001978171665693e-01
4.016768395374070710e-01
4.224270007812185312e-01
4.369920590077387423e-01
4.457027066733321163e-01
4.488962878114194366e-01
4.469101464554053882e-01
4.400832427233754007e-01
4.288822303173505102e-01
4.139917285987317896e-01
3.961176618363311253e-01
3.759659542989762793e-01
3.542425302554512712e-01
3.316218176576016252e-01
3.086429695741902957e-01
2.858088292268132768e-01
2.636222393861504809e-01
2.425860428228796273e-01
2.231766596681358794e-01
2.055501716641009446e-01
1.896495574775156345e-01
1.754139435168139416e-01
1.627824561904641087e-01
1.516915348713822609e-01
1.419172275724188692e-01
1.329874522197630193e-01
1.244088378134314554e-01
1.156880133534474164e-01
1.063316078723826608e-01
9.586190393605228954e-02
8.386141622549042607e-02
6.992714443351892573e-02
5.365608825298461004e-02
3.464524737674071903e-02
1.252288119933441662e-02
-1.275061866089195056e-02
-4.101454872372534144e-02
-7.210544189208084598e-02
-1.058598310688142752e-01
-1.421094410857035029e-01
-1.804621447730812012e-01
-2.202116426791143888e-01
-2.606281101103994358e-01
-3.009817223735041791e-01
-3.405426536498525891e-01
-3.785704008107402263e-01
-4.142876386616022311e-01
-4.469091101710973568e-01
-4.756495583078070855e-01
-4.997237260403236681e-01
-5.183816927493721805e-01
-5.312042502682347012e-01
-5.379528121550014585e-01
-5.383906225278485280e-01
-5.322809255049334443e-01
-5.193952617377386449e-01
-4.998141627270336063e-01
-4.740118897172362900e-01
-4.424882609207969608e-01
-4.057430945501936392e-01
-3.642762482026803417e-01
-3.186662064553142937e-01
-2.697347335057116435e-01
-2.183505015441076225e-01
-1.653821827608432660e-01
-1.116984493462631622e-01
-5.815189904148221345e-02
-5.462047566134442533e-03
4.571732322270216642e-02
9.473289676536333914e-02
1.409313565020702264e-01
1.836672865588473424e-01
2.225354921548818865e-01
2.574088474711093699e-01
2.881757477795423572e-01
3.147245883522600263e-01
3.369438957223362952e-01
3.548219075601652950e-01
3.686240651387978073e-01
3.786635950593604250e-01
3.852537239229480437e-01
3.887076783306666616e-01
3.893432986637190840e-01
3.875123358817296193e-01
3.835816664570377288e-01
3.779182366517090941e-01
3.708889927278171683e-01
3.628561940279761977e-01
3.540638089096177499e-01
3.446313745537257223e-01
3.346725121976237283e-01
3.243008430786185059e-01
3.136297865384682915e-01
3.026959843789125415e-01
2.913439801376114247e-01
2.793887627279005859e-01
2.666453210631347659e-01
2.529286440566740346e-01
2.380465602604127096e-01
2.217600420566576691e-01
2.038112189658708440e-01
1.839421691904494782e-01
1.618949709328292297e-01
1.374180179673129554e-01
1.103938449432272650e-01
8.083322723744221228e-02
4.875207502067008258e-02
1.416629846355338396e-02
-2.290759248654300473e-02
-6.231942264575074386e-02
-1.036175284920380912e-01
-1.463089425259610499e-01
-1.899006972479874156e-01
-2.338998251585818755e-01
-2.777800858841467102e-01
-3.208209371065589011e-01
-3.622315075462858580e-01
-4.012208289184185928e-01
-4.369979329379588551e-01
-4.687783994295576240e-01
-4.958962004888556874e-01
-5.177881643098651843e-01
-5.338945406737842792e-01
-5.436555793618433885e-01
-5.465130366558667019e-01
-5.421264562624146244e-01
-5.305989395911974160e-01
-5.120875450829809328e-01
-4.867493311785531240e-01
-4.547413563187211460e-01
-4.163095437503802065e-01
-3.721637265457254373e-01
-3.231646249003222726e-01
-2.701730399304479446e-01
-2.140497727524831029e-01
-1.556604883239363080e-01
-9.594643412580083908e-02
-3.590851007508744086e-02
2.345076214406038861e-02
8.112886084762638284e-02
1.361249367711417357e-01
1.876064199730189674e-01
2.350506695804989721e-01
2.779684038208101171e-01
3.158703409210780189e-01
3.482671991084425045e-01
3.747725217615798243e-01
3.954803088437747749e-01
4.106247751979029692e-01
4.204401523537459329e-01
4.251606718410527730e-01
4.250358643792988000e-01
4.205212601540466166e-01
4.122200060650523801e-01
4.007384636182417248e-01
3.866829943195150832e-01
3.706591209987315505e-01
3.532105362773513835e-01
3.347778171433720695e-01
3.157917615310623649e-01
2.966831673747302722e-01
2.778828326086844602e-01
2.597488816597440797e-01
2.423352844288250429e-01
2.256164526917786850e-01
2.095667979632522826e-01
1.941607317579286396e-01
1.793578354940898734e-01
1.649434804129957244e-01
1.505897784750630797e-01
1.359669147121221611e-01
1.207450741559721319e-01
1.045950586067845300e-01
8.722230457944041282e-02
6.838461150938213162e-02
4.784413224850758706e-02
2.536301964875448123e-02
7.034272451656997660e-04
-2.629974644606275502e-02
-5.553883150778604616e-02
-8.684223579807592852e-02
-1.200383671750715475e-01
-1.549556334968459348e-01
-1.913983027648646917e-01
-2.289218077520126515e-01
-2.669349524231177107e-01
-3.048446521907611784e-01
-3.420578224676052992e-01
-3.779804878124076728e-01
-4.119794002528220922e-01
-4.433674355741782369e-01
-4.714535661362546648e-01
-4.955467642987608778e-01
-5.149560149485439275e-01
-5.290655892202080768e-01
-5.375128203683672279e-01
-5.399881550895067051e-01
-5.361820400801154962e-01
-5.257849220366754839e-01
-5.085331635767553760e-01
-4.845804852717926492e-01
-4.543032522485181968e-01
-4.180799139540582465e-01
-3.762889198354605336e-01
-3.293152519939760992e-01
-2.777754615750495093e-01
-2.225745695300920535e-01
-1.646356821061854270e-01
-1.048819055503759645e-01
-4.423634422144556710e-02
1.638079603781494864e-02
7.605805342937582703e-02
1.338856084936955737e-01
1.889536417713559846e-01
2.403523338028127343e-01
2.872174345357427772e-01
3.290514380254576654e-01
3.655337151776335558e-01
3.963447770373004220e-01
4.211651346495538517e-01
4.396865535927343416e-01
4.519278724241048151e-01
4.582780957811556366e-01
4.591461428632479524e-01
4.549409328697522348e-01
4.460715038339498895e-01
4.330221764991315503e-01
4.164814061046571148e-01
3.971719140934713566e-01
3.758164219084739743e-01
3.531376509926080765e-01
3.298318403669758814e-01
3.064058801063094806e-01
2.832842245871032283e-01
2.608909886839733128e-01
2.396502872714877663e-01
2.199747690491468399e-01
2.019995212596752687e-01
1.855741562021992752e-01
1.705352369113065925e-01
1.567193264215717696e-01
1.439627311330080872e-01
1.320166788178146755e-01
1.204246919440263297e-01
1.086991906254642648e-01
9.635259497592479905e-02
8.289732510922877273e-02
6.786995852868801804e-02
5.096094726679271936e-02
3.192111796047238104e-02
1.050143969172404046e-02
-1.354711845750181110e-02
-4.045900015934744687e-02
-7.017062605087459604e-02
-1.023398406104103486e-01
-1.366137959982262617e-01
-1.726396443746137654e-01
-2.100639002485503726e-01
-2.484057171590910440e-01
-2.869038375909941929e-01
-3.247596367458286393e-01
-3.611744898252441383e-01
-3.953497720308086771e-01
-4.265009352914497232e-01
-4.539234838211353429e-01
-4.769411814906505676e-01
-4.948778243319305048e-01
-5.070572083769474547e-01
-5.128228179102962692e-01
-5.118613717887342540e-01
-5.041511316502164108e-01
-4.896796226041161826e-01
-4.684343697598070122e-01
-4.404046554295069638e-01
-4.058117536820033955e-01
-3.653383144718980180e-01
-3.197215378868494273e-01
-2.696986240144170766e-01
-2.160067729422566474e-01
-1.594217244977503556e-01
-1.009152128820346717e-01
-4.152112185175921288e-02
1.772663976203697755e-02
7.579416312844168557e-02
1.316605597280050555e-01
1.845004301876295161e-01
2.336392047824331353e-01
2.784062134391458443e-01
3.181307860845365432e-01
3.521449140860922755e-01
3.800284735268100178e-01
4.018072935955299130e-01
4.175538138017841350e-01
4.273404736551367766e-01
4.312397126651158485e-01
4.294084402832908931e-01
4.223881412434060678e-01
4.108296875481364796e-01
3.953839589206318283e-01
3.767018350840073415e-01
3.554349856404504515e-01
3.322453736985253592e-01
3.078021721199304395e-01
2.827747022760568330e-01
2.578322855382797485e-01
2.336416693368559561e-01
2.106921686525764781e-01
1.891839711296350313e-01
1.692906681011868419e-01
1.511858509003460860e-01
1.350431108602692387e-01
1.209443923126545806e-01
1.085978714555480562e-01
9.761645240304159254e-02
8.761303924396614262e-02
7.820053606713188443e-02
6.898567721819713616e-02
5.950494929707178526e-02
4.925020871287309060e-02
3.771259847315638902e-02
2.438326158547031441e-02
8.756657129633943493e-03
-9.497280171414990146e-03
-3.044933771418245616e-02
-5.414942144486190045e-02
-8.064743730969825553e-02
-1.099932882001443124e-01
-1.421153058382486067e-01
-1.764975795699659789e-01
-2.125227543374241801e-01
-2.495734750827461879e-01
-2.870323867481349156e-01
-3.242659459256936327e-01
-3.604786715158163068e-01
-3.947818560361132101e-01
-4.262856735550852871e-01
-4.541002981412413098e-01
-4.773401131308631085e-01
-4.952954379797413487e-01
-5.074925217261279098e-01
-5.134741461184736400e-01
-5.127830929052398234e-01
-5.049621862661031191e-01
-4.897268298937809683e-01
-4.673578781047688091e-01
-4.382518135400638171e-01
-4.028051188406827077e-01
-3.614142766475638147e-01
-3.145187776650836264e-01
-2.629378739291287626e-01
-2.076886807885170716e-01
-1.497900195473379492e-01
-9.026071150968807688e-02
-3.011866625754905380e-02
2.964900013439580873e-02
8.809267394230321790e-02
1.442650112942545082e-01
1.972186683184505851e-01
2.460064244248790777e-01
2.898301844720564402e-01
3.283305131766566798e-01
3.612282272112651293e-01
3.882441432484815547e-01
4.090990779609627870e-01
4.235726254314245987e-01
4.319043057816714937e-01
4.345502086488655102e-01
4.319676897313272645e-01
4.246141047273921387e-01
4.129515933401018968e-01
3.975752978346662747e-01
3.792275339189800087e-01
3.586582445917725348e-01
3.366173728517289909e-01
3.138547294157842948e-01
2.910493479729113764e-01
2.686930562712113169e-01
2.472470850698132439e-01
2.271726651278441755e-01
2.089310272043885530e-01
1.929292075731966483e-01
1.791972321349408204e-01
1.676049336751842533e-01
1.580215595937451145e-01
1.503163572904357981e-01
1.443497828565702967e-01
1.397780312405421110e-01
1.360518846172156238e-01
1.326131035245758372e-01
1.289034485006002040e-01
1.243647537450973672e-01
1.184603047832293310e-01
1.107044916754247321e-01
1.006191516474965741e-01
8.772612192526596520e-02
7.154723973452437047e-02
5.166378536443083647e-02
2.802563881917785604e-02
7.237743976504784627e-04
-3.015054787238174994e-02
-6.450606796314001246e-02
-1.022348443645999527e-01
-1.429009138235163845e-01
-1.857685195630031094e-01
-2.300908833024499778e-01
-2.751212267613417084e-01
-3.201124357998844649e-01
-3.642569698246007626e-01
-4.066174116108702830e-01
-4.462395121464716730e-01
-4.821690224191907959e-01
-5.134516934168888991e-01
-5.391911793473453951e-01
-5.588118345057607739e-01
-5.718484182624234968e-01
-5.778357919902866735e-01
-5.763088170623231754e-01
-5.668300130120074165e-01
-5.494270622166483875e-01
-5.245139355302299577e-01
-4.925163161799038791e-01
-4.538598873927501276e-01
-4.089720015745356707e-01
-3.584819817440324519e-01
-3.034114078955413851e-01
-2.448269278462025800e-01
-1.837951894131660546e-01
-1.213828404134504324e-01
-5.864521012339397182e-02
3.418448947051427877e-03
6.382621909337704569e-02
1.215961876913704831e-01
1.757464421168269952e-01
2.253215617940092230e-01
2.697505966129111199e-01
3.087525777248731895e-01
3.420536579599435245e-01
3.693799901482397452e-01
3.904606946889799257e-01
4.052814133061483637e-01
4.142786063242972494e-01
4.179344776225747404e-01
4.167312310801435937e-01
4.111510705761626805e-01
4.017141402169109865e-01
3.891088972017012759e-01
3.740704566366747641e-01
3.573339353563254051e-01
3.396344501951519823e-01
3.216914876196698692e-01
3.040273213011010500e-01
2.870292167018461127e-01
2.710818126024910901e-01
2.565697477835869322e-01
2.438743405822232369e-01
2.331624573421014757e-01
2.242595004498945943e-01
2.169604135994452343e-01
2.110601404845922069e-01
2.063536247985940375e-01
2.025787410294372926e-01
1.992465580021834104e-01
1.958118085485318904e-01
1.917292255001889767e-01
1.864535416888626618e-01
1.794480173715694016e-01
1.702700481167589985e-01
1.585354708569486626e-01
1.438609986007106656e-01
1.258633443566404553e-01
1.041635016360916155e-01
7.859624699730016761e-02
4.930508758952140136e-02
1.645760824639480591e-02
-1.977860619843030410e-02
-5.923596545178363981e-02
-1.016420713484906813e-01
-1.463512800379363488e-01
-1.926348960995246107e-01
-2.397642241125637064e-01
-2.870105686563598768e-01
-3.336357109058478154e-01
-3.788089583326864629e-01
-4.216476112455398439e-01
-4.612683901595637792e-01
-4.967880155898216632e-01
-5.273277147197958925e-01
-5.521875343119624358e-01
-5.709019319643996448e-01
-5.830212462159668485e-01
-5.880958156055422492e-01
-5.856760352327734509e-01
-5.754759867092972270e-01
-5.577325612003724009e-01
-5.327868055586576501e-01
-5.009797666368470681e-01
-4.626524912876543993e-01
-4.181902769117555874e-01
-3.683580757955686735e-01
-3.141140196708516186e-01
-2.564177693452563411e-01
-1.962289856265486132e-01
-1.345075612837352552e-01
-7.222086149161865976e-02
-1.034514856085672063e-02
5.014279556734141385e-02
1.082661889517708143e-01
1.630483821319005933e-01
2.136416424889509558e-01
2.595680342785492423e-01
3.004155139160057386e-01
3.357720378165312547e-01
3.652255623953520880e-01
3.884225931271966248e-01
4.054551510362645050e-01
4.166200601342508469e-01
4.222152254608468880e-01
4.225385520557183860e-01
4.178944213006211550e-01
4.087596049667713283e-01
3.957973863349472099e-01
3.796803547410672053e-01
3.610810995210588792e-01
3.406721398870100059e-01
3.190939534300357705e-01
2.969043400394044130e-01
2.746479440410817818e-01
2.528694097610805769e-01
2.321133815254124988e-01
2.128834053571046492e-01
1.954048140061179772e-01
1.797875771909191178e-01
1.661412930090027107e-01
1.545755595578972574e-01
1.451911817225093049e-01
1.378927307591061580e-01
1.323918263660753269e-01
1.283919515019059099e-01
1.255965891250829802e-01
1.237090725640555972e-01
1.223941945093305617e-01
1.212271405444899641e-01
1.197703905468685548e-01
1.175864243938032350e-01
1.142377219626329043e-01
1.093056478591817038e-01
1.024855787185299794e-01
9.351546390472692538e-02
8.213332601352910101e-02
6.807718764071116202e-02
5.109546421417382467e-02
3.113338067948689947e-02
8.312029723005986970e-03
-1.724130811751062309e-02
-4.539935230429698043e-02
-7.603411313846142328e-02
-1.089021381879876627e-01
-1.435176888545173224e-01
-1.793644945653702916e-01
-2.159262847477917413e-01
-2.526867888290260655e-01
-2.891138824264452012e-01
-3.245899166686547765e-01
-3.584685323163117054e-01
-3.901033490011753813e-01
-4.188479863549333659e-01
-4.440650219134686383e-01
-4.652624447019655385e-01
-4.820663004283946007e-01
-4.941060471493931017e-01
-5.010111429216141943e-01
-5.024126274744118437e-01
-4.981175242359840993e-01
-4.882666589314772487e-01
-4.730381177454474617e-01
-4.526099868624705591e-01
-4.271603524671372942e-01
-3.969284725893459376e-01
-3.624488794909912492e-01
-3.243450810158740039e-01
-2.832406031327025508e-01
-2.397589718102667300e-01
-1.945247586593703559e-01
-1.481772095538804734e-01
-1.013663894522558451e-01
-5.474261539671609889e-02
-8.956204429513281440e-03
3.534405687616004599e-02
7.763246713035432123e-02
1.175946509769025816e-01
1.549370446891376041e-01
1.893660845402957982e-01
2.205882068036340016e-01
2.483717852011211313e-01
2.727529386257891986e-01
2.938401180635410448e-01
3.117417756593141576e-01
3.265663635580104973e-01
3.384291492337898610e-01
3.475286853569286016e-01
3.541192483208701614e-01
3.584561369561334310e-01
3.607946500932357470e-01
3.613894276409634898e-01
3.604551621125086092e-01
3.581443894356758362e-01
3.546042708070253902e-01
3.499819674231228195e-01
3.444246404508004566e-01
3.380549104441612496e-01
3.309003576859499418e-01
3.229655582641890454e-01
3.142550882668837531e-01
3.047735237820576870e-01
2.945240794065870915e-01
2.834953934429806921e-01
2.716672619895432739e-01
2.590193570786909483e-01
2.455313507428495967e-01
2.311832342257189588e-01
2.159700679110887478e-01
1.999081824450832379e-01
1.830155142787344147e-01
1.653099998631013534e-01
1.468095755795228996e-01
1.275314264271436571e-01
1.074901294804446739e-01
8.669969638234320541e-02
6.517413877571398562e-02
4.292746830347621279e-02
1.997348854714325883e-02
-3.675958492332265237e-03
-2.801010845612655897e-02
-5.301820812101631919e-02
-7.868950426375753704e-02
-1.050118426407917749e-01
-1.319202326213202436e-01
-1.592819746428564276e-01
-1.869599361387075387e-01
-2.148169845421192825e-01
-2.427159651954511332e-01
-2.704724178032842374e-01
-2.977545823230145494e-01
-3.242021105515149326e-01
-3.494546542857139837e-01
-3.731518653224850102e-01
-3.949285774340141053e-01
-4.143794509691385297e-01
-4.310791847635981888e-01
-4.446023330967604492e-01
-4.545234502479872374e-01
-4.604213118366900503e-01
-4.620045206183024944e-01
-4.591328110024573972e-01
-4.516744305048616126e-01
-4.394976266412271015e-01
-4.224707959970659954e-01
-4.005810924949814167e-01
-3.741478935919714810e-01
-3.435482276382759159e-01
-3.091591229840675581e-01
-2.713576079795833040e-01
-2.305481723142314143e-01
-1.873385432651133164e-01
-1.424276499205232027e-01
-9.651485393119010880e-02
-5.029951694787553051e-02
-4.478633076196780749e-03
4.031119067839539216e-02
8.349722722220118132e-02
1.245098162614062809e-01
1.627792975021026267e-01
1.977363086330731767e-01
2.289289119662500926e-01
2.562007806046680547e-01
2.794413757613545823e-01
2.985401586493854342e-01
3.133865904817856873e-01
3.239117772334849654e-01
3.303211903937096072e-01
3.329313151064495768e-01
3.320589494880626380e-01
3.280208916549103848e-01
3.211369930429390229e-01
3.117925960174925404e-01
3.004360063524722513e-01
2.875180773916973798e-01
2.734896624790104647e-01
2.588014199464189202e-01
2.438593037447278067e-01
2.289678226193125887e-01
2.144174911097965208e-01
2.004988237557711606e-01
1.875023350968596514e-01
1.756859796466533896e-01
1.651163053946188564e-01
1.557901457593541261e-01
1.477042334950954827e-01
1.408553013560827627e-01
1.352329530450907535e-01
1.306967062213203190e-01
1.269924244766379440e-01
1.238621475440067343e-01
1.210479151563979838e-01
1.182916063015786445e-01
1.153113145486140551e-01
1.117764011039903277e-01
1.073502569404131690e-01
1.016962730305783075e-01
9.447784034719042268e-02
8.538149950562268220e-02
7.421543627248605723e-02
6.082765299070663767e-02
4.506617482527536245e-02
2.677902694114858706e-02
5.827774994821177668e-03
-1.771376828693616012e-02
-4.360332618959439355e-02
-7.159398489731194637e-02
-1.014388305941932300e-01
-1.328898085321933431e-01
-1.655817735951224945e-01
-1.989326576061072327e-01
-2.323368727026960956e-01
-2.651888310225083423e-01
-2.968829447030915114e-01
-3.268145167415467123e-01
-3.543830398601167664e-01
-3.789892373615721954e-01
-4.000338327132171301e-01
-4.169175493824007761e-01
-4.290598926841086014e-01
-4.361353502974979479e-01
-4.380021714994651316e-01
-4.345226624460087339e-01
-4.255591292931208969e-01
-4.109767604330255564e-01
-3.908569023770085415e-01
-3.656434922302411183e-01
-3.358151152278853746e-01
-3.018503566050380060e-01
-2.642278015968582139e-01
-2.234742759771929377e-01
-1.803198129247488846e-01
-1.355479433241219556e-01
-8.994219832040142859e-02
-4.428610905857816027e-02
6.474287543816736878e-04
4.421144021783202094e-02
8.584128743155383656e-02
1.249737549526423463e-01
1.610456273381036807e-01
1.934971750712806138e-01
2.219674007413607875e-01
2.463974931668259094e-01
2.667539639369109761e-01
2.830033246408930614e-01
2.951120873838274372e-01
3.031216408147474617e-01
3.073559562293444181e-01
3.082056562081252338e-01
3.060613633316076609e-01
3.013137001803017911e-01
2.943570353340506651e-01
2.856246437641829505e-01
2.755728601104527886e-01
2.646583212281191089e-01
2.533376639724607693e-01
2.420653082473503970e-01
2.311966111594656315e-01
2.209502539205331628e-01
2.115349330299587938e-01
2.031593449871283430e-01
1.960321759969453348e-01
1.902932448183419223e-01
1.858493966826843535e-01
1.825582606677616793e-01
1.802774658513593420e-01
1.788646413112584266e-01
1.781614046756143377e-01
1.778627724296706902e-01
1.775850931165276481e-01
1.769439638591107367e-01
1.755549817803458423e-01
1.730339799486187158e-01
1.690052582968320227e-01
1.631037239262649319e-01
1.549649547715550302e-01
1.442245287673221132e-01
1.305180685470938018e-01
1.135542861060686581e-01
9.326378297410946316e-02
6.961911123296217474e-02
4.259282296438206272e-02
1.215747025006570781e-02
-2.167493034036875599e-02
-5.857250082639234301e-02
-9.804817328236975493e-02
-1.396138553699725060e-01
-1.827814547507888299e-01
-2.270576723280335885e-01
-2.717961864135609584e-01
-3.161765130136504620e-01
-3.593687112278319828e-01
-4.005428401557281637e-01
-4.388690215859212262e-01
-4.735588837943880414e-01
-5.039373060180043495e-01
-5.293483048549305625e-01
-5.491358969033408588e-01
-5.626440987614507172e-01
-5.692763932540036986e-01
-5.688643802522688198e-01
-5.614271803394283999e-01
-5.469847090610675533e-01
-5.255568819627818300e-01
-4.971775430555585018e-01
-4.622212148014966937e-01
-4.214147868708452149e-01
-3.755014159846539190e-01
-3.252242588638714071e-01
