BVP Green Neck Signal
9.878741152080472258e-04
-4.100813627365803432e-03
-1.067554066907369127e-02
-1.818609190560645586e-02
-2.591302775594915911e-02
-3.309482508506445680e-02
-3.900632162577370721e-02
-4.317253881833491014e-02
-4.539319766325092959e-02
-4.568721052576868447e-02
-4.424234992742362427e-02
-4.129834952322389979e-02
-3.706817738196931111e-02
-3.175958822325053443e-02
-2.546022999988890173e-02
-1.817900162048461873e-02
-9.887351457382585751e-03
-5.368363852780518204e-04
9.774468027320130231e-03
2.087070664071965023e-02
3.247982783227090775e-02
4.426656344361973999e-02
5.589741224662628238e-02
6.704109694975633749e-02
7.741403491614021193e-02
8.680261803005942522e-02
9.505180942168475755e-02
1.020520535745319257e-01
1.077126739256130256e-01
1.119303313119137944e-01
1.146021437517058400e-01
1.156282238194074746e-01
1.149286332300170632e-01
1.124647724345895217e-01
1.082449143447984652e-01
1.023372380895309075e-01
9.486412391318121973e-02
8.599087902314050957e-02
7.590836875480574952e-02
6.482592554084878889e-02
5.295852938495108908e-02
4.052072959116682915e-02
2.772589165242193496e-02
1.478193167624079415e-02
1.897811559357216694e-03
-1.070778579563089021e-02
-2.282614965690847944e-02
-3.426277155359021970e-02
-4.484974401886963891e-02
-5.446904737925711837e-02
-6.299147415000846961e-02
-7.033276934896150190e-02
-7.644065923603120261e-02
-8.129626200835309013e-02
-8.495572037147540445e-02
-8.744071522859789281e-02
-8.878973443130105947e-02
-8.906544275227859520e-02
-8.835103618338180365e-02
-8.678029585763474829e-02
-8.450904467345249360e-02
-8.162908610817616595e-02
-7.823629141623655858e-02
-7.442294005807446877e-02
-7.029672160485070376e-02
-6.603084883659535165e-02
-6.168688610147563672e-02
-5.732171465401534466e-02
-5.297435598519354555e-02
-4.867804688426191628e-02
-4.453369636408069376e-02
-4.055016960770595202e-02
-3.672840675187364484e-02
-3.306599823292043910e-02
-2.955539858879180706e-02
-2.622307503868349238e-02
-2.305892023364968652e-02
-2.003151145366784819e-02
-1.714361855850378424e-02
-1.439960299937506107e-02
-1.181034801503836468e-02
-9.370020296904322046e-03
-7.031580303163986051e-03
-4.815098482232637797e-03
-2.745973607530506882e-03
-8.397015729940120361e-04
9.208309998196629112e-04
2.603430456177232601e-03
4.209547855220365994e-03
5.733222233091077313e-03
7.180516409678802670e-03
8.608340497065422592e-03
1.011600024559352641e-02
1.174621981457083311e-02
1.353754937336594175e-02
1.553079864994543098e-02
1.779648748205120423e-02
2.045695374199844527e-02
2.353426971585580521e-02
2.706836614576575359e-02
3.108555204571943065e-02
3.560124920097559181e-02
4.069750710717957159e-02
4.628992845281740265e-02
5.233604621294395826e-02
5.877878249059514254e-02
6.553924432007164624e-02
7.255967313655173334e-02
7.967841564301129942e-02
8.672475109130599324e-02
9.355401487454527432e-02
1.000142701056288413e-01
1.059615604614885659e-01
1.112260780809390531e-01
1.155918601326371559e-01
1.189148790365607555e-01
1.210720264728914891e-01
1.219582664812213085e-01
1.215173844832320021e-01
1.196204589263702156e-01
1.162346902816691202e-01
1.113654043988850928e-01
1.050510124265987971e-01
9.738421971060841342e-02
8.842931469564589697e-02
7.828676005739501620e-02
6.710065419014495103e-02
5.503829737091031626e-02
4.229936021569232624e-02
2.909049444407701274e-02
1.558122901914254024e-02
1.971892021551781456e-03
-1.153785107187023547e-02
-2.475188354197243798e-02
-3.745726159418279883e-02
-4.950712586175774754e-02
-6.074604693064269284e-02
-7.103661251354302653e-02
-8.026175087826387111e-02
-8.833389328625643189e-02
-9.517811046275380382e-02
-1.007330053865354846e-01
-1.049588772738308945e-01
-1.078387903570463685e-01
-1.094042698883626180e-01
-1.097128391741169912e-01
-1.087709175228056685e-01
-1.066238759549320986e-01
-1.033332286245433468e-01
-9.898983419945879547e-02
-9.379808791823908420e-02
-8.779491865366159664e-02
-8.108668927006147664e-02
-7.378677544445229330e-02
-6.602261319993571465e-02
-5.803008381249064734e-02
-4.992166152961084735e-02
-4.180916496651077008e-02
-3.382806905467338615e-02
-2.611342521681311868e-02
-1.884748543266145937e-02
-1.217828818741852233e-02
-6.162814627540919368e-03
-9.055226043587160344e-04
3.504353674787264675e-03
6.988824897292049074e-03
9.461743696658741001e-03
1.098606518829107342e-02
1.155403133777554298e-02
1.117676956750046115e-02
9.895801484723637173e-03
7.776573282914405610e-03
4.994299081741232493e-03
1.672180185201510919e-03
-2.071840308983721127e-03
-6.102650470166136321e-03
-1.024928321783154933e-02
-1.427522416433258355e-02
-1.799739056687529523e-02
-2.126118810465073283e-02
-2.392348331317616095e-02
-2.583585574592869513e-02
-2.679868113242220296e-02
-2.671250445792608397e-02
-2.549717172440220045e-02
-2.310519286858681715e-02
-1.951601254898778157e-02
-1.466989197404447269e-02
-8.638423360103345688e-03
-1.499569017169414837e-03
6.650334712280596416e-03
1.568673194940301691e-02
2.549954096760837646e-02
3.589369572201148162e-02
4.663428932880946121e-02
5.752392362924654140e-02
6.835944419430659003e-02
7.894716317818126217e-02
8.909585547521634008e-02
9.850895080679918092e-02
1.069926508862230619e-01
1.143757747249769391e-01
1.205056268968329597e-01
1.253018842315379022e-01
1.285611214077988784e-01
1.301847488657035257e-01
1.301218392017137737e-01
1.283547592164955009e-01
1.249264176754985162e-01
1.198497457730094973e-01
1.131574728151112097e-01
1.049444060593765354e-01
9.533512785231657016e-02
8.448644521378585737e-02
7.258023435010288460e-02
5.977886431922668081e-02
4.628326933996336490e-02
3.230649457150083087e-02
1.806894348716108628e-02
3.780894236634663175e-03
-1.032376346498010446e-02
-2.402135429799697949e-02
-3.709824585423725229e-02
-4.935654571478914621e-02
-6.065296713116593436e-02
-7.083250840044132135e-02
-7.973176451957388056e-02
-8.722744261689976963e-02
-9.322754551888198793e-02
-9.770089912365577389e-02
-1.006900424198876598e-01
-1.021600564474774986e-01
-1.021335459562993930e-01
-1.006620696902486706e-01
-9.783546818534970269e-02
-9.387236900042178478e-02
-8.888660191002606403e-02
-8.302725265237548280e-02
-7.645405245783583326e-02
-6.934156091704264668e-02
-6.192593069726851779e-02
-5.442088582936403796e-02
-4.699568337562742837e-02
-3.981912282426717381e-02
-3.304437335822293931e-02
-2.682303087412218554e-02
-2.129418553903081324e-02
-1.653274350343666294e-02
-1.261111335524658754e-02
-9.571494881647884742e-03
-7.422231440908554079e-03
-6.141859716168956984e-03
-5.633506273870525147e-03
-5.833000073510475128e-03
-6.659407647886972370e-03
-8.005566955974095442e-03
-9.728623105450565425e-03
-1.161027032611742713e-02
-1.349424629640565663e-02
-1.524847981158076841e-02
-1.674337231830242204e-02
-1.783946843657270229e-02
-1.833543725893206980e-02
-1.808748054386768306e-02
-1.701538468301833432e-02
-1.506801217153061999e-02
-1.220926749377127495e-02
-8.376928799629824660e-03
-3.541848548801252491e-03
2.259579915203802775e-03
8.956581352569509963e-03
1.645486248430279991e-02
2.467312436908436490e-02
3.349034017089676935e-02
4.275537841556162344e-02
5.230697411159374033e-02
6.197200657384335093e-02
7.159618199512823855e-02
8.099806536316635219e-02
8.995529494519111102e-02
9.829332324505672680e-02
1.058477766213969939e-01
1.124729794640624975e-01
1.180794253379315734e-01
1.224400952826461830e-01
1.254471684930832109e-01
1.270216108163871038e-01
1.271091619258771233e-01
1.257419159911890294e-01
1.228325131981704704e-01
1.183703019643661675e-01
1.124004034249554973e-01
1.049973177199401975e-01
9.628996699890754463e-02
8.638815901390391183e-02
7.538762974556910412e-02
6.344852017554752921e-02
5.075113861289411860e-02
3.749319243010936636e-02
2.388761583677023390e-02
1.011895076522194813e-02
-3.597574673899396006e-03
-1.704628806050695333e-02
-3.001889522079273162e-02
-4.234604072322525198e-02
-5.384156487197844926e-02
-6.432878076760574493e-02
-7.365363838856073264e-02
-8.169039578479012076e-02
-8.838309691529103174e-02
-9.370040789867928321e-02
-9.757791257758313685e-02
-9.999865835860612118e-02
-1.009786184380447732e-01
-1.005902714088742211e-01
-9.901081787077857521e-02
-9.630801949902584314e-02
-9.260153105879892488e-02
-8.802613035677567255e-02
-8.273917032144378902e-02
-7.700761036845797658e-02
-7.098875918817426633e-02
-6.484123957568130314e-02
-5.872113113548176749e-02
-5.277575174812361436e-02
-4.718955275784761372e-02
-4.210140117229315554e-02
-3.758136610386222237e-02
-3.370234995298137387e-02
-3.050991235405926469e-02
-2.803591007012662048e-02
-2.629277943946749935e-02
-2.519973470839451460e-02
-2.471036842784170642e-02
-2.475976434192001668e-02
-2.525929850246758784e-02
-2.610927513169883363e-02
-2.711710658583105227e-02
-2.816348916286593243e-02
-2.914221108969105786e-02
-2.994483172477703167e-02
-3.045253441587072660e-02
-3.048168538790492835e-02
-2.991999584023052536e-02
-2.870360569257745728e-02
-2.678779883653824301e-02
-2.413134392192751304e-02
-2.065091881151112294e-02
-1.631025382879395386e-02
-1.112868603800034988e-02
-5.151152786082349375e-03
1.564654454831550636e-03
8.993177784599640234e-03
1.706100010258089494e-02
2.567323669148292853e-02
3.471960414019632790e-02
4.407936363281974440e-02
5.366066084776206779e-02
6.331780254918628614e-02
7.289453934444709016e-02
8.225393613924550373e-02
9.125850007136029896e-02
9.979562132369844407e-02
1.077400219455381530e-01
1.148893882954422491e-01
1.211183382186688945e-01
1.263148895775023928e-01
1.303778081645165510e-01
1.332999110701470480e-01
1.348811346035194147e-01
1.350542341800323731e-01
1.337789100332239800e-01
1.310387155067035125e-01
1.268967941785403564e-01
1.213291657939842144e-01
1.143476113140379641e-01
1.060250883961201818e-01
9.646295785676062273e-02
8.580935530030435465e-02
7.422196671846907623e-02
6.182300320403943950e-02
4.879630941545291117e-02
3.534224160220842542e-02
2.167237905719461219e-02
8.012697180823112608e-03
-5.443681649093652652e-03
-1.847809042072588032e-02
-3.087838154026742790e-02
-4.244903193295595373e-02
-5.304334043898056850e-02
-6.252400162537144479e-02
-7.075188993960450368e-02
-7.761630280004819249e-02
-8.304160344265675009e-02
-8.702362255056089735e-02
-8.962104668958506548e-02
-9.083908912204327613e-02
-9.072628265480860155e-02
-8.935974490631883038e-02
-8.686107202718139353e-02
-8.347675292463467567e-02
-7.932537167705693004e-02
-7.456708716917538615e-02
-6.936411934495170795e-02
-6.388660475715758624e-02
-5.838359354164521231e-02
-5.301555318633325437e-02
-4.791759908944730195e-02
-4.321978301379976461e-02
-3.903099772782268884e-02
-3.546805998071544952e-02
-3.260372203452239354e-02
-3.044462728819921291e-02
-2.900904139472134172e-02
-2.828852629831172041e-02
-2.824930395149291215e-02
-2.882596860399490660e-02
-2.987886274194338429e-02
-3.132087412573163199e-02
-3.305778649757698529e-02
-3.497776017342402871e-02
-3.694043204366842525e-02
-3.873594971555211625e-02
-4.023613017244430379e-02
-4.133957485212367416e-02
-4.195059237169963123e-02
-4.196175299202632714e-02
-4.120395972038384119e-02
-3.958233991403685426e-02
-3.705610865039639379e-02
-3.360817479950425901e-02
-2.922795422722032285e-02
-2.386474892837681452e-02
-1.751617660180085356e-02
-1.023272515828437847e-02
-2.092714374210653209e-03
6.808999732479791706e-03
1.640652240616054594e-02
2.657871940289200513e-02
3.718335266598851718e-02
4.806527451172321747e-02
5.905679037901050837e-02
7.001498113998420869e-02
8.075001389011883524e-02
9.104577536096972179e-02
1.007193418794378043e-01
1.095923041471938419e-01
1.175085883678351067e-01
1.243319195866487703e-01
1.298335293369467514e-01
1.338817735558140987e-01
1.363721524325361700e-01
1.372251969438268160e-01
1.364457284862286013e-01
1.339210904012049508e-01
1.296435703813196005e-01
1.236539276737166626e-01
1.160280142712264984e-01
1.069020500219854120e-01
9.638406034172497527e-02
8.460611062773315538e-02
7.175718468696823393e-02
5.804975552710642250e-02
4.371665991562716930e-02
2.899237833943416748e-02
1.409955905543522521e-02
-7.121665586488127274e-04
-1.519678668704439219e-02
-2.912288502652732661e-02
-4.231651105043554573e-02
-5.458331524537586577e-02
-6.574152036530232779e-02
-7.563458608548992435e-02
-8.414303046789055329e-02
-9.124832491351070329e-02
-9.694028948208496810e-02
-1.011697245117086363e-01
-1.039285242136846199e-01
-1.052420443009111084e-01
-1.052186481149891689e-01
-1.040731961549501011e-01
-1.018605098473396031e-01
-9.868416030058287103e-02
-9.465534538123698827e-02
-8.990884384077398039e-02
-8.476719738583669839e-02
-7.930964080143308725e-02
-7.365933575270591782e-02
-6.792460504907020524e-02
-6.220888184852631925e-02
-5.669996244574288663e-02
-5.149988428174794020e-02
-4.665171238710439511e-02
-4.220963524290929914e-02
-3.820947378084663115e-02
-3.469082756662329042e-02
-3.166898972719747740e-02
-2.910598445361102862e-02
-2.699988155370658741e-02
-2.533653466606207438e-02
-2.407898324100879797e-02
-2.312001792729883459e-02
-2.236043411445985327e-02
-2.175571635447235905e-02
-2.126576906895098068e-02
-2.083199898344161374e-02
-2.029587059502361429e-02
-1.948697284007544495e-02
-1.833751721382740479e-02
-1.679153898438576556e-02
-1.478994889867797473e-02
-1.220747630324924525e-02
-8.833498806731893485e-03
-4.615534030806476423e-03
4.914243058703154747e-04
6.513912374833176824e-03
1.348571866254964259e-02
2.156707036140270012e-02
3.070998494417799540e-02
4.088032397208779534e-02
5.200959196565423798e-02
6.400424912065494354e-02
7.683731721371812873e-02
9.033501039651922748e-02
1.042947761645008908e-01
1.185099304238604184e-01
1.327474736530623867e-01
1.467952142525358605e-01
1.603808389688446689e-01
1.731529665597362766e-01
1.848223782674242310e-01
1.951043925147326885e-01
2.037308226161513303e-01
2.104837129788428296e-01
2.150198007241034548e-01
2.171307573330598928e-01
2.166550690202214413e-01
2.134765981777695110e-01
2.075662540673522405e-01
1.988372186398552621e-01
1.873113364710543294e-01
1.730915033380165668e-01
1.563394603930311488e-01
1.372796778436201348e-01
1.161488041553867812e-01
9.323017723668994283e-02
6.887465397736011741e-02
4.346557295885192934e-02
1.740121232714755134e-02
-8.941066613274784372e-03
-3.514835886531936932e-02
-6.080246363692078798e-02
-8.549835720702335384e-02
-1.088624159165933331e-01
-1.306331708861275254e-01
-1.505070670341553674e-01
-1.682085318016158793e-01
-1.835137068484233025e-01
-1.962570962144689068e-01
-2.064050371342699419e-01
-2.139689559997552115e-01
-2.189037976259551044e-01
-2.212416563403772907e-01
-2.210619989214663017e-01
-2.185269906382339422e-01
-2.139431913388985806e-01
-2.074453784530173039e-01
-1.992466441279208966e-01
-1.895733083582480383e-01
-1.786721210434091267e-01
-1.669230418953462081e-01
-1.545384790231146555e-01
-1.417530519352269147e-01
-1.287983060684667336e-01
-1.158904946167762656e-01
-1.032808470364840331e-01
-9.113841771768424471e-02
-7.958009696235043839e-02
-6.873967244226383833e-02
-5.872158814472461241e-02
-4.961184093541654017e-02
-4.144159507448580415e-02
-3.414146508210066933e-02
-2.771100852910639636e-02
-2.213117847019254250e-02
-1.734881169034837092e-02
-1.329686283726770786e-02
-9.728602078727631441e-03
-6.528524209089040312e-03
-3.596228917384259195e-03
-8.195988695143831791e-04
1.918513029227020055e-03
4.877072422374654007e-03
8.230415091922427609e-03
1.207879401515008812e-02
1.650257005955636791e-02
2.157357718818106104e-02
2.741679997372356223e-02
3.413173869311204867e-02
4.172413674221658875e-02
5.015977428931130827e-02
5.937755494851162247e-02
6.934669042379465465e-02
7.994355799687341557e-02
9.102741332494942994e-02
1.024290232014996721e-01
1.139544960760454223e-01
1.254601138781661906e-01
1.366621349639436933e-01
1.472829150916520613e-01
1.570966725000889908e-01
1.658849020608073876e-01
1.734879796507449168e-01
1.797120295402215573e-01
1.842383683673594619e-01
1.869275290643228060e-01
1.876856640481527616e-01
1.864564232690036072e-01
1.833554629964017357e-01
1.781607763449186699e-01
1.709247264554494272e-01
1.617585697620512464e-01
1.508168264742493214e-01
1.383763875304610813e-01
1.245381406739996671e-01
1.094771041738454298e-01
9.345478332787346409e-02
7.675296495283871756e-02
5.969069991145879717e-02
4.254379313534525919e-02
2.551221491381222561e-02
8.859252298272363157e-03
-7.164979161929530688e-03
-2.233441771298582540e-02
-3.645379764820796259e-02
-4.939563990868523630e-02
-6.102400326320873286e-02
-7.123261141793657547e-02
-7.995273463428413663e-02
-8.720001511754515988e-02
-9.298230514900117372e-02
-9.730874366998640279e-02
-1.002191387364648606e-01
-1.017795152397328456e-01
-1.021284417956890983e-01
-1.014343141750219390e-01
-9.976767361046404159e-02
-9.724163335672272868e-02
-9.397397626349082711e-02
-9.010520386232623302e-02
-8.588665720767636735e-02
-8.136691676077133228e-02
-7.665890349421425332e-02
-7.186612757634644466e-02
-6.708812708035064021e-02
-6.250734235834555508e-02
-5.816142896711162108e-02
-5.410112079990366668e-02
-5.039089071076569004e-02
-4.708314317129649873e-02
-4.425433833219512281e-02
-4.190695168677289334e-02
-4.000038713829544984e-02
-3.854972063639902635e-02
-3.755920805522422468e-02
-3.701928594101446673e-02
-3.688474911038657628e-02
-3.700140982391002947e-02
-3.732257127728387525e-02
-3.780189001001083710e-02
-3.837316709090880795e-02
-3.894282580483153511e-02
-3.929328862821029889e-02
-3.931700988082840326e-02
-3.893668276931989275e-02
-3.807490735069605364e-02
-3.663289571886865770e-02
-3.443291495026247484e-02
-3.137385972297251219e-02
-2.741045818475940782e-02
-2.252203754952712342e-02
-1.669251248022859957e-02
-9.863929915628318404e-03
-2.061143498214062109e-03
6.654650088680432590e-03
1.618873247684018968e-02
2.642139991848452274e-02
3.727162255419023962e-02
4.854208255581087678e-02
6.004268029810330698e-02
7.157626018183703420e-02
8.293342918014047493e-02
9.393822587032142624e-02
1.043444360088326417e-01
1.138939743176836106e-01
1.223865554506769343e-01
1.296402833468588145e-01
1.355100585268710356e-01
1.398756279725506535e-01
1.425360225240177858e-01
1.434093522003718479e-01
1.424545818054949453e-01
1.396663917908362584e-01
1.351306144636521267e-01
1.288175227685542934e-01
1.208082103940575913e-01
1.112295382031679852e-01
1.002381101089154236e-01
8.804100239474159373e-02
7.480421456818049653e-02
6.071104406777289020e-02
4.598637621012915955e-02
3.086228680268204155e-02
1.557094939465158805e-02
3.204971464701718113e-04
-1.468681336688213747e-02
-2.923418280052875531e-02
-4.311708173641695674e-02
-5.615475187136071550e-02
-6.825652007238654229e-02
-7.927564009676134338e-02
-8.907898182232627804e-02
-9.755212355441739147e-02
-1.046117002630558013e-01
-1.102837990550963043e-01
-1.145834860098369073e-01
-1.174694099108448131e-01
-1.189355828245397123e-01
-1.190004229563765697e-01
-1.177570557330619438e-01
-1.153926241100392824e-01
-1.119516040861646827e-01
-1.075268795051444737e-01
-1.022214498393314991e-01
-9.616186265693106583e-02
-8.961161194922888373e-02
-8.267749279186911715e-02
-7.550955853262189543e-02
-6.825324265751206432e-02
-6.105192737676620046e-02
-5.408390187235677382e-02
-4.747570355252911378e-02
-4.133889981589143614e-02
-3.578552171516149322e-02
-3.090399041329919619e-02
-2.675520781280241178e-02
-2.333408016931235243e-02
-2.062977933233273511e-02
-1.864253164945378280e-02
-1.734702047022001689e-02
-1.667671482751014247e-02
-1.646967011543955944e-02
-1.655035795732611240e-02
-1.679407495199721628e-02
-1.707401325512000745e-02
-1.724410348788665837e-02
-1.709646851900485653e-02
-1.637600469349850124e-02
-1.492238532612825443e-02
-1.261001296669575326e-02
-9.333472018616303587e-03
-4.982981514196719100e-03
5.853442569426158502e-04
7.421052368529149068e-03
1.551742895389911919e-02
2.482232341572191900e-02
3.525081443947758464e-02
4.672693568709419126e-02
5.908132121821747101e-02
7.212277505835634761e-02
8.562631923803265543e-02
9.933933215131812711e-02
1.130253607657355358e-01
1.263567315416550541e-01
1.390303575676020975e-01
1.507647468356190235e-01
1.612882108220507482e-01
1.703742479394191878e-01
1.777600339591642598e-01
1.831798155701025999e-01
1.864684209595720843e-01
1.875072787077710079e-01
1.862326499817292536e-01
1.826613282403428962e-01
1.766908165363182404e-01
1.683790145046637210e-01
1.578386448797371167e-01
1.452284389209456128e-01
1.308119031297386159e-01
1.147365717719133205e-01
9.723592598922986552e-02
7.859442669642681401e-02
5.911777278841925248e-02
3.914757579906060631e-02
1.899011408797910208e-02
-1.070245368867691216e-03
-2.072040396416738317e-02
-3.965904086464223932e-02
-5.760726108081268282e-02
-7.432991705752543810e-02
-8.960410490972289810e-02
-1.032247771638104133e-01
-1.150191533071690114e-01
-1.248567242412451234e-01
-1.327152832549227668e-01
-1.385342887051874972e-01
-1.422814977271193715e-01
-1.439647804473228321e-01
-1.436339303127391331e-01
-1.414373601017732129e-01
-1.375477839035724736e-01
-1.320842857378732027e-01
-1.252128744510917213e-01
-1.171220656374058061e-01
-1.080469022039477200e-01
-9.830516991730568754e-02
-8.809470272671199309e-02
-7.765279746704611963e-02
-6.721097521053620572e-02
-5.699639771216252065e-02
-4.729037090757312600e-02
-3.825342307981176998e-02
-3.006006480530535804e-02
-2.286523684866869147e-02
-1.679027788709006042e-02
-1.194325806749290189e-02
-8.327361823245869182e-03
-5.930344998013125854e-03
-4.743891639506217159e-03
-4.722766127847858805e-03
-5.785405469558715236e-03
-7.757868188661677655e-03
-1.040750943444241315e-02
-1.357164812360243770e-02
-1.707919774040593877e-02
-2.073553711642558278e-02
-2.432401213463736278e-02
-2.750496675352963674e-02
-3.007406561178943213e-02
-3.186412868531499076e-02
-3.272666423809769687e-02
-3.252918364448208893e-02
-3.107551153619295473e-02
-2.826139327222742734e-02
-2.405896932201477892e-02
-1.848584930172656945e-02
-1.159234755447785710e-02
-3.435806445254780111e-03
5.878090624761306802e-03
1.619490984509438028e-02
2.732500775605054000e-02
3.905061395731083962e-02
5.117178392864690784e-02
6.337962333282476379e-02
7.541886427943592097e-02
8.703930057271777598e-02
9.799450285223167134e-02
1.080950885193982663e-01
1.170440347927271252e-01
1.246016477987707260e-01
1.306050031516497179e-01
1.349272119625927746e-01
1.375080915735472087e-01
1.382782232608728845e-01
1.371103013916142588e-01
1.340161061593261316e-01
1.290532407985171548e-01
1.223172484507364377e-01
1.140069730470727599e-01
1.041490584183468876e-01
9.291590278962558180e-02
8.051051994440595883e-02
6.715646697757751693e-02
5.311746147448601768e-02
3.859962785247741252e-02
2.383243438022010843e-02
9.065193355011789966e-03
-5.456924538578353939e-03
-1.950915187857102731e-02
-3.289343972923623738e-02
-4.539683637059774984e-02
-5.682733055217924212e-02
-6.701645217601887028e-02
-7.583265682507323024e-02
-8.325125169610986253e-02
-8.915033781291031856e-02
-9.346921127000762386e-02
-9.617592434871638507e-02
-9.727762111352636354e-02
-9.689508092268138417e-02
-9.511130764870580345e-02
-9.200279134284912452e-02
-8.768041650229084494e-02
-8.228109258261120940e-02
-7.600166732361994526e-02
-6.908402402338262305e-02
-6.170392290229471249e-02
-5.405429547952724650e-02
-4.632663680861737188e-02
-3.871701096952814142e-02
-3.145250130173100900e-02
-2.470281768355508945e-02
-1.862694551982828350e-02
-1.335726226073974225e-02
-8.996154835392655355e-03
-5.614964685521606561e-03
-3.235228677764631026e-03
-1.870502718498979946e-03
-1.507367485228153139e-03
-2.094356325922446926e-03
-3.534286652916982397e-03
-5.646429058818904292e-03
-8.270214284536694244e-03
-1.125662382235016919e-02
-1.444331935875040225e-02
-1.764644193924540597e-02
-2.061739489899358166e-02
-2.310595556372695494e-02
-2.494207717288051546e-02
-2.598250371259494887e-02
-2.609845409207233249e-02
-2.515767782051384419e-02
-2.299874613206576851e-02
-1.956690672198276720e-02
-1.486236433632494823e-02
-8.924242097029310566e-03
-1.813845395052418857e-03
6.408900481267744767e-03
1.562068520896060103e-02
2.565382010371639737e-02
3.631027076984381929e-02
4.737789343900794536e-02
5.864677193520816817e-02
6.985326612551259751e-02
8.075639090869780878e-02
9.111857380971534470e-02
1.007097038069904582e-01
1.093582415787087564e-01
1.167975271542662091e-01
1.228463485153723500e-01
1.273677369651227687e-01
1.302575966379868611e-01
1.314831165443711702e-01
1.309640029720697263e-01
1.286479148919201787e-01
1.245671892531399205e-01
1.187922529349367262e-01
1.114404393610110844e-01
1.026574404329661239e-01
9.252488719085973090e-02
8.121440551043664080e-02
6.892033149777819501e-02
5.585130557955405445e-02
4.224599499942632147e-02
2.828637452521562748e-02
1.419095106143099770e-02
1.811276941346036395e-04
-1.352909226113978812e-02
-2.675428009021240186e-02
-3.931700685132824558e-02
-5.103403623407520850e-02
-6.174373370058119231e-02
-7.130732565170622150e-02
-7.963414809825347662e-02
-8.669386473572573970e-02
-9.238600633887078528e-02
-9.666076710350642032e-02
-9.949401008768440913e-02
-1.008968257588180734e-01
-1.010117412898489525e-01
-9.986449328513324897e-02
-9.752470543933255964e-02
-9.407993885657632560e-02
-8.964215874397681028e-02
-8.440690634202216436e-02
-7.855442151354279090e-02
-7.221960016765489876e-02
-6.555340348915132676e-02
-5.870815320320964259e-02
-5.185994206014725438e-02
-4.520927461605350750e-02
-3.887853920852891304e-02
-3.299680838143288081e-02
-2.767292392167303508e-02
-2.299503760425810825e-02
-1.905578980248506457e-02
-1.586049158160051167e-02
-1.343542057873418037e-02
-1.178345943017949579e-02
-1.087626366684217236e-02
-1.065087747135551842e-02
-1.096601909477268322e-02
-1.171720989274206877e-02
-1.280701312895554146e-02
-1.412298207690730091e-02
-1.552435460856888862e-02
-1.679082167140541482e-02
-1.775249431670085365e-02
-1.829006622870193999e-02
-1.830011717961834913e-02
-1.767951955012032894e-02
-1.626699700218037573e-02
-1.394814943665353447e-02
-1.068111346329349808e-02
-6.461110542431106052e-03
-1.305991721814588839e-03
4.795669500495989071e-03
1.181693189276581193e-02
1.966515680631927138e-02
2.822280267092865114e-02
3.734957620413913854e-02
4.692081107366598974e-02
5.679715650735116250e-02
6.676550986547438726e-02
7.664061848151548784e-02
8.623430193069230032e-02
9.536814380560658388e-02
1.039241235017808462e-01
1.116373615694202792e-01
1.183472452593188201e-01
1.239142597131234480e-01
1.282182476296681028e-01
1.312227837118433715e-01
1.327691106930722897e-01
1.327736679534873565e-01
1.312096441717547635e-01
1.280786759481476467e-01
1.234375666877333688e-01
1.173155346490154932e-01
1.097314607539939396e-01
1.007817796055145987e-01
9.058798893319322532e-02
7.929264865636138915e-02
6.705190789691418962e-02
5.399514170505503169e-02
4.030679240915806261e-02
2.618409713202466543e-02
1.182691285598711992e-02
-2.607620706114164699e-03
-1.692425329894248209e-02
-3.091191520791146050e-02
-4.436653931458615918e-02
-5.709883952686303082e-02
-6.899687595448267263e-02
-7.995833057631222818e-02
-8.980166795380431499e-02
-9.839370775923922396e-02
-1.056273136327408046e-01
-1.114602428317122695e-01
-1.159955188012562338e-01
-1.191436445819740036e-01
-1.208984112375685593e-01
-1.212764904982367997e-01
-1.203335539591637582e-01
-1.183072100852593372e-01
-1.152742389142030754e-01
-1.113316785672628512e-01
-1.065985225988207857e-01
-1.012088939827428258e-01
-9.538365752266513009e-02
-8.932209682824029939e-02
-8.313433274033214804e-02
-7.695666903814558923e-02
-7.091137806008569744e-02
-6.512301451615848391e-02
-5.972552670271224357e-02
-5.474914242412053794e-02
-5.025187668406715796e-02
-4.626643382109019154e-02
-4.279322452066109533e-02
-3.978599652033537604e-02
-3.714651033179239975e-02
-3.481876074627984069e-02
-3.274058505584124396e-02
-3.082641330180284009e-02
-2.891848578988198346e-02
-2.680595735873671573e-02
-2.438095460798275771e-02
-2.155706240561411358e-02
-1.825418417347165687e-02
-1.435556100911745785e-02
-9.638527618739458139e-03
-4.049292997134253114e-03
2.432885090593915264e-03
9.796526581796779001e-03
1.802173905306769797e-02
2.722007230358841623e-02
3.732611620930769564e-02
4.824524125085994514e-02
5.985195415027950300e-02
7.200332293339614664e-02
8.462729587201106574e-02
9.758423231261449671e-02
1.106618861503863988e-01
1.236642312830435603e-01
1.363867572262069117e-01
1.486577745459529976e-01
1.603181886848142057e-01
1.710941215402374260e-01
1.807920557042965171e-01
1.892296389962088987e-01
1.962355762590852482e-01
2.017331661916281493e-01
2.054581514121309738e-01
2.072886302539130587e-01
2.071353336646410415e-01
2.049335592876774803e-01
2.006872840011104386e-01
1.943065286385364243e-01
1.857662855390280199e-01
1.751161652751243303e-01
1.624400484840990977e-01
1.478675272591980228e-01
1.315176669093272022e-01
1.134977281850160918e-01
9.400463424478044949e-02
7.326650347848641387e-02
5.153291635278087895e-02
2.907633871902256736e-02
6.123778143377067891e-03
-1.703108268870963046e-02
-4.008239890598008781e-02
-6.272480405977584605e-02
-8.467846760139312312e-02
-1.056831863461219351e-01
-1.254608145350996351e-01
-1.437471556869019951e-01
-1.603055994732272005e-01
-1.749651172972976065e-01
-1.876179018327471526e-01
-1.981068150168856512e-01
-2.063249844733209548e-01
-2.122062829508818416e-01
-2.157476436876134829e-01
-2.171232550788551041e-01
-2.163313079547154461e-01
-2.134578892899317015e-01
-2.086170664390971929e-01
-2.019633890844659829e-01
-1.938390801141463560e-01
-1.844240757238592432e-01
-1.738864019297684804e-01
-1.624310717629716128e-01
-1.502707156738563032e-01
-1.377241413777244294e-01
-1.250764419324826016e-01
-1.124190217601416103e-01
-9.992670934417965944e-02
-8.775687503231999198e-02
-7.607733927088866643e-02
-6.516673064650110869e-02
-5.493858100494202618e-02
-4.546482228858286789e-02
-3.680004647079614111e-02
-2.897623138214028629e-02
-2.211663297904208764e-02
-1.605929596634580667e-02
-1.073778251031288003e-02
-6.122057526002130934e-03
-2.168668933407122325e-03
1.147878680604631860e-03
3.985707108750896968e-03
6.510603161283639445e-03
8.799730813315009489e-03
1.092790095969537953e-02
1.298141955660774872e-02
1.510590041820194206e-02
1.747791729111902725e-02
2.018716662875004106e-02
2.330780121850625775e-02
2.691461162246781141e-02
3.115668824071785720e-02
3.611535674685713987e-02
4.183515504253794426e-02
4.834438376826486611e-02
5.565532897367133497e-02
6.385120180224911068e-02
7.292203198196019198e-02
8.274594686400960075e-02
9.324496914304793160e-02
1.043191548805805641e-01
1.158983763669472894e-01
1.279732057775466170e-01
1.401662640029890938e-01
1.522751071960561087e-01
1.640902059902037413e-01
1.753986263192466311e-01
1.862343197432297370e-01
1.961219548767519638e-01
2.047835420467542522e-01
2.119981924100675097e-01
2.175732780877416284e-01
2.215108255949560512e-01
2.236233167991781845e-01
2.236545226717439605e-01
2.215204311723824038e-01
2.171887196547206411e-01
2.107366537915780491e-01
2.023453569642024163e-01
1.919393233719822733e-01
1.796522024625507030e-01
1.656626121914807626e-01
1.501894528445914256e-01
1.335880137047893434e-01
1.160273646009796072e-01
9.778138310729882210e-02
7.914327906449665495e-02
6.040496734169532866e-02
4.183810371230984454e-02
2.368994155063296886e-02
6.211512297233527484e-03
-1.036931535234659162e-02
-2.586212564048563645e-02
-4.015888160597813616e-02
-5.324726262995686105e-02
-6.500349114698175668e-02
-7.539048633685098422e-02
-8.441180417429212934e-02
-9.212374551855617710e-02
-9.880786990518798663e-02
-1.044874108883364766e-01
-1.092881640472836424e-01
-1.133518013999797458e-01
-1.168385423123769473e-01
-1.200368786641291124e-01
-1.231218885311242267e-01
-1.261989243172361996e-01
-1.293974116899334337e-01
-1.328262231559003692e-01
-1.366185375773853738e-01
-1.408956387749457084e-01
-1.456093560943723386e-01
-1.507529787804630095e-01
-1.562863088756081820e-01
-1.621378857578448518e-01
-1.682910342154342598e-01
-1.744901649188654036e-01
-1.805814998780700398e-01
-1.863992709778094503e-01
-1.917613950140387158e-01
-1.965375505030943215e-01
-2.004187528368321924e-01
-2.031621760979637759e-01
-2.045919878681412285e-01
-2.045507821826346440e-01
-2.029455772157207627e-01
-1.996170714145132918e-01
-1.943378772398441645e-01
-1.870483544610400950e-01
-1.777362308201279328e-01
-1.664344778613616183e-01
-1.533068072133826343e-01
-1.382309050055524347e-01
-1.213283241791921208e-01
-1.027732410232355398e-01
-8.277946505261465915e-02
-6.168371973043258044e-02
-3.964737587351523790e-02
-1.690771885817916875e-02
6.230172804331225722e-03
2.944162271013860133e-02
5.236494875743118865e-02
7.466125468387184438e-02
9.605123572177012847e-02
1.162276365744317058e-01
1.348991576010459825e-01
1.517990615113284647e-01
1.666970619520042329e-01
1.793560735827984254e-01
1.896136270137070701e-01
1.973550707720927166e-01
2.025142442255103981e-01
2.051457685045525448e-01
2.052022835015624436e-01
2.027335969103287727e-01
1.978675587253408974e-01
1.907824994816786635e-01
1.817654997276852424e-01
1.710666446835386600e-01
1.588829547815178989e-01
1.455223193534165294e-01
1.313158152175122051e-01
1.166294373520496280e-01
1.018992050072064781e-01
8.731012019904414723e-02
7.317936329627076908e-02
5.980917400262014683e-02
4.747359222145224739e-02
3.651081974862855489e-02
2.697874298232028414e-02
1.899841439500591159e-02
1.268321962567781937e-02
8.098675553617170828e-03
5.307563383415848934e-03
4.195252192221782771e-03
4.596707814909315598e-03
6.402215150850413920e-03
9.472777087988701328e-03
1.364694278455034181e-02
1.870619442923069156e-02
2.428725332299550704e-02
3.016324984599920087e-02
3.612002821904575917e-02
4.194305578160442000e-02
4.745201704302350748e-02
5.231454497926878167e-02
5.633525027802123442e-02
5.937392063438487466e-02
6.132383879370763291e-02
6.212639640523389545e-02
6.168802018473248244e-02
5.994597700718797689e-02
5.690335650465707523e-02
5.260080820784535788e-02
4.711764455113817696e-02
4.058724695969077867e-02
3.312242425328452283e-02
2.484199196993919223e-02
1.587830616605938328e-02
6.386670229236134089e-03
-3.440061593189509565e-03
-1.333849032650801826e-02
-2.314393002011128075e-02
-3.271368362019770604e-02
-4.190509710521602565e-02
-5.057714396902603105e-02
-5.846765051954320308e-02
-6.540608661186572692e-02
-7.129786000498701537e-02
-7.607075321695300207e-02
-7.967125101714575552e-02
-8.199030728221302911e-02
-8.289683209391110474e-02
-8.238220815191855950e-02
-8.047354290836131185e-02
-7.721822502667492760e-02
-7.270031395417005105e-02
-6.690973214970982741e-02
-5.994783125712403044e-02
-5.195232740132293969e-02
-4.308624074491854139e-02
-3.354390168850326925e-02
-2.349682028502930037e-02
-1.313842873315903929e-02
-2.687616386959232762e-03
7.627044207256740774e-03
1.756909558702515056e-02
2.690199682061695727e-02
3.541251617177953309e-02
4.289558996619263070e-02
4.916507751257240266e-02
5.405747873702141520e-02
5.741760550773032656e-02
5.915932602461008299e-02
5.921648691424483829e-02
5.756138361836937722e-02
5.420614964845948264e-02
4.917400422835653540e-02
4.258071738290365726e-02
3.457487007696845999e-02
2.532208483024858681e-02
1.501650650295132533e-02
3.848590308686600844e-03
-7.958533804063434164e-03
-2.009104117199207035e-02
-3.228069927369656145e-02
-4.426371236705260725e-02
-5.579348058216927059e-02
-6.673607081355242832e-02
-7.677576238850267187e-02
-8.570228798159300332e-02
-9.333685833058612269e-02
-9.954277310716717897e-02
-1.043166201736017429e-01
-1.075913367504883755e-01
-1.093044060004642187e-01
-1.094491365106888825e-01
-1.080594965187347684e-01
-1.052537951474171174e-01
-1.012207443712690585e-01
-9.606061648228086947e-02
-8.990752466677320864e-02
-8.290783163010768952e-02
-7.523180636453501158e-02
-6.712727906731646987e-02
-5.879272680472535928e-02
-5.039445013620029445e-02
-4.207978776640511342e-02
-3.398460954483029095e-02
-2.622574823319842596e-02
-1.897085886243590064e-02
-1.232521520523817936e-02
-6.354245410338077438e-03
-1.095175211467032134e-03
3.469624454778052602e-03
7.352339908666714191e-03
1.053120163963422104e-02
1.303997672132680211e-02
1.493494976998866082e-02
1.630697574242084488e-02
1.733363829830560782e-02
1.807428861327672193e-02
1.862636511807681805e-02
1.908992208470810040e-02
1.957590497195380030e-02
2.026748667591790620e-02
2.129637590217209331e-02
2.275318970271776250e-02
2.471689680434095357e-02
2.725620531158077370e-02
3.046118759501483669e-02
3.442982377632753527e-02
3.917906587542859670e-02
4.470384739295937132e-02
5.097290537849782227e-02
5.794572169292182967e-02
6.560591228709033995e-02
7.382799648730879738e-02
8.248822969955532658e-02
9.143825024240356814e-02
1.005109752109063087e-01
1.095943127262414968e-01
1.184308113673137874e-01
1.268006499532582099e-01
1.344953498574570361e-01
1.413087939555133510e-01
1.470942292885034364e-01
1.516335733439201916e-01
1.546989326356495442e-01
1.561469169194487638e-01
1.558671167536669622e-01
1.538006531342480387e-01
1.499310398664099597e-01
1.441617379183278702e-01
1.365311277605359142e-01
1.271257829619183710e-01
1.160717212690173528e-01
1.035525446659886911e-01
8.970118927039057166e-02
7.474068328351050894e-02
5.893135906757521192e-02
4.255105359291574962e-02
2.586192144168354690e-02
9.122388370933829163e-03
-7.372809963016887722e-03
-2.333823303183878498e-02
-3.850694934657390711e-02
-5.266727873562754292e-02
-6.568807616785235504e-02
-7.735093459450585740e-02
-8.751258351845836447e-02
-9.606932730131002851e-02
-1.029674147181644378e-01
-1.083123333260192639e-01
-1.120738585220776989e-01
-1.143044887498000095e-01
-1.150924919933391938e-01
-1.145582680124773295e-01
-1.129052792557468515e-01
-1.103056247703018689e-01
-1.069084765274680576e-01
-1.028910397465254284e-01
-9.842827279236475435e-02
-9.369843671337055313e-02
-8.887009320399241741e-02
-8.406526967983733722e-02
-7.941043149845425364e-02
-7.500818323986746528e-02
-7.093052647832479018e-02
-6.719427039762940201e-02
-6.379954475730528762e-02
-6.075232467319977708e-02
-5.804140726751490925e-02
-5.562892727996317233e-02
-5.342732173153277864e-02
-5.129494756442048303e-02
-4.914527555660379993e-02
-4.690455262306338774e-02
-4.449665828594737138e-02
-4.183733803311949495e-02
-3.877179943457319256e-02
-3.517587111501503661e-02
-3.099752034909148898e-02
-2.620731424046282218e-02
-2.078561820280474051e-02
-1.473041927406066633e-02
-7.933800298300137596e-03
-4.239390910092673097e-04
7.737106374219480595e-03
1.646708863577843115e-02
2.564522909192717623e-02
3.523465396991176668e-02
4.513489430651498185e-02
5.519894563360616679e-02
6.526253552394792323e-02
7.515064476011938666e-02
8.470008122776701009e-02
9.374489732789087482e-02
1.021046533343822477e-01
1.095994014010006623e-01
1.160592795510581587e-01
1.213605225114624819e-01
1.252988087826010233e-01
1.277476501184914848e-01
1.286070670226102941e-01
1.278035676249266173e-01
1.253503465424355978e-01
1.211585924243788887e-01
1.152228360065032930e-01
1.076069531097183785e-01
9.841280286039810754e-02
8.780309720951619268e-02
7.591293042144357794e-02
6.288190948234027855e-02
4.894363628705145075e-02
3.435945635339979903e-02
1.940482155004541465e-02
4.340437384628241524e-03
-1.060089242939773330e-02
-2.512489774170375764e-02
-3.893866488360137046e-02
-5.177208577397799522e-02
-6.343625208907392732e-02
-7.376006582436175907e-02
-8.255727271600485362e-02
-8.967383547554720613e-02
-9.500205885040655107e-02
-9.852869801267223615e-02
-1.003184927699549422e-01
-1.003967140002760133e-01
-9.883657299669398877e-02
-9.574975182464175172e-02
-9.130161475894815748e-02
-8.575537101724178823e-02
-7.932209719026304950e-02
-7.223218747292582675e-02
-6.471950500961301533e-02
-5.702082853530740514e-02
-4.938353934152311248e-02
-4.204655526869444104e-02
-3.521637086674848233e-02
-2.906943621079353599e-02
-2.374572201454163908e-02
-1.932981578829288255e-02
-1.586728992525237789e-02
-1.339714117359381597e-02
-1.191572064368483924e-02
-1.137804407596516680e-02
-1.168703112937538764e-02
-1.265775073938325314e-02
-1.413236644029459803e-02
-1.595124029936148199e-02
-1.794473630410941059e-02
-1.992597673164040253e-02
-2.167065267652540719e-02
-2.291999392228497717e-02
-2.349806958115628272e-02
-2.326283370541509105e-02
-2.209505448377417983e-02
-1.990385052876791905e-02
-1.654782003017206404e-02
-1.195986185382456359e-02
-6.151313706256336666e-03
8.233088801092892928e-04
8.868543576689600152e-03
1.788076505456152529e-02
2.776563140726430803e-02
3.834425146596574796e-02
4.940606966940988554e-02
6.072005485500942684e-02
7.204291165300692745e-02
8.313947856233473710e-02
9.376204841639766696e-02
1.036648450986006748e-01
1.126105480831442601e-01
1.204003702169703510e-01
1.268070423686305237e-01
1.316375010042325489e-01
1.347556335705513697e-01
1.360612713156769682e-01
1.355073764929987656e-01
1.330652045046459009e-01
1.286804144715354981e-01
1.224114060857671438e-01
1.143619359788588669e-01
1.046705954939601696e-01
9.353199282637163214e-02
8.106759153121097239e-02
6.750629680420394685e-02
5.310957941806841026e-02
3.815405230475898274e-02
2.290984289782474481e-02
7.622758100335519718e-03
-7.427145164858588167e-03
-2.195635731360580725e-02
-3.569574855989206957e-02
-4.841904249284861850e-02
-5.995799375597613695e-02
-7.011488013484118431e-02
-7.873555211281678401e-02
-8.570211300664715148e-02
-9.094224192009364716e-02
-9.447626351340900064e-02
-9.630392192183138966e-02
-9.647764405311869129e-02
-9.508541399956237095e-02
-9.225071073771735908e-02
-8.812698610305508273e-02
-8.291433104553436184e-02
-7.682408217500018288e-02
-7.007508797655709332e-02
-6.289033786791259351e-02
-5.547013464830658630e-02
-4.801041744231017427e-02
-4.075000072122235417e-02
-3.387904065346524635e-02
-2.756004099320422812e-02
-2.191602899135826343e-02
-1.696801504167203684e-02
-1.281370933799263860e-02
-9.484600143327651112e-03
-6.977774739839032875e-03
-5.249806504850502639e-03
-4.188833018162304439e-03
-3.651339613070361378e-03
-3.513668017408584730e-03
-3.642217296412128460e-03
-3.892075875985813015e-03
-4.115900477990763751e-03
-4.108165157579222668e-03
-3.684271410862037782e-03
-2.726306400298007370e-03
-1.144893091559267672e-03
1.120188579038966774e-03
4.090242831783082525e-03
7.877778654845313602e-03
1.245323167503826350e-02
1.774077399798815527e-02
2.363026644928517203e-02
2.994755758248117405e-02
3.660598768949471782e-02
4.344391581110949863e-02
5.025773612190311684e-02
5.683047648595992984e-02
6.293502571229737941e-02
6.836946226240764313e-02
7.295528639648760083e-02
7.651711275355964348e-02
7.890176133590062757e-02
7.998670684590275526e-02
7.968197763463807926e-02
7.790606620510230618e-02
7.465420874041230059e-02
6.996505897708819866e-02
6.391261979712714592e-02
5.661282039562988422e-02
4.814438899492730350e-02
3.867796460722472407e-02
2.842740639507075270e-02
1.762366750338388577e-02
6.491259190121389210e-03
-4.791643306550581738e-03
-1.599490629833403080e-02
-2.686864011899411236e-02
-3.717342457164551223e-02
-4.671102838534522267e-02
-5.538598698051080960e-02
-6.303137506601277917e-02
-6.950942799242829095e-02
-7.470856025721182847e-02
-7.855892048699399111e-02
-8.112531973563605336e-02
-8.240088428374614526e-02
-8.240685132777422761e-02
-8.119601140672665085e-02
-7.884879240670204792e-02
-7.550873239649073809e-02
-7.133085508399883423e-02
-6.644236190514417328e-02
-6.099485530377238979e-02
-5.514254691761930754e-02
-4.903628069623583441e-02
-4.281958572588924483e-02
-3.665399714882303789e-02
-3.068109096392588123e-02
-2.502557216611318164e-02
-1.978704069990592715e-02
-1.495908075506262487e-02
-1.063664417476377182e-02
-6.871644898394800929e-03
-3.688748827459758638e-03
-1.081879202192871387e-03
1.050237650159058841e-03
2.802739397968263650e-03
4.218326861857512114e-03
5.375162785341966107e-03
6.366900510168679861e-03
7.325298323551645598e-03
8.451129903327031165e-03
9.857010470201241908e-03
1.165330884452795042e-02
1.393761300756150845e-02
1.680174259073268297e-02
2.035670258101854313e-02
2.470348307299300231e-02
2.987437585939766230e-02
3.586433547173547426e-02
4.263759589040903158e-02
5.012757555504306767e-02
5.827769211712970077e-02
6.697586607990715923e-02
7.606291362368521047e-02
8.534901353665128032e-02
9.462259874254738690e-02
1.036611503207542362e-01
1.122264055057283633e-01
1.200723542614060418e-01
1.269526774579948225e-01
1.326281454539508797e-01
1.369041428970884655e-01
1.395317546934893016e-01
1.403432911278425788e-01
1.392119865652559352e-01
1.360526937268579373e-01
1.308553762972679280e-01
1.235788934579340609e-01
1.142597053859808337e-01
1.030144262387199666e-01
9.001052702619896650e-02
7.546927760383552453e-02
5.961815242718632168e-02
4.270254668493887046e-02
2.504130988080000703e-02
6.976913715093296595e-03
-1.114241503875132953e-02
-2.899935083310182030e-02
-4.627493981108408289e-02
-6.263996268255793420e-02
-7.778497831053719780e-02
-9.143754610316728870e-02
-1.034200858894933489e-01
-1.135635883637023807e-01
-1.217177022838414197e-01
-1.277887139874672451e-01
-1.317367163460783364e-01
-1.336115225405336004e-01
-1.335276779503552225e-01
-1.315652295835481322e-01
-1.278706463593655696e-01
-1.226238708323118681e-01
-1.160413145923114286e-01
-1.084115008379845646e-01
-9.995240720081631502e-02
-9.091627948383561308e-02
-8.155125083553740883e-02
-7.209529104287687451e-02
-6.277432157428090853e-02
-5.378433926922419200e-02
-4.530547919238278598e-02
-3.749174146309116468e-02
-3.046166252366564256e-02
-2.428098249004919523e-02
-1.895883134174811135e-02
-1.451632880649871178e-02
-1.094928503338394275e-02
-8.224357644936113043e-03
-6.269902566158109050e-03
-4.933898216384341798e-03
-4.078488503856654221e-03
-3.590505786681530160e-03
-3.355985757022169041e-03
-3.249739945950342549e-03
-3.126563756912400117e-03
-2.772256054184036884e-03
-2.061574701292205342e-03
-9.050296918458587171e-04
7.698565374927033092e-04
3.010698407119293592e-03
5.926756995807060981e-03
9.586709721445530602e-03
1.398162400283883312e-02
1.907074858632582665e-02
2.478568644941114146e-02
3.104454917135924738e-02
3.780405219788187526e-02
4.494551348354465514e-02
5.232571696763040764e-02
5.978361869815828483e-02
6.714447675012172323e-02
7.422613041964480629e-02
8.085545367416861751e-02
8.686303809388823405e-02
9.208215742980646601e-02
9.636646408953804255e-02
9.952277611076536246e-02
1.013992397597142520e-01
1.019080565233505542e-01
1.009907454451124120e-01
9.861890476735132860e-02
9.475588604569652740e-02
8.935371047487912499e-02
8.248362290680172348e-02
7.425999909193529980e-02
6.482229071137379783e-02
5.430884072444560479e-02
4.283335849943616103e-02
3.060959108859718711e-02
1.788548456676290754e-02
4.918734238787839455e-03
-8.073631054240238553e-03
-2.089966571125626005e-02
-3.330395538799277994e-02
-4.503704178395326330e-02
-5.586593561109855915e-02
-6.561170757654738450e-02
-7.418737174435444115e-02
-8.142474471090520305e-02
-8.721256792179352124e-02
-9.147255858555852770e-02
-9.416991889422446360e-02
-9.538494993796976795e-02
-9.513707624375565552e-02
-9.349656893838904914e-02
-9.056321833088665230e-02
-8.646227122632182960e-02
-8.134929888730431380e-02
-7.539762506499921024e-02
-6.878450661921396703e-02
-6.169209614448501605e-02
-5.429700753961811538e-02
-4.674619497231700255e-02
-3.915144551999071715e-02
-3.168663953358510227e-02
-2.448239664290729686e-02
-1.764468303299267932e-02
-1.124332270152606818e-02
-5.195735236971428528e-03
4.274006059467963005e-04
5.612659377772265604e-03
1.036484597313882747e-02
1.471764921870541247e-02
1.881672221655900437e-02
2.278064376206483804e-02
2.665354552190828119e-02
3.049154098337332475e-02
3.435155318330747332e-02
3.832757776662895632e-02
4.258077292314504936e-02
4.714690313478950290e-02
5.203878005685453473e-02
5.724442709746620922e-02
6.274330553331096405e-02
6.856542895894274237e-02
7.469248714197571082e-02
8.104537218449106573e-02
8.751552848755071723e-02
9.397931396191040732e-02
1.003193487704353154e-01
1.064378193035574183e-01
1.121953032895667557e-01
1.174381905861206499e-01
1.220096716266175496e-01
1.257635894934390486e-01
1.285651150522547359e-01
1.302799270747304339e-01
1.307964341738920566e-01
1.300192092124022591e-01
1.278718995538560554e-01
1.243106238972816469e-01
1.192496181043955494e-01
1.126858092350731672e-01
1.046468631546922101e-01
9.518314546091248551e-02
8.437986721144330460e-02
7.226851241572181117e-02
5.895792280763988841e-02
4.460288932577755050e-02
2.937801243387877861e-02
1.346285869368980467e-02
-2.998565420232577380e-03
-1.981151740329384695e-02
-3.674292306527994489e-02
-5.355135662366872218e-02
-7.001107180322471701e-02
-8.598694039153016722e-02
-1.012382868903505678e-01
-1.155392998250582004e-01
-1.286720862108347019e-01
-1.404457200909988157e-01
-1.508171927253327826e-01
-1.596357545470576955e-01
-1.667568869476458160e-01
-1.720792350396188330e-01
-1.755381777981152025e-01
-1.771900107671504077e-01
-1.771119090561964204e-01
-1.752811956112068636e-01
-1.717610474210864713e-01
-1.666451179929273330e-01
-1.600842148050720948e-01
-1.523504965185336069e-01
-1.435343436049120736e-01
-1.338235564463109983e-01
-1.234151800418087225e-01
-1.125134246074996486e-01
-1.013886562091686067e-01
-9.018821368481885759e-02
-7.909196624841527412e-02
-6.828003641024790737e-02
-5.790887673081668297e-02
-4.811170385186199633e-02
-3.894093094885334172e-02
-3.044906977952202901e-02
-2.269319796442450382e-02
-1.569958171924881393e-02
-9.447455693441297875e-03
-3.813617299959137872e-03
1.308638353023191831e-03
5.996358287079800280e-03
1.033466330611809009e-02
1.443288907007833979e-02
1.848694552870317268e-02
2.268821163984253639e-02
2.715162288538711458e-02
3.196737072438646243e-02
3.721380034877790760e-02
4.299935233591155315e-02
4.944947454151907978e-02
5.658839124162610978e-02
6.440209759635796838e-02
7.284311965215843621e-02
8.185617145980919607e-02
9.140693956871545622e-02
1.013531686893729827e-01
1.115495948035273160e-01
1.218270073504446743e-01
1.320000301106986074e-01
1.419466648306138834e-01
1.513848791278577799e-01
1.601041210859290298e-01
1.679091608724849471e-01
1.746132260270901737e-01
1.801066395473406023e-01
1.841624103899383857e-01
1.865819338568174834e-01
1.872599290788083681e-01
1.861245128291523498e-01
1.831705255563942092e-01
1.783982155004102399e-01
1.716851397796682055e-01
1.630799541101893846e-01
1.526738938657875022e-01
1.405885691889535716e-01
1.270690935963684487e-01
1.121187204072984223e-01
9.592165012242938327e-02
7.870030330259479567e-02
6.069578305544645613e-02
4.219361459235138057e-02
2.338578753154746392e-02
4.499650306603830002e-03
-1.419609416755957844e-02
-3.243462649190643338e-02
-4.996960279949989175e-02
-6.660490851235487120e-02
-8.212573791227752162e-02
-9.632155711700228495e-02
-1.090038505801608493e-01
-1.200210638466053803e-01
-1.293628547110986238e-01
-1.368930840555678541e-01
-1.425483750787526482e-01
-1.462969127585325158e-01
-1.481499233561303364e-01
-1.482568294331266801e-01
-1.467045677388821023e-01
-1.435725643564247644e-01
-1.389960552808010841e-01
-1.331385520407961931e-01
-1.262400954399640896e-01
-1.185709006238468838e-01
-1.102844935566507922e-01
-1.016009822982907457e-01
-9.273940916287050362e-02
-8.392028653071800792e-02
-7.543546851395785402e-02
-6.737268563702346336e-02
-5.989668958849313912e-02
-5.314826091759586313e-02
-4.723488613046439993e-02
-4.227360041808613661e-02
-3.821625998186387041e-02
-3.504053938019518338e-02
-3.272810402855746981e-02
-3.122711588569024657e-02
-3.046787133759574009e-02
-3.026370711482302342e-02
-3.040255341643378559e-02
-3.074118739252367297e-02
-3.113318977872514201e-02
-3.142196305534739054e-02
-3.142661424484169408e-02
-3.086477100068264409e-02
-2.959484772827674151e-02
-2.750928151746166034e-02
-2.452018091376876457e-02
-2.056093648428502368e-02
-1.549503965229981524e-02
-9.295786660244978808e-03
-1.997787498236443856e-03
6.327792387404655716e-03
1.559306009436689337e-02
2.571280728650574346e-02
3.654335168489468433e-02
4.790681476133721445e-02
5.960232053167421190e-02
7.142677028694600916e-02
8.321611624048463884e-02
9.467868106272005202e-02
1.055891411290157400e-01
1.157314671324070204e-01
1.249033316070181504e-01
1.330235302109138151e-01
1.398169270450634605e-01
1.451099970178582055e-01
1.487919595912830517e-01
1.507870422617924033e-01
1.511291137782052041e-01
1.497763447798477199e-01
1.466510311698234204e-01
1.418042969454592905e-01
1.353254213389545324e-01
1.273574326567436799e-01
1.181056485999078948e-01
1.076071624964168721e-01
9.604596556242203653e-02
8.362950718231820790e-02
7.057696326549040000e-02
5.714657560201557435e-02
4.349449534313984400e-02
2.983779538358499045e-02
1.640358257427526265e-02
3.406646431964834715e-03
-8.981821695385111548e-03
-2.062691204275280202e-02
-3.136443959820051780e-02
-4.104981435902841508e-02
-4.956609249108569898e-02
-5.685567257897354565e-02
-6.296594827883336687e-02
-6.784204977188194874e-02
-7.148177634465703589e-02
-7.390821338801624452e-02
-7.518212964960206690e-02
-7.550063536188122981e-02
-7.496164158919414733e-02
-7.368214936536682247e-02
-7.179245644384145419e-02
-6.943587806129190854e-02
-6.680811309808588894e-02
-6.410178890888588998e-02
-6.145782504485267778e-02
-5.901596497451912920e-02
-5.689886898556874989e-02
-5.521674478906615086e-02
-5.406632198482124591e-02
-5.350331798030448505e-02
-5.356870382431149630e-02
-5.427264387914295524e-02
-5.558932024114316556e-02
-5.744444685765497105e-02
-5.971790994602433483e-02
-6.230858337710961509e-02
-6.510030156865781459e-02
-6.795269693274251510e-02
-7.070023816402626338e-02
-7.309251111465027428e-02
-7.493587684762595402e-02
-7.607279914214665206e-02
-7.635671210233194173e-02
-7.565852978558604280e-02
-7.380528362815153010e-02
-7.062064260590504572e-02
-6.603759214917866160e-02
-6.003198078784973551e-02
-5.261193816261609812e-02
-4.385862016592945861e-02
-3.373130097101329633e-02
-2.233692213909658358e-02
-9.829772686161877826e-03
3.599752467188926334e-03
1.770490860108287282e-02
3.228605071477786553e-02
4.711020840442557006e-02
6.190744672398110215e-02
7.639770659631109351e-02
9.030109174139834549e-02
1.033426840274448560e-01
1.152581714361980147e-01
1.258070546337987095e-01
1.347747501692380667e-01
1.419800606417274125e-01
1.473327006230793768e-01
1.506438243619736272e-01
1.518370119946140795e-01
1.508823993430145893e-01
1.477969724727562495e-01
1.427179948202089987e-01
1.356931188454353066e-01
1.268225198657918773e-01
1.162769487492977816e-01
1.042631478951208529e-01
9.105765599201695593e-02
7.693663064870073787e-02
6.210997336218431614e-02
4.686122786518378408e-02
3.148147230194182911e-02
1.626538722292403955e-02
1.529995581276468938e-03
-1.251170957790218898e-02
-2.560419881371994374e-02
-3.751224844635939887e-02
-4.803236690264935105e-02
-5.701063929729895119e-02
-6.434978051421373635e-02
-6.995146926282874711e-02
-7.374757646863616678e-02
-7.571463520228116639e-02
-7.590073814608051805e-02
-7.443810137656650672e-02
-7.143165523810361683e-02
-6.701061244305128728e-02
-6.133487635248637687e-02
-5.460838122961526875e-02
-4.713062137515575123e-02
-3.916245566999835420e-02
-3.095222531371999777e-02
-2.274426440752125647e-02
-1.478474367221640183e-02
-7.350086047114333734e-03
-7.024315808273275293e-04
4.952972524136916091e-03
9.446816620639675310e-03
1.264710814748330921e-02
1.444908178500456906e-02
1.479009073614200899e-02
1.366188779138451104e-02
1.109262516774508697e-02
7.157777501118624611e-03
1.976036363551100274e-03
-4.280678868498621545e-03
-1.136731935591012849e-02
-1.906721331431902519e-02
-2.714641850206173795e-02
-3.534908868686764682e-02
-4.341921436834512288e-02
-5.098926576718406517e-02
-5.779235243157559293e-02
-6.360349876508507305e-02
-6.822168204583312079e-02
-7.148363240807246999e-02
-7.316853867466788230e-02
-7.312733288220363281e-02
-7.131027154382089950e-02
-6.772046574470065583e-02
-6.240671135260907748e-02
-5.543052057773201202e-02
-4.686630877912140170e-02
-3.688225843272006921e-02
-2.568909468731512061e-02
-1.352633592009038106e-02
-6.313089848106966627e-04
1.272583568183136699e-02
2.626360005709999640e-02
3.969897101810472562e-02
5.275445701915856822e-02
6.520012858791794652e-02
7.677414407406522867e-02
8.722576262115484813e-02
9.636550382004141491e-02
1.040391499628110228e-01
1.101488911307978713e-01
1.146405679173097686e-01
1.173928167878256074e-01
1.183938835010108492e-01
1.176723304580752499e-01
1.152919322321646206e-01
1.114019427038960286e-01
1.060540429371219784e-01
9.938118988531546849e-02
9.154355934646096760e-02
8.271749310680322209e-02
7.309668131168148286e-02
6.286576885803735193e-02
5.221358250417248298e-02
4.133424634186060043e-02
3.041593160349041064e-02
1.962258663882850487e-02
9.092799562699418678e-03
-9.889351244379931440e-04
-1.047637007271723202e-02
-1.924200551549268279e-02
-2.718376201588831864e-02
-3.430574753431588769e-02
-4.050061788343144176e-02
-4.571387295568982850e-02
-4.991093244874203472e-02
-5.308403831355658353e-02
-5.529947166427490873e-02
-5.662717609849682310e-02
-5.710486594232634661e-02
-5.678961651918686127e-02
-5.575373888671974337e-02
-5.409600656017939102e-02
-5.197216165738782062e-02
-4.951274575731291067e-02
-4.682827748324083772e-02
-4.402450163632772723e-02
-4.120711724974202711e-02
-3.846702040532054556e-02
-3.596155378665356894e-02
-3.378075686362062152e-02
-3.199313803152617486e-02
-3.064561177312983067e-02
-2.973492901245892647e-02
-2.928145718981706516e-02
-2.929244101180173213e-02
-2.974265839999770331e-02
-3.058100911519727114e-02
-3.171984378871820637e-02
-3.301947074150485273e-02
-3.436796290195344439e-02
-3.565563880773655464e-02
-3.676719158178322344e-02
-3.757668984036054843e-02
-3.793306998924751705e-02
-3.764917435651482513e-02
-3.661829637734950738e-02
-3.475957153159452140e-02
-3.200968586348838796e-02
-2.833728438239540084e-02
-2.364509838747548900e-02
-1.792250467558981902e-02
-1.121642828278687776e-02
-3.607955664661312897e-03
4.783269536898246063e-03
1.385208645942935697e-02
2.347735310340106490e-02
3.347871991307094924e-02
4.365370831611078278e-02
5.378728824589293356e-02
6.366338822905498462e-02
7.307500444842399134e-02
8.180889038680652647e-02
8.966133516792874902e-02
9.644507655770605259e-02
1.020225288691382765e-01
1.062293625135316971e-01
1.089473731639495763e-01
1.101017562448595027e-01
1.096540622504600521e-01
1.076310112465300173e-01
1.040598368990427874e-01
9.896739650337638139e-02
9.245255152935479004e-02
8.464641163024914927e-02
7.571530317040592317e-02
6.586952985807414951e-02
5.524628966944562791e-02
4.405317308998005915e-02
3.250795854547362806e-02
2.082961812663519999e-02
9.241052287340378521e-03
-2.081527260410617666e-03
-1.294392724507122637e-02
-2.315908731495877962e-02
-3.256100322759249155e-02
-4.102992219244833844e-02
-4.848267006498385018e-02
-5.481742118659032464e-02
-5.995759841331958079e-02
-6.385373109883453469e-02
-6.650302551746177515e-02
-6.799035583011621420e-02
-6.833144774274869937e-02
-6.757541954089217595e-02
-6.578874665962232415e-02
-6.306395679337371829e-02
-5.957606365116655672e-02
-5.546244502704723162e-02
-5.085341997695026761e-02
-4.588390867121536904e-02
-4.069360627021701565e-02
-3.544021989407881990e-02
-3.029735135876784544e-02
-2.540740852307262279e-02
-2.089849728856256125e-02
-1.688215731712324613e-02
-1.344884559848031312e-02
-1.066373600012739467e-02
-8.599428546329798348e-03
-7.298824259712200294e-03
-6.778984377333398953e-03
-7.024986852694222947e-03
-7.956694693073253569e-03
-9.491020923363326089e-03
-1.154852482822258351e-02
-1.403409415785882193e-02
-1.682944276838861317e-02
-1.978067970782019375e-02
-2.267222137937906223e-02
-2.533550060697498454e-02
-2.762361397468049776e-02
-2.939575356638897061e-02
-3.051627872492799695e-02
-3.081469156416650687e-02
-3.013123517402184134e-02
-2.838309078583740527e-02
-2.552281147213067425e-02
-2.153119559600421423e-02
-1.642906214626319722e-02
-1.019696796338558954e-02
-2.905781765352014479e-03
5.331595512546112060e-03
1.436818268569622914e-02
2.402391976629114634e-02
3.411115894615737720e-02
4.442168832301989639e-02
5.472819012161864866e-02
6.479385987683894399e-02
7.438651374356462787e-02
8.326743645034996588e-02
9.118867986472646570e-02
9.794795931899727415e-02
1.033694963440503489e-01
1.073060635046730188e-01
1.096888184052908499e-01
1.103616565278680295e-01
1.092815953923954586e-01
1.064512122580862918e-01
1.019148735486593016e-01
9.579257988734680984e-02
8.816245303757615226e-02
7.915100390823001653e-02
6.893998947512904041e-02
5.773780020399963547e-02
4.577984112516863408e-02
3.329880027161866846e-02
2.052011072218291182e-02
7.696676494622044229e-03
-4.921443173031067944e-03
-1.709880206445041004e-02
-2.865574003195780692e-02
-3.937634481621141852e-02
-4.907290856318983346e-02
-5.758196839899359237e-02
-6.477470060981461997e-02
-7.062132477144408838e-02
-7.506305390227316354e-02
-7.804561807138520046e-02
-7.955705121259155910e-02
-7.961982116886857919e-02
-7.832798766097866239e-02
-7.582720080096860826e-02
-7.220104121362119765e-02
-6.757443411956734480e-02
-6.208905643086026077e-02
-5.591072218862445237e-02
-4.926498022827694584e-02
-4.233583346261120262e-02
-3.530851731614550321e-02
-2.836120858048450308e-02
-2.166465809733727002e-02
-1.536697089880049820e-02
-9.638511993977725428e-03
-4.621790016316310035e-03
-4.297208292413493870e-04
2.855079198119246219e-03
5.206548188338246119e-03
6.634602642534383199e-03
7.124196287599453108e-03
6.701694828058797973e-03
5.425534906451092224e-03
3.397779170369208401e-03
8.097588423385836988e-04
-2.182009666644805276e-03
-5.421474359021993469e-03
-8.744976097016993188e-03
-1.197311587494160820e-02
-1.489287435478980730e-02
-1.725186435084676354e-02
-1.887258456177426380e-02
-1.961060658227922401e-02
-1.934437049090923649e-02
-1.797538432093009897e-02
-1.537743117503909650e-02
-1.148768693239897963e-02
-6.316755303968923235e-03
7.859595619573792047e-05
7.603081580460736150e-03
1.614327116761067951e-02
2.555550974603164327e-02
3.563870159496533574e-02
4.615889675609559373e-02
5.685927035042204203e-02
6.749722125931878480e-02
7.777260148972695020e-02
8.740314844810147255e-02
9.612084981311710963e-02
1.036743465605211439e-01
1.098705132536133694e-01
1.144911517382428273e-01
1.173387715414085375e-01
1.182981307797760923e-01
1.173029081752241243e-01
1.143498998711473674e-01
1.094905786444768797e-01
1.027316130626284157e-01
9.419735263835493644e-02
8.405975172726128097e-02
7.252796679022811832e-02
5.985887020184935819e-02
4.626914540142364196e-02
3.203912279133117741e-02
1.746825737257266115e-02
2.856483309341933084e-03
-1.153228891601918056e-02
-2.544475107878031370e-02
-3.860905031940205234e-02
-5.078277349714228200e-02
-6.175629737884302112e-02
-7.138902842169389529e-02
-7.963075170053317275e-02
-8.633865202124467453e-02
-9.145136577415141632e-02
-9.494662570226887477e-02
-9.684987665305559712e-02
-9.734433008298010170e-02
-9.647210363172672998e-02
-9.434196570831154816e-02
-9.108691200840926538e-02
-8.686251508354042583e-02
-8.189067961965297571e-02
-7.637829032433990362e-02
-7.049297231777097716e-02
-6.441135977509453159e-02
-5.830126113348282901e-02
-5.232182546226867015e-02
-4.663172341153684619e-02
-4.137032816936723340e-02
-3.664763245829349980e-02
-3.254679493799545603e-02
-2.912133283747424597e-02
-2.634929381975424298e-02
-2.426118185702859711e-02
-2.284486677540999849e-02
-2.206431502403089981e-02
-2.185400808169946432e-02
-2.208774039496316788e-02
-2.261701639866623564e-02
-2.332648760575154606e-02
-2.409418726121344972e-02
-2.478908717138090731e-02
-2.526602763057160181e-02
-2.532283547263828455e-02
-2.478768533100340551e-02
-2.354067551254182891e-02
-2.148300464022022752e-02
-1.852999463702012864e-02
-1.461722273612746890e-02
-9.617951658162612535e-03
-3.520031136162884208e-03
3.646283886544315119e-03
1.181684674698045903e-02
2.088613888304756416e-02
3.077502001518130775e-02
4.134307975648258277e-02
5.240270965629439948e-02
6.373791293577171779e-02
7.512046340682236589e-02
8.630870176714122710e-02
9.703597274681852181e-02
1.070440401325073593e-01
1.160798077410649803e-01
1.239076700067278380e-01
1.303563565243008593e-01
1.351516905877511165e-01
1.381313127829408571e-01
1.391767120972381422e-01
1.382137918160981638e-01
1.352769624245471480e-01
1.303114773829066042e-01
1.233554278362928858e-01
1.145274468771905058e-01
1.039944972524624728e-01
9.199173845368417701e-02
7.874417614542587873e-02
6.447321840704169083e-02
4.947695996734625262e-02
3.407163210724231672e-02
1.857785308177642772e-02
3.297560987370385700e-03
-1.149447872737965892e-02
-2.550573151873526331e-02
-3.846559771063131489e-02
-5.014124499263813289e-02
-6.039656759772586009e-02
-6.909231838242703427e-02
-7.610885625868775428e-02
-8.137361181296855206e-02
-8.486416654172238005e-02
-8.665605946250558300e-02
-8.687642011191779035e-02
-8.560482093329513376e-02
-8.297275356032975113e-02
-7.913894635576174119e-02
-7.430326461243735858e-02
-6.874977924627428960e-02
-6.267166355733747030e-02
-5.628122042569528444e-02
-4.978151106934550207e-02
-4.336750265221322315e-02
-3.724158874434283645e-02
-3.158158601866591780e-02
-2.653132126159888846e-02
-2.220552684446988612e-02
-1.868605047404992697e-02
-1.600498641168755787e-02
-1.416794639394424425e-02
-1.318428365686021182e-02
-1.303042393240488352e-02
-1.365319918043406654e-02
-1.495753816751037475e-02
-1.676788549150362226e-02
-1.895657301113554127e-02
-2.139856750676594546e-02
-2.396384160222743073e-02
-2.650622135769699697e-02
-2.883169853720344775e-02
-3.071689118283270695e-02
-3.201948967387866635e-02
-3.262366186846363952e-02
-3.242570478863453232e-02
-3.133147773403862496e-02
-2.918148499243050295e-02
-2.589085979762415987e-02
-2.144284670665828202e-02
-1.585482367476348173e-02
-9.173349109115554179e-03
-1.437796725391933452e-03
7.306828919469607678e-03
1.693378006925743209e-02
2.728064937466986861e-02
3.815925188239546739e-02
4.937408011815693637e-02
6.070835456847430145e-02
7.192515232460801322e-02
8.277695098517585948e-02
9.301169513323559457e-02
1.024086652433548322e-01
1.107032781218694334e-01
1.176492626488175597e-01
1.230498849516448168e-01
1.267383460023429331e-01
1.285994419518777243e-01
1.285414364075826432e-01
1.264428276472225054e-01
1.222949940103107147e-01
1.161407123156892179e-01
1.080678675902978086e-01
9.823784061522813915e-02
8.675263218205261917e-02
7.382355046554561762e-02
5.970392039256974814e-02
4.467378114277741064e-02
2.901778257293393878e-02
1.301628560115262491e-02
-3.013421780188863235e-03
-1.874875070016914988e-02
-3.387939255325396470e-02
-4.814510692814097381e-02
-6.134698140607176137e-02
-7.322728683187448850e-02
-8.358432738757348712e-02
-9.225760926950278551e-02
-9.914306471927385178e-02
-1.043033518252384217e-01
-1.076750373254527077e-01
-1.092794505801641947e-01
-1.091751508815065608e-01
-1.074659286097275901e-01
-1.043646738489693165e-01
-1.000683092355289516e-01
-9.474995137628179631e-02
-8.860641082728099027e-02
-8.184245550659345614e-02
-7.468366178059160365e-02
-6.738081863229801460e-02
-6.013176695544401179e-02
-5.311647276358249375e-02
-4.648880393050874860e-02
-4.037470369826172412e-02
-3.485439188422437967e-02
-3.002791757410527493e-02
-2.594650237720813601e-02
-2.262921314782469565e-02
-2.005885107310878546e-02
-1.814165482447211222e-02
-1.678820602451587540e-02
-1.592377445119206453e-02
-1.545591128607779439e-02
-1.527457966331786758e-02
-1.523294942349649565e-02
-1.512293718402909180e-02
-1.480259853311202863e-02
-1.415678383827289992e-02
-1.308258895337515750e-02
-1.147923292461809283e-02
-9.212885799363605341e-03
-6.142291632598171139e-03
-2.218803684151701098e-03
2.572254916457987570e-03
8.224528875751077606e-03
1.470931756297395865e-02
2.205279833605715625e-02
3.019706078044678832e-02
3.903846789946126272e-02
4.844675998008488721e-02
5.827365284765174958e-02
6.837551821604914704e-02
7.858351066057728262e-02
8.870403565213841324e-02
9.853108469359424249e-02
1.078594539661738433e-01
1.165037713349939552e-01
1.242085956551256670e-01
1.307764025024766297e-01
1.360264907925815558e-01
1.397966764728373890e-01
1.420100872534617586e-01
1.424682353498365750e-01
1.410710060946852029e-01
1.377791159291164025e-01
1.325936577353515611e-01
1.255932773119004531e-01
1.168205990365531882e-01
1.063373642761484966e-01
9.430350261975212200e-02
8.091920221764997700e-02
6.642132415490602237e-02
5.106349708137566251e-02
3.506847792902679367e-02
1.873266708996635874e-02
2.366013775880377885e-03
-1.372445854230883340e-02
-2.927705796666823720e-02
-4.402636441617676505e-02
-5.770291532171523130e-02
-7.006076121916839095e-02
-8.089122247965400969e-02
-9.007448412771244806e-02
-9.752697175747361558e-02
-1.031485368714748635e-01
-1.068983819390515316e-01
-1.087826608270509032e-01
-1.088771614159469020e-01
-1.073551985607405362e-01
-1.043291814697608622e-01
-9.996736391130922605e-02
-9.446209383135212301e-02
-8.803022729296221260e-02
-8.094391592876644392e-02
-7.344200135361332593e-02
-6.576292027249117100e-02
-5.813522753651011177e-02
-5.076971326503742360e-02
-4.384794664395683106e-02
-3.752958799528249845e-02
-3.195688028385779839e-02
-2.723743219220667658e-02
-2.343948977373605524e-02
-2.057919424053053850e-02
-1.859671912016615247e-02
-1.744618642170314704e-02
-1.706129535423719576e-02
-1.734983173345019947e-02
-1.818624355169835144e-02
-1.938955591479071122e-02
-2.073788474265453666e-02
-2.206648369675071053e-02
-2.322115046262526392e-02
-2.404931874266974176e-02
-2.441437447558083423e-02
-2.409457891766786375e-02
-2.294133164177909051e-02
-2.087183574964083382e-02
-1.783579964829588166e-02
-1.382750632059299468e-02
-8.827678524334770307e-03
-2.792540869335928804e-03
4.211686515342606338e-03
1.207934189282026602e-02
2.067552638896243827e-02
2.980908262642086026e-02
3.936837158389774882e-02
4.915992407333476255e-02
5.897076417195956655e-02
6.857677395044371738e-02
7.776243617139463882e-02
8.629284722772023741e-02
9.394625207182075166e-02
1.005226321453213667e-01
1.058408612132245991e-01
1.097703241579884859e-01
1.121816830869470649e-01
1.129126860521275783e-01
1.119016875640048703e-01
1.091291830394739704e-01
1.046181788143221436e-01
9.849173219470735985e-02
9.072908539583095233e-02
8.146330095266647586e-02
7.087083723037504446e-02
5.915966399102222384e-02
4.658476273621992708e-02
3.334115391614229235e-02
1.968381486428350327e-02
5.903641609118368862e-03
-7.705027895765111101e-03
-2.087345045914068553e-02
-3.337745928847683091e-02
-4.495635870696453734e-02
-5.536612105504745002e-02
-6.439104521781592594e-02
-7.186721907462097214e-02
-7.776660913361332916e-02
-8.196325501526603718e-02
-8.440513124826666547e-02
-8.508178695303295069e-02
-8.403539265895812460e-02
-8.143328490367915395e-02
-7.741622568310733976e-02
-7.213731300532762181e-02
-6.578907148139477579e-02
-5.859034145339208494e-02
-5.079909070858793646e-02
-4.270444123756366589e-02
-3.456394086012420236e-02
-2.663139762418312642e-02
-1.914395948009117721e-02
-1.231241529106987843e-02
-6.300052202866000470e-03
-1.297505416359224454e-03
2.567725596115804157e-03
5.212582542932527388e-03
6.606033092291470343e-03
6.829576571490969528e-03
5.939533235844771109e-03
4.019245587641146963e-03
1.195529532911922786e-03
-2.364952728869455702e-03
-6.426874512803590345e-03
-1.069987569290061294e-02
-1.495485858079079362e-02
-1.896337657297194473e-02
-2.250215861632684847e-02
-2.534765922992577442e-02
-2.723772398425472474e-02
-2.795138032567742389e-02
-2.735022317033423619e-02
-2.534427540129385523e-02
-2.188291219389201098e-02
-1.695699554996280695e-02
-1.052900634577102687e-02
-2.673114899588519434e-03
6.473891532904977805e-03
1.673021482526129700e-02
2.787371046105868028e-02
3.968647601298989913e-02
5.191503752164440544e-02
6.426845752493047514e-02
7.644191077341673524e-02
8.813338686839211622e-02
9.905535351456425108e-02
1.089027083552351199e-01
1.174134528314536019e-01
1.243550940079388573e-01
1.295292775637541804e-01
1.328257957259734723e-01
1.340587213491868657e-01
1.331514865762414568e-01
1.300891510414200480e-01
1.249062476267738808e-01
1.177147578017967017e-01
1.086002749513081261e-01
9.769493918355091899e-02
8.520846857461300550e-02
7.138554853214473805e-02
5.649598080178677706e-02
4.080488651739537509e-02
2.458869946849065458e-02
8.160942014701416322e-03
-8.162124581578911534e-03
-2.407743238473077779e-02
-3.937195432724256705e-02
-5.375617878027826035e-02
-6.697661945080189694e-02
-7.880923767994681139e-02
-8.906981324299742542e-02
-9.768963950838084609e-02
-1.045854867899935620e-01
-1.096600868769507936e-01
-1.128833930800419577e-01
-1.142689143477131214e-01
-1.139047669626428727e-01
-1.119596335942062287e-01
-1.085285222824949325e-01
-1.037684226770265450e-01
-9.785959691503759439e-02
-9.100686128265580987e-02
-8.346357532071953245e-02
-7.546792189735281042e-02
-6.725295604328125620e-02
-5.904287053691559956e-02
-5.104837128944821056e-02
-4.343776877307493900e-02
-3.639869474772911007e-02
-3.009711895925784933e-02
-2.465399475629506329e-02
-2.015089765716302633e-02
-1.660727778535644669e-02
-1.397932480561397441e-02
-1.225582584865061130e-02
-1.137706306844128018e-02
-1.124946013427580854e-02
-1.173951544925905428e-02
-1.263799562047566473e-02
-1.373188038062347037e-02
-1.483644188531560611e-02
-1.576975098131586442e-02
-1.634663042002574423e-02
-1.638679022996747739e-02
-1.563825940141849030e-02
-1.393787276947237690e-02
-1.118283616564882434e-02
-7.307929039391153000e-03
-2.293868646522315407e-03
3.898121005389944185e-03
1.127412167584690428e-02
1.973747981099811116e-02
2.914203100208913669e-02
3.930376622301806622e-02
5.001304039424744191e-02
6.106895045679695128e-02
7.220933247351714324e-02
8.315209699301723267e-02
9.360785381697335483e-02
1.033187715862115136e-01
1.119919512935766831e-01
1.193665590933237625e-01
1.252212059091165619e-01
1.293691786357885343e-01
1.316940364346879666e-01
1.320774262599344051e-01
1.304128562628474319e-01
1.267052306946338802e-01
1.210144614706095273e-01
1.134544890436524761e-01
1.041990223467047505e-01
9.334642926098909999e-02
8.113094365468977165e-02
6.782534296664705087e-02
5.372145790660023262e-02
3.911661943993383073e-02
2.425505647834198808e-02
9.436995213277380237e-03
-5.029788976678278498e-03
-1.885666758031346452e-02
-3.181586847258203316e-02
-4.373836352813633560e-02
-5.442378031244479025e-02
-6.370990445336237318e-02
-7.147394375484131257e-02
-7.765626152010983441e-02
-8.231594946489800835e-02
-8.543118135304741956e-02
-8.704547130051656922e-02
-8.723299079175199366e-02
-8.610279303988153943e-02
-8.384686797575391370e-02
-8.062283572628112238e-02
-7.659749353448706832e-02
-7.194875020804913923e-02
-6.685651882761824150e-02
-6.149576572874781294e-02
-5.605008823729222545e-02
-5.069276556757197627e-02
-4.557268924238491031e-02
-4.081543560941006121e-02
-3.650748327911106095e-02
-3.267384439433344834e-02
-2.940307471181491036e-02
-2.672762543078925634e-02
-2.465259033805677208e-02
-2.314917162092313546e-02
-2.209349022821430891e-02
-2.140901066478092737e-02
-2.101409362493732516e-02
-2.081284814355510021e-02
-2.069293351227259950e-02
-2.050934326702920710e-02
-2.006618600270496100e-02
-1.922646195919490777e-02
-1.788111447383342392e-02
-1.593476869593690032e-02
-1.330620296991105907e-02
-9.885882329025921442e-03
-5.559081421735430004e-03
-3.101815709578513956e-04
5.837928489462200846e-03
1.283513565654091117e-02
2.058576159317197438e-02
2.907304271982601510e-02
3.816795213571572143e-02
4.769843184355716109e-02
5.746599758326658564e-02
6.725037272143548350e-02
7.685284060649998084e-02
8.605199716978959024e-02
9.460879737341794382e-02
1.022851382390313618e-01
1.088610322799010710e-01
1.141340078844260836e-01
1.179005699593855955e-01
1.200132150211341564e-01
1.203613410812341411e-01
1.188718599664407988e-01
1.155412701141129428e-01
1.103156054739583003e-01
1.032585550867640700e-01
9.448811833995425513e-02
8.416335725195166206e-02
7.248316420429043450e-02
5.962077174651277817e-02
4.581929137576874062e-02
3.136934504324556672e-02
1.657638662190317330e-02
1.734635446793312196e-03
-1.291091748694284981e-02
-2.707826974164175352e-02
-4.048550693647450655e-02
-5.287207238233966600e-02
-6.401782774860168002e-02
-7.382413170833330984e-02
-8.213750853813114872e-02
-8.885422602431884698e-02
-9.390881493854791318e-02
-9.728406395352566516e-02
-9.905977291589362910e-02
-9.932879610086631228e-02
-9.818481642615374538e-02
-9.575771695883956991e-02
-9.220149966457545643e-02
-8.770076036335240632e-02
-8.247257142632739846e-02
-7.671322073504008299e-02
-7.061636419415773247e-02
-6.436465499772216214e-02
-5.812403957534417742e-02
-5.201674708002062414e-02
-4.620375610130735694e-02
-4.079610825780200650e-02
-3.587604028526810568e-02
-3.149203920442277677e-02
-2.761352997810873414e-02
-2.422987205522655549e-02
-2.132733081316004822e-02
-1.886306067734503517e-02
-1.677165407779029546e-02
-1.494638809084152149e-02
-1.323268827681887451e-02
-1.152995560884977413e-02
-9.743704904265682032e-03
-7.784540326093110363e-03
-5.562770496464582853e-03
-2.965013858668735357e-03
1.368441075791210736e-04
3.791178636599071283e-03
8.018000675205722017e-03
1.281933087599420283e-02
1.816076392937072959e-02
2.409039343226438215e-02
3.057055358098053482e-02
3.751632950127642419e-02
4.482019881535696804e-02
5.234594918704221084e-02
5.998935406022219696e-02
6.764088143017212007e-02
7.514455900924606191e-02
8.233386311732246443e-02
8.904124922882883375e-02
9.511016651495442231e-02
1.003815650019489469e-01
1.047088684755928256e-01
1.079577786817532831e-01
1.100092936850922132e-01
1.107987047923102569e-01
1.101976200760765440e-01
1.081479287872577078e-01
1.046359375437660583e-01
9.967739402188646736e-02
9.333854075085466773e-02
8.565189899631202308e-02
7.668210088542719294e-02
6.657143233232855339e-02
5.549223173988832719e-02
4.363733266146276740e-02
3.118639126778913889e-02
1.831782027974533655e-02
5.275471284569757842e-03
-7.684136626427185562e-03
-2.031058432293822089e-02
-3.241356871935260897e-02
-4.379367063103724311e-02
-5.423430368631510651e-02
-6.353550562502749410e-02
-7.152771825288262164e-02
-7.811712638970658151e-02
-8.325232907021846984e-02
-8.686443560563635036e-02
-8.893081809050069897e-02
-8.946681055494329349e-02
-8.853837511130012439e-02
-8.628019965043649819e-02
-8.281760673332717870e-02
-7.831091895558428551e-02
-7.294060356545656321e-02
-6.690280508842859353e-02
-6.038662658853429649e-02
-5.362179091109353646e-02
-4.682604706212916551e-02
-4.020441238009609536e-02
-3.393985601732964208e-02
-2.814945670231918176e-02
-2.294209377076805723e-02
-1.843893851946828977e-02
-1.471464243961415931e-02
-1.180459319921239696e-02
-9.682217242888391598e-03
-8.231596220429926794e-03
-7.388137288404542785e-03
-7.054633226153331563e-03
-7.112881002814316206e-03
-7.417623470220116241e-03
-7.766129950481402006e-03
-7.948006560306666163e-03
-7.802213039823721261e-03
-7.186813395635578347e-03
-5.974241012253970334e-03
-4.063232978316108635e-03
-1.302221531540501392e-03
2.387469960564761982e-03
7.016705129255144599e-03
1.255483456548702088e-02
1.892205769321100850e-02
2.603366979422034461e-02
3.381403753756762748e-02
4.209761525237087215e-02
5.068576886591914799e-02
5.935858079994187075e-02
6.786552904502306249e-02
7.600939004306593583e-02
8.355362930269050192e-02
9.026481341581804596e-02
9.592221162345263008e-02
1.003403351348963607e-01
1.033341403280275683e-01
1.047585896776654646e-01
1.045161151644307257e-01
1.025491300507556380e-01
9.885784938774955233e-02
9.345850650832576711e-02
8.637481801230544043e-02
7.772276956406144743e-02
6.765965574259459603e-02
5.637379869023029233e-02
4.408340216821392960e-02
3.096161283495788008e-02
1.727255699914945902e-02
3.299933990016309503e-03
-1.067239110416661786e-02
-2.440585252284404802e-02
-3.767663022032091691e-02
-5.022232182203847928e-02
-6.179188382995753209e-02
-7.216144825773854188e-02
-8.118740832988841083e-02
-8.879607718766288627e-02
-9.483960818608264121e-02
-9.922888704699564522e-02
-1.019118641038790768e-01
-1.028935909982362645e-01
-1.023234019384202248e-01
-1.002292132731470442e-01
-9.671593762376266834e-02
-9.191504651903129042e-02
-8.598790159962343971e-02
-7.915955469862000216e-02
-7.164244945781568508e-02
-6.365030749724961967e-02
-5.540634987912435028e-02
-4.712988365380631206e-02
-3.901495858500073077e-02
-3.124926683695335508e-02
-2.403778858426432533e-02
-1.754728637487433171e-02
-1.191239304098148585e-02
-7.216280109451776031e-03
-3.429379392116469697e-03
-6.144751587371815628e-04
1.234296320066545927e-03
2.158616646776691586e-03
2.245834877822829555e-03
1.691816260905568484e-03
6.767660813382174977e-04
-6.332099759413316840e-04
-2.056168705716211308e-03
-3.396648252279588654e-03
-4.436784636292099779e-03
-4.907467046651533757e-03
-4.598328311697355911e-03
-3.345770514864113230e-03
-1.018948533411413986e-03
2.477113681192803091e-03
7.214620143963408616e-03
1.328298911498731680e-02
2.065785278574503933e-02
2.925786897891783853e-02
3.895145443100896110e-02
4.953046656536431308e-02
6.082705551274311673e-02
7.260103439924715796e-02
8.456983973843745783e-02
9.642433718729956360e-02
1.078336854200000472e-01
1.184566368152115828e-01
1.279754870383860710e-01
1.360924936110481931e-01
1.425358631668039722e-01
1.470736411682590505e-01
1.495050032720013633e-01
1.496283873696463151e-01
1.473562751918423286e-01
1.426663817813310364e-01
1.355959547206974369e-01
1.262855191475385774e-01
1.147959796199175958e-01
1.013248130744058562e-01
8.613708772743294828e-02
6.954216653018031880e-02
5.190910386759533396e-02
3.355972251302364456e-02
1.483566030592991560e-02
-3.878238389155002925e-03
-2.219901356898950837e-02
-3.975463351627045450e-02
-5.620900033468084755e-02
-7.128811238875970568e-02
-8.472698693102011236e-02
-9.630312536735483042e-02
-1.058438795661786613e-01
-1.132301006747818417e-01
-1.184070416532091996e-01
-1.213663329274298347e-01
-1.221496439604916190e-01
-1.208455316154414816e-01
-1.175764622387645564e-01
-1.125127122341440938e-01
-1.058658539627422429e-01
-9.787001733511302426e-02
-8.877659844894399133e-02
-7.883142683614634272e-02
-6.826867428266594762e-02
-5.737990180628985137e-02
-4.642681951830331111e-02
-3.565666736493365574e-02
-2.529240512634259655e-02
-1.546793876705349936e-02
-6.388934797145983530e-03
1.795483297221642325e-03
8.966651886385500550e-03
1.504086020315404358e-02
1.998084458350227882e-02
2.379731732550302917e-02
2.650809368754539208e-02
2.815306844319738142e-02
2.879613693334640012e-02
2.849524632527429893e-02
2.735371306512407105e-02
2.557600459545894198e-02
2.330390539806619435e-02
2.067940665473294928e-02
1.783763056822656318e-02
1.474946663535446796e-02
1.174744606792958723e-02
8.969374504084279970e-03
6.529338696764808159e-03
4.514151577325570264e-03
2.840709734695032965e-03
1.633470766929056650e-03
9.845881125681126000e-04
8.951151473981133928e-04
1.332555241880713399e-03
2.181507340643645300e-03
3.308826049080541235e-03
4.687107722849178336e-03
6.201856312786677150e-03
7.724283980410697262e-03
9.114976894872266894e-03
1.022471895401002445e-02
1.088787116599927024e-02
1.097478114609058003e-02
1.037625305297533267e-02
9.007878210157933135e-03
6.905986723277848446e-03
3.959415591791283495e-03
1.281131923727158589e-04
-4.550448167599502325e-03
-9.994661622002120119e-03
-1.600580668317795260e-02
-2.240630163049214113e-02
-2.912271782106157572e-02
-3.595017338762943049e-02
-4.265641696324311283e-02
-4.897493798914420715e-02
-5.454558406700967671e-02
-5.922958815192825438e-02
-6.278652213723921738e-02
-6.499112447230571965e-02
-6.564384108310958310e-02
-6.456139899933177606e-02
-6.164131788503051518e-02
-5.681158461687216971e-02
-5.004386167445312728e-02
-4.136674905929192680e-02
-3.090198287298484212e-02
-1.881533215633247533e-02
-5.268030896148674300e-03
9.504080131834761677e-03
2.521986026020149596e-02
4.153995011531469439e-02
5.802643252579804678e-02
7.437245992565505448e-02
9.020250663044786232e-02
1.051426495942744954e-01
1.188268321052011051e-01
1.308611431605440911e-01
1.409482360712192572e-01
1.488176374726507545e-01
1.542395105896272045e-01
1.570400913679284305e-01
1.571221152319147718e-01
1.544430477092487153e-01
1.489970700043393992e-01
1.408501307915042133e-01
1.301338164258918351e-01
1.170649553697586109e-01
1.019789051816550884e-01
8.512566253503174585e-02
6.683768928589224612e-02
4.748020054021977188e-02
2.745224772615002806e-02
7.270942961136072497e-03
-1.266729733209954502e-02
-3.195816169084188946e-02
-5.020608232871033583e-02
-6.703575337716681515e-02
-8.206095016327967506e-02
-9.494743373311088919e-02
-1.054494816421910341e-01
-1.133586112749461750e-01
-1.185258436699361817e-01
-1.208571924526676694e-01
-1.203143246034414915e-01
-1.169511481470727060e-01
-1.108655814189358352e-01
-1.022174310299661382e-01
-9.122818605780359802e-02
-7.816930361028617824e-02
-6.340276729735726258e-02
-4.729170650872491916e-02
-3.022371336748059731e-02
-1.261012345041521814e-02
5.133337148521341896e-03
2.253536656691384338e-02
3.915070318799859089e-02
5.457700855175482563e-02
6.844317997141136090e-02
8.041976442904173739e-02
9.021120059774956346e-02
9.755155677738422404e-02
1.022603688359678270e-01
1.042249115459440018e-01
1.034014807535068026e-01
9.979060058506968034e-02
9.352204409700129450e-02
8.475553426812280911e-02
7.370888523756288779e-02
6.065607126493818835e-02
4.585441452243434191e-02
2.973219479401293525e-02
1.273822036359329411e-02
-4.711632979656488196e-03
-2.219866576640699973e-02
-3.936411643170375368e-02
-5.584295724811030870e-02
-7.111607280399126485e-02
-8.483211587007243037e-02
-9.669403832485962136e-02
-1.064653024394797143e-01
-1.141276928968058268e-01
-1.193864502335932748e-01
-1.221735733377527361e-01
-1.224941548057660451e-01
-1.204257616122195312e-01
-1.161765653798321057e-01
-1.099329515741855195e-01
-1.019078948759949838e-01
-9.237653539737179786e-02
-8.164783094579469713e-02
-7.005113065755298740e-02
-5.796426253177786730e-02
-4.576466341150323136e-02
-3.378004980657055289e-02
-2.231091114424094482e-02
-1.162298485639558059e-02
-1.881844036179121469e-03
6.592911757519691850e-03
1.365758033787169493e-02
1.923264678197014743e-02
2.329842282273880336e-02
2.596380908558934206e-02
2.724538900254162149e-02
2.723406137168640079e-02
2.609923355019337643e-02
2.405146413329797492e-02
2.135504735311795702e-02
1.829175104817413328e-02
1.509512222994138092e-02
1.201895908796839912e-02
9.307802565987790058e-03
7.191492648602412947e-03
5.891343850161332232e-03
5.617700498747445897e-03
6.491906654067026647e-03
8.583704536344213126e-03
1.191855824301469614e-02
1.646709866782092649e-02
2.223235087932951687e-02
2.911392014763758418e-02
3.694669483798356663e-02
4.552729195629184877e-02
5.463374370065225000e-02
6.405315378030825013e-02
7.353023079100558246e-02
8.278832891299021945e-02
9.154907546488430525e-02
9.955731867990579020e-02
1.066272198805270910e-01
1.124810492162960779e-01
1.169304594734633662e-01
1.198249965550152729e-01
1.210558397899688110e-01
1.206397660698023400e-01
1.184655865470112118e-01
1.145379234467292229e-01
1.089357064086726584e-01
1.017807591298518777e-01
9.326460402859666765e-02
8.353260533847531311e-02
7.274745757109382649e-02
6.115683114269247073e-02
4.902752171910917250e-02
3.662855718219657636e-02
2.419384875516212771e-02
1.194652126018030426e-02
1.373999500347460392e-04
-1.099618748601217770e-02
-2.124703752313376881e-02
-3.050363270382473388e-02
-3.862290426625981238e-02
-4.549746486066874596e-02
-5.106126368450544795e-02
-5.528899099943399009e-02
-5.823284501332196689e-02
-5.995810807402879999e-02
-6.053254972931520345e-02
-6.007950095481167513e-02
-5.874833981312737458e-02
-5.671145276016825026e-02
-5.415544317417592818e-02
-5.126205310100123702e-02
-4.823015992917550898e-02
-4.525368078480410117e-02
-4.251043490274589859e-02
-4.011452227683840605e-02
-3.821441616589400792e-02
-3.692284747287180591e-02
-3.631827449493272436e-02
-3.644024545335737553e-02
-3.725519610947156807e-02
-3.870515510768240963e-02
-4.073090759041236159e-02
-4.322935221749861501e-02
-4.606708525016444539e-02
-4.908099934280171772e-02
-5.206366045477855281e-02
-5.480356875738784384e-02
-5.710514614072255413e-02
-5.877977183461834121e-02
-5.964880177113793952e-02
-5.959980569052063942e-02
-5.840513808680238700e-02
-5.595486974129065816e-02
-5.218926166901317193e-02
-4.709322882143663486e-02
-4.075677380787858656e-02
-3.319335966364446444e-02
-2.446916590298345295e-02
-1.474688923523111324e-02
-4.233858483704685746e-03
6.800100399410666761e-03
1.807097748915370908e-02
2.937347851396332823e-02
4.041449254436382810e-02
5.089401891938985512e-02
6.051851246531463058e-02
6.897689642499935103e-02
7.606894731497000628e-02
8.158790835661877683e-02
8.536641371854752913e-02
8.728334896132355913e-02
8.727635344970838260e-02
8.531669704806429944e-02
8.144215443358383821e-02
7.575391577989366854e-02
6.840468751723799423e-02
5.960280522607323134e-02
4.957470468329489011e-02
3.855994885666557542e-02
2.686038791342933510e-02
1.479661604390790190e-02
2.692676739272052179e-03
-9.136948395398575631e-03
-2.042689951508429302e-02
-3.088831703518911051e-02
-4.025586168032551510e-02
-4.830276566740337313e-02
-5.486817132231404381e-02
-5.984629430867726557e-02
-6.314674717414975325e-02
-6.472160182477985912e-02
-6.457143017182431777e-02
-6.275921750988104619e-02
-5.941903168756603598e-02
-5.468638057754698911e-02
-4.872370175213361354e-02
-4.171755814961897180e-02
-3.387700228079803394e-02
-2.543412481067889447e-02
-1.665728153920372281e-02
-7.779682601820410784e-03
9.772724357147983924e-04
9.406447949664003758e-03
1.736097697462428077e-02
2.462238930640558293e-02
3.102343687989870050e-02
3.644635831399654913e-02
4.080857793431920399e-02
4.410044200112489543e-02
4.631910397967445997e-02
4.742337144417149014e-02
4.744741026154514207e-02
4.645670683977028148e-02
4.455531198014353600e-02
4.192489567476664902e-02
3.866405652605429261e-02
3.491528429073476048e-02
3.083000605885988579e-02
2.657024008311704294e-02
2.231885380208414524e-02
1.827491361492138838e-02
1.459335759957223339e-02
1.140803642658788641e-02
8.836771115294255255e-03
6.970014282911460822e-03
5.926841758701773683e-03
5.793492197174961167e-03
6.591129285894559153e-03
8.307191553759514166e-03
1.089826209311912583e-02
1.430286608706478162e-02
1.846352672393973895e-02
2.325555349553535059e-02
2.852511625781898111e-02
3.409861910675342916e-02
3.981642519344578274e-02
4.547276134509467549e-02
5.085961160120355817e-02
5.577228124427637684e-02
6.001361817333185356e-02
6.343843300035223454e-02
6.587629051063496888e-02
6.715196753338409374e-02
6.715768916657434418e-02
6.582184946104700785e-02
6.312406918884881646e-02
5.909668811445617509e-02
5.372305624745145336e-02
4.708961569523353180e-02
3.932435351087421732e-02
3.058855940529148221e-02
2.106883779647559032e-02
1.095668979384982478e-02
4.885804573694254964e-04
-1.008194180766105313e-02
-2.049991225917944040e-02
-3.056479645021713612e-02
-4.005649195543124763e-02
-4.872538938778084305e-02
-5.636938551838848593e-02
-6.282019388244927671e-02
-6.798524303939687541e-02
-7.186546365866451624e-02
-7.433604049333042418e-02
-7.538797564622748415e-02
-7.505599951708025186e-02
-7.342279641948645796e-02
-7.072608093606293223e-02
-6.704231475479531521e-02
-6.253924596663000546e-02
-5.741238464144492876e-02
-5.187292183079185437e-02
-4.617510433324571728e-02
-4.053500518205704201e-02
-3.514247925881821416e-02
-3.018990673160077895e-02
-2.584567288212459915e-02
-2.224204993710115347e-02
-1.946833970191479135e-02
-1.760630727118830605e-02
-1.669410964481079021e-02
-1.672987846892082936e-02
-1.766671943010944545e-02
-1.934707921098438935e-02
-2.168591784343298218e-02
-2.454640180116382520e-02
-2.776886516399899515e-02
-3.117009869220846094e-02
-3.450588700524843955e-02
-3.754364426535234528e-02
-4.009559911507135088e-02
-4.197846188923699123e-02
-4.302378254508588962e-02
-4.307131525978654535e-02
-4.194877594800301701e-02
-3.954819300315819131e-02
-3.581370462115132658e-02
-3.073147679581053962e-02
-2.432392884891270562e-02
-1.664953027299078889e-02
-7.759750606923259200e-03
2.212302355848298069e-03
1.309362902912466868e-02
2.468013904247936749e-02
3.673796235785836695e-02
4.903901851683740293e-02
6.133237148842460990e-02
7.335235711842398587e-02
8.483087849641382516e-02
9.551143249228523369e-02
1.051398947337953832e-01
1.134729853806581007e-01
1.203104662327958013e-01
1.254832801464507430e-01
1.288572452640425192e-01
1.303519820975481414e-01
1.298502669786295027e-01
1.273402334619649634e-01
1.228589108079054804e-01
1.164843130747593297e-01
1.083421688105974806e-01
9.853625182483281841e-02
8.724734927547769803e-02
7.470612971945933545e-02
6.116900893286549012e-02
4.689629755549153123e-02
3.212951359977578997e-02
1.715643612645693233e-02
2.277566198517595557e-03
-1.221094995367464665e-02
-2.603892132622635802e-02
-3.902263038074975376e-02
-5.091107206142305580e-02
-6.149746397217353139e-02
-7.060585588403824053e-02
-7.810338924134646588e-02
-8.395708922260357310e-02
-8.812739392212760869e-02
-9.059881412149491109e-02
-9.140084971361379929e-02
-9.060299308988099820e-02
-8.832334203612968171e-02
-8.473443730951529806e-02
-8.001204220867817740e-02
-7.434626889986206688e-02
-6.793920834034694600e-02
-6.099444175373789495e-02
-5.370043711215546911e-02
-4.631855156302706195e-02
-3.905287504936008625e-02
-3.208585786056122185e-02
-2.557167986302893645e-02
-1.956568030417350432e-02
-1.420433334810256541e-02
-9.574184543123712143e-03
-5.715375500091112587e-03
-2.628242671868941376e-03
-2.365122990612448725e-04
1.568505471580924036e-03
2.855296985906601807e-03
3.725750207288068116e-03
4.298914466459616626e-03
4.716199721347045376e-03
5.175640367790806072e-03
5.849598371385343609e-03
6.863764909883676713e-03
8.322191993544551802e-03
1.031451852158969326e-02
1.289827753068639032e-02
1.621152819768995057e-02
2.027720190591357496e-02
2.506574199965812960e-02
3.051378056077235640e-02
3.650647302208274297e-02
4.298268943119862295e-02
4.984374350217814914e-02
5.692300157205863048e-02
6.403158463656438704e-02
7.096604461946535991e-02
7.753098302243570383e-02
8.355910471046029686e-02
8.885798835969976883e-02
9.324402563445732817e-02
9.655146796897211281e-02
9.867362096387187476e-02
9.946260051075724029e-02
9.883084469420094775e-02
9.672860438196649591e-02
9.314088777010803843e-02
8.813291355370177216e-02
8.172372374154794616e-02
7.396040945511439535e-02
6.496289814664635287e-02
5.488126287011834553e-02
4.390632577979357298e-02
3.223471164986032450e-02
2.000738972999204987e-02
7.446366701016740586e-03
-5.215857789786518262e-03
-1.774990093879851710e-02
-2.994855341134184876e-02
-4.163469071876418903e-02
-5.260051470335029566e-02
-6.264777603101953640e-02
-7.160328990161698992e-02
-7.938080164402364081e-02
-8.589228873650871232e-02
-9.102401421777554791e-02
-9.470224080569994429e-02
-9.688643090833515270e-02
-9.761528030351034058e-02
-9.700679607211967759e-02
-9.506879598486815686e-02
-9.188142393031441257e-02
-8.754987884682333132e-02
-8.221202744263936268e-02
-7.613700297303571674e-02
-6.944813498657811945e-02
-6.233219232256973635e-02
-5.498019966928391344e-02
-4.758684644828518190e-02
-4.037238540952466787e-02
-3.352499747618161580e-02
-2.721390241751704339e-02
-2.159851730158473745e-02
-1.681211751002680346e-02
-1.295037018836046362e-02
-1.005936966555367150e-02
-8.181620448442450400e-03
-7.330788836430393238e-03
-7.483796558074205796e-03
-8.571224416703368543e-03
-1.043239567929437825e-02
-1.291450709557322336e-02
-1.586176203930525150e-02
-1.910194627005105950e-02
-2.243910318924594374e-02
-2.563458902331676101e-02
-2.840725817846077514e-02
-3.053790826053596683e-02
-3.183478404358923430e-02
-3.212571666506711110e-02
-3.125704614727056047e-02
-2.905517898833176113e-02
-2.540320409280157760e-02
-2.025986560379237217e-02
-1.363489917461173546e-02
-5.583265024401186383e-03
3.806072603567172558e-03
1.441885732982681710e-02
2.607150257694210854e-02
3.853752815210707838e-02
5.155588944173308819e-02
6.485457371580834185e-02
7.811451140990574582e-02
9.101929175607567646e-02
1.032591153528518296e-01
1.145320474966986940e-01
1.245751283714717078e-01
1.331079129406303463e-01
1.398609532301597069e-01
1.446506999461786291e-01
1.473427944941309298e-01
1.478602815308195928e-01
1.461976921122549178e-01
1.422822392706894756e-01
1.361834081158411203e-01
1.280282440524163623e-01
1.179902712032314394e-01
1.063128044829577540e-01
9.317827698474351328e-02
7.885048295673094398e-02
6.363389955937576170e-02
4.784697507143340078e-02
3.180596588272802117e-02
1.579619497352163782e-02
1.155543314072388084e-04
-1.494107760780961740e-02
-2.910175422499651152e-02
-4.213818332262218164e-02
-5.390322883984249858e-02
-6.421168916859085196e-02
-7.293208203578378790e-02
-7.997166701327144966e-02
-8.528390209820618795e-02
-8.892446869370347617e-02
-9.091924720487956635e-02
-9.132802909295660576e-02
-9.024516975914385897e-02
-8.779444254503890321e-02
-8.413989076571230796e-02
-7.947697166274608760e-02
-7.398985882075144460e-02
-6.786914937651265800e-02
-6.130637628552933899e-02
-5.448397364321979491e-02
-4.757377936771296778e-02
-4.078845506747699745e-02
-3.429421919118720574e-02
-2.823566687231044217e-02
-2.273097634985997428e-02
-1.781274766183072941e-02
-1.358356040233333305e-02
-1.010110715791021595e-02
-7.391404610664724373e-03
-5.447756665118935401e-03
-4.203504196248672095e-03
-3.553848245252567897e-03
-3.423307735575458182e-03
-3.721385781671286957e-03
-4.341310461127650955e-03
-5.159104080535742431e-03
-5.991416991530128244e-03
-6.647858679559023182e-03
-7.000864513233425249e-03
-6.938527689778026253e-03
-6.355734433326971564e-03
-5.184237353832331016e-03
-3.234960508918062905e-03
-4.560083509876021977e-04
3.157683027817679254e-03
7.579529103125218215e-03
1.273296228018819254e-02
1.860199225332513986e-02
2.510925016744039104e-02
3.210966850592846672e-02
3.942798140901210280e-02
4.686801721127956816e-02
5.423676835474713215e-02
6.133896835431773553e-02
6.795877770567691767e-02
7.388105901718333701e-02
7.890029626745527491e-02
8.285869207822238458e-02
8.555010957643237324e-02
8.684554696260896045e-02
8.665487520682933764e-02
8.492495405996274005e-02
8.166617589534205801e-02
7.685380405587813324e-02
7.053810038534610860e-02
6.284075409037853666e-02
5.392222642615582956e-02
4.397481052443574789e-02
3.317452844573100940e-02
2.172570683101935490e-02
9.890304320800772167e-03
-2.057786846471617876e-03
-1.385351863867904411e-02
-2.530345561618768668e-02
-3.617687051091995204e-02
-4.624759085528451497e-02
-5.530991442678069581e-02
-6.319561145252694523e-02
-6.984422881915165748e-02
-7.518653803392047474e-02
-7.915425184729465991e-02
-8.172682311266325772e-02
-8.292265771058915380e-02
-8.283353136667831462e-02
-8.160374695260043387e-02
-7.932225866884042020e-02
-7.612471431311503001e-02
-7.216085645471426169e-02
-6.759595888235236938e-02
-6.263525182097660904e-02
-5.743550563579397777e-02
-5.215826238908321394e-02
-4.695056909047304328e-02
-4.194100767973086424e-02
-3.721710260455325658e-02
-3.287661006117299778e-02
-2.899444416242146286e-02
-2.561477019415184242e-02
-2.275291471694506837e-02
-2.036881750481711606e-02
-1.839384636256229111e-02
-1.679904836568045859e-02
-1.552120842667878940e-02
-1.448185455229595957e-02
-1.357937725921170256e-02
-1.264863936746250979e-02
-1.158752076285363142e-02
-1.029716496493725264e-02
-8.687990795984833203e-03
-6.673791592068281653e-03
-4.158066519075494585e-03
-1.027197696214304182e-03
2.768186813793509747e-03
7.245764516953013407e-03
1.240197625903949677e-02
1.821143342839627588e-02
2.467528596100110674e-02
3.175578248934556036e-02
3.936172744914443605e-02
4.737695854479141711e-02
5.566902669270575033e-02
6.410892063742029690e-02
7.255863985824258233e-02
8.084627090721983877e-02
8.878867902059690842e-02
9.620030187992638371e-02
1.029326259143076433e-01
1.087897899167001303e-01
1.136006915151443614e-01
1.172153988099301908e-01
1.195034325959084820e-01
1.203904033153643388e-01
1.197789304467400118e-01
1.175843017532968715e-01
1.137953811436882706e-01
1.084376772148841345e-01
1.015799079770517283e-01
9.332053874796293613e-02
8.372556670653244493e-02
7.295968652565405776e-02
6.122170852152467035e-02
4.873093194204462797e-02
3.570861603252972055e-02
2.236006670983362379e-02
8.944967224209196197e-03
-4.266113476042695044e-03
-1.701138807221584323e-02
-2.908204723083081603e-02
-4.029874826791554621e-02
-5.045260972331120503e-02
-5.936645225146320454e-02
-6.689805070139002996e-02
-7.296830065053414027e-02
-7.759212064736399628e-02
-8.073379789400400575e-02
-8.241645524157566183e-02
-8.269936708228960154e-02
-8.168269513795324566e-02
-7.955121791969617384e-02
-7.646102852793504323e-02
-7.259214928332768935e-02
-6.813685637032754205e-02
-6.329303995943445782e-02
-5.825856712751099203e-02
-5.323295018581766097e-02
-4.840022775985957509e-02
-4.392120718624727138e-02
-3.992778188998262479e-02
-3.650682472349851826e-02
-3.369024609186861696e-02
-3.152848046127163656e-02
-3.002820505220654343e-02
-2.916198891859575135e-02
-2.886265420397037332e-02
-2.897410088143452869e-02
-2.936929800461163600e-02
-2.991945556570727374e-02
-3.048936226960722098e-02
-3.093264925841800531e-02
-3.107610020962879929e-02
-3.071003274157721105e-02
-2.969681929676358176e-02
-2.793676490043384489e-02
-2.535516608783713877e-02
-2.190092823721834572e-02
-1.749442267382788144e-02
-1.209291920767538789e-02
-5.741512049346732260e-03
1.474422902266855819e-03
9.442725801984002548e-03
1.802252799135313846e-02
2.713198591827578957e-02
3.659179737259984910e-02
4.619752821734820353e-02
5.573367964245769940e-02
6.498156385560703574e-02
7.375797452066701343e-02
8.186748961844460271e-02
8.911636365603607668e-02
9.532561252190921430e-02
1.003461909018394105e-01
1.040480046404754222e-01
1.063157879889368995e-01
1.070845466515119859e-01
1.063216028911684041e-01
1.040254973003052613e-01
1.002354258065671910e-01
9.495387570175893577e-02
8.827604290407022047e-02
8.032999065956765439e-02
7.126369245033696564e-02
6.123126780417865317e-02
5.035885174150535326e-02
3.883744302299226708e-02
2.688394152332814965e-02
1.471796411264723881e-02
2.525520954568740307e-03
-9.554227599211546906e-03
-2.131443936504798936e-02
-3.255390800718337141e-02
-4.308375274021476742e-02
-5.275223364962879774e-02
-6.152945781100570971e-02
-6.927057011752900395e-02
-7.587516317225126428e-02
-8.126214640193557548e-02
-8.538309107263156172e-02
-8.829333133793154653e-02
-9.001638339966368252e-02
-9.057417557510766271e-02
-9.001614937042248799e-02
-8.841318001800882453e-02
-8.587002866595297434e-02
-8.253053114439057314e-02
-7.852555233418276326e-02
-7.398998447772665854e-02
-6.905950321540783865e-02
-6.386168524553549608e-02
-5.849451384427437062e-02
-5.312727323674083790e-02
-4.788280478192420003e-02
-4.286591192953240204e-02
-3.815518650580927013e-02
-3.373146244697258073e-02
-2.964433406196580537e-02
-2.592495052073044010e-02
-2.257357943478421197e-02
-1.956122538456125937e-02
-1.679094212079347559e-02
-1.412464648290196086e-02
-1.148607190798843665e-02
-8.785971261187288869e-03
-5.929399149544793343e-03
-2.805173087740932356e-03
7.574454414839364678e-04
4.882844526663784532e-03
9.643295339060805119e-03
1.508281348423837036e-02
2.122661232764741501e-02
2.809171445959772126e-02
3.571960400208038650e-02
4.405585608031476613e-02
5.299845619944693748e-02
6.241279612887824790e-02
7.214090443867370028e-02
8.204050824320929802e-02
9.192295921100648859e-02
1.015635090864679541e-01
1.107235863661290842e-01
1.191682204456824268e-01
1.266843069458630511e-01
1.330397142692721635e-01
1.380292364946392736e-01
1.414707469448310551e-01
1.432120712704143262e-01
1.431791293994311987e-01
1.412410117259742526e-01
1.373600075460897352e-01
1.315516763956345314e-01
1.238754201276892064e-01
1.144582809152220049e-01
1.033978875625771593e-01
9.084553890075533489e-02
7.702296041680870009e-02
6.218073355621756698e-02
4.658753385993456841e-02
3.048631409254818486e-02
1.412821290197583887e-02
-2.188405702959280667e-03
-1.816668572669696835e-02
-3.353175297128090093e-02
-4.810278946458771548e-02
-6.166775836876487588e-02
-7.401790628067723976e-02
-8.496959330501993590e-02
-9.438046416385512116e-02
-1.022209799624039378e-01
-1.084747717240958503e-01
-1.130965650348358387e-01
-1.160875700504120922e-01
-1.174834566703934075e-01
-1.173872056393154145e-01
-1.159768908927121672e-01
-1.133526935394431057e-01
-1.096589057971749381e-01
-1.050510727267818939e-01
-9.969796366283376066e-02
-9.381475511591473582e-02
-8.756846567975393181e-02
-8.113615522461675722e-02
-7.468386991222010496e-02
-6.836123890641036815e-02
-6.228248475494942843e-02
-5.655017733779706818e-02
-5.126696313323706594e-02
-4.651195848297340341e-02
-4.233503200499977304e-02
-3.873696882837716904e-02
-3.564833045499156416e-02
-3.303525293938552182e-02
-3.085216619929919205e-02
-2.903422180113827619e-02
-2.748669059623121830e-02
-2.604841574856719272e-02
-2.453713514254649702e-02
-2.282847884266266808e-02
-2.080747304797151212e-02
-1.835765165972687296e-02
-1.536531680078022204e-02
-1.163302250075549070e-02
-7.056345292843435590e-03
-1.586894570555685748e-03
4.793213188640305794e-03
1.206717028163093418e-02
2.024899356303225262e-02
2.931898343725395512e-02
3.916811317846524004e-02
4.964605030196816288e-02
6.057266247620930050e-02
7.175634589655680018e-02
8.299906919917914017e-02
9.405676725316157449e-02
1.046685178230721547e-01
1.145672977225963701e-01
1.235195193267468322e-01
1.312474343925777442e-01
1.375115419670051020e-01
1.421119428996046319e-01
1.448813674925538975e-01
1.457151834535173329e-01
1.444995920896754160e-01
1.411503526771664963e-01
1.356908131799445527e-01
1.281993685730435650e-01
1.188048483689296830e-01
1.076705071043289608e-01
9.492927636449038920e-02
8.084052577816863705e-02
6.570449296529813632e-02
4.983953465845344238e-02
3.354829999087402537e-02
1.709896177393768410e-02
8.219864249655933416e-04
-1.494776535256195187e-02
-2.989788928736442433e-02
-4.378428610386000258e-02
-5.643551021594481187e-02
-6.764889856121092393e-02
-7.726072122804454601e-02
-8.515201543514484828e-02
-9.127038576359877697e-02
-9.567744932175066552e-02
-9.840038282424373728e-02
-9.951376001341692701e-02
-9.912468414522437876e-02
-9.737487769451808051e-02
-9.445552375725732586e-02
-9.057653261161906222e-02
-8.594344902976078227e-02
-8.076211133305946643e-02
-7.523164679875064820e-02
-6.951582424004083827e-02
-6.378812480202571134e-02
-5.822897398307119027e-02
-5.297539981511550228e-02
-4.813205739261242067e-02
-4.374882195635987348e-02
-3.979024820330240297e-02
-3.630707257675806071e-02
-3.328992475794063932e-02
-3.070373179673139066e-02
-2.848062652680463311e-02
-2.645575369713695085e-02
-2.451270857265999692e-02
-2.255009846195154752e-02
-2.046712198226382368e-02
-1.815989495045271240e-02
-1.551290283744715011e-02
-1.235590440467765859e-02
-8.590226827439895532e-03
-4.166759152000695798e-03
9.376675879852031624e-04
6.715821419691415592e-03
1.317925512195054945e-02
2.036853543176622011e-02
2.820968398532773883e-02
3.659248535966849042e-02
4.538424178414419280e-02
5.439564446957108335e-02
6.356208602788743223e-02
7.270889646469527734e-02
8.163454836229325218e-02
9.012791502584442671e-02
9.796797313129346207e-02
1.049751803845416359e-01
1.109697441832715181e-01
1.157700563194526133e-01
1.192099517031535022e-01
1.211541243810151103e-01
1.214884710654958871e-01
1.201044879673225790e-01
1.169590115463302882e-01
1.120470578577027893e-01
1.053983075275972681e-01
9.710631666584947086e-02
8.719816825090381807e-02
7.582140944986606734e-02
6.316782245453321509e-02
4.945757796143077784e-02
3.492988331112884676e-02
1.978470056729907806e-02
4.291316950932691845e-03
-1.124520312419306951e-02
-2.651667563161833399e-02
-4.124515136580927943e-02
-5.522058338578803016e-02
-6.818164787105381042e-02
-7.987754337941760374e-02
-9.008418117399184799e-02
-9.862577653427699598e-02
-1.054680315326687184e-01
-1.105059376035039259e-01
-1.136895766269878927e-01
-1.150084185333100639e-01
-1.145021322412890091e-01
-1.123107460617689263e-01
-1.085897308357392232e-01
-1.034959422091986936e-01
-9.722072683684818140e-02
-8.997767883482417350e-02
-8.200472524242885530e-02
-7.356537835869496333e-02
-6.491040861383551297e-02
-5.628086752330482140e-02
-4.789986738626416524e-02
-3.996299966087741434e-02
-3.260349784080216612e-02
-2.598392200068492044e-02
-2.021560674920737724e-02
-1.537084337042274491e-02
-1.147471414788393297e-02
-8.462843260794198144e-03
-6.255262874562312475e-03
-4.773629407249695492e-03
-3.910019500277179746e-03
-3.527823252639048380e-03
-3.449091324613206156e-03
-3.430398582162364190e-03
-3.277820004438432560e-03
-2.824528070876051750e-03
-1.917829943176796881e-03
-4.151370168912408946e-04
1.840944749298796578e-03
5.013085675683782820e-03
9.159430086046272193e-03
1.429122650416963895e-02
2.038427982089916629e-02
2.737799421676921988e-02
3.524998722974012622e-02
4.388234213294479880e-02
5.310441123733818103e-02
6.271541916118138216e-02
7.250226699790721097e-02
8.226167579545397290e-02
9.175955752490863593e-02
1.007492756706073744e-01
1.089862497367059119e-01
1.162486303965018508e-01
1.223670666746200231e-01
1.271040933030186115e-01
1.303030962132865900e-01
1.318432621047833653e-01
1.316414649977019902e-01
1.297245607892533181e-01
1.260017207079713319e-01
1.204930635490948226e-01
1.132832376454864648e-01
1.044954041913031262e-01
9.431814735034178832e-02
8.289065861362177046e-02
7.037408249919756276e-02
5.700810763783880492e-02
4.305054077568796350e-02
2.876218443107097372e-02
1.436631811595141112e-02
8.415370899085604720e-05
-1.382562398736659169e-02
-2.711247665340864657e-02
-3.955319488464732053e-02
-5.103792615315950326e-02
-6.140092264283084772e-02
-7.049073600564204067e-02
-7.818695140137761623e-02
-8.440816206469796412e-02
-8.918405877928356484e-02
-9.255493743165417453e-02
-9.451402268907072024e-02
-9.511220847787170418e-02
-9.442989040226744402e-02
-9.260156264049804187e-02
-8.983884588396441606e-02
-8.626191611956675331e-02
-8.203763864625955582e-02
-7.733822184991517856e-02
-7.234049472505664491e-02
-6.724107876793047889e-02
-6.220865327856827526e-02
-5.740434778508884950e-02
-5.297147101585759216e-02
-4.902762159693969946e-02
-4.563845628135502347e-02
-4.284971368391588681e-02
-4.070978212381892031e-02
-3.923267653221516188e-02
-3.839761627606846223e-02
-3.813079702215589617e-02
-3.827565743332989739e-02
-3.871915324760527577e-02
-3.933770834464236921e-02
-3.999414657503013587e-02
-4.052873771276173376e-02
-4.072570970304096455e-02
-4.035500558089610140e-02
-3.925951926707390433e-02
-3.730856771471732086e-02
-3.438819562990539508e-02
-3.040209271155086199e-02
-2.519979693389508626e-02
-1.872544898632448954e-02
-1.099583219385105032e-02
-2.072482661967981355e-03
7.940235974604298655e-03
1.894341320551685276e-02
3.081384623767517705e-02
4.334434464558128280e-02
5.629078262506490710e-02
6.938569372598052398e-02
8.235471262140096893e-02
9.492574140613589673e-02
1.068089366862652184e-01
1.177180419717566706e-01
1.273801741874571736e-01
1.355727105368724206e-01
1.420497588325523308e-01
1.466137765979975693e-01
1.491273834746934257e-01
1.494999250026272652e-01
1.477127097508440512e-01
1.437645357850867722e-01
1.376535297643899647e-01
1.294876583410033144e-01
1.194246152769914276e-01
1.076639572088682745e-01
9.446459048664536395e-02
8.000289003347550720e-02
6.456454376571492404e-02
4.845793344586252216e-02
3.199648788273349448e-02
1.547862976406955832e-02
-8.413123716575206072e-04
-1.667623107211675670e-02
-3.174442694091538647e-02
-4.579175285225828285e-02
-5.863260378417002594e-02
-7.015172758181914547e-02
-8.018476210884946387e-02
-8.860885456573806829e-02
-9.533815650952946752e-02
-1.003455325233540418e-01
-1.037503789069993687e-01
-1.055553173395728656e-01
-1.058183111315961766e-01
-1.046196638391818923e-01
-1.020721661011887715e-01
-9.838848743164183008e-02
-9.374842921906322013e-02
-8.830959814797573193e-02
-8.223916182889001725e-02
-7.570715398856400769e-02
-6.889779021767979128e-02
-6.201581861267674994e-02
-5.523250694162135099e-02
-4.870104415893585642e-02
-4.255407520476241212e-02
-3.689761940968940002e-02
-3.178929273036433523e-02
-2.732428071204784370e-02
-2.355980883139883325e-02
-2.052672839511548650e-02
-1.822044644116994211e-02
-1.654913988560209950e-02
-1.542554614939943732e-02
-1.478382073689229158e-02
-1.454295888241290309e-02
-1.459812284782806800e-02
-1.479613015625689566e-02
-1.490332126981767751e-02
-1.475823940707993685e-02
-1.423005794073259507e-02
-1.319637553582054569e-02
-1.153196946542098256e-02
-9.056352415155444896e-03
-5.607143533720836820e-03
-1.120116231187164458e-03
4.427742238268288916e-03
1.103199411638208782e-02
1.867470666402495580e-02
2.736210701914565044e-02
3.699919886750764608e-02
4.743942677009207326e-02
5.849992992307258971e-02
6.998166885702286621e-02
8.167375090748468791e-02
9.332657420513150448e-02
1.046750771368027827e-01
1.154446415086219924e-01
1.253715961687767444e-01
1.342067237583537131e-01
1.416519463888503416e-01
1.474843733612062890e-01
1.515150176991818531e-01
1.535902084547080271e-01
1.536543956836479985e-01
1.515420367773424037e-01
1.472220418090027239e-01
1.407298822267496474e-01
1.321520439688232407e-01
1.216614963588622811e-01
1.093832255779915302e-01
9.548546342668248754e-02
8.021801649915466514e-02
6.386219444113018506e-02
4.672981034169463449e-02
2.912953278581032271e-02
1.132528978254854733e-02
-6.369157064134036914e-03
-2.364673961065587304e-02
-4.022083949302063949e-02
-5.585327288778987875e-02
-7.032858342484595016e-02
-8.344175956567355390e-02
-9.501992682227393405e-02
-1.049328656051422004e-01
-1.131461541194801468e-01
-1.196359712885272653e-01
-1.243655649336291996e-01
-1.273441158617701074e-01
-1.286161728886426603e-01
-1.282998157481564372e-01
-1.265914913401395836e-01
-1.235708052485153668e-01
-1.193679855886970315e-01
-1.141232970492584015e-01
-1.079958456661403998e-01
-1.012761129620045747e-01
-9.407976050801068746e-02
-8.656231664451749519e-02
-7.886840920972539026e-02
-7.113745473115795637e-02
-6.355689448251272688e-02
-5.625391748714445722e-02
-4.932210285001856209e-02
-4.285715862265151999e-02
-3.693705080104919825e-02
-3.163529515230192879e-02
-2.699028013925944963e-02
-2.300199027516500877e-02
-1.969336910395487125e-02
-1.707063556268052437e-02
-1.511465637924355211e-02
-1.376908657046242192e-02
-1.290386499019694801e-02
-1.245830432067061670e-02
-1.236793682698416642e-02
-1.254814324109143446e-02
-1.288375410076753914e-02
-1.315980637052317249e-02
-1.324009578399857646e-02
-1.301864781129216837e-02
-1.239185713819336739e-02
-1.124844056991494007e-02
-9.411554067438942378e-03
-6.747216663977395959e-03
-3.185027535098770412e-03
1.316906752639324194e-03
6.782232408358872776e-03
1.324556923223835052e-02
2.069973382532884487e-02
2.908986326928683294e-02
3.832450941762669677e-02
4.827982994753740598e-02
5.883933032826822729e-02
6.979350369942184662e-02
8.093153016621047746e-02
9.204008976367762662e-02
1.028920962050518806e-01
1.132851584764095199e-01
1.229554662715583863e-01
1.316055762014221031e-01
1.390181808215861514e-01
1.450006908020753105e-01
1.493974157076139453e-01
1.521218700014222991e-01
1.529394976667689532e-01
1.517786205415842249e-01
1.486189856461987702e-01
1.434862564919492656e-01
1.365236042402770966e-01
1.277441848247370393e-01
1.172631814454378613e-01
1.052619622462164090e-01
9.195756611875302577e-02
7.762793477527971109e-02
6.252229413660857771e-02
4.686855193751221504e-02
3.094666556471555030e-02
1.503896039811971654e-02
-5.765495684417524212e-04
-1.563723788049065783e-02
-2.992379120593483335e-02
-4.321273325865208209e-02
-5.530669517803007973e-02
-6.604351747530774752e-02
-7.534311106982141681e-02
-8.310944171491517485e-02
-8.927121546052341206e-02
-9.379291691284673271e-02
-9.667764071651177571e-02
-9.801740667341268809e-02
-9.792396281651380430e-02
-9.646116688963882191e-02
-9.373550238170795523e-02
-8.987413068609742539e-02
-8.504852280267014009e-02
-7.951187986356798854e-02
-7.339844834544874408e-02
-6.687940178759917143e-02
-6.012296582212648538e-02
-5.329909528599040269e-02
-4.663701781493354015e-02
-4.027435795652815204e-02
-3.435239269087766306e-02
-2.899982414429084707e-02
-2.432514050341648415e-02
-2.042988664230604642e-02
-1.736124745338481212e-02
-1.515256178046796125e-02
-1.383357207782571173e-02
-1.340662284583139623e-02
-1.384248871448900790e-02
-1.504034449002844727e-02
-1.687872847919005131e-02
-1.926838680341443413e-02
-2.210584153961790699e-02
-2.525960628111961759e-02
-2.855392654160230151e-02
-3.173235960601365757e-02
-3.463027243508379899e-02
-3.710030641047950412e-02
-3.899615761156118021e-02
-4.016606087185028290e-02
-4.038433078014138505e-02
-3.950818864348247528e-02
-3.745622945974421553e-02
-3.418004414677448116e-02
-2.965537143297686598e-02
-2.384524041663145869e-02
-1.675556390268413687e-02
-8.462425039543234120e-03
9.158612435014382158e-04
1.122738121420335800e-02
2.231889613351373605e-02
3.397132314376696827e-02
4.595757005612885471e-02
5.803317737862328379e-02
6.994091144779472635e-02
8.145223060378650737e-02
9.226683919671430090e-02
1.021091867392828756e-01
1.107493788547049135e-01
1.179824090945917614e-01
1.236564255839757293e-01
1.276238297149903389e-01
1.297028676090302146e-01
1.298250153566856691e-01
1.279703465644637939e-01
1.241641788085588033e-01
1.185307450510200283e-01
1.110758933082927752e-01
1.019383682533977903e-01
9.129749679449460087e-02
7.936334328350051759e-02
6.638815833561868829e-02
5.258752897060448017e-02
3.821109167904628706e-02
2.353168747137335953e-02
8.821102924728345049e-03
-5.674573579407348953e-03
-1.974184694575627230e-02
-3.313270707099202211e-02
-4.562351959910745935e-02
-5.701656047983018338e-02
-6.715913252588703863e-02
-7.604413390223381530e-02
-8.351511298579113174e-02
-8.948913849872927595e-02
-9.391127910461709305e-02
-9.676917733819201395e-02
-9.820738788257954432e-02
-9.828868319896442995e-02
-9.705356805285098032e-02
-9.458044005579908931e-02
-9.097226149735361533e-02
-8.641267584089813714e-02
-8.113670601396036353e-02
-7.526811951172268644e-02
-6.896014003770870038e-02
-6.236483200928692044e-02
-5.564450666680374052e-02
-4.901072386623438887e-02
-4.261851304292275933e-02
-3.661378051994055444e-02
-3.112218608105388543e-02
-2.624695471042143638e-02
-2.203599142277884101e-02
-1.855897402807455202e-02
-1.587534891103129647e-02
-1.401538279527764393e-02
-1.297393682236794819e-02
-1.266337695090609221e-02
-1.293445621897743210e-02
-1.371844170353629135e-02
-1.492137498718147139e-02
-1.642777840964891600e-02
-1.807439593052889357e-02
-1.956339060845196584e-02
-2.070784493821193825e-02
-2.134294088074943641e-02
-2.131796619125111286e-02
-2.047925497272851114e-02
-1.860337808993479947e-02
-1.549160604998640715e-02
-1.104375661124003781e-02
-5.205443038098644601e-03
2.040819450386885045e-03
1.070291986953729457e-02
2.078833978421639958e-02
3.220919645782018698e-02
4.482232694645945509e-02
5.843635898883925428e-02
7.282681195345340475e-02
8.775536421695388778e-02
1.029147676775053200e-01
1.179910771766997796e-01
1.326524890433240789e-01
1.465559551955082362e-01
1.593895123486902543e-01
1.707595959679263642e-01
1.803447443919886373e-01
1.878644627738711714e-01
1.930742814380464190e-01
1.958013478640617533e-01
1.958446293666946669e-01
1.930612337551964319e-01
1.874131867804539331e-01
1.789277660042492279e-01
1.677058006138411328e-01
1.538981482250439958e-01
1.376372135322076473e-01
1.191777281900906343e-01
9.882730762083230536e-02
7.693279186354354260e-02
5.388235861982185876e-02
3.002943927661494775e-02
5.786412238996733320e-03
-1.842223728705273678e-02
-4.217910514094118379e-02
-6.511147006245945890e-02
-8.686837808792537141e-02
-1.070912487638607663e-01
-1.254610590077888110e-01
-1.417048318499771198e-01
-1.556331235417980074e-01
-1.671615370160327296e-01
-1.761335246913242059e-01
-1.824771257638862776e-01
-1.861730519394991235e-01
-1.872658357866416323e-01
-1.859850587099364239e-01
-1.824237794656202172e-01
-1.767472046287429932e-01
-1.691521802462771784e-01
-1.598704499614767571e-01
-1.492350690757634490e-01
-1.375553460832893149e-01
-1.250914002117298196e-01
-1.121206805390532052e-01
-9.891513962394483939e-02
-8.576193553897429322e-02
-7.295724070855620635e-02
-6.070750238370737489e-02
-4.921947466986706377e-02
-3.866683559424190925e-02
-2.918744132128374760e-02
-2.090778366110544739e-02
-1.383883688510151831e-02
-8.018450135755977523e-03
-3.451871480266664131e-03
-1.018070413815654746e-04
2.100085677617196528e-03
3.353962442161603601e-03
3.814538762263171984e-03
3.620734528780801282e-03
2.929982253818250951e-03
1.913273562283781875e-03
8.457683404534963381e-04
-1.762948567824752788e-06
-4.547201435614925923e-04
-3.602981309417324987e-04
4.260003072153362332e-04
2.054596045734508741e-03
4.745175937322225826e-03
8.570253842706373332e-03
1.355182588337510569e-02
1.967608292355735658e-02
2.691806396810622268e-02
3.524834065140308031e-02
4.455950361574115282e-02
