1.997746449625043691e-03
-5.935079281562238851e-02
-1.097364250957742482e-01
-1.444527540885492956e-01
-1.631097642354146782e-01
-1.628298185456207303e-01
-1.376742907450154707e-01
-8.698145748589891646e-02
-2.254646527976145176e-02
3.572381148509662374e-02
7.328966397042735448e-02
9.017387807528992605e-02
9.591363724386335610e-02
9.586772073135746419e-02
8.501628411921713369e-02
5.670317098236921094e-02
1.489556027617189304e-02
-2.633144512005158866e-02
-5.615396291877428059e-02
-7.665888060321279784e-02
-9.634979896640383235e-02
-1.147773300370642791e-01
-1.172345560277615883e-01
-8.783478681298061141e-02
-2.785471904274173377e-02
4.120756788655428882e-02
9.430497670235576946e-02
1.220264918382723551e-01
1.327386763913036560e-01
1.375617879825419831e-01
1.365725745130723090e-01
1.210549939861416679e-01
8.634582846439586845e-02
3.833490837736711065e-02
-1.269834235024008828e-02
-6.055518193801218141e-02
-1.029534647396861957e-01
-1.351256328705545129e-01
-1.473793142884639584e-01
-1.310701219273222584e-01
-8.773219384079422589e-02
-3.279468829129883467e-02
1.051595051705123129e-02
2.410693865096341648e-02
6.533426889325927300e-03
-2.451628745463951820e-02
-4.103669805148427163e-02
-2.127286664388980397e-02
3.421943217496078993e-02
9.803988976005389988e-02
1.300753636679321257e-01
1.043996542951061701e-01
2.986973207455916046e-02
-5.320328616771175662e-02
-9.938716178797603329e-02
-8.712229114683961440e-02
-2.853335654784908137e-02
4.417015087700665310e-02
1.009169851061973988e-01
1.273124331125869979e-01
1.248894238274647073e-01
1.041771849201311717e-01
7.629573083522744881e-02
4.580717636284359351e-02
8.847870953014369544e-03
-4.048961026703817856e-02
-1.003388397323337899e-01
-1.577327909173964482e-01
-1.953300691131848454e-01
-2.009989563183774419e-01
-1.715979948967947810e-01
-1.111713987615886579e-01
-3.014408227895448711e-02
5.296536651015237851e-02
1.141881123145909727e-01
1.355363692223447436e-01
1.174910280321409539e-01
7.930745705092517861e-02
4.444031796445463423e-02
2.378241181231893764e-02
1.124432578181089326e-02
-7.025850234420649709e-03
-3.988261518444757847e-02
-8.372568114542433548e-02
-1.223970272635568901e-01
-1.335766465200295960e-01
-1.004923918156500617e-01
-2.451560604899986895e-02
7.039835158411797411e-02
1.484376732143272148e-01
1.834020964477606208e-01
1.749681878946778291e-01
1.454396721484669808e-01
1.190827514231427298e-01
1.022781955940034182e-01
8.163309943316132689e-02
3.965568570537242321e-02
-2.793189055309369673e-02
-1.072369944084058668e-01
-1.733909797913580908e-01
-2.014849373196686000e-01
-1.771809158364600623e-01
-1.069055327894975482e-01
-2.128953901859914621e-02
3.870025830085931789e-02
4.973054944725803506e-02
2.463971942807346993e-02
4.969488342121547442e-04
4.758724884490242099e-03
3.213995980883049830e-02
5.368841892400522120e-02
4.529929464869186795e-02
5.391373384303843608e-03
-5.097715162942662026e-02
-1.065940416853764505e-01
-1.464947771790041653e-01
-1.538513831508098173e-01
-1.129911204404338010e-01
-2.407963290563880365e-02
8.638967991491208753e-02
1.762407444098252896e-01
2.144711483568577659e-01
2.005183354019793862e-01
1.587682743274785868e-01
1.154353147675135638e-01
7.999029448375183371e-02
4.487975932511667487e-02
-2.018849713526393863e-03
-6.577768894117830278e-02
-1.395438747810837654e-01
-2.044430824385972123e-01
-2.342736830342372900e-01
-2.077524390312676661e-01
-1.242592261840674839e-01
-1.023435173492298622e-02
9.244064396668261185e-02
1.491386479941160248e-01
1.498692034880175772e-01
1.108700378856508628e-01
6.191781816438790553e-02
2.778905754036053999e-02
1.375721312479161185e-02
3.875860302158029569e-03
-2.475728893178286844e-02
-7.974037774542612478e-02
-1.406491342925972332e-01
-1.695785322086259816e-01
-1.395394998261810238e-01
-5.696612930991312718e-02
4.212272977532083296e-02
1.181759560776094176e-01
1.523366505726913012e-01
1.506452262802313591e-01
1.314319538165937828e-01
1.107115751285085992e-01
9.462821080342950775e-02
7.835411012166468292e-02
4.920810154569179445e-02
-5.014577481959239108e-03
-8.327737677979461794e-02
-1.626399956413024650e-01
-2.051916303396451036e-01
-1.817217916547285150e-01
-9.659452577968530296e-02
7.910149066965743714e-03
7.621251037017712227e-02
7.737346235479554413e-02
2.698515001705795169e-02
-2.510955330468583879e-02
-3.187984486534606310e-02
1.736930697520132350e-02
9.059751482119354771e-02
1.359203302309685835e-01
1.161368380139830708e-01
3.218601444375429610e-02
-7.746613608507964266e-02
-1.593307677835896496e-01
-1.751778915197446107e-01
-1.218962993420020097e-01
-2.921407263440629551e-02
6.124489057979269624e-02
1.188367627313199892e-01
1.333099979020614390e-01
1.103544597050213905e-01
6.431131564996522831e-02
1.439652016030967818e-02
-2.024916178367791586e-02
-3.097219478880242072e-02
-2.799138623776217805e-02
-3.416634199149248818e-02
-6.428973713097860254e-02
-1.080098318734169782e-01
-1.348447644027321035e-01
-1.186197271610933968e-01
-5.871832271823215765e-02
2.044864218767639130e-02
8.772983009097798379e-02
1.228342215849101138e-01
1.223212600122910720e-01
9.714413470579785770e-02
6.678203974490720674e-02
4.931730759426489197e-02
4.899439543821021426e-02
5.121120962199188220e-02
3.336083547536516924e-02
-1.510802777042985490e-02
-8.123223840204107926e-02
-1.361387113257572778e-01
-1.542388139932012736e-01
-1.275903966162632575e-01
-6.675722635211334133e-02
6.977688821089792631e-03
6.963280890519452093e-02
1.019365078218721354e-01
9.879441912583497576e-02
7.521464607626726639e-02
5.784092547527408534e-02
6.328743111227241869e-02
8.157115472717557658e-02
8.210915226049697591e-02
3.938408658657599482e-02
-4.348442732958957002e-02
-1.335718145755691588e-01
-1.898324515399651968e-01
-1.892512930819012507e-01
-1.381555385131699731e-01
-6.411052804982630970e-02
1.944123354957971728e-03
4.093509872779588221e-02
5.165007870766602505e-02
4.687439610433058457e-02
4.264909694856061639e-02
4.667538617994293482e-02
5.348222043699291106e-02
5.028194579887845794e-02
2.911779522046276103e-02
-4.810598236080432244e-03
-3.559794591876719316e-02
-4.707528111574110774e-02
-3.193918749257429468e-02
6.191537889417730867e-03
5.534422389929005703e-02
9.827738965068411048e-02
1.173107912848283529e-01
1.031388591663717769e-01
6.269086459603356865e-02
1.718117043557113033e-02
-1.094708349025230731e-02
-1.293562162256423065e-02
1.760466422231488082e-04
3.640636762362259304e-03
-2.626964015387622808e-02
-9.546321365733456688e-02
-1.819981329617499366e-01
-2.424951056220088219e-01
-2.367843880715585492e-01
-1.562629456063009403e-01
-3.259249126189822654e-02
8.329019270257420615e-02
1.552423584088336028e-01
1.801485576668444555e-01
1.777292666381820041e-01
1.663158360016375181e-01
1.481176422719996943e-01
1.133013460874864320e-01
5.382478275245272670e-02
-2.664142034455130315e-02
-1.118041309715380738e-01
-1.773210464914813933e-01
-1.978226887133271994e-01
-1.579453548638074523e-01
-6.571449135230933436e-02
4.353135725189516414e-02
1.239622612091806353e-01
1.485134823382002200e-01
1.245804387011822389e-01
8.041210548764290977e-02
3.663806344046244279e-02
-7.711947131569814318e-03
-6.280775557110634955e-02
-1.260908074417865232e-01
-1.757015637227782034e-01
-1.853543380555746078e-01
-1.445796086399924185e-01
-6.595254187716342864e-02
2.372993246109030008e-02
9.818979662974866573e-02
1.424830622585175899e-01
1.567290932187075381e-01
1.526063641039403507e-01
1.433106765967283591e-01
1.318196217647998325e-01
1.066377048907979352e-01
5.135615059521958514e-02
-3.650763314229360512e-02
-1.328192161374525115e-01
-1.948286728653252087e-01
-1.879107851469569990e-01
-1.107512040502930117e-01
1.606464671465919480e-03
9.856633276868581595e-02
1.424444478673955738e-01
1.266367205633468496e-01
7.477828302163536112e-02
2.215848676920412208e-02
-9.993926769742700333e-03
-2.934674177753773816e-02
-6.217966122113363636e-02
-1.234673678372194688e-01
-1.941369759858990740e-01
-2.302744553168345754e-01
-1.988878247135899557e-01
-1.065770617400448872e-01
5.819375230336321092e-03
9.463918657296543913e-02
1.396813826471028364e-01
1.458476891492147542e-01
1.282223214563300573e-01
9.973131627574083335e-02
6.886405201467793447e-02
4.121170777759497472e-02
1.919865024196343306e-02
2.636689550857274078e-03
-7.074308939876927660e-03
-4.249899392842260148e-03
1.590213711677074260e-02
4.838537105594331589e-02
7.738838023286370715e-02
8.670583258183417463e-02
7.141492203951482765e-02
3.925578339465152222e-02
2.351171106845573178e-03
-3.066085504704840758e-02
-5.599454620994093190e-02
-7.284824424026503653e-02
-8.293146436678619504e-02
-8.988447206149131896e-02
-9.517103753368055807e-02
-9.338191047712998683e-02
-7.440587345842969436e-02
-3.360958112223716432e-02
1.950219758130283809e-02
6.464878617976754782e-02
8.492790547473472174e-02
7.826941867027270572e-02
5.411141262267843421e-02
1.890511351255275141e-02
-3.223313794687898692e-02
-1.055758584702654879e-01
-1.891989576021916308e-01
-2.464870292646178518e-01
-2.355968157297579912e-01
-1.416321253283597814e-01
7.283178024884318091e-03
1.553618237402576430e-01
2.521673252017173628e-01
2.770379933628966951e-01
2.423275000134109680e-01
1.802747684999009836e-01
1.229233167800926063e-01
8.405482690293342163e-02
5.344111366370729588e-02
9.244421982555039996e-03
-5.916096290175265615e-02
-1.362900997611127818e-01
-1.869019515594230740e-01
-1.792467571903711421e-01
-1.069327735373570842e-01
6.192689458593192420e-03
1.189782088188848508e-01
1.931285536842252959e-01
2.094330819305104674e-01
1.735285844252700826e-01
1.088985182348621850e-01
4.014661127433083454e-02
-2.347202441858975419e-02
-9.165800831892845224e-02
-1.789979214532664287e-01
-2.833170728885707756e-01
-3.754785542765426420e-01
-4.121683204454360538e-01
-3.640494470954397377e-01
-2.375582808879069530e-01
-7.295596537391652037e-02
7.890386970462703875e-02
1.819848830983852306e-01
2.260850861570294912e-01
2.227618048344229829e-01
1.950165615374112038e-01
1.661696565577073237e-01
1.490883251392309816e-01
1.401560418990061008e-01
1.246518085318718549e-01
9.226331983399815861e-02
4.993009014163907189e-02
1.913790316840824346e-02
1.941644087538879626e-02
5.368266891573664212e-02
1.074609474059452230e-01
1.580779125832643683e-01
1.833254349449805198e-01
1.676904378765920189e-01
1.097082500007244832e-01
2.579665744795600624e-02
-5.946518021649122021e-02
-1.332039097119476212e-01
-2.034757847938696296e-01
-2.838073952657371724e-01
-3.673737041789284508e-01
-4.201450794726009907e-01
-4.036174822808138440e-01
-3.066750174706203147e-01
-1.572732599104463835e-01
-5.068069168177924411e-03
1.080241866608659951e-01
1.662347252738685111e-01
1.787396799256133484e-01
1.665516559996615964e-01
1.489151519011682190e-01
1.347872190306760865e-01
1.202258344089233710e-01
9.257393151547585464e-02
4.220695899835069653e-02
-2.320645138562682508e-02
-7.492820297589097844e-02
-7.948589473517952975e-02
-2.518065786484879887e-02
6.616953848726159215e-02
1.543330799718152235e-01
2.068144307337262955e-01
2.126023083469901209e-01
1.788229946848597374e-01
1.217928463367887737e-01
5.976936333241689159e-02
5.158292786567875154e-03
-4.301393914855650147e-02
-9.698376309207812351e-02
-1.638984294655941309e-01
-2.286687064363531197e-01
-2.571463727865554993e-01
-2.221287912150574639e-01
-1.283783917311365208e-01
-1.180719492609183519e-02
8.516253964587794378e-02
1.375134863962236276e-01
1.426769994258014762e-01
1.114747280585548506e-01
5.949782362307898254e-02
2.829798715305364976e-03
-4.748921295456751124e-02
-9.111645385869585057e-02
-1.344333187674398022e-01
-1.756849107267145216e-01
-1.951088468222852146e-01
-1.663528617708330271e-01
-8.285556624352791166e-02
2.802603233832079432e-02
1.218867912616899418e-01
1.715524070947436752e-01
1.849990373277586309e-01
1.893742122724053067e-01
1.988052544618956197e-01
1.991797204418723766e-01
1.635389731068856989e-01
8.062130476841122828e-02
-3.062419226543444672e-02
-1.305211965687688158e-01
-1.811312520554829719e-01
-1.659679888078002818e-01
-9.831178440402831009e-02
-1.460354356757792571e-02
4.650014185434614422e-02
6.793751748129100987e-02
6.119230401958647425e-02
4.887135955832377920e-02
4.068492618058211496e-02
2.768049862073290734e-02
-2.903445087061362617e-03
-5.293406948983803151e-02
-1.137446855835735904e-01
-1.734941420602558182e-01
-2.175302456856982591e-01
-2.249050186441144406e-01
-1.758484565346511985e-01
-7.142989680250860784e-02
5.482798612799746896e-02
1.526326370243099861e-01
1.902819845711256619e-01
1.779175971430130287e-01
1.542846633657272426e-01
1.476953205404596958e-01
1.488612502753457190e-01
1.222744754715554549e-01
4.460171159931425322e-02
-6.694512547813147307e-02
-1.617733452680339967e-01
-1.907931589390854388e-01
-1.392827798653346605e-01
-3.387809887154957789e-02
7.689749882689422833e-02
1.506531724489966473e-01
1.692312193486008032e-01
1.403435653526061144e-01
8.689694463736968855e-02
3.197640446983890383e-02
-1.276813467567489147e-02
-4.997181882612866666e-02
-9.001634948455206064e-02
-1.395915486260571881e-01
-1.923105170627456839e-01
-2.275471298135411657e-01
-2.203370164170090073e-01
-1.588406242186729544e-01
-5.803933207714961906e-02
4.364364269324472190e-02
1.073897775258021436e-01
1.208662257078714219e-01
1.045787596809168996e-01
8.889013043097460098e-02
8.249506785735816194e-02
6.506866627368440570e-02
1.331585383283873103e-02
-6.609082343172412166e-02
-1.316557676586285197e-01
-1.373717565788707962e-01
-7.056735464069685548e-02
3.748763584977043983e-02
1.363786347591866566e-01
1.918626265768768047e-01
2.011381487405219382e-01
1.818345990940326840e-01
1.523506560533072762e-01
1.208391970206182942e-01
8.503899990356650340e-02
3.737940855930210748e-02
-2.701412377346412708e-02
-1.008715349640055825e-01
-1.615366879259890753e-01
-1.821785463450100728e-01
-1.521693333609828169e-01
-8.786514988077964716e-02
-2.142591699611828826e-02
2.236251629679886221e-02
3.872141901584313928e-02
3.514213716601122250e-02
1.654246502196254909e-02
-1.796221490186200587e-02
-6.574243633309245771e-02
-1.143770979005156452e-01
-1.477417296521030821e-01
-1.557275099789969808e-01
-1.356766720051711950e-01
-8.837830590535844522e-02
-1.961408660432772955e-02
5.386487937269035520e-02
1.077493443846930798e-01
1.272527033774700778e-01
1.210660545147020373e-01
1.131678167090078846e-01
1.169884985655648274e-01
1.186537330977872756e-01
8.937875414122013751e-02
1.674532636842715472e-02
-7.631064065795992168e-02
-1.439775785414778575e-01
-1.495517256165004860e-01
-8.867199943342024548e-02
1.197397158170421250e-02
1.132719164319289651e-01
1.828129498818821808e-01
2.049651403603779953e-01
1.824704368379451713e-01
1.319609329131093967e-01
7.326290141352687080e-02
1.620366130261663429e-02
-4.344145375988772706e-02
-1.111775126828338234e-01
-1.755478905827891900e-01
-2.069480899048690148e-01
-1.797907709062172010e-01
-9.705688286063529624e-02
7.814901521029260500e-03
9.225782037339735897e-02
1.278641015921108126e-01
1.095030590232938250e-01
5.206626355048094013e-02
-1.834052239640904247e-02
-7.765155108827892505e-02
-1.181941808474826772e-01
-1.520957399930975562e-01
-1.958686033523266978e-01
-2.477123369533456021e-01
-2.807533043098717762e-01
-2.618051190115764371e-01
-1.790034270900866531e-01
-5.221330891820846754e-02
8.170140589252117280e-02
1.920118431833922612e-01
2.648485419599108104e-01
2.980548320419839636e-01
2.932038718919161568e-01
2.559659104133943375e-01
2.008302352650750966e-01
1.483733740606333340e-01
1.137694326015766810e-01
9.884731145047509493e-02
9.624208749844853639e-02
9.869759369767350243e-02
1.018414438305416114e-01
9.979963136609348862e-02
8.327152001292836836e-02
4.610925049618505578e-02
-5.975228229411932990e-03
-5.650932622329929433e-02
-9.132952447605302559e-02
-1.114135961465099189e-01
-1.321594724015509037e-01
-1.693775233777090605e-01
-2.243458530506627913e-01
-2.791653455926108585e-01
-3.047796422378439285e-01
-2.776952735633249070e-01
-1.977863664508952013e-01
-9.509143400143083014e-02
-1.514894121916243730e-02
1.145653926767900566e-02
-9.164036376109629956e-03
-4.247949612344315007e-02
-5.703054757666614627e-02
-4.874539755500384430e-02
-3.551059137194712001e-02
-3.028200691905802433e-02
-2.235378758350500816e-02
1.325000406236398476e-02
8.857810346407268831e-02
1.866855536401081928e-01
2.725051017665918174e-01
3.177428734292608858e-01
3.156184312464627162e-01
2.768458858293731950e-01
2.179292438441677859e-01
1.538032420829384961e-01
9.441590028159341230e-02
4.086770524439134467e-02
-1.430360184973089588e-02
-7.576539244352786806e-02
-1.310384027236014548e-01
-1.528340034271630232e-01
-1.226426570017085105e-01
-5.262446732760989176e-02
1.968165913111769028e-02
5.988429666136357854e-02
5.917386786089701145e-02
3.075195901037169888e-02
-9.671653417014369758e-03
-5.582389573251855808e-02
-1.067793061375127417e-01
-1.582497939871124748e-01
-2.009897513060677765e-01
-2.242565286374416100e-01
-2.173837715656157243e-01
-1.713729757860181779e-01
-8.648821859555821945e-02
1.841275861301505667e-02
1.080973363567974133e-01
1.495663438349825736e-01
1.337329429360361033e-01
8.075996103979787843e-02
2.383754004149274408e-02
-1.434194639662245141e-02
-3.309773174716734712e-02
-4.604925136857707102e-02
-6.328658849501415939e-02
-7.958080884418999856e-02
-7.790497575599220070e-02
-4.350765847480730919e-02
2.391539190093983080e-02
1.077416649281282002e-01
1.808481080095332150e-01
2.172540988167381837e-01
2.052077761507271614e-01
1.546603069457428425e-01
9.122560484655073409e-02
3.867143118902838239e-02
4.570882425050992737e-03
-1.837804522900743365e-02
-3.925632411391621890e-02
-5.880948580111589052e-02
-7.079329788327437534e-02
-6.984411149492442128e-02
-5.606008499497439068e-02
-3.328479553893304299e-02
-6.405633842514912857e-03
1.773914338268500757e-02
2.899065386198751426e-02
1.787635213369798137e-02
-1.665488950255844536e-02
-6.474033487165398171e-02
-1.123760996781979493e-01
-1.492381906574855588e-01
-1.678118503853864851e-01
-1.577900967403165211e-01
-1.087057814316199633e-01
-2.224765939911366175e-02
8.048044678430887888e-02
1.675756713079739058e-01
2.131421795591277313e-01
2.075639713737336134e-01
1.573359887912493260e-01
8.069351611249531153e-02
2.276039112250716201e-03
-5.607526221267189470e-02
-8.689864045245354607e-02
-1.003606512142669605e-01
-1.115171984796885507e-01
-1.209547996634380285e-01
-1.096696422453746211e-01
-5.784870550269821665e-02
2.874599860130109402e-02
1.135539495020192469e-01
1.548737404681379548e-01
1.392258930919931803e-01
8.961285335582852563e-02
4.129299006914370629e-02
1.015572650795852627e-02
-1.554727501128932987e-02
-5.428024570710476837e-02
-1.042851789093292292e-01
-1.383129880953726243e-01
-1.252479881247955396e-01
-5.847698242237348021e-02
3.406577846828962031e-02
1.066571359331084379e-01
1.262983481459161172e-01
9.414988923792400044e-02
4.224251234576592573e-02
7.769282486124184928e-03
4.255261928711728814e-03
1.271536545746376756e-02
8.744885827129955658e-04
-4.560901212993853648e-02
-1.077172042193669244e-01
-1.474863257755480994e-01
-1.383683901781679326e-01
-8.323410736358116679e-02
-6.257378512527944636e-03
6.801449401389825233e-02
1.260694209501627139e-01
1.613144372419296757e-01
1.669082569996852561e-01
1.368557968004192049e-01
7.226482544980195044e-02
-1.637668235373249126e-02
-1.120715787147611719e-01
-1.935781721719073145e-01
-2.361480043364175274e-01
-2.174637544507196374e-01
-1.318322383178376356e-01
-2.405480964156714307e-03
1.242599110336696233e-01
2.032426366334699752e-01
2.172826697427706621e-01
1.819228708539127326e-01
1.272642955489961814e-01
7.470647921094258903e-02
2.779171680963232749e-02
-2.045833165446930835e-02
-7.500368593389650229e-02
-1.310646440244080946e-01
-1.733061127826456271e-01
-1.812456865342432222e-01
-1.407432730625216566e-01
-5.731955062417271041e-02
3.948928686534491916e-02
1.094741311002943585e-01
1.270682168672352952e-01
9.852168110901568521e-02
5.418223704145114228e-02
2.138817182227970015e-02
3.118451960633594755e-03
-1.764456677200126888e-02
-5.408064943334828234e-02
-9.785067012239961892e-02
-1.248033968157350460e-01
-1.156278822111714844e-01
-6.978459475960885339e-02
-2.688004686027534174e-03
6.580086877024404757e-02
1.201317376984170904e-01
1.520401734588225917e-01
1.598765783665447304e-01
1.454623152937215558e-01
1.101010954242516715e-01
5.420206194045329440e-02
-1.716743630560768619e-02
-8.851871716798337397e-02
-1.369577566455363882e-01
-1.446671516548567182e-01
-1.105843095899091133e-01
-5.075745093432401656e-02
1.226443808979674199e-02
6.127058986452593725e-02
8.936493125506694835e-02
9.786081605212126888e-02
9.077959489633802281e-02
6.889099743084281524e-02
2.691717483208644346e-02
-4.113073595338256894e-02
-1.288157632116554430e-01
-2.079245447910576527e-01
-2.378312012694835109e-01
-1.932091805295219067e-01
-8.769923906869125929e-02
3.112693088028861688e-02
1.146876254462570466e-01
1.454104622997453855e-01
1.398864270489475203e-01
1.246079623823100752e-01
1.109815253077504060e-01
9.110050022308474604e-02
5.114336137411457095e-02
-1.425165548345308508e-02
-9.584924439193573398e-02
-1.702995958179949754e-01
-2.060874595486424377e-01
-1.776607837646089760e-01
-8.390904136202048669e-02
4.405461544536848351e-02
1.575044781378973080e-01
2.187938968944001250e-01
2.211096853327241540e-01
1.843608390739365221e-01
1.345057218360936890e-01
8.652876060528943980e-02
4.281406060013862036e-02
5.996696043677474108e-04
-4.397131589728942025e-02
-9.659182606063626553e-02
-1.609163222464461418e-01
-2.274035987331735065e-01
-2.679441759961448954e-01
-2.494423330297100005e-01
-1.594325484904252632e-01
-2.098334457575673495e-02
1.175488326982189191e-01
2.098434057016956844e-01
2.350684660656773839e-01
2.029541579053641409e-01
1.416295511201760005e-01
7.939026813408203709e-02
3.105434807011703269e-02
-5.965240999023402324e-03
-4.517358875688570752e-02
-9.678697386288270810e-02
-1.538504068158452198e-01
-1.909709908287476610e-01
-1.812847848049833899e-01
-1.194645738344317087e-01
-2.894638252405201673e-02
5.432068184099608787e-02
1.058100349899520065e-01
1.228667099364147419e-01
1.171314725650482169e-01
1.013333026864598058e-01
8.232103505102159047e-02
6.009576121574664032e-02
2.789833931653604160e-02
-2.406215347881142386e-02
-9.595900751476023338e-02
-1.646866849577339753e-01
-1.885500696592061765e-01
-1.363568171460496359e-01
-1.839276343782259016e-02
1.120680498672457226e-01
1.927995680673578183e-01
1.951107447571919506e-01
1.405693132035841508e-01
8.056769587609274863e-02
5.640976326091027421e-02
6.994797775045330512e-02
8.482390422621033377e-02
5.575323843056706474e-02
-3.571875413695052570e-02
-1.638807727312753815e-01
-2.718620573918043570e-01
-3.065322467427032405e-01
-2.513725660584769095e-01
-1.341693999568515649e-01
-5.626544099593414061e-03
9.216285660027800919e-02
1.435130741942336474e-01
1.557748611345993739e-01
1.456039228264844887e-01
1.278666702060539118e-01
1.101405365453483054e-01
8.954808705109065792e-02
5.284182958616995274e-02
-1.439238146177823641e-02
-1.097865315320662449e-01
-2.019117848187897135e-01
-2.415071492666876485e-01
-1.952626978867263441e-01
-7.554343782309735911e-02
6.261200870166289123e-02
1.572212046123753759e-01
1.782761042577692412e-01
1.402403606114588919e-01
8.362840016840639157e-02
4.438181965184545552e-02
3.328235463097134472e-02
3.507074252835490347e-02
2.319635342253950627e-02
-1.965890432817684469e-02
-8.610684756469497159e-02
-1.441924465652092979e-01
-1.569896037742222195e-01
-1.101298023386844266e-01
-2.480046727351322561e-02
5.702476326823929798e-02
1.034808785450552215e-01
1.125543646591310454e-01
1.047741697553382645e-01
9.940230372581926321e-02
9.772712165920821592e-02
8.550185270696747386e-02
4.721434544504476971e-02
-2.132343186173302207e-02
-1.079878670189722278e-01
-1.859596259128534212e-01
-2.218803519855474526e-01
-1.916936608790482666e-01
-9.846844305512264528e-02
2.239721783747811168e-02
1.207891059747840945e-01
1.624807211804319418e-01
1.476500178775880523e-01
1.020750735110178276e-01
5.221801425197061808e-02
8.493634131636590423e-03
-3.242509432858409202e-02
-7.556171193364674687e-02
-1.186019944844915464e-01
-1.492148528000233343e-01
-1.482535398709219354e-01
-1.009106647166255755e-01
-1.231249300843695327e-02
8.736426981646400192e-02
1.591760087798825829e-01
1.817913309063386440e-01
1.633075709338662751e-01
1.280658915035437495e-01
9.325373375528628328e-02
5.798026181345500296e-02
1.220190083646155443e-02
-4.693474408904990680e-02
-1.082006032821010710e-01
-1.532764742694528448e-01
-1.682676787043025923e-01
-1.496600176812952210e-01
-1.042652571279168994e-01
-4.756764210391732639e-02
4.254106771328647341e-04
2.561205794000576130e-02
3.131101353779275343e-02
3.692601691575503331e-02
5.869280942161836379e-02
8.868733500611281073e-02
9.621234461095973245e-02
5.576315350708757612e-02
-2.347203504116399109e-02
-9.687329936350452808e-02
-1.158951889477716213e-01
-6.448269896671454671e-02
3.017036388732385888e-02
1.183098041484589302e-01
1.602129832119696951e-01
1.471896130979304662e-01
1.006990662256221081e-01
5.350937498730914954e-02
2.536399175301937148e-02
9.150624846257199296e-03
-2.104278622024313705e-02
-8.368123896476314938e-02
-1.656990012275330049e-01
-2.231372346980917687e-01
-2.102465376659435892e-01
-1.152341173712081446e-01
2.671322607010850891e-02
1.534469565826496740e-01
2.124206011989884790e-01
1.877828746756044775e-01
1.037950453425465214e-01
7.164399367346030445e-03
-6.041358471847013689e-02
-8.556644508157285056e-02
-8.820987013274639299e-02
-1.017589580205935373e-01
-1.406887472511807458e-01
-1.824568283607469477e-01
-1.825390957609585030e-01
-1.119402404654064598e-01
1.570150676151010893e-02
1.511087166537362081e-01
2.424934423758564050e-01
2.654384552657027552e-01
2.286057519816667716e-01
1.592544769188866671e-01
8.594515141201693187e-02
2.806799970661816301e-02
-1.001768718602666364e-02
-4.067084601405879241e-02
-8.333698982051146453e-02
-1.434323565586823057e-01
-1.978664949283587271e-01
-2.071158959075424244e-01
-1.484007244238955137e-01
-3.943196987044805812e-02
7.124099814047013535e-02
1.387041983737836159e-01
1.495266637768485340e-01
1.215274692992524275e-01
8.261163279501126944e-02
5.093492538002114545e-02
2.894034342251794456e-02
7.754368477400963577e-03
-2.521510427454698444e-02
-7.747017926349997197e-02
-1.424879680800900106e-01
-1.968245497169954228e-01
-2.102992395582166940e-01
-1.659391893705338683e-01
-7.390696254529882658e-02
3.370448408359003056e-02
1.223631552908870934e-01
1.716212146743884004e-01
1.782526067099401978e-01
1.505631012374653577e-01
1.031262567693406185e-01
5.354906505537759820e-02
1.654088718540203118e-02
-4.571527771516037397e-03
-1.987374641409134224e-02
-4.197733447165399867e-02
-7.092938884122707011e-02
-9.202175966139880536e-02
-9.038002378486909016e-02
-6.574008980772672039e-02
-3.041094405921507260e-02
5.062407554800252285e-03
3.906371107222283978e-02
7.121150244821300435e-02
9.371799413966092063e-02
9.654633980700638718e-02
8.045139631941267133e-02
5.951139395042437386e-02
4.776427762903434626e-02
4.463449365401039870e-02
3.488048474659788400e-02
2.388553376264535011e-03
-5.497979427344379388e-02
-1.201746257487301961e-01
-1.639942631330148226e-01
-1.606790927178482487e-01
-1.038903315839574959e-01
-1.312230154162852269e-02
7.489936676804653803e-02
1.254160288093799647e-01
1.233433737860024221e-01
7.866207144535389273e-02
1.756743283910602860e-02
-3.357976487616208539e-02
-6.173449777668277988e-02
-7.191314183021432771e-02
-8.233201577926441139e-02
-1.122666307007688241e-01
-1.668433579437510750e-01
-2.262434077136842303e-01
-2.494512851198417702e-01
-1.971925337965411973e-01
-6.263888683816992708e-02
1.148946221134167223e-01
2.695884390470345005e-01
3.498432038195243843e-01
3.473065682084743866e-01
2.921384915512051927e-01
2.235217614974324696e-01
1.634428413315644202e-01
1.120448198464188416e-01
5.958956047419497470e-02
-9.055193696671515191e-04
-6.853879064620987949e-02
-1.339577567220069099e-01
-1.801534859764825081e-01
-1.882098170601215759e-01
-1.505985163426608597e-01
-8.277153217486532544e-02
-1.836720246307610438e-02
1.257353392508983592e-02
4.029627039232458463e-03
-2.493462864892442843e-02
-4.738718481228865187e-02
-4.801585813243836043e-02
-3.141163381311862235e-02
-1.718226971890612909e-02
-2.705321024080536985e-02
-6.984667147366932505e-02
-1.308766943049856080e-01
-1.742254028060681303e-01
-1.619849738476345502e-01
-8.063037434824416039e-02
4.595215425303522672e-02
1.692497966837516188e-01
2.453605226617632806e-01
2.576896725715307479e-01
2.183388757405178571e-01
1.533458771120966846e-01
8.693555083199289157e-02
3.285171417863774757e-02
-9.073238120985593902e-03
-5.174673264955054197e-02
-1.099139212485784056e-01
-1.804861491590776801e-01
-2.312509191255124885e-01
-2.172954116487952891e-01
-1.191968556667865053e-01
3.119373436395245225e-02
1.656941278318614374e-01
2.254301004273544518e-01
1.985365544509314351e-01
1.216332676482260039e-01
4.952604991197971651e-02
1.865122677233713167e-02
2.744239901857277453e-02
4.246974021050102521e-02
2.473273928517643466e-02
-4.034869386906480421e-02
-1.292464376065418363e-01
-1.939485559229769951e-01
-1.948100069431009662e-01
-1.286984106368317948e-01
-3.040316119834907127e-02
5.326531276818030625e-02
9.390184389803490905e-02
9.215135493579096337e-02
6.615144044302823101e-02
3.489881758240589993e-02
1.027181200789786461e-02
-4.408484031719811513e-03
-1.585301542182704360e-02
-3.904258160530210686e-02
-8.472822888901232474e-02
-1.416825535603744579e-01
-1.735410968904538276e-01
-1.421471721664915311e-01
-4.152603237152785454e-02
8.965540205093808224e-02
1.917521266758730469e-01
2.246024526421442902e-01
1.912445892892406518e-01
1.288787543858937457e-01
7.898419618959229282e-02
6.013500689634571073e-02
5.870669120566357480e-02
4.005724469718918712e-02
-2.521618492589033922e-02
-1.336979825722815485e-01
-2.411895750231075053e-01
-2.870251038675143418e-01
-2.368493721098170190e-01
-1.090937673828057952e-01
3.870787836146655225e-02
1.511574367742708758e-01
2.065883600902851946e-01
2.152053266221465311e-01
1.947926590947588743e-01
1.531342063322785330e-01
9.179483378109190572e-02
1.898118374990352339e-02
-4.915369110067155378e-02
-1.014733233727806438e-01
-1.413718744156617357e-01
-1.784489484523862357e-01
-2.107121014233928613e-01
-2.188358484891370359e-01
-1.810557965682655368e-01
-9.420418419508561070e-02
1.958237837704207562e-02
1.251316969417603508e-01
1.931213241556269389e-01
2.122173377058744204e-01
1.907676400844265929e-01
1.500510316461803884e-01
1.108856783436054649e-01
7.857610352699853640e-02
3.811423056854656294e-02
-3.101449402055928006e-02
-1.289015209419916430e-01
-2.225884958972584315e-01
-2.631820510828399851e-01
-2.210738297672716346e-01
-1.089114043805914644e-01
2.675299900373226403e-02
1.353732427233009794e-01
1.879288406490717822e-01
1.825719105544191256e-01
1.362240090323690311e-01
7.494267958923506168e-02
2.544918339890483994e-02
3.381604766196699696e-03
2.691680751992664433e-03
-1.126916924560183997e-03
-3.124386580777481492e-02
-8.832114979756644502e-02
-1.465741067213973681e-01
-1.708019438599602813e-01
-1.406878810642988586e-01
-6.404174167079329516e-02
2.891889370440711704e-02
1.033841899207536275e-01
1.370734489151338997e-01
1.286727087403902736e-01
9.575381336560917500e-02
6.296774930521786828e-02
4.541004840326533232e-02
3.823090283034172310e-02
2.217637037127739852e-02
-1.803980778795311046e-02
-7.793187237307819260e-02
-1.337367213021141144e-01
-1.585682487464118440e-01
-1.402458094386932475e-01
-8.674499624000614473e-02
-1.774388099018761600e-02
4.740763314340801227e-02
9.554987592387953477e-02
1.194897702835100439e-01
1.175833206281067245e-01
9.502108765566075199e-02
6.283576314340066915e-02
3.194664000994029696e-02
5.982660395631111960e-03
-2.046224215337932861e-02
-5.529476678123854128e-02
-9.787183610387861776e-02
-1.321664245161411344e-01
-1.327668440371119196e-01
-8.376928843133257807e-02
3.056876724045309857e-03
8.915985836580253565e-02
1.331889711776524932e-01
1.202113775925844896e-01
7.151273078413261652e-02
2.639639046817763429e-02
1.140327579803099289e-02
2.255720671334565663e-02
3.363138956401118262e-02
2.008403564361527227e-02
-2.318099342697954590e-02
-8.191945146521661947e-02
-1.341130015146819177e-01
-1.603919567979359417e-01
-1.490971069409944838e-01
-1.000194686993565590e-01
-2.765340370135183079e-02
4.265503080830976290e-02
8.891943613944090774e-02
1.067782287355947130e-01
1.086430473419015830e-01
1.074499556524676769e-01
1.031274293546377008e-01
8.710576567118183400e-02
5.771835755394499889e-02
2.551478009745664077e-02
6.399207844659873801e-04
-2.163749679440853113e-02
-5.670967167371132600e-02
-1.089432200522979510e-01
-1.567018496325359722e-01
-1.644051664210658403e-01
-1.130448316856871305e-01
-1.906987937308879388e-02
7.667460020802518983e-02
1.375091408134923587e-01
1.508968061627154744e-01
1.280143285772838424e-01
9.073028697331697590e-02
5.845306972535302403e-02
4.044061806724308372e-02
3.366076261695494232e-02
2.578674158193028365e-02
2.809086537819138751e-03
-4.155132972028596772e-02
-9.957639353902192347e-02
-1.507016549485346024e-01
-1.711455736841866748e-01
-1.483362002555789760e-01
-9.126711718917396299e-02
-2.715945444686129751e-02
1.622640873912122028e-02
2.980852012158549669e-02
2.737692651650333597e-02
3.059149081337386722e-02
4.830023445837106078e-02
6.912867911543690846e-02
7.320822323430575818e-02
5.013367473556418208e-02
5.540720723199582531e-03
-4.722611753508854093e-02
-9.761916846378559942e-02
-1.381140663651503897e-01
-1.572465255389153271e-01
-1.394920884345405288e-01
-7.776266443907187131e-02
1.373055043425164268e-02
1.032322845663531385e-01
1.625918597300547441e-01
1.870929863075111999e-01
1.944207391926191797e-01
2.033540454367061545e-01
2.137355186884546399e-01
2.081551510992385445e-01
1.724508914915571789e-01
1.116957060553748216e-01
4.405731083300012951e-02
-1.889675298091755135e-02
-8.076392075272886828e-02
-1.471530903522815237e-01
-2.075489231031318049e-01
-2.355754177413577899e-01
-2.094104267690559684e-01
-1.314902263548202166e-01
-2.927110198856192058e-02
6.039314362160985716e-02
1.085603968018893917e-01
1.041039509850082423e-01
5.578634882931721162e-02
-1.286595231824655405e-02
-7.547726615687466722e-02
-1.164236171867796821e-01
-1.377271064650053278e-01
-1.552041832716233583e-01
-1.865191037094601767e-01
-2.367372643508166563e-01
-2.886428472534870449e-01
-3.062613247552090634e-01
-2.545481799031144021e-01
-1.253517962472283087e-01
4.960833083398569210e-02
2.122360612541422387e-01
3.116464925237498185e-01
3.338638307992738419e-01
3.057409765295632242e-01
2.719723172603691341e-01
2.641611745828915114e-01
2.837718630828053312e-01
3.071592448890109184e-01
3.039453309837815143e-01
2.538486300531300199e-01
1.548341980194600509e-01
2.470873015888930269e-02
-1.028404466293447728e-01
-1.909389194123901068e-01
-2.182166382915332048e-01
-1.908629573248990796e-01
-1.377338644846499704e-01
-9.220799874483176506e-02
-7.432626093390748423e-02
-8.371946916892075707e-02
-1.042897655061595097e-01
-1.155945213083616613e-01
-1.054630979160461890e-01
-7.878969043202194156e-02
-5.658563261116256182e-02
-6.197037664129362300e-02
-9.984715669644755875e-02
-1.471902741669202097e-01
-1.663344380179971882e-01
-1.329117801864442283e-01
-5.404847886689673198e-02
3.880437209040124569e-02
1.129499052185242713e-01
1.513686098787634937e-01
1.536577522096105874e-01
1.291693083923529106e-01
9.218432990529668025e-02
5.821895018464440241e-02
3.664806438480527895e-02
2.324904413167283579e-02
2.866981402572688076e-03
-3.540999825095769715e-02
-8.307158292684907464e-02
-1.131264647672092782e-01
-9.932393105068819394e-02
-3.754881397199530402e-02
4.996542584034030510e-02
1.302331119441725860e-01
1.787756224489717716e-01
1.871374615807854802e-01
1.597804069726890264e-01
1.101594953329440019e-01
5.802462522739204598e-02
2.194512503950768467e-02
6.696041606801372836e-03
-3.183673141540832585e-03
-3.249934059653084018e-02
-9.226228478218942430e-02
-1.647153135195014162e-01
-2.121666241870797942e-01
-2.034506123212036499e-01
-1.358406909603384061e-01
-3.601865321267619380e-02
5.715128278398001749e-02
1.132168560116399436e-01
1.223360595965836961e-01
9.601369331828106535e-02
5.780451794706785440e-02
2.778385177049892685e-02
9.573642689459052613e-03
-9.182636671745368628e-03
-4.147087912165187129e-02
-8.432590266885242603e-02
-1.174336056616722690e-01
-1.186118334593877499e-01
-8.194615046066641706e-02
-2.336675728119536055e-02
2.977575958797096245e-02
5.647500037638075732e-02
5.438827263035250770e-02
3.890854327826376302e-02
3.090281244554493600e-02
4.206042249302710534e-02
6.684498222266233025e-02
8.544887881418584963e-02
7.661708834510327915e-02
3.330917139461098131e-02
-2.989896637446587402e-02
-8.467290622213630158e-02
-1.064451515642054202e-01
-8.731927210341383638e-02
-3.618134344677848002e-02
2.878757640031304188e-02
8.642708774548474304e-02
1.175006659771713896e-01
1.130998723881015411e-01
8.326442616016010989e-02
5.314710385528209624e-02
4.221337560092447427e-02
4.347927076149990522e-02
2.695378339400778672e-02
-3.100497715164929335e-02
-1.203080681192104651e-01
-2.006096252542732827e-01
-2.331871150666170456e-01
-2.097322758869829551e-01
-1.516587371302272058e-01
-8.527695291572712222e-02
-2.071106217457086007e-02
4.633962555915832615e-02
1.170961547039131578e-01
1.779433164919061450e-01
2.070305916277277447e-01
1.923771956775360559e-01
1.433785891192767281e-01
8.373611143458431494e-02
3.168146002097108060e-02
-1.362693649057100664e-02
-6.555848205125386352e-02
-1.284193646510807252e-01
-1.819051073728563117e-01
-1.899676225817145125e-01
-1.307247219442144726e-01
-2.159399593060484790e-02
8.609953866364866704e-02
1.424135519231638780e-01
1.347107901560309351e-01
9.311256193721920149e-02
6.188992291477934948e-02
6.290347285833275404e-02
8.140322534188940140e-02
8.218216438280673275e-02
3.857581497111281510e-02
-4.905139110658449098e-02
-1.541128937987344405e-01
-2.369586783704276667e-01
-2.616347170345100226e-01
-2.126402621966812789e-01
-1.060176805656142529e-01
1.601272018551525012e-02
1.095655317472509632e-01
1.556963526406894005e-01
1.652035515169116286e-01
1.583709253474325784e-01
1.432741607414041440e-01
1.155908875550578641e-01
7.450289617929950481e-02
3.002605840267680293e-02
-8.493299753676283870e-03
-4.554157080427928550e-02
-9.339439695119539087e-02
-1.508317462982773360e-01
-1.923066934330442956e-01
-1.841174209305549425e-01
-1.143374720928973520e-01
-7.574832186626356823e-03
8.959729156325213495e-02
1.395056929949615165e-01
1.350563805738289602e-01
9.771408801276182388e-02
5.824508921049131871e-02
3.751538695834155668e-02
3.851437418569436666e-02
4.905596990973737359e-02
4.985959260090400136e-02
2.451736174311315575e-02
-3.098149934073379450e-02
-1.032896106661448654e-01
-1.658635441300122526e-01
-1.916220276059221184e-01
-1.664107938821777211e-01
-9.529210850164759883e-02
6.175724484724920416e-05
9.038394506830782493e-02
1.511008264904224185e-01
1.725603705018976808e-01
1.613223878289263280e-01
1.311596880198964976e-01
9.163455084699108355e-02
4.435358914385700846e-02
-1.106360687841351220e-02
-6.940561828785940524e-02
-1.198776623445771405e-01
-1.529389467368802435e-01
-1.642726984034167392e-01
-1.511317776381979894e-01
-1.091038776089782586e-01
-3.855990061513376449e-02
4.489076271425891662e-02
1.125214514748053563e-01
1.419962691311413838e-01
1.360048045685152696e-01
1.180107072939479695e-01
1.074074740919929299e-01
1.002149321427342754e-01
7.518140463316269617e-02
1.702785867643718393e-02
-6.729686954290636791e-02
-1.516547952770262442e-01
-2.052090997114930926e-01
-2.059219984591590391e-01
-1.493926119728358759e-01
-5.342279418041950834e-02
4.608786483114590826e-02
1.120489416514573455e-01
1.279599264490754729e-01
1.069388100036795380e-01
7.843821987389404393e-02
6.308858062609473683e-02
5.762648567223307983e-02
4.254498054388400341e-02
3.210549923419778184e-03
-5.667939153088702442e-02
-1.191783100801296347e-01
-1.639814330155412447e-01
-1.753000036884386215e-01
-1.444686238569169445e-01
-7.566358793087096801e-02
8.560609115332740160e-03
7.444820690103470806e-02
9.868419087093027731e-02
8.648359455990584088e-02
6.645020211157193213e-02
6.491208885489752056e-02
8.421327306610748575e-02
1.052737222895950286e-01
1.088787531704766831e-01
9.195409025680867376e-02
6.457517280290037132e-02
3.670170137385564413e-02
1.169738172161727263e-02
-9.093875222899949762e-03
-2.027287121408172244e-02
-1.427504269175183804e-02
9.630268926988955203e-03
3.908455519164555358e-02
5.377165888409918271e-02
3.952933744839426389e-02
-4.173834217913174882e-04
-4.684169785706515654e-02
-7.816443162087904906e-02
-8.732533682522147789e-02
-8.922769492412507830e-02
-1.096832627563554263e-01
-1.607929109038681581e-01
-2.238771704799800422e-01
-2.592634619352530700e-01
-2.375060110845623740e-01
-1.636345504960301511e-01
-7.157674807954939045e-02
4.667396324404049501e-03
5.453324805118285601e-02
8.885531515850375595e-02
1.202504515096339821e-01
1.500771230591119165e-01
1.734552342674071657e-01
1.898998895499816042e-01
2.022512408509546389e-01
2.054501743235001565e-01
1.827052357521273818e-01
1.184060796410244532e-01
1.654291725110912381e-02
-9.370121169741829625e-02
-1.708857760388302616e-01
-1.824629715426346888e-01
-1.202055696267358975e-01
-3.838057179776033223e-03
1.257879707146399850e-01
2.217660322887406998e-01
2.514678287555536240e-01
2.127947245158456901e-01
1.334704900046876919e-01
5.096894310407573681e-02
-1.193682187915212634e-02
-5.670051542643883558e-02
-9.855242881645853714e-02
-1.480286966157859929e-01
-2.004691634866567762e-01
-2.397006453711053586e-01
-2.492627000748874888e-01
-2.210111773067824359e-01
-1.581380264889369336e-01
-7.537637150047515888e-02
4.055394383239097067e-03
5.792103231217571313e-02
7.712972731498257684e-02
6.976162174070882349e-02
5.220241347988797964e-02
3.604171959205831888e-02
2.246958481745198188e-02
5.859151000877416138e-03
-2.012600602109326786e-02
-5.790713464477326156e-02
-1.012928350064622451e-01
-1.316243572735283363e-01
-1.222440379526616161e-01
-5.555837971251401108e-02
5.772233789602376763e-02
1.765317616661271627e-01
2.524298808271847605e-01
2.618270975015858371e-01
2.200551597513134561e-01
1.647012814859969421e-01
1.239552774348462449e-01
9.841679336249442578e-02
6.907898912887178167e-02
1.881934854083305853e-02
-5.343316972320721892e-02
-1.334550500390589978e-01
-1.994559152155435111e-01
-2.281284774907829938e-01
-2.006916713024770038e-01
-1.140724976149772585e-01
8.225779385294645918e-03
1.203165845855677651e-01
1.780373382912383562e-01
1.662168542767389345e-01
1.056966534692734827e-01
3.499051256575058666e-02
-1.644307983397375050e-02
-4.363563336031428541e-02
-6.374588758955967993e-02
-1.006395683634774274e-01
-1.650957719507463450e-01
-2.415390888392907054e-01
-2.918728238070223413e-01
-2.778369981084495288e-01
-1.879846977368375693e-01
-4.799574678288998086e-02
9.515742636880464289e-02
2.017205253076997939e-01
2.565678552355555864e-01
2.658567468859420746e-01
2.440608655688517592e-01
2.057558920979862260e-01
1.634662760353345623e-01
1.244163203743330059e-01
8.519588858198140491e-02
3.249682005200799084e-02
-4.474964014455740102e-02
-1.396042083180789040e-01
-2.231430189081411442e-01
-2.594502162264096246e-01
-2.294733005718846419e-01
-1.444224616004525508e-01
-3.807953851947060153e-02
5.431837938423364487e-02
1.132517198226445643e-01
1.378142577532869006e-01
1.378742892096154193e-01
1.251298825165160222e-01
1.081157863200081642e-01
9.014529102956912732e-02
6.894112826846887643e-02
3.897886831383111372e-02
-3.888050448260703396e-03
-5.900647434492138632e-02
-1.205531053414366643e-01
-1.776019709522995982e-01
-2.131564984027749521e-01
-2.073231147370651617e-01
-1.497635316693899932e-01
-5.412426964309113853e-02
4.272355815349587749e-02
1.030933596162986465e-01
1.152695345641476798e-01
9.903395671075299056e-02
8.440187609059668361e-02
8.528108621361796260e-02
9.299717978534971508e-02
9.114947466180534086e-02
7.179531925941090575e-02
3.710668467009471672e-02
-8.749826120160231202e-03
-6.237370185821700108e-02
-1.140330183060936919e-01
-1.426694022100544190e-01
-1.257695182856102267e-01
-5.946153297783718372e-02
3.115143954942756199e-02
1.047991449103774508e-01
1.304874640602864677e-01
1.051343313330510565e-01
5.088702967975936020e-02
-6.329537276684726876e-04
-2.505928958905295767e-02
-1.751315566549149771e-02
3.147782560886880354e-03
4.288992899781796098e-03
-3.653171246159392371e-02
-1.093644270837304533e-01
-1.728126038382176155e-01
-1.824943296469566656e-01
-1.249404526005988697e-01
-2.695497415147571352e-02
6.700658939675127601e-02
1.264841442437598662e-01
1.479289749615282923e-01
1.443150841051971667e-01
1.283394061151833798e-01
1.050872877970966540e-01
7.548666411626246686e-02
4.197903389511761785e-02
8.949147402558900455e-03
-2.188270929062460096e-02
-5.426830474677062088e-02
-9.241285596288575932e-02
-1.309203854320640792e-01
-1.509097963189896530e-01
-1.305081858364466330e-01
-6.373291882787673890e-02
2.877939724942396582e-02
1.083790790483899480e-01
1.417105706989519875e-01
1.222416381813453690e-01
7.370904176487247383e-02
3.133902557225998198e-02
1.445151004005651441e-02
1.327758147767499342e-02
1.446585509082165544e-03
-3.825221386973143289e-02
-9.846604265266883926e-02
-1.528151234020073135e-01
-1.731506015322706871e-01
-1.445751028827032547e-01
-7.250117060938310320e-02
1.875521220039066961e-02
9.689286622393389337e-02
1.390531650058843272e-01
1.437929770878760283e-01
1.262188377047335219e-01
1.007679981846380524e-01
7.013160106417348771e-02
3.137487332033284115e-02
-1.168683879530685310e-02
-4.862001497022250263e-02
-7.521270525437240284e-02
-9.929293851172737995e-02
-1.278674702436375377e-01
-1.505126379307052675e-01
-1.423759518413645897e-01
-8.757258011927671060e-02
1.479182665819533948e-03
9.001472823713790872e-02
1.465667970476864923e-01
1.634771442436949440e-01
1.550866146998164663e-01
1.395546734626706420e-01
1.234720679057698389e-01
1.005591489719839804e-01
5.990555004784020587e-02
-5.610375931314970366e-03
-9.308565519316475134e-02
-1.843818152597440641e-01
-2.469837801184171511e-01
-2.485458103861707957e-01
-1.803433470367019342e-01
-6.968050052554225493e-02
3.451529793168489624e-02
9.441691474174013221e-02
1.067671120699977827e-01
9.748467412426609080e-02
9.487788771989846826e-02
1.065654059095330619e-01
1.173650935698217768e-01
1.046135789232688906e-01
5.586924725921141310e-02
-2.186430803044842747e-02
-1.033805460534787113e-01
-1.553808175435191230e-01
-1.525811559378306148e-01
-9.229549457096053455e-02
2.649077177896863589e-03
9.578598587160341848e-02
1.555490132387701840e-01
1.684586641515532501e-01
1.407878730772688658e-01
9.135621373522942457e-02
4.209898797048686192e-02
9.798931247640030318e-03
-1.615970148330481138e-03
-5.810442411761540527e-03
-2.831114324548617001e-02
-8.784761235387034128e-02
-1.767128221851733683e-01
-2.587898792486931221e-01
-2.909969016208588943e-01
-2.524007864993572103e-01
-1.579271944326420263e-01
-4.759222267000876028e-02
3.835874992401042127e-02
8.067621864820304078e-02
8.706480754237727604e-02
8.190667832559889172e-02
8.756550298479148786e-02
1.090927676345472830e-01
1.314076489747256771e-01
1.300806215058000204e-01
8.903587989152028648e-02
1.462730196190142884e-02
-6.335354624656064360e-02
-1.064375187770632003e-01
-9.005103616513177034e-02
-1.871102972375143780e-02
7.720757855793497493e-02
1.601062502770288498e-01
2.047227642395056391e-01
2.063644666577126863e-01
1.772417981356846362e-01
1.373833066024032767e-01
1.045694747497478705e-01
8.550093113227252850e-02
7.277590207040507408e-02
5.150924604231921222e-02
1.102918841639122238e-02
-4.878758557066881218e-02
-1.203960702622401402e-01
-1.933808889647691265e-01
-2.539379860808332889e-01
-2.834469446284446636e-01
-2.663072892582851736e-01
-2.055007537168465070e-01
-1.286851118694491980e-01
-7.185114497975009229e-02
-5.197366250387469577e-02
-5.605786036134374761e-02
-5.892288835515890888e-02
-5.031032121230322174e-02
