BVP Green Neck Signal
9.072427675066187941e-03
-2.365417260842538408e-03
-2.045140919275091271e-02
-3.842566669149304059e-02
-5.189533705816484072e-02
-6.125329504324219382e-02
-6.927511000407876596e-02
-7.681440526398790325e-02
-8.232883032757232211e-02
-8.423003481168077344e-02
-8.263547351184258316e-02
-7.886269920888631935e-02
-7.355165562154389325e-02
-6.637166512561758214e-02
-5.701259695554693196e-02
-4.591585870238790168e-02
-3.397394904069427762e-02
-2.174483212456328196e-02
-9.399476874507976809e-03
2.873626875193696379e-03
1.465149010035030758e-02
2.539937124440311972e-02
3.484100778008351884e-02
4.280961644927325227e-02
4.917305173352954500e-02
5.385012943483565712e-02
5.670750713615223260e-02
5.787592735849059894e-02
5.744988565540976033e-02
5.552135103381530823e-02
5.240841974467929515e-02
4.827952999933755179e-02
4.341678738100528123e-02
3.820971122698543082e-02
3.281143205219165526e-02
2.762503205515452753e-02
2.289394254360213946e-02
1.878486144685221834e-02
1.563091974364697392e-02
1.345332345804603480e-02
1.239731460147779421e-02
1.255867977045463726e-02
1.380999301224682119e-02
1.618808321481905385e-02
1.952727992418627073e-02
2.360862498389799252e-02
2.834666837925919891e-02
3.338797558100930346e-02
3.852282314891674470e-02
4.352806223484843862e-02
4.802148050086001152e-02
5.188730775021770797e-02
5.480597049647178282e-02
5.657212434885293406e-02
5.710366265578644546e-02
5.617149191061483748e-02
5.380045664749232015e-02
4.994162289490983869e-02
4.459619552090975797e-02
3.792044344317144211e-02
2.999609255070561503e-02
2.101765406130992608e-02
1.123317808956749222e-02
8.304362717772980837e-04
-9.872333098938652907e-03
-2.059589252090622546e-02
-3.109976512611948435e-02
-4.102681568856302724e-02
-5.019692435109977813e-02
-5.830756101567571847e-02
-6.514396559172572210e-02
-7.057524695406180992e-02
-7.438254053631895846e-02
-7.657230839571556313e-02
-7.700906571189346239e-02
-7.573186234270802564e-02
-7.278523996818800357e-02
-6.822266347218788884e-02
-6.225129923496396794e-02
-5.494819003497820181e-02
-4.658783843610096731e-02
-3.733947378869557215e-02
-2.748003917701337048e-02
-1.727015366000431845e-02
-6.939764302812336146e-03
3.192599234348036594e-03
1.294307356342582274e-02
2.199091339488878569e-02
3.020711527456182779e-02
3.733029101298974972e-02
4.321536674195445432e-02
4.776070677994776609e-02
5.079799126280046956e-02
5.240873289631221843e-02
5.243642220619992855e-02
5.100142601754185240e-02
4.812116840634351328e-02
4.387119418434401452e-02
3.848330480724357350e-02
3.197678839923423499e-02
2.465630255785513161e-02
1.662791632719297710e-02
8.151688728073279433e-03
-5.359813599495740974e-04
-9.269351647907077274e-03
-1.774722592164503995e-02
-2.584455499822034194e-02
-3.327746797090095493e-02
-3.993698294524679338e-02
-4.561700411864785809e-02
-5.018768784260902588e-02
-5.357299657794188652e-02
-5.562242728046727647e-02
-5.639773483093782347e-02
-5.577147824875076237e-02
-5.383519077984711548e-02
-5.060016998413242179e-02
-4.611501489283784810e-02
-4.056102940990759936e-02
-3.396040546619766287e-02
-2.654744396338880319e-02
-1.842414924436625370e-02
-9.789614414960418759e-03
-8.462445066641875041e-04
8.244344205818165267e-03
1.725356573618209294e-02
2.602183400221620702e-02
3.432810499868669402e-02
4.204443446299009624e-02
4.895793856211471534e-02
5.498197495954446762e-02
5.996338871188634789e-02
6.379335955819123716e-02
6.647189786872266526e-02
6.784981273304098448e-02
6.803257699842800432e-02
6.693913052226314886e-02
6.463284948142039577e-02
6.123091946965217997e-02
5.671976762874200023e-02
5.133433315277868836e-02
4.509722527973836909e-02
3.819576304741235939e-02
3.079752382628202223e-02
2.301377712590152100e-02
1.507213983337901339e-02
7.081888036056182070e-03
-7.663113919746415356e-04
-8.336116537704749835e-03
-1.546598256247094447e-02
-2.205977755046249766e-02
-2.796785284501688423e-02
-3.310601719557042244e-02
-3.741616594046480448e-02
-4.077012581635468258e-02
-4.324167649615829473e-02
-4.469220139955942805e-02
-4.518140419826255361e-02
-4.472954946828328060e-02
-4.329556579544344835e-02
-4.107030427211263990e-02
-3.797354894353040244e-02
-3.416902473272263874e-02
-2.973005683229516805e-02
-2.471176437394601022e-02
-1.932254964731226765e-02
-1.357134403751666246e-02
-7.640526207905455787e-03
-1.625362126193354365e-03
4.357545523382276749e-03
1.017514632445317910e-02
1.573300535878521811e-02
2.091734937786922377e-02
2.564304732596568021e-02
2.979499204243096430e-02
3.336659657952482927e-02
3.622443952089671182e-02
3.837646876349801867e-02
3.978074023550895455e-02
4.038622848899991319e-02
4.030404422851251167e-02
3.943314930654595596e-02
3.789495849784819265e-02
3.570801115053776065e-02
3.290356198068124238e-02
2.965423165373015993e-02
2.592878201339608030e-02
2.189295836444193205e-02
1.760851129858045927e-02
1.315143383081773115e-02
8.669127068994426921e-03
4.190088464323318308e-03
-1.707737769728956759e-04
-4.348753257320093525e-03
-8.279897823518938410e-03
-1.191536558331286050e-02
-1.519241268794084207e-02
-1.810661760053947772e-02
-2.061520317478573311e-02
-2.268850259801567099e-02
-2.438872852938972491e-02
-2.562410423165126239e-02
-2.648514904493165859e-02
-2.694090315385902143e-02
-2.697153069094788275e-02
-2.670110520753095698e-02
-2.600510864564398866e-02
-2.500353601024864550e-02
-2.366150094437244333e-02
-2.194197500736875389e-02
-1.996932096315618896e-02
-1.761304900703658874e-02
-1.496594630492643213e-02
-1.200400235015972733e-02
-8.684311470854529091e-03
-5.101202587966562584e-03
-1.182644868026845771e-03
3.021045674655701077e-03
7.479859781302602637e-03
1.219918741740408374e-02
1.710986107608246376e-02
2.216327037315143564e-02
2.733872668557014649e-02
3.252107990065027099e-02
3.765017224748904573e-02
4.267436199135454106e-02
4.742225954242643149e-02
5.190122462770678513e-02
5.593527263930175852e-02
5.942788769111352620e-02
6.236339878946763754e-02
6.452541350889290372e-02
6.597288653340295517e-02
6.654801790792622129e-02
6.619093247809111624e-02
6.495508009670100669e-02
6.269334541166625419e-02
5.953346183143232856e-02
5.542191339778528014e-02
5.039093938687751878e-02
4.457187459749339942e-02
3.796183200719310813e-02
3.072500678124592474e-02
2.294865851999062373e-02
1.474043945700947988e-02
6.271547967940271917e-03
-2.328301422250088695e-03
-1.093738522963048909e-02
-1.935695710194661190e-02
-2.748200254493119929e-02
-3.515985306963682194e-02
-4.220868950288524796e-02
-4.861681118542475477e-02
-5.414650182226008607e-02
-5.877587649635714756e-02
-6.241352942026227174e-02
-6.492918843330539036e-02
-6.642872297953344995e-02
-6.672968656845894297e-02
-6.592780057464858734e-02
-6.401182532966590011e-02
-6.098717422362166102e-02
-5.701579208945743021e-02
-5.206463194863058391e-02
-4.631451838473484711e-02
-3.983295399428733730e-02
-3.278066242426389693e-02
-2.529217720513406154e-02
-1.751988452895752654e-02
-9.648160221882515208e-03
-1.800317535720814995e-03
5.772910997015999295e-03
1.302540588580767059e-02
1.968173864283759983e-02
2.564819967345522214e-02
3.079589172431315344e-02
3.491108521630622435e-02
3.806241708510926108e-02
3.998893555854874521e-02
4.075097963940817886e-02
4.027831291297039040e-02
3.851709292428916881e-02
3.562798073990401659e-02
3.150522174810692355e-02
2.635022087714282424e-02
2.019309645474059306e-02
1.318328584842733131e-02
5.500404506300475907e-03
-2.741964621432682603e-03
-1.129895508609441920e-02
-2.004982348062466641e-02
-2.870824902304836695e-02
-3.717243426336015732e-02
-4.515688684564529709e-02
-5.250936271989204568e-02
-5.907720258166946486e-02
-6.457482157388720612e-02
-6.904838608476490669e-02
-7.216793174922900289e-02
-7.396665376601121999e-02
-7.433452379352978312e-02
-7.311228385637313920e-02
-7.049590752222366363e-02
-6.625005257938543224e-02
-6.058587587942822900e-02
-5.349692431849721597e-02
-4.500094578713605825e-02
-3.538324325840343926e-02
-2.459687966759298988e-02
-1.293166098063238886e-02
-5.170590881004655595e-04
1.249149624092347338e-02
2.580786781546608524e-02
3.927878748150229193e-02
5.267709588087540751e-02
6.575145487332485772e-02
7.831465498632811384e-02
9.016630980445618226e-02
1.010284320002689112e-01
1.108567482527118286e-01
1.193464012451777856e-01
1.263962461379690982e-01
1.319545989905512584e-01
1.357447707480726184e-01
1.379514113386812735e-01
1.383198876291840129e-01
1.369022786374825273e-01
1.338167135255240447e-01
1.288991034405258529e-01
1.225069407728365256e-01
1.145273718150807696e-01
1.051382064390304627e-01
9.459040504071987432e-02
8.287045248031935096e-02
7.036282572862793960e-02
5.713272065097126790e-02
4.337214677360563125e-02
2.938187923924064082e-02
1.525969642010054084e-02
1.249540370378689463e-03
-1.242565207169908648e-02
-2.568449253187701092e-02
-3.826106476491831360e-02
-5.001732747055991773e-02
-6.095080185321933436e-02
-7.073425494054839946e-02
-7.945791505063359850e-02
-8.693886003875281321e-02
-9.306098935370785141e-02
-9.803452988654932920e-02
-1.015143080895127281e-01
-1.037265851154677426e-01
-1.045818976100204162e-01
-1.040229677704540973e-01
-1.023549721765366904e-01
-9.931819830563104468e-02
-9.518285896075719121e-02
-8.995336317903239454e-02
-8.364726626977955770e-02
-7.655008153777617674e-02
-6.856966735114598810e-02
-5.993171358700919577e-02
-5.073674215009477129e-02
-4.107505744813828852e-02
-3.114034248587082415e-02
-2.103885017598960613e-02
-1.089227791972906256e-02
-8.856947122687563664e-04
8.848934082147222324e-03
1.823565541721301753e-02
2.701687525518001176e-02
3.520356776192116316e-02
4.257166045669544263e-02
4.901168644673679214e-02
5.456275164787360160e-02
5.893378319542289662e-02
6.226964378497473751e-02
6.438264937183965642e-02
6.525829583351852592e-02
6.502557221146967881e-02
6.349388926150065227e-02
6.090272058623524831e-02
5.716749667534107293e-02
5.240008871993503264e-02
4.676655694704628941e-02
4.025768863581303397e-02
3.312431899054363305e-02
2.540964914407553565e-02
1.731661805201649071e-02
8.984756637734566537e-03
5.805029886047181550e-04
-7.728505625363395713e-03
-1.579394909908423197e-02
-2.340682013343077517e-02
-3.049860957585478344e-02
-3.681242613457860052e-02
-4.232479061411618948e-02
-4.684528502897152002e-02
-5.025409804754839282e-02
-5.256785545137239446e-02
-5.357027754931502350e-02
-5.338625079803843709e-02
-5.187605860242590350e-02
-4.907468993192234952e-02
-4.507935052870117032e-02
-3.983717316452498047e-02
-3.357161031904470211e-02
-2.628289253281981819e-02
-1.815862502706793238e-02
-9.354555614522575696e-03
-2.305021006031218039e-05
9.609758361871412538e-03
1.938016069029723648e-02
2.904027573503384016e-02
3.842986569188913681e-02
4.727285205057538131e-02
5.545540461926146830e-02
6.272504636165303349e-02
6.891880909443731662e-02
7.394705998629397259e-02
7.757204544062601403e-02
7.986734965759807736e-02
8.062612638832836187e-02
7.987867725468095204e-02
7.766000038203976774e-02
7.390949521956513557e-02
6.886718181589936150e-02
6.248303092151272914e-02
5.497132084695448978e-02
4.648268786616266413e-02
3.715725192821477812e-02
2.727713794572570252e-02
1.697080237185575463e-02
6.503945537622460998e-03
-3.928397592161902985e-03
-1.408591099350596509e-02
-2.379967988176089760e-02
-3.283234600608701120e-02
-4.103380452519232030e-02
-4.824943160648102053e-02
-5.429063374029019506e-02
-5.917722506228250551e-02
-6.268709009795192522e-02
-6.487474156670780534e-02
-6.567913841488368099e-02
-6.506805176715324546e-02
-6.322151975863903040e-02
-6.003349223412508123e-02
-5.573017777206576429e-02
-5.035127608102460406e-02
-4.402561181500989906e-02
-3.699101229189032114e-02
-2.929094293827445156e-02
-2.119757874242050519e-02
-1.282245975916651917e-02
-4.370839389461994400e-03
3.974518509457424832e-03
1.206116796437227759e-02
1.971283188332022263e-02
2.679509906590504462e-02
3.314583378689076737e-02
3.870783592389157729e-02
4.330974433568148679e-02
4.695500291736157822e-02
4.953988210355283334e-02
5.103330596104491829e-02
5.150773887698632814e-02
5.086273274925434684e-02
4.926626759821366164e-02
4.668163650217162230e-02
4.321743809535270181e-02
3.901902387649370391e-02
3.409886229650950507e-02
2.868852901027791474e-02
2.282351476376773269e-02
1.668363963269681866e-02
1.040515820453161155e-02
4.093915835431029965e-03
-2.080100194007900548e-03
-8.031403448085134428e-03
-1.360715727927884131e-02
-1.874137024720341771e-02
-2.329430248191765099e-02
-2.723512081101158930e-02
-3.046246585293565373e-02
-3.291943420627388428e-02
-3.462176679592601086e-02
-3.546003178441065051e-02
-3.553597689921347141e-02
-3.476893785689316729e-02
-3.320974329854432805e-02
-3.092880110696557411e-02
-2.789567233657463258e-02
-2.427586959637595063e-02
-2.004867781419495537e-02
-1.533855703857666883e-02
-1.023565388595978898e-02
-4.808482784510326701e-03
7.994789058109242653e-04
6.522937021016246388e-03
1.222375657889664471e-02
1.782164410736857343e-02
2.317259838818783169e-02
2.822167404007176750e-02
3.282983456544881495e-02
3.690914869391567071e-02
4.041361610411251665e-02
4.318849680003372660e-02
4.529191428822062354e-02
4.656918826310910142e-02
4.702641965265950269e-02
4.667076129940245233e-02
4.541587937771263822e-02
4.340674843697592267e-02
4.055252858938341448e-02
3.695320356715840054e-02
3.267139339236777712e-02
2.773779967188555809e-02
2.231245182033406854e-02
1.642510874968289292e-02
1.021830723364556062e-02
3.790152538123197669e-03
-2.721527839908451443e-03
-9.223032407734303717e-03
-1.555969429709117696e-02
-2.162101579823009351e-02
-2.730510324763782762e-02
-3.243308410071499281e-02
-3.701399076324770471e-02
-4.083514471664116685e-02
-4.387496566423072092e-02
-4.606363541112788729e-02
-4.727082683566518478e-02
-4.760099893617909805e-02
-4.688537261833991554e-02
-4.520884277426286124e-02
-4.256653408316549841e-02
-3.894652374874933709e-02
-3.450666513494213272e-02
-2.921061242110422479e-02
-2.321690008619019946e-02
-1.660202763796751052e-02
-9.483790165257632854e-03
-2.014214352614234101e-03
5.683966423588827574e-03
1.345269041694865247e-02
2.115062520541331065e-02
2.859116189777683587e-02
3.568758941217629876e-02
4.221586352914427631e-02
4.810460117807745933e-02
5.320180941271866748e-02
5.735728770105324309e-02
6.058859717133463496e-02
6.268458935368373397e-02
6.371155771976383386e-02
6.357526749694450419e-02
6.224928181647428754e-02
5.985196480895014354e-02
5.629189615982198303e-02
5.175151429384215046e-02
4.624128246304095441e-02
3.987362718777855836e-02
3.281765462168606540e-02
2.514304171674121985e-02
1.705671939694805572e-02
8.674735255947085832e-03
1.810202208226609905e-04
-8.278148560572649861e-03
-1.651339493563076452e-02
-2.440476701904431209e-02
-3.177251490976114312e-02
-3.846664512850152262e-02
-4.441935214519110442e-02
-4.941621613617196151e-02
-5.348841764689978018e-02
-5.645809230621176567e-02
-5.829141123551902920e-02
-5.901427770464961337e-02
-5.849047626064986238e-02
-5.688760779685417268e-02
-5.410212283461003635e-02
-5.023694239652183591e-02
-4.539302089804810036e-02
-3.958002053868529824e-02
-3.302070692154246423e-02
-2.573991930677314161e-02
-1.792775410438451553e-02
-9.721816056488637864e-03
-1.276812487544683010e-03
7.236458697665456088e-03
1.565852981899780796e-02
2.380854609438325456e-02
3.155986895796622504e-02
3.868658063832431521e-02
4.515668009940861094e-02
5.073488619237053604e-02
5.534994472517546643e-02
5.893649893039644427e-02
6.131284930806452788e-02
6.261523633055438021e-02
6.263679699474065943e-02
6.146592602397656785e-02
5.913018863923689972e-02
5.558363103782281572e-02
5.107577576453301016e-02
4.552206546024607781e-02
3.912986408030388191e-02
3.200840246020868890e-02
2.426167761963616762e-02
1.612677737439326825e-02
7.681021200106201256e-03
-8.638898382483236812e-04
-9.365447474703594843e-03
-1.764017789895283225e-02
-2.556872205186271410e-02
-3.296111652184422619e-02
-3.971297315020277940e-02
-4.570418119286717012e-02
-5.077036815552754545e-02
-5.495369778070866712e-02
-5.803897838440039147e-02
-6.007801318306992683e-02
-6.101031628906584264e-02
-6.076181250985345644e-02
-5.950345113903402622e-02
-5.708154951426398782e-02
-5.367129192140322053e-02
-4.928787985069319616e-02
-4.396651900866595936e-02
-3.792762122449621492e-02
-3.113682947905761084e-02
-2.380435346116676135e-02
-1.601941329327825903e-02
-7.893614631808171939e-03
3.877209514040942141e-04
8.732420088224016053e-03
1.699378195840251654e-02
2.502899661072163079e-02
3.271392868465247683e-02
3.995426760268343258e-02
4.657547680428330422e-02
5.255685869043496411e-02
5.773950738689589968e-02
6.204990967577742739e-02
6.549909158249818397e-02
6.790824855411227434e-02
6.938798190802532295e-02
6.981476022667504333e-02
6.920422982455175231e-02
6.765350736648861885e-02
6.506059174843320525e-02
6.161818001454571342e-02
5.728668373788874113e-02
5.216652640426866494e-02
4.639774187856620519e-02
3.999981597123510729e-02
3.316206653865667181e-02
2.595041923942685916e-02
1.850188487644915600e-02
1.094819184946777338e-02
3.418577390912900041e-03
-3.984577783582798037e-03
-1.110560262296670514e-02
-1.783836374205963887e-02
-2.409787682215499063e-02
-2.970524689189769224e-02
-3.468745801401858231e-02
-3.884904829024223016e-02
-4.216879697672231558e-02
-4.462417470675675985e-02
-4.606889603598506716e-02
-4.664491873482449341e-02
-4.618941650455198056e-02
-4.478478372662383217e-02
-4.247070037790751790e-02
-3.920570421489436713e-02
-3.518987004956584258e-02
-3.036555024934245450e-02
-2.489485981608441367e-02
-1.886974968767777400e-02
-1.237955301905833971e-02
-5.604791226142273770e-03
1.374548204633793593e-03
8.383893412999408878e-03
1.530839366001240584e-02
2.197236187031718219e-02
2.829353347175990116e-02
3.408993590294528281e-02
3.926295483400071146e-02
4.372444309464222634e-02
4.730682623145764792e-02
5.007307143523660048e-02
5.182840394976037657e-02
5.261110299720599126e-02
5.240712719162601840e-02
5.114537967619237763e-02
4.901330341930425910e-02
4.589905157848839234e-02
4.196360304156195042e-02
3.727784660209897821e-02
3.188445324086514043e-02
2.601785339477345402e-02
1.967653754584005460e-02
1.305431882734127413e-02
6.267914257922146612e-03
-5.845830171535230241e-04
-7.327316537012534652e-03
-1.388524401045095058e-02
-2.014164848512658632e-02
-2.598761219504234013e-02
-3.134511451786213543e-02
-3.616303206610768650e-02
-4.033736492602608276e-02
-4.388174356724416914e-02
-4.672203213757689100e-02
-4.883571313688423593e-02
-5.028721882925080849e-02
-5.097569644575419834e-02
-5.101680074915197760e-02
-5.037081654759065913e-02
-4.905918615473398026e-02
-4.720346795735117645e-02
-4.472783013855764073e-02
-4.177834802269141112e-02
-3.835060104929019498e-02
-3.448318348530808597e-02
-3.030236981767669979e-02
-2.578096080866454365e-02
-2.103566292726216994e-02
-1.611198643423629451e-02
-1.104713070021325766e-02
-5.949292761481283533e-03
-8.524172328196345100e-04
4.186798837642084423e-03
9.068752204257771524e-03
1.377316685519793665e-02
1.822304677337540507e-02
2.234042431499247763e-02
2.614379978683549488e-02
2.950669248908036404e-02
3.244358738586518992e-02
3.493054592296964550e-02
3.688251243455207412e-02
3.839957897707164947e-02
3.937172193441251800e-02
3.985457267528282055e-02
3.989326879915981727e-02
3.941928814577054518e-02
3.859353717305809978e-02
3.734359105499025777e-02
3.573953397013456684e-02
3.387281847637253068e-02
3.168386230585294033e-02
2.932954779778050580e-02
2.676501780396727329e-02
2.402639891116524137e-02
2.119475637305040516e-02
1.821551080912700571e-02
1.516194590639631176e-02
1.202056742737080131e-02
8.773778291302238713e-03
5.452503081489529571e-03
2.053621961201833671e-03
-1.473211518161433344e-03
-5.057455402683780181e-03
-8.733805528317633432e-03
-1.250821851119526124e-02
-1.625290835447431095e-02
-2.011688956429699693e-02
-2.388176482705004627e-02
-2.754068661001986620e-02
-3.109110059836283496e-02
-3.424916859725939122e-02
-3.719728356064063574e-02
-3.958739127592007107e-02
-4.136005591054033037e-02
-4.248872739915257601e-02
-4.264395004193004268e-02
-4.197856280926388906e-02
-4.017965094137090909e-02
-3.720099101052175977e-02
-3.304522654476128862e-02
-2.754985429984875556e-02
-2.082516727317763189e-02
-1.282351032076058800e-02
-3.609749375680411029e-03
6.696465486468381606e-03
1.792568925119797721e-02
2.997756751414369647e-02
4.252341810194409238e-02
5.535951465538713895e-02
6.822667597308704202e-02
8.066370457675157979e-02
9.259602826485748006e-02
1.034494707371789585e-01
1.130088241613852462e-01
1.209977384485829977e-01
1.269404360209616944e-01
1.308871563204550281e-01
1.323521493594181919e-01
1.313222201582871229e-01
1.277108715454705334e-01
1.213560351853760211e-01
1.125211431139713225e-01
1.011139653463169197e-01
8.742402771309616683e-02
7.167385061586963035e-02
5.412793909901423423e-02
3.521092505872465417e-02
1.527006481700047408e-02
-5.248298917458646580e-03
-2.589526198437883467e-02
-4.618617351317176600e-02
-6.573979362663125159e-02
-8.401125854560675954e-02
-1.007118389332494618e-01
-1.153971756784788333e-01
-1.277323123661731341e-01
-1.375968746505476514e-01
-1.445890899227891269e-01
-1.488182331105779299e-01
-1.500547397843210451e-01
-1.483606393295480441e-01
-1.439362907735521613e-01
-1.367236871480477234e-01
-1.271974027258612472e-01
-1.154032173663085414e-01
-1.017488464023486722e-01
-8.661569183362996527e-02
-7.024930599416152888e-02
-5.320202401847280715e-02
-3.571171807245192287e-02
-1.824635030065765995e-02
-1.147667827173433699e-03
1.523291035232560500e-02
3.059202726784412615e-02
4.462754602741396404e-02
5.710430681310702666e-02
6.786190428373933825e-02
7.664106798906242246e-02
8.353303055975394575e-02
8.827137350099573121e-02
9.097080391228302976e-02
9.165960183968185904e-02
9.027635334091839436e-02
8.721404284408332264e-02
8.231133121609586489e-02
7.594273918202243401e-02
6.824669767130639442e-02
5.935656212010969462e-02
4.972669468726745312e-02
3.934128232589682167e-02
2.862127942738328448e-02
1.771978697085340934e-02
6.878798898775682555e-03
-3.620300037858880000e-03
-1.364926990637744739e-02
-2.294317814083752377e-02
-3.139606652939341824e-02
-3.877364768050073351e-02
-4.507055425384768471e-02
-5.006938966977806521e-02
-5.375259184450176253e-02
-5.608129495046066532e-02
-5.693231597684098033e-02
-5.651360876934227034e-02
-5.463342802082322980e-02
-5.148251458287780857e-02
-4.709026556134684321e-02
-4.150010365170751780e-02
-3.498744859263300255e-02
-2.750588140968402567e-02
-1.933738631962019297e-02
-1.057761448789087955e-02
-1.418358049436946496e-03
7.919868273446560580e-03
1.730122996751393485e-02
2.648318518599647106e-02
3.532514881250598676e-02
4.358146022001627151e-02
5.116014002295847518e-02
5.782028011211817753e-02
6.346629399321086773e-02
6.797206249173798343e-02
7.117450574205604064e-02
7.313143974417779525e-02
7.364731960461226579e-02
7.281511563309077395e-02
7.059420700721710795e-02
6.700219649625233087e-02
6.220831193002567677e-02
5.618750477142626931e-02
4.916671564187048704e-02
4.122445593698595423e-02
3.255235820663304053e-02
2.334416995895634284e-02
1.376751795841256454e-02
4.053793718138450596e-03
-5.626389564347341297e-03
-1.501738591383753804e-02
-2.399450425138423618e-02
-3.228491853326730110e-02
-3.978490653660745474e-02
-4.630222747059965088e-02
-5.166205260749989758e-02
-5.585946592399748667e-02
-5.865761997774762704e-02
-6.013931783871164644e-02
-6.017202790398409190e-02
-5.875964125145963224e-02
-5.600933476034593989e-02
-5.184384268754168440e-02
-4.649277954113511385e-02
-3.994878380945684343e-02
-3.239751297980623945e-02
-2.400940126701722396e-02
-1.491125119176765421e-02
-5.364820181324828595e-03
4.495129505225688160e-03
1.439833864560361582e-02
2.418187416545809418e-02
3.358081511497980343e-02
4.243775462867487025e-02
5.053063908091960654e-02
5.765562983095823268e-02
6.372859956520041114e-02
6.849303259346177508e-02
7.198627793416607912e-02
7.400848531120648999e-02
7.454281838938857374e-02
7.362696326783364775e-02
7.115563870347865749e-02
6.735140114020561619e-02
6.214097385617207286e-02
5.570625798603362488e-02
4.819326249925520722e-02
3.969659369603115856e-02
3.050830482448778705e-02
2.071784693058644627e-02
1.059449753340290477e-02
3.262318062391147098e-04
-9.863431562910762035e-03
-1.976868930539291483e-02
-2.918313224400662792e-02
-3.791208402914760661e-02
-4.580369431895744969e-02
-5.264342095732323784e-02
-5.841336238198792385e-02
-6.288969611943678872e-02
-6.606608760480331410e-02
-6.788034070536841380e-02
-6.825457155631822759e-02
-6.734428592785460244e-02
-6.502602276143980287e-02
-6.148210014621632163e-02
-5.675408719594624007e-02
-5.094471316871049260e-02
-4.428593425646664555e-02
-3.681831283008876743e-02
-2.880977015496532373e-02
-2.038131521132281743e-02
-1.175327206866902396e-02
-3.119529071212294100e-03
5.346710314296906387e-03
1.343708447371357029e-02
2.100574918155911908e-02
2.784838751714937069e-02
3.389168399124337788e-02
3.893871689182455686e-02
4.295253339729790398e-02
4.582892651582136379e-02
4.750710935118807737e-02
4.805114297051479855e-02
4.736155696930234582e-02
4.558834060268021626e-02
4.271311607252299691e-02
3.886052677751111045e-02
3.417723057668854703e-02
2.871874666501866152e-02
2.273114490968378837e-02
1.627922031497965397e-02
9.603777645493756510e-03
2.841678808793202376e-03
-3.833947948366560506e-03
-1.022167184736938461e-02
-1.621782081994219485e-02
-2.159968645748264887e-02
-2.631471141431475716e-02
-3.017529118355708612e-02
-3.312882116889411671e-02
-3.509174393153897953e-02
-3.597577336362810935e-02
-3.583109366873234169e-02
-3.456294419788247946e-02
-3.227977776607728749e-02
-2.896764249990876200e-02
-2.471043989049963308e-02
-1.962891035516461241e-02
-1.377890116939051515e-02
-7.356704342614210808e-03
-4.406232952153497917e-04
6.767958043147455360e-03
1.413474249466825997e-02
2.147841577842863475e-02
2.862936704767064106e-02
3.544149024250304453e-02
4.171528646306199573e-02
4.736282826802141327e-02
5.217930126413853481e-02
5.611771266230981131e-02
5.903530177787483929e-02
6.085289170316215968e-02
6.156947967577799247e-02
6.107948407281075381e-02
5.948405317433654721e-02
5.672771229274016502e-02
5.289943468782151714e-02
4.808852177448812160e-02
4.235660547543452364e-02
3.589276264842654329e-02
2.877337383891811345e-02
2.119943640993913331e-02
1.331114588672317744e-02
5.302101808353399011e-03
-2.663219592526763421e-03
-1.040498405687501765e-02
-1.773800067230578426e-02
-2.453288069967312149e-02
-3.058224043043124285e-02
-3.583928662291523126e-02
-4.010889991845475316e-02
-4.333980088665989605e-02
-4.546522760488031639e-02
-4.639451572570792159e-02
-4.621790462105757058e-02
-4.483118003485459663e-02
-4.235701412195721355e-02
-3.881610436599255282e-02
-3.430514950168651878e-02
-2.898795524946116281e-02
-2.292502263364609022e-02
-1.634964126815146787e-02
-9.357362962647615412e-03
-2.188991069460427367e-03
5.008550294157450636e-03
1.204050680460640177e-02
1.869264739647187590e-02
2.484759844898835890e-02
3.025794443712436291e-02
3.487648100004849677e-02
3.849300755433338744e-02
4.104037699571024683e-02
4.245378833966521187e-02
4.262952333598780258e-02
4.165692912941679898e-02
3.944329426399190153e-02
3.611551414747575517e-02
3.171138571981120535e-02
2.633301756402682894e-02
2.016554625160596123e-02
1.328846862523301239e-02
5.944755110489008051e-03
-1.742823217880054391e-03
-9.539453152400317881e-03
-1.727424220646964215e-02
-2.475264794228436774e-02
-3.177661930457866685e-02
-3.821317468638477099e-02
-4.384715228942279164e-02
-4.863371519046675445e-02
-5.237781735453772569e-02
-5.505874911364996155e-02
-5.660586689949872324e-02
-5.694105966607273389e-02
-5.617899401564632050e-02
-5.420925429173735488e-02
-5.119665546531856903e-02
-4.715305824044447452e-02
-4.214283893251307561e-02
-3.637296243077880326e-02
-2.983253036078169912e-02
-2.275767309999644078e-02
-1.521999020851366735e-02
-7.343563467506229910e-03
6.779664253156909848e-04
8.780659343164978758e-03
1.679792679447553172e-02
2.461813936143396678e-02
3.214546148668590703e-02
3.926642399929639038e-02
4.586749637204538821e-02
5.192963249313400920e-02
5.730691997312238606e-02
6.197341491542283920e-02
6.590618885426237361e-02
6.896648962054797993e-02
7.127721702941344772e-02
7.267679435740395655e-02
7.320580796293817138e-02
7.291447864679659330e-02
7.167609111527746546e-02
6.969647558266091336e-02
6.684770680096133177e-02
6.321239289262313432e-02
5.889533266880486034e-02
5.382797751393992441e-02
4.822214680164871314e-02
4.204283750651913870e-02
3.538117364531931375e-02
2.837488459289302933e-02
2.104190434109198815e-02
1.352484325801853876e-02
5.913020566539573669e-03
-1.732274988353130034e-03
-9.270523371052486611e-03
-1.660314402711791579e-02
-2.370841107436776410e-02
-3.038418045313991817e-02
-3.662871417287127257e-02
-4.232785205312494803e-02
-4.733849718510656224e-02
-5.176691988750499462e-02
-5.535057985315705587e-02
-5.815689443639431022e-02
-6.011951575559303790e-02
-6.111178502284782960e-02
-6.131460880748351022e-02
-6.050398405739042945e-02
-5.879942475584781086e-02
-5.619874833280354837e-02
-5.264942210184477001e-02
-4.834917432033024320e-02
-4.319970679172778494e-02
-3.734547461073076113e-02
-3.086056962835635742e-02
-2.379856028908087021e-02
-1.632440300826233648e-02
-8.509363726090603264e-03
-4.822460441362731720e-04
7.614363622591806963e-03
1.564210199130796133e-02
2.350853512325202024e-02
3.100487682533703548e-02
3.807090404113451509e-02
4.453762018616601315e-02
5.025655329152676348e-02
5.523520833771991545e-02
5.922706885047455960e-02
6.228406528703554768e-02
6.427629268586604327e-02
6.513410282973967902e-02
6.496729186691031777e-02
6.360902929977259312e-02
6.122396758648382398e-02
5.777650947588611891e-02
5.332154738232591090e-02
4.803329032907471124e-02
4.189416284385172329e-02
3.511816147004911265e-02
2.777538716035070701e-02
2.001347311342159194e-02
1.200104590966362753e-02
3.859478737022576603e-03
-4.247561316844718389e-03
-1.217528453968693899e-02
-1.976771505083689540e-02
-2.692259422187003037e-02
-3.345033440917339479e-02
-3.931263932488456014e-02
-4.434271139592241284e-02
-4.846107346805904326e-02
-5.165502219875914985e-02
-5.376287378942334189e-02
-5.488472650866028923e-02
-5.489461972486482655e-02
-5.383539664823455695e-02
-5.177304224270831701e-02
-4.865696875177617092e-02
-4.467585350443713244e-02
-3.980175902533161780e-02
-3.418609747628913176e-02
-2.794287599085910900e-02
-2.116385469669527369e-02
-1.403851069161545298e-02
-6.660327098217770463e-03
7.816972596684157101e-04
8.167629960241191284e-03
1.530788683086430763e-02
2.210255983116492934e-02
2.837305994362430972e-02
3.399331027136322930e-02
3.888472761978804121e-02
4.286465308405681962e-02
4.597452192286235334e-02
4.803707392440260265e-02
4.906451178852701961e-02
4.905143950903530919e-02
4.792735332047769886e-02
4.585367898176315182e-02
4.274512732495736739e-02
3.875273705470534680e-02
3.394135595914998804e-02
2.839729481440191050e-02
2.231153083622182051e-02
1.573915802049004678e-02
8.890950837954481739e-03
1.866110223548443029e-03
-5.131265331906778408e-03
-1.199148055381519390e-02
-1.853572019137184404e-02
-2.460675681921348917e-02
-3.011855871846637334e-02
-3.485046660900156107e-02
-3.882927739763081254e-02
-4.183741324311621851e-02
-4.384945162675697033e-02
-4.483056882784185182e-02
-4.465142029097005777e-02
-4.345720013173739321e-02
-4.110246995084729932e-02
-3.770238891865664715e-02
-3.329570039367538842e-02
-2.790722508000280377e-02
-2.173379869614676038e-02
-1.478283516956593879e-02
-7.249658849598396813e-03
7.542615376172193999e-04
9.065387692654535562e-03
1.751871290278214990e-02
2.594940701178935147e-02
3.418435238661489406e-02
4.207206881101840240e-02
4.939962283196916437e-02
5.610218171361816553e-02
6.193740995666013188e-02
6.685020328775957699e-02
7.070984035817173829e-02
7.337188782536058218e-02
7.490137340928534893e-02
7.510340164288882570e-02
7.408022758824371612e-02
7.178573127038487267e-02
6.822234095581600211e-02
6.356077955314107242e-02
5.775095165529649244e-02
5.100502993815887731e-02
4.339097618409863688e-02
3.504659611927078700e-02
2.617679564740835532e-02
1.689227208513769188e-02
7.402466382696887108e-03
-2.129778847570246332e-03
-1.152162279888610183e-02
-2.061540611808419451e-02
-2.920468613535645575e-02
-3.719628182580084208e-02
-4.438932026680561527e-02
-5.066865043860924178e-02
-5.597783533501191761e-02
-6.012153586687673384e-02
-6.317640352410040794e-02
-6.497610455802799168e-02
-6.554426958299859607e-02
-6.493437764362658404e-02
-6.305499364264802176e-02
-6.011949516121824905e-02
-5.605747232320110185e-02
-5.102327532573665975e-02
-4.514836447613229664e-02
-3.848030401051179272e-02
-3.126842065690897676e-02
-2.356406374667018369e-02
-1.557085750893740309e-02
-7.441207952481270101e-03
6.757611863153346714e-04
8.615966836634000869e-03
1.623088406851031298e-02
2.337962899702594743e-02
2.995066792133387404e-02
3.577791848479427300e-02
4.086512229064566404e-02
4.502784238382436660e-02
4.826544664961240211e-02
5.054600590046519348e-02
5.176468797020844503e-02
5.209262572132162400e-02
5.137528350157376245e-02
4.975042093485053385e-02
4.726486470141616492e-02
4.390695663605273524e-02
3.993065785151561631e-02
3.525607772775463111e-02
3.008122826628601906e-02
2.449583595131381644e-02
1.856315506090366885e-02
1.249126142672080803e-02
6.295140213505148741e-03
1.273191163469428004e-04
-5.923070628362309999e-03
-1.175986581699414724e-02
-1.731004350263083344e-02
-2.246992733235557080e-02
-2.719596801971608385e-02
-3.142184038792390083e-02
-3.505228374854279377e-02
-3.815276447759306799e-02
-4.056306812408237705e-02
-4.234347062079434759e-02
-4.345325826927722707e-02
-4.381693027688261105e-02
-4.358325448113679196e-02
-4.258766562849066600e-02
-4.094693174309742972e-02
-3.865023359140613152e-02
-3.565894195074969381e-02
-3.213740707336138619e-02
-2.798421137712287649e-02
-2.332202350942684868e-02
-1.818795902679773077e-02
-1.260040242897901216e-02
-6.694707885525304387e-03
-4.891794097646746248e-04
5.921825331802333357e-03
1.243735330040806122e-02
1.897831944563661138e-02
2.546012096553097043e-02
3.173989370584371500e-02
3.777741569545340489e-02
4.342374161752088346e-02
4.857318400298898248e-02
5.320634505980820911e-02
5.711810568242792902e-02
6.034458795156088379e-02
6.274252225078134904e-02
6.424199692822422925e-02
6.489825906446121395e-02
6.454474155108015643e-02
6.329911212227115613e-02
6.108998982680644008e-02
5.793432165086599694e-02
5.395295875133269969e-02
4.909934537718895625e-02
4.353908648800651482e-02
3.731107316135602592e-02
3.051667179478521202e-02
2.330487099577462085e-02
1.576463690945570026e-02
8.039742811606593459e-03
2.704013638998056628e-04
-7.415628942097182881e-03
-1.489029895161943923e-02
-2.198128804464441477e-02
-2.863557043317214307e-02
-3.466055627683126139e-02
-3.998071462457882669e-02
-4.452743066367320646e-02
-4.813649623951561651e-02
-5.087746998788898745e-02
-5.257882665580395493e-02
-5.327375838363881261e-02
-5.297140835927845182e-02
-5.160222008804523502e-02
-4.933584949441209566e-02
-4.609256126207036952e-02
-4.201429594955640584e-02
-3.718177134213108276e-02
-3.165568992145748051e-02
-2.563517685843689706e-02
-1.916595106312603616e-02
-1.243493458890926329e-02
-5.561966463590947533e-03
1.300021305890893940e-03
8.014381956913656929e-03
1.443678241415184346e-02
2.043585463988175158e-02
2.590570123726248022e-02
3.069370526236691807e-02
3.479676956459994142e-02
3.804711795209413799e-02
4.044830045135577867e-02
4.195564524054569422e-02
4.250664136909810403e-02
4.223027926125612341e-02
4.101895726640648193e-02
3.901184489323115262e-02
3.623618199561764314e-02
3.274866931868761905e-02
2.873202151546442110e-02
2.418160745426338812e-02
1.928980759649690999e-02
1.412480688500108300e-02
8.817557191380425569e-03
3.501687665710009542e-03
-1.741523304271017265e-03
-6.774449078596149650e-03
-1.153055994584521390e-02
-1.587804468634831934e-02
-1.979567604213984880e-02
-2.315870807947060378e-02
-2.594500262437310703e-02
-2.811005546652034504e-02
-2.957221941583436375e-02
-3.041182396695285561e-02
-3.050697352832054676e-02
-2.993906173805944287e-02
-2.868957721513267639e-02
-2.674621264149908834e-02
-2.423511926923484910e-02
-2.108730678823951196e-02
-1.743302980693760273e-02
-1.329017028897103506e-02
-8.714392021540957878e-03
-3.823386072097828374e-03
1.357552864054631381e-03
6.709313568493951302e-03
1.216340946472914408e-02
1.761607069731321862e-02
2.299151442225933969e-02
2.816637913402806476e-02
3.308023595658633742e-02
3.762184284386956012e-02
4.168256481643828337e-02
4.524895371322044252e-02
4.815101335969075580e-02
5.041747937742487723e-02
5.193826391436814210e-02
5.265522489758542313e-02
5.262765599269904337e-02
5.172101128117951446e-02
5.005185844366615011e-02
4.756646757798119879e-02
4.428862504443342729e-02
4.033646240794980936e-02
3.567235856416976769e-02
3.045459255184518321e-02
2.471722898502587071e-02
1.854904114471809390e-02
1.208685993329730937e-02
5.400256960838703719e-03
-1.385184913071629831e-03
-8.152416587475921211e-03
-1.480249611903350013e-02
-2.122673529857132049e-02
-2.728623790568826882e-02
-3.295154187074440105e-02
-3.805647806457943677e-02
-4.255043900480830199e-02
-4.638267359606874224e-02
-4.940733454530430585e-02
-5.170799077975962721e-02
-5.312104006461398215e-02
-5.367537889158596753e-02
-5.338488777568252408e-02
-5.216047100518625412e-02
-5.016426553604568656e-02
-4.729699864742258064e-02
-4.366066873851739277e-02
-3.932634494265849906e-02
-3.430458881686560685e-02
-2.876821807562352645e-02
-2.273270166133655248e-02
-1.633033896150113198e-02
-9.669955224496734614e-03
-2.860847373012023742e-03
3.988765731362959796e-03
1.073913486943176357e-02
1.729164723490938735e-02
2.353099951228635259e-02
2.930109732824080770e-02
3.460371967078485628e-02
3.922742409057474594e-02
4.316222129688863929e-02
4.632405121393861486e-02
4.859282833933981083e-02
5.007285337986665946e-02
5.057980203087947269e-02
5.020660377294564047e-02
4.892870046472504869e-02
4.672765633310493882e-02
4.375894470619608873e-02
3.995026251795418676e-02
3.545970329761517076e-02
3.032807864810082438e-02
2.465300287441395122e-02
1.857104803809009677e-02
1.215739227581467616e-02
5.566489959215374650e-03
-1.107022520199922241e-03
-7.688842720540528704e-03
-1.411165439414402423e-02
-2.018171315857733572e-02
-2.581390529907415937e-02
-3.088829023442796889e-02
-3.523346256004779298e-02
-3.886799791593009007e-02
-4.157088562712484697e-02
-4.336603172112367399e-02
-4.415849631587611540e-02
-4.386986207330059034e-02
-4.259521252442128453e-02
-4.020518737087584726e-02
-3.683171777521603019e-02
-3.246370795754423971e-02
-2.716948384171681899e-02
-2.109250655189608831e-02
-1.427629256619309533e-02
-6.909441180421358082e-03
9.066904975698511331e-04
8.983450121496674295e-03
1.717902755769003947e-02
2.529240438899392832e-02
3.317251948317030685e-02
4.064064019431732483e-02
4.749379387867953828e-02
5.365526588458609941e-02
5.887703439768061237e-02
6.313818637887276541e-02
6.626976743566691253e-02
6.817857631787269113e-02
6.889740940168918859e-02
6.827035121763158632e-02
6.643553080640510200e-02
6.332279876636798255e-02
5.900807073278353798e-02
5.362455647876755022e-02
4.719051423025952263e-02
3.993348852589735654e-02
3.192049400542541077e-02
2.334661289305762014e-02
1.438049588182279195e-02
5.195897545364802465e-03
-4.023320644743231395e-03
-1.309699580072722080e-02
-2.183244827270338848e-02
-3.010021140959620589e-02
-3.766323768983922265e-02
-4.448754936989495617e-02
-5.034305844305372174e-02
-5.514998268983122703e-02
-5.885850390613765054e-02
-6.128176609198394270e-02
-6.255315862015385642e-02
-6.247914904753628512e-02
-6.113737798984516386e-02
-5.856378842442998972e-02
-5.471309244278269035e-02
-4.981800514038686734e-02
-4.381202914832072609e-02
-3.689553051216653418e-02
-2.917705723972607856e-02
-2.078294998457213758e-02
-1.193401810277049807e-02
-2.742623235971287238e-03
6.564577190660191020e-03
1.583721921676604222e-02
2.483463486319691105e-02
3.344816126781167964e-02
4.142491597448471480e-02
4.862995053517003147e-02
5.492720598114032154e-02
6.009419183627853767e-02
6.417787107277543590e-02
6.692115057940163647e-02
6.836085784137006793e-02
6.844074484548778869e-02
6.708604540975267316e-02
6.448027618301373221e-02
6.050209499017290132e-02
5.535258324252960438e-02
4.908799870205934196e-02
4.182230084666398867e-02
3.379244850351031948e-02
2.506875020210227664e-02
1.591238637521990087e-02
6.466967411450764633e-03
-3.039778067812168999e-03
-1.242702963544687830e-02
-2.148680342606669805e-02
-3.004013575062938063e-02
-3.792111582405787579e-02
-4.492601335520642059e-02
-5.100361123307375899e-02
-5.592796544988477836e-02
-5.969468474758619220e-02
-6.218300748105019121e-02
-6.332792819051998034e-02
-6.321092100501336797e-02
-6.170820984820813565e-02
-5.898571870460712907e-02
-5.501793692621991666e-02
-4.991426935846132729e-02
-4.383815434458671750e-02
-3.683456515182484403e-02
-2.915031542265604514e-02
-2.087295866264501226e-02
-1.222647410374568325e-02
-3.381143751383977256e-03
5.474057425251032359e-03
1.414164729572936138e-02
2.245370780011129649e-02
3.019900459183528368e-02
3.727225756246484861e-02
4.344800739393631095e-02
4.868346639627661732e-02
5.280741562797503647e-02
5.574589435386557296e-02
5.749951933546237209e-02
5.793718851898072009e-02
5.719406049465033254e-02
5.518098445447008199e-02
5.200941412890729837e-02
4.777594866215506553e-02
4.252015537731296951e-02
3.647655697897043275e-02
2.968209278661155040e-02
2.237084265997942717e-02
1.467523516233154232e-02
6.782096822854258300e-03
-1.114378758431331697e-03
-8.870010364908427480e-03
-1.626144073762168796e-02
-2.319226700762992005e-02
-2.942710986763143188e-02
-3.492397103353799687e-02
-3.949477328302154061e-02
-4.304481295659823292e-02
-4.555460937113171155e-02
-4.685501153261523166e-02
-4.707487209963997360e-02
-4.606466901556358073e-02
-4.389846883543076922e-02
-4.063496897659261281e-02
-3.625044826781617657e-02
-3.096953043515557336e-02
-2.475777078121505284e-02
-1.780975088765373790e-02
-1.023927607138089974e-02
-2.181352848761307882e-03
6.162689866004504927e-03
1.467319262112335918e-02
2.314002101450175417e-02
3.143027076457293595e-02
3.931309484971277912e-02
4.670919755289796443e-02
5.338379092907320767e-02
5.922318415014976578e-02
6.412581065075231845e-02
6.788462162900296692e-02
7.057663514237857982e-02
7.197168159326634840e-02
7.211596575102578732e-02
7.099026028081663331e-02
6.851964096583078312e-02
6.490500515386263269e-02
6.004127256276170499e-02
5.411235085606577039e-02
4.720067203102966402e-02
3.939438341435824720e-02
3.092616110865649762e-02
2.186764113905674892e-02
1.243674830310006335e-02
2.790220734462690692e-03
-6.882126931856307091e-03
-1.642346691244157136e-02
-2.562242947608261642e-02
-3.435171897439912025e-02
-4.243484428270486580e-02
-4.968786745992213871e-02
-5.609148837537149268e-02
-6.138861853947372854e-02
-6.561151107779625291e-02
-6.861715748665683789e-02
-7.031811217208762399e-02
-7.082175900681567104e-02
-6.993464384620712293e-02
-6.783165767372563437e-02
-6.445017832681732006e-02
-5.983971767468018038e-02
-5.417830709058567978e-02
-4.742536494179273865e-02
-3.981802281654157200e-02
-3.141084035597526553e-02
-2.236912983558417972e-02
-1.287595252320051023e-02
-3.070590496148814519e-03
6.853398657554841435e-03
1.672276366259539335e-02
2.633557428119361749e-02
3.556170682370503322e-02
4.414256167948126669e-02
5.201940668250118471e-02
5.895568846158226461e-02
6.482028427814064131e-02
6.957980136088592893e-02
7.298445670193499935e-02
7.515134401664183561e-02
7.588138772045317781e-02
7.519651617159085755e-02
7.317705483613644313e-02
6.970990971447019180e-02
6.504990017531336877e-02
5.912844607426451932e-02
5.212040684734241952e-02
4.419009692176222720e-02
3.541153252854831179e-02
2.606087492381864087e-02
1.623169552236218560e-02
6.158589709323120109e-03
-3.979414587846783966e-03
-1.397185135225824382e-02
-2.365914305433816298e-02
-3.282512013629387132e-02
-4.130569281880824145e-02
-4.897685164846374978e-02
-5.560441186209616471e-02
-6.122449051533871561e-02
-6.558457364158040703e-02
-6.867950573912305623e-02
-7.047651556466838496e-02
-7.083048889585923102e-02
-6.994978835479051527e-02
-6.764737879620713601e-02
-6.407902038464891037e-02
-5.930448349435344518e-02
-5.333516864352087078e-02
-4.644604076222495770e-02
-3.860508671935917319e-02
-3.005206689305097573e-02
-2.092007645027216256e-02
-1.137134855175098158e-02
-1.621749509503502343e-03
8.176569610969210838e-03
1.781785669753875243e-02
2.713533632235341081e-02
3.590603769061172235e-02
4.404792813809172564e-02
5.130547406133605798e-02
5.760824841184016692e-02
6.281520192613823661e-02
6.677017529097745152e-02
6.954428837263994245e-02
7.091703353853362479e-02
7.099531034258016460e-02
6.972404017368553919e-02
6.710902455185578652e-02
6.333485864418937628e-02
5.833493261089044840e-02
5.234716740800764850e-02
4.542834744990701529e-02
3.774757964606464955e-02
2.951288385191751934e-02
2.083947319424519704e-02
1.197251835806981135e-02
3.050359127887356404e-03
-5.691725884013968707e-03
-1.412386865140401182e-02
-2.202004584914813226e-02
-2.926022255972120234e-02
-3.568891410491204647e-02
-4.113446049297492940e-02
-4.559927164886246054e-02
-4.886385647433295898e-02
-5.099270558265294601e-02
-5.187511837811339260e-02
-5.148800303621221125e-02
-4.994724976950722789e-02
-4.714340451828427647e-02
-4.328252851790592021e-02
-3.834055367870987246e-02
-3.244628455060279137e-02
-2.576289362607920089e-02
-1.834154451169096867e-02
-1.041976140880538151e-02
-2.077899298828159505e-03
6.470875127650268024e-03
1.508439020463080496e-02
2.357112216979401556e-02
3.177660960614075297e-02
3.953410413045838762e-02
4.665069959772027985e-02
5.305280608257006980e-02
5.849975169060862151e-02
6.299141539940170120e-02
6.634155024333666939e-02
6.847607204784385282e-02
6.941482410681482085e-02
6.899381022280703935e-02
6.736842986368336839e-02
6.442831595478272499e-02
6.026103714441953529e-02
5.497748438545170535e-02
4.858237848308408213e-02
4.131452520772530695e-02
3.321089308806301349e-02
2.447693202128667367e-02
1.527842713129371269e-02
5.787662883139596016e-03
-3.791803776793404614e-03
-1.327832469962085191e-02
-2.246609494365360560e-02
-3.119875813114901530e-02
-3.923700231812239647e-02
-4.651989094018536136e-02
-5.280265261139843735e-02
-5.800381315985373570e-02
-6.203737004054949572e-02
-6.473513217344492587e-02
-6.620919913194461826e-02
-6.626800209147147569e-02
-6.500833033441373587e-02
-6.244267926481675973e-02
-5.857252026904636449e-02
-5.361549530764477683e-02
-4.753523395855372563e-02
-4.055946215845065289e-02
-3.279035908994954590e-02
-2.440542869706001025e-02
-1.561116444302345155e-02
-6.556350022278161806e-03
2.521199102353346294e-03
1.147145608244294276e-02
2.003673705895055515e-02
2.811645602087467152e-02
3.545483903354430810e-02
4.193233713088583697e-02
4.741568791456706594e-02
5.171172796258034082e-02
5.487025747471395432e-02
5.666745207864368888e-02
5.717386182755152674e-02
5.633702208175913467e-02
5.414089055122240507e-02
5.076054946633554860e-02
4.612613539585817823e-02
4.046672990631065142e-02
3.383690307424182253e-02
2.640686921947151683e-02
1.838499496907179329e-02
9.886946697971462500e-03
1.171764718755095424e-03
-7.630337681593464018e-03
-1.626261275819488802e-02
-2.459614249595605887e-02
-3.239714508070652005e-02
-3.952394519356974140e-02
-4.583426479929819664e-02
-5.112254465996332597e-02
-5.540280437911942329e-02
-5.843879012610874585e-02
-6.027851909588578111e-02
-6.082663953782540406e-02
-6.002226333988176094e-02
-5.800413893539101140e-02
-5.464013855880610337e-02
-5.012859338105370849e-02
-4.446127940709562743e-02
-3.773344218626550894e-02
-3.013556182780800091e-02
-2.170163072424956263e-02
-1.266617605897843793e-02
-3.130660504022542839e-03
6.711793181204349021e-03
1.669468152696712213e-02
2.662065675434948861e-02
3.633964305925594523e-02
4.564905098630819835e-02
5.435526410460592844e-02
6.236690028157503007e-02
6.940323139081154558e-02
7.547351982759635536e-02
8.033664809212008595e-02
8.389860130064479005e-02
8.616684505853859644e-02
8.691307320252875113e-02
8.630486161842645942e-02
8.417057952466092119e-02
8.057298353516176292e-02
7.561359208220112815e-02
6.924544050673724083e-02
6.171425485928327265e-02
5.302351458915238042e-02
4.337217180871964783e-02
3.292199539990718626e-02
2.185775812835102222e-02
1.037533065866690779e-02
-1.304035761793315325e-03
-1.294301995746355988e-02
-2.437481786071853812e-02
-3.524782817675058827e-02
-4.553077679866696093e-02
-5.484075353025304883e-02
-6.303121878745575335e-02
-6.998903545464790765e-02
-7.535368621904174613e-02
-7.929862983275853816e-02
-8.142830248346297206e-02
-8.178220524162171934e-02
-8.034971821210958043e-02
-7.694845916326849278e-02
-7.188848027443625610e-02
-6.496440871072801937e-02
-5.640686880496632166e-02
-4.633335693831147628e-02
-3.485396101611627079e-02
-2.228431072758489326e-02
-8.744571022332413290e-03
5.441611723732249321e-03
2.005013418009664664e-02
3.471720578346756264e-02
4.925144883222275227e-02
6.324383534543712160e-02
7.644130321093225988e-02
8.859457772147016907e-02
9.926715561789931086e-02
1.084898732498877083e-01
1.157561153139643334e-01
1.210388292515022640e-01
1.241821598419968198e-01
1.249045167059609635e-01
1.234784950984210289e-01
1.195453725415540625e-01
1.133518548321571506e-01
1.049274842552503084e-01
9.428089089684434099e-02
8.183679967959496537e-02
6.754576325949733506e-02
5.181638569586994453e-02
3.487362369594889516e-02
1.697892142489305922e-02
-1.457209690984380933e-03
-2.017433209382738304e-02
-3.881758147134608400e-02
-5.703825857555570866e-02
-7.449694473913293091e-02
-9.095351870830853391e-02
-1.059798012032033693e-01
-1.194678812154603559e-01
-1.310615792109710298e-01
-1.405451506595995492e-01
-1.479208514243153250e-01
-1.527979379360851486e-01
-1.553797343369597572e-01
-1.554243394458354188e-01
-1.529589418742078044e-01
-1.482032093270939654e-01
-1.409782356705513440e-01
-1.317108253794372352e-01
-1.203687302665478187e-01
-1.072053527344811047e-01
-9.257074754463606725e-02
-7.656297677845502747e-02
-5.964310007202993508e-02
-4.201544744644053475e-02
-2.401441155595698471e-02
-6.004794289546279244e-03
1.172106784911819757e-02
2.887581392808422770e-02
4.509355866941552188e-02
6.016367616541369590e-02
7.382226256049637114e-02
8.577122570052676809e-02
9.603044751404381241e-02
1.042255384538774837e-01
1.104200200374031576e-01
1.145263236850380256e-01
1.164213955257595856e-01
1.164202424792950968e-01
1.142894648256962409e-01
1.103641503901944265e-01
1.047283696751682147e-01
9.749314061332702008e-02
8.910330955501764849e-02
7.952943265071414636e-02
6.921056500196795525e-02
5.831812321700916707e-02
4.710734091073489477e-02
3.592174665952563989e-02
2.489819667377753121e-02
1.435161656237377362e-02
4.438296494836912326e-03
-4.601005476208868371e-03
-1.268108698002597817e-02
-1.958890507711035650e-02
-2.527860120291185869e-02
-2.966610421352758320e-02
-3.265210073934295826e-02
-3.439851017463244065e-02
-3.472208857442461716e-02
-3.383206854508095940e-02
-3.171801963193606605e-02
-2.845943348398408124e-02
-2.432603982560676420e-02
-1.924679249049280824e-02
-1.354936544741443608e-02
-7.271909289148818616e-03
-6.195861929229997192e-04
6.180227779369940923e-03
1.306833220051484626e-02
1.976124251633980602e-02
2.620095597607398352e-02
3.216001063445915464e-02
3.754471609988218467e-02
4.221594206528210547e-02
4.604755372137232794e-02
4.899501846572536234e-02
5.091454839381689274e-02
5.186036569891475101e-02
5.170872418967254608e-02
5.051608707450032376e-02
4.828680714034252336e-02
4.502024411823334765e-02
4.087082444897675165e-02
3.581516603898508844e-02
3.003054532231307430e-02
2.358999063932642332e-02
1.661930461097779754e-02
9.294120368332901838e-03
1.713831408333173125e-03
-5.935780950781386657e-03
-1.352672813351990175e-02
-2.089084245176856675e-02
-2.790692999147054848e-02
-3.440623258245483623e-02
-4.029927147026762108e-02
-4.544841382088997406e-02
-4.974580706669610997e-02
-5.316511919799311869e-02
-5.556186525027347056e-02
-5.698605934731561934e-02
-5.734604794361313623e-02
-5.665767083962543194e-02
-5.498394266342534337e-02
-5.228606978347154904e-02
-4.871987658335377724e-02
-4.428387759769856352e-02
-3.911151178757599212e-02
-3.331718598311298601e-02
-2.699477118967474887e-02
-2.031835252873028311e-02
-1.338720783690791269e-02
-6.379882182758534782e-03
5.902369234828219562e-04
7.341653998161857056e-03
1.377902984348334386e-02
1.973770323815977196e-02
2.509510744636151217e-02
2.978559208116961232e-02
3.363464302023124602e-02
3.668141896816785874e-02
3.876611084733647822e-02
3.989633847811364931e-02
4.007755263435482107e-02
3.923659233488614034e-02
3.753068735452502747e-02
3.487825553257446060e-02
3.142083533746262147e-02
2.722386980800514319e-02
2.235612236339174982e-02
1.700778499496324175e-02
1.121290905772967528e-02
5.174168779045294243e-03
-1.022761515980062132e-03
-7.201617460221109053e-03
-1.324397781719514888e-02
-1.901449978851752973e-02
-2.435263526126746000e-02
-2.919386167477526495e-02
-3.333995356133695465e-02
-3.680369405450296255e-02
-3.940920656019993029e-02
-4.111326024018152614e-02
-4.189937183178832347e-02
-4.164749803714667270e-02
-4.047920424187222144e-02
-3.827812477624766702e-02
-3.512960214125780689e-02
-3.107863951724328805e-02
-2.614871153935390685e-02
-2.050360697246326330e-02
-1.416681748441479816e-02
-7.304009030619199212e-03
-2.075492297145620571e-05
7.522471625228922647e-03
1.518902415937405451e-02
2.280930656262124268e-02
3.022283521816605811e-02
3.729054956752971689e-02
4.380165949451235441e-02
4.969911373579014718e-02
5.475422183434065782e-02
5.890183583904154418e-02
6.202866606459987719e-02
6.400333757428464110e-02
6.487055870529030710e-02
6.448116287378936884e-02
6.291168867934567033e-02
6.013895668860290422e-02
5.620413757620845024e-02
5.123221389574973694e-02
4.525614391682946519e-02
3.846028451982218960e-02
3.093871376083861743e-02
2.289577062140901037e-02
1.447661041050245581e-02
5.893527952836350586e-03
-2.664693935101547506e-03
-1.102047747201813366e-02
-1.892131180000520760e-02
-2.627375983364253070e-02
-3.279976893358235723e-02
-3.842216688101354749e-02
-4.296361310142730872e-02
-4.627791833222684448e-02
-4.837113179298435650e-02
-4.905979842859038015e-02
-4.843621498531539699e-02
-4.641678936640424025e-02
-4.306128180645428516e-02
-3.847588188004932158e-02
-3.268596339813498175e-02
-2.591447311870240244e-02
-1.822584192021833513e-02
-9.865455340620277180e-03
-9.903213066446009405e-04
8.169976239547745156e-03
1.738476468736972064e-02
2.646625201354846010e-02
3.512237951588965956e-02
4.322832975850769699e-02
5.047994999647525960e-02
5.678029526410421912e-02
6.191781494267519642e-02
6.572939748711403851e-02
6.819637188888186263e-02
6.911677764522967948e-02
6.859662217113973726e-02
6.652002257083587666e-02
6.295093572362106538e-02
5.799665502116988641e-02
5.167157585440200485e-02
4.422966978034474639e-02
3.572122372022674269e-02
2.639153722617041883e-02
1.642512083013912202e-02
6.035723654899315116e-03
-4.525808429174322904e-03
-1.505960622743025834e-02
-2.529832542942439533e-02
-3.506679653396569535e-02
-4.408161185092975692e-02
-5.224476796902088882e-02
-5.929670442750662601e-02
-6.511484824396285287e-02
-6.960727653162354645e-02
-7.258160490558399069e-02
-7.414805022973459947e-02
-7.410873128599498871e-02
-7.256018182070961275e-02
-6.952647770799144644e-02
-6.501536169582808333e-02
-5.926788272257688811e-02
-5.226049030256776223e-02
-4.424819790230134081e-02
-3.535718741122620412e-02
-2.578579462220039267e-02
-1.577775426054223856e-02
-5.497998043932331332e-03
4.786149827153076894e-03
1.489837312454044688e-02
2.456706899405793759e-02
3.366194560875303970e-02
4.191768435024670336e-02
4.920588078564876178e-02
5.537307217767797884e-02
6.023378729048596558e-02
6.382462498634905446e-02
6.592556077501041112e-02
6.662212945937091846e-02
6.585014985633780293e-02
6.362023449352391391e-02
6.010520231267400121e-02
5.524891826245407339e-02
4.930419410044595274e-02
4.232040942913845027e-02
3.449683369995342613e-02
2.604506112750010899e-02
1.709515356104818196e-02
7.925729058062370297e-03
-1.328918220732856585e-03
-1.039647833175758040e-02
-1.913223450093534672e-02
-2.729887304478572502e-02
-3.474084802878555506e-02
-4.130207867150562095e-02
-4.678799119936961209e-02
-5.117865373142157365e-02
-5.426193966813269709e-02
-5.607857236883986157e-02
-5.652267317029008309e-02
-5.557967411048662237e-02
-5.334790075834676404e-02
-4.975740712734774002e-02
-4.501232170204762933e-02
-3.911375568404877601e-02
-3.223119384717073460e-02
-2.453059630803075888e-02
-1.612634754094552370e-02
-7.274524671273836958e-03
1.902062218680815146e-03
1.114541046363613438e-02
2.029150994404375907e-02
2.910496821433626244e-02
3.741289349834299449e-02
4.502261281080271321e-02
5.173848264000677211e-02
5.746798037890436112e-02
6.199733056450587587e-02
6.532959085611098060e-02
6.730492965913348336e-02
6.791105693806617771e-02
6.716731812749994479e-02
6.501681592614604044e-02
6.163386193044780720e-02
5.698471052690930877e-02
5.125234560864140587e-02
4.455403547828777622e-02
3.702845729254049256e-02
2.891599125351384039e-02
2.033293722069821896e-02
1.154717100341598468e-02
2.710744156923824803e-03
-5.925912166418470343e-03
-1.419918750197301030e-02
-2.190221690495542523e-02
-2.884501061201053679e-02
-3.491433310322277633e-02
-3.989826487099323166e-02
-4.379959797015211403e-02
-4.642878685956816631e-02
-4.778660003404069934e-02
-4.784539394673884005e-02
-4.655983722842221839e-02
-4.408626690479661853e-02
-4.035878796091225268e-02
-3.556994880549869953e-02
-2.978565067835976798e-02
-2.316376025692617330e-02
-1.591313971104507327e-02
-8.142454508857588369e-03
-1.251677265165767466e-04
8.013717166896394337e-03
1.600102587988398717e-02
2.368787723090123171e-02
3.085571602135796926e-02
3.730613150260453370e-02
4.292352423667206845e-02
4.748163639965697486e-02
5.097031712135077081e-02
5.319862403273954016e-02
5.415789573126962575e-02
5.381239737088537589e-02
5.212008484340166503e-02
4.921272988860904418e-02
4.504968873241449456e-02
3.981188174181397171e-02
3.357051642787654833e-02
2.648851943886859975e-02
1.876025441137350522e-02
1.052085913580858359e-02
2.021264897367922638e-03
-6.596010595051279325e-03
-1.507063298695522635e-02
-2.325738340635521983e-02
-3.092594340459731833e-02
-3.791148671109970114e-02
-4.406963304807796911e-02
-4.920029452322962488e-02
-5.327815600206141367e-02
-5.610754212779472949e-02
-5.770160043806914218e-02
-5.798066023568714672e-02
-5.691742063886759406e-02
-5.460608821577501992e-02
-5.099551126686452385e-02
-4.625991995344654051e-02
-4.042724992054982230e-02
-3.365390419681108664e-02
-2.609972878589256889e-02
-1.789294262027455590e-02
-9.263563904763766343e-03
-3.494950998568628099e-04
8.601361307445005294e-03
1.743806499154768042e-02
2.591605752631087264e-02
3.388357821958481314e-02
4.114493875277922680e-02
4.750813938560533023e-02
5.290038703241477236e-02
5.709717398673355010e-02
6.011947397745314586e-02
6.180929678344525974e-02
6.215151722291302472e-02
6.118747637181822657e-02
5.884413432617850714e-02
5.531088714551717772e-02
5.055142795437654601e-02
4.474064392756012948e-02
3.800891582502023691e-02
3.047484564082195146e-02
2.238416965808682005e-02
1.384215301181940250e-02
5.107126031694563667e-03
-3.674779405274172274e-03
-1.226273985047166004e-02
-2.050465843328859450e-02
-2.820102076611330499e-02
-3.516262547315668341e-02
-4.130015159914188910e-02
-4.637761787938072394e-02
-5.042816228135813678e-02
-5.324338297103869272e-02
-5.480632462135905797e-02
-5.511901552014777939e-02
-5.406378642163069820e-02
-5.184113979075814088e-02
-4.832447577895775809e-02
-4.367019635575398323e-02
-3.796565633122914868e-02
-3.126308514445674813e-02
-2.382018723693645618e-02
-1.566097942680336891e-02
-7.023275156416136818e-03
1.952559301093764700e-03
1.107618332546555368e-02
2.016379562871986261e-02
2.903798814242196380e-02
3.751106724685646099e-02
4.544019003502760418e-02
5.260083681344181195e-02
5.896256051437358953e-02
6.428087514522896895e-02
6.851822349864285233e-02
7.158540082935069271e-02
7.334043710036086683e-02
7.391479395908123751e-02
7.311670929384896100e-02
7.107880896089577294e-02
6.780455053462594583e-02
6.330005476045005852e-02
5.779476776251378511e-02
5.123831545315427755e-02
4.386041389148158387e-02
3.575824096628350129e-02
2.706566516884086060e-02
1.800312782570611531e-02
8.676104143740301367e-03
-7.154757341438569562e-04
-1.001541786454279021e-02
-1.904682048486526155e-02
-2.769041425259593722e-02
-3.573754171102772048e-02
-4.312199798153663888e-02
-4.967508881584249691e-02
-5.526870152179457624e-02
-5.991568280772515548e-02
-6.339206389001317277e-02
-6.579322519158070648e-02
-6.698527451284347345e-02
-6.694653692532573364e-02
-6.579522493832971886e-02
-6.338521809857408651e-02
-5.992578537871798977e-02
-5.536546975200465348e-02
-4.979672555178487475e-02
-4.339027535646148431e-02
-3.614243102518660544e-02
-2.828527302084397205e-02
-1.988370370994508099e-02
-1.110188632627672270e-02
-2.108534149651491302e-03
6.954025508063388199e-03
1.592850942762616059e-02
2.464105798945236125e-02
3.293619047164272201e-02
4.069907574440517761e-02
4.771020129695448947e-02
5.396229402551557669e-02
5.923569292853276408e-02
6.347064560903582786e-02
6.664954628701563744e-02
6.858323269572699776e-02
6.943436179486525694e-02
6.902683518809085705e-02
6.743770547043176355e-02
6.475570402173519424e-02
6.090309632549993635e-02
5.615074930807148479e-02
5.043052069270392845e-02
4.391655278359829495e-02
3.676255111197313658e-02
2.901507901604506376e-02
2.092667769721591464e-02
1.255198761309475608e-02
4.063327607288017874e-03
-4.389080084362703520e-03
-1.267639498531333495e-02
-2.068677460474020388e-02
-2.826166627066245551e-02
-3.532018633021993120e-02
-4.176289566401610726e-02
-4.743191851843353568e-02
-5.240088527083220510e-02
-5.644186918884234322e-02
-5.959352638004752206e-02
-6.181632530677679677e-02
-6.297225902557559984e-02
-6.326792878405772258e-02
-6.247544226030215392e-02
-6.072259026756807870e-02
-5.802697902346038578e-02
-5.431933669465531522e-02
-4.983971911751295530e-02
-4.445938864895467718e-02
-3.833923763443586319e-02
-3.155861879685751409e-02
-2.414830784071354819e-02
-1.630665051701115156e-02
-8.068935967200343423e-03
4.239545796703527748e-04
9.031106180042526577e-03
1.762975698032350283e-02
2.610872514657942844e-02
3.427602294912043129e-02
4.206104887862563424e-02
4.929220069438972757e-02
5.581575796430582326e-02
6.163270396405706730e-02
6.648295002151283217e-02
7.040693307016313018e-02
7.326499765894343985e-02
7.495994504882037834e-02
7.560596163958829830e-02
7.499779428099211109e-02
7.329046085415001632e-02
7.043597073060074709e-02
6.645150019458463675e-02
6.152633600702610284e-02
5.559901243578498770e-02
4.888302750697427757e-02
4.144255475550627510e-02
3.339778974384785548e-02
2.493934264066745635e-02
1.616354655073366786e-02
7.243422900152455407e-03
-1.669250077148501724e-03
-1.042139859257081719e-02
-1.889315928391445756e-02
-2.688283880829705000e-02
-3.434184064985627838e-02
-4.107783413640996029e-02
-4.698516772340955577e-02
-5.204409942571144865e-02
-5.603457996416585929e-02
-5.905347657600588246e-02
-6.092478264389147163e-02
-6.164357468191850736e-02
-6.127701068774523557e-02
-5.968261279204659792e-02
-5.705990285573706716e-02
-5.331477618490392673e-02
-4.855412904941724256e-02
-4.290036850050663736e-02
-3.635964512676775201e-02
-2.915270274722336213e-02
-2.131994453452617719e-02
-1.304195202859665878e-02
-4.460366364361132742e-03
4.263932738507521421e-03
1.297774223336974758e-02
2.150446665109278371e-02
2.967079124829955297e-02
3.735725610257677187e-02
4.432625470742270618e-02
5.055997513205046090e-02
5.581815123661330175e-02
6.003027845689948294e-02
6.314451404445674265e-02
6.497809561048405180e-02
6.566514135382185702e-02
6.501993795552135635e-02
6.312882053516395697e-02
6.003273614809091080e-02
5.570990129687869441e-02
5.038842594766308747e-02
4.403323242304803264e-02
3.685455193330852697e-02
2.897066206171942937e-02
2.053544501000319558e-02
1.176031247623523027e-02
2.783460591228200699e-03
-6.168474874479675484e-03
-1.494742982347862723e-02
-2.330871792192782191e-02
-3.115735845888647354e-02
-3.824812599149792630e-02
-4.445949215851452418e-02
-4.967295474017612011e-02
-5.369343714789263922e-02
-5.657475701308299632e-02
-5.810061461709068592e-02
-5.832406499609878170e-02
-5.721098715599833018e-02
-5.473293899906774701e-02
-5.106585790913108908e-02
-4.614667955822429612e-02
-4.018656884765636761e-02
-3.326243319138343091e-02
-2.553482457065144734e-02
-1.722397934927204569e-02
-8.454266742008359481e-03
5.152340998933933013e-04
9.529228649303937704e-03
1.833692759395038827e-02
2.678319903772511876e-02
3.463897116530947895e-02
4.175053765850051529e-02
4.796727163448939735e-02
5.310618549781766229e-02
5.716035388225949171e-02
5.993421115807427008e-02
6.147492943157525924e-02
6.171254167837576105e-02
6.063823383559876351e-02
5.839005062188842854e-02
5.490526451313008233e-02
5.039880022269316306e-02
4.490167850535730504e-02
3.856624329125846878e-02
3.158516118711623272e-02
2.403952704069831428e-02
1.617416784271195201e-02
8.090876103737886654e-03
-2.366178329228727645e-06
-7.964511526874641645e-03
-1.562612210241110314e-02
-2.285038925240813826e-02
-2.950407768965841032e-02
-3.543629637688783252e-02
-4.060405359720824225e-02
-4.482837482550271896e-02
-4.813242968540118460e-02
-5.038839122562922823e-02
-5.156746042406721436e-02
-5.170966513029626177e-02
-5.071049992649203503e-02
-4.871727079225452589e-02
-4.566043784873622530e-02
-4.164307514067219773e-02
-3.675615804106053403e-02
-3.103584690384950801e-02
-2.467327296523871144e-02
-1.771343785933148993e-02
-1.034880109637820178e-02
-2.694923484976942396e-03
5.067712037749388075e-03
1.279034618864369199e-02
2.030614054802155205e-02
2.742367355100648954e-02
3.403688534480564520e-02
3.991139322216599034e-02
4.501115448961855170e-02
4.912781119873749214e-02
5.218246960922885008e-02
5.412830115254479296e-02
5.482571743010027088e-02
5.437517998147593790e-02
5.265573698273547792e-02
4.976379787642949692e-02
4.574222338609588989e-02
4.065099005593896669e-02
3.467177111194558181e-02
2.785794505492392159e-02
2.043774058615380890e-02
1.252310454348863275e-02
4.358142743275346398e-03
-3.906555846867117154e-03
-1.205424938397885865e-02
-1.985441547999972772e-02
-2.718518507760421185e-02
-3.374889584918657620e-02
-3.951618891558775215e-02
-4.421937586841167417e-02
-4.775923730320248001e-02
-5.006860375566467986e-02
-5.096694770775027361e-02
-5.056019669284581020e-02
-4.868745189983365862e-02
-4.544008935510732844e-02
-4.084956840417551527e-02
-3.496426203817533385e-02
-2.797351309024414395e-02
-1.993227085760717124e-02
-1.107763729477527145e-02
-1.544971401776801950e-03
8.402991941655342523e-03
1.858368173023321884e-02
2.873588806435711102e-02
3.860923734598221968e-02
4.801496622111364049e-02
5.662282351550898540e-02
6.435016868291390524e-02
7.087041563942407529e-02
7.607319995370374899e-02
7.981343858918700518e-02
8.189343717824602853e-02
8.238336322158737457e-02
8.108652560264383025e-02
7.811251412173460251e-02
7.345271380670106987e-02
6.716813239980518047e-02
5.945986163261696156e-02
5.038644076943617905e-02
4.022322876383077617e-02
2.912488463961002833e-02
1.737411249939586205e-02
5.208836688537186142e-03
-7.087510721883623181e-03
-1.923872008375745318e-02
-3.099035494975652116e-02
-4.201953954181956996e-02
-5.216697987843037232e-02
-6.109218380411311072e-02
-6.868976363420659093e-02
-7.472552999405386587e-02
-7.904473467799931485e-02
-8.163858018092413904e-02
-8.231156524830667010e-02
-8.120023625059018257e-02
-7.820784613832154619e-02
-7.345420188892401447e-02
-6.707970354658890355e-02
-5.915250012990348055e-02
-4.998139694893337370e-02
-3.966276381876953500e-02
-2.852856552112102706e-02
-1.679852018895100496e-02
-4.764260059351683486e-03
7.266971978415634643e-03
1.905165589857646044e-02
3.024648615309816907e-02
4.066116766276780398e-02
4.996242119950243532e-02
5.802431459685186699e-02
6.458934753976822152e-02
6.952099509577380765e-02
7.275413839650010650e-02
7.412681173005400415e-02
7.377162470603303157e-02
7.156409501904438530e-02
6.766897631214052744e-02
6.217495025241343704e-02
5.519520219978453490e-02
4.704002749574424935e-02
3.778376068874583077e-02
2.779237659883155437e-02
1.724691506489890724e-02
6.457387968418597246e-03
-4.280532125002809406e-03
-1.475017604240900365e-02
-2.461318038307007405e-02
-3.370425244740851006e-02
-4.171799233814073998e-02
-4.854460950890388676e-02
-5.396034852278400185e-02
-5.785577506190467401e-02
-6.016633722336455631e-02
-6.078561341290556613e-02
-5.982265095903836066e-02
-5.719319712293550323e-02
-5.306519778043487789e-02
-4.750036307188047063e-02
-4.065800962010032021e-02
-3.277521215983798114e-02
-2.396844269486851989e-02
-1.456680017326434165e-02
-4.722766543356098599e-03
5.237185640154042726e-03
1.508967938199112097e-02
2.458476473155663672e-02
3.343434533938540593e-02
4.147493531286194912e-02
4.841855103178752812e-02
5.417197948060023527e-02
5.851524405070839679e-02
6.137270840076449602e-02
6.266380106662303162e-02
6.232999958043670963e-02
6.044672230015282755e-02
5.698378325398700817e-02
5.211728299989184382e-02
4.590436332198595537e-02
3.856455289071281101e-02
3.028201179650698988e-02
2.125564452582829819e-02
1.179153402478875026e-02
2.056046980209167915e-03
-7.587984252023924174e-03
-1.696909810179314526e-02
-2.577564188791990965e-02
-3.377252892042723054e-02
-4.078145699313028005e-02
-4.652535981683423444e-02
-5.094906724044799551e-02
-5.382470235353987997e-02
-5.513400218797698954e-02
-5.479532143283544904e-02
-5.279158345417019754e-02
-4.921127592966079850e-02
-4.406238067593169772e-02
-3.754597318685230778e-02
-2.973803450796937142e-02
-2.089313944057093891e-02
-1.119028869207680868e-02
-8.856815579988859544e-04
9.733512148932928210e-03
2.045593108914477501e-02
3.091203088910880747e-02
4.093125906681224779e-02
5.015253090457951618e-02
5.838790160170027194e-02
6.539914346856093297e-02
7.093576093734661747e-02
7.493531545164233698e-02
7.715635080956842473e-02
7.763728060550320609e-02
7.626016203508141633e-02
7.305944963643021262e-02
6.812759782006411191e-02
6.150589248848564033e-02
5.343949063630665935e-02
4.402144703159150546e-02
3.355028737686234497e-02
2.222824840788986678e-02
1.036369823809521473e-02
-1.755597065523935470e-03
-1.385886699266060049e-02
-2.558286657399007347e-02
-3.672827786314208226e-02
-4.690650405485122243e-02
-5.598347036067969490e-02
-6.364967750883560038e-02
-6.971714663640815601e-02
-7.409615396540926435e-02
-7.655256350806487198e-02
-7.719729725832977230e-02
-7.584673478977940753e-02
-7.260905709511361605e-02
-6.754593157161938033e-02
-6.071758218126730583e-02
-5.241000340303351990e-02
-4.267348027168558350e-02
-3.184511601856948593e-02
-2.010651491368894636e-02
-7.781987301980907053e-03
4.844033824318304780e-03
1.749305867537769010e-02
2.980681738742784262e-02
4.157027204870632903e-02
5.238722235180489489e-02
6.213163229676035848e-02
7.045229478358942810e-02
7.718886745549918826e-02
8.220294951422531249e-02
8.526546802566342675e-02
8.648014308236140479e-02
8.562814896598876235e-02
8.284857824135306859e-02
7.815657953519425383e-02
7.162529173475687405e-02
6.353099328231144594e-02
5.391265118276458712e-02
4.312305862036108772e-02
3.132571831887600439e-02
1.884038740543856130e-02
5.959956575262726972e-03
-7.049478128989116778e-03
-1.984154370843941445e-02
-3.218812466686080814e-02
-4.372620548070594443e-02
-5.430495359263660948e-02
-6.358751116221171562e-02
-7.144245578454802570e-02
-7.768429300477733279e-02
-8.211908939255206652e-02
-8.480240717495478309e-02
-8.550691942210647545e-02
-8.438217146377469113e-02
-8.136289080510682170e-02
-7.652104376758162019e-02
-7.006832948991152665e-02
-6.200019072132765402e-02
-5.264809711817119986e-02
-4.209710331928185473e-02
-3.062929847140414413e-02
-1.849937558687653888e-02
-5.924655013204637062e-03
6.773328071354898020e-03
1.938382269784698700e-02
3.158082103864237600e-02
4.318071256299266247e-02
5.385796967304306432e-02
6.347865867654639560e-02
7.178704700810321915e-02
7.859771505741901254e-02
8.387039771108974195e-02
8.734265542145983052e-02
8.914177467751577266e-02
8.908096624288149024e-02
8.722006485462666103e-02
8.367087191766953147e-02
7.837311125379228804e-02
7.164608855278428723e-02
6.346392536287313868e-02
5.409468690078994557e-02
4.374042879233895620e-02
3.256835964067842509e-02
2.090771795329944560e-02
8.910038150593041842e-03
-3.107565744973156581e-03
-1.495376010991629825e-02
-2.632833275205993806e-02
-3.707854276860889087e-02
-4.693384140551189188e-02
-5.570407823775076761e-02
-6.328498033042961879e-02
-6.939072435008918072e-02
-7.412069754852884662e-02
-7.718879203152270718e-02
-7.862329207076691751e-02
-7.842986662822185040e-02
-7.646817012802988034e-02
-7.302542288236678336e-02
-6.792295286517889552e-02
-6.138324376110185915e-02
-5.351000298773973818e-02
-4.437726776622656633e-02
-3.430855464765749513e-02
-2.333780203437049727e-02
-1.176822704205718328e-02
2.252952311167801501e-04
1.238294056988159877e-02
2.448940524731868518e-02
3.628663589229642189e-02
4.753777950911077660e-02
5.804642606051386988e-02
6.750148823528911990e-02
7.586768135668753299e-02
8.279579134493093850e-02
8.823493682369586144e-02
9.204727108846542938e-02
9.404738448458203892e-02
9.438708918909094470e-02
9.282252077482118502e-02
8.952872729498848048e-02
8.450308918523517787e-02
7.779964131784723735e-02
6.969416611476382528e-02
6.018581264901781691e-02
4.959678532640759280e-02
3.807630154444443388e-02
2.588590725031621187e-02
1.330435734024910249e-02
5.629853921310548452e-04
-1.204165000995443754e-02
-2.427405150681330795e-02
-3.582973350170483989e-02
-4.655213215804578780e-02
-5.612244364742058345e-02
-6.443715334793706506e-02
-7.128145546717516712e-02
-7.649524222838091636e-02
-8.010164205247677360e-02
-8.187402639212305877e-02
-8.195837282223382425e-02
-8.025034888448714931e-02
-7.682870850469758484e-02
-7.186292243069869468e-02
-6.533588713035157203e-02
-5.756168711868567961e-02
-4.858823717225854710e-02
-3.868917024653458631e-02
-2.808923107043106993e-02
-1.698252564508999710e-02
-5.682824603040425269e-03
5.631076870585358628e-03
1.664516073086034012e-02
2.718264726443448548e-02
3.695170553287950577e-02
4.580561093674816869e-02
5.351775968883266954e-02
5.991314267172080654e-02
6.493753358351930793e-02
6.836858257628485036e-02
7.030357886243872312e-02
7.057957157933812675e-02
6.926234798220466671e-02
6.643534985971831508e-02
6.207112872587888797e-02
5.645191908514488738e-02
4.955885479602750721e-02
4.165811842393783021e-02
3.291487601973219768e-02
2.350471290920875395e-02
1.372600501451841370e-02
3.708110439066938761e-03
-6.241352003064090138e-03
-1.596950218182524930e-02
-2.520098343220169429e-02
-3.379401717057266274e-02
-4.153270558811466423e-02
-4.823771948706778029e-02
-5.383727971038886062e-02
-5.809719750155552948e-02
-6.109996822860120497e-02
-6.263630629776723024e-02
-6.273666535552575862e-02
-6.142733595032525556e-02
-5.862510399914899056e-02
-5.457498649962818499e-02
-4.917345668692561095e-02
-4.262726708563183836e-02
-3.504398625861620403e-02
-2.653165764755600203e-02
-1.735736481145450788e-02
-7.597688896158327244e-03
2.481434196616682381e-03
1.272324172659729594e-02
2.287997030605391779e-02
3.278869013634731766e-02
4.220830920945479320e-02
5.095217040244025969e-02
5.886547921882605283e-02
6.569204990006120848e-02
7.143546694185058665e-02
7.581498959291577133e-02
7.882312406827989004e-02
8.037553106703887451e-02
8.035252150422370065e-02
7.891796593965688666e-02
7.590882351295349939e-02
7.150702928550078941e-02
6.574755923871342111e-02
5.871554457455567533e-02
5.065605207857839382e-02
4.161349766705244035e-02
3.186084366519052052e-02
2.154390564282136072e-02
1.089781593454765621e-02
1.300090450653268448e-04
-1.053572730188601092e-02
-2.088946675191863042e-02
-3.073416714245219561e-02
-3.982322795940967247e-02
-4.807774202678195136e-02
-5.521195448279420798e-02
-6.119333381653126874e-02
-6.584823008593015947e-02
-6.905384710889209132e-02
-7.087585372802225614e-02
-7.110829436400084580e-02
-6.990940259541442159e-02
-6.719548618511933524e-02
-6.303364086284049539e-02
-5.758793602633004854e-02
-5.083893118225032287e-02
-4.305492185195251842e-02
-3.428789517032232448e-02
-2.476592724893122294e-02
-1.467988748751611686e-02
-4.215781203994109841e-03
6.380111729046677137e-03
1.692452592901417738e-02
2.714458249468835321e-02
3.689700720632925479e-02
4.588237466703572187e-02
5.400259939095371914e-02
6.101699205557517547e-02
6.675835691555434548e-02
7.119011652946674595e-02
7.406204307565111833e-02
7.548411363167777111e-02
7.527718240180121534e-02
7.348225426825352735e-02
7.018983982091329954e-02
6.534084662976252789e-02
5.920584669084170276e-02
5.176502285250621921e-02
4.325158006951575901e-02
3.384194240979636337e-02
2.369956240502381697e-02
1.310823254509391536e-02
2.223165700587435324e-03
-8.665647788710217209e-03
-1.938341555749906880e-02
-2.963684046562145569e-02
-3.929294684270771137e-02
-4.808767595778009468e-02
-5.584049909701049169e-02
-6.245556142440220754e-02
-6.766019084144621332e-02
-7.154797282127388358e-02
-7.385591136926031308e-02
-7.460816904915250347e-02
-7.381817491773230711e-02
-7.136375082737116127e-02
-6.751281763938814240e-02
-6.212015629671160249e-02
-5.539524190341427873e-02
-4.745022802893392871e-02
-3.837226627051946309e-02
-2.845881738089825475e-02
-1.777244125200600280e-02
-6.593661226405428920e-03
4.900078856169068353e-03
1.645610003612173883e-02
2.788117026883316432e-02
3.891649936282445127e-02
4.935442091899106681e-02
5.900740984614391560e-02
6.759136284104032277e-02
7.508917275508099343e-02
8.117421561438102617e-02
8.582275391315774549e-02
8.891201325564580815e-02
9.028492184072881011e-02
9.010198533987624769e-02
8.814241167793657183e-02
8.459017209760691380e-02
7.944967088577431502e-02
7.278088761896472914e-02
6.485099130681110102e-02
5.566112515459539084e-02
4.551489456605981726e-02
3.455222693830571623e-02
2.301157116370132830e-02
1.114820699216007016e-02
-8.256837607872212145e-04
-1.264868095698836598e-02
-2.410250730079122744e-02
-3.491577350816726932e-02
-4.495440720669197782e-02
-5.391900271628721070e-02
-6.173247518609609880e-02
-6.818795827949668265e-02
-7.314024705222310629e-02
-7.661810998524851146e-02
-7.839406424883343938e-02
-7.861396041776853860e-02
-7.716392281751471849e-02
-7.410736275076629243e-02
-6.960107435664089626e-02
-6.360571877660656237e-02
-5.641227843051700025e-02
-4.804951733332307739e-02
-3.875829462251081936e-02
-2.874486301824532436e-02
-1.817736367544947954e-02
-7.343236879051980893e-03
3.591234911232092826e-03
1.433635968546918132e-02
2.472393817131465429e-02
3.447019611591318339e-02
4.343779006195539610e-02
5.139366892480919796e-02
5.815987159039531090e-02
6.367290537518971449e-02
6.769187945100908765e-02
7.030058309614806156e-02
7.131166891816016762e-02
7.076341100721393607e-02
6.871801537105423630e-02
6.511464832792197843e-02
6.021214413908136664e-02
5.396443845241811338e-02
4.660818546107659693e-02
3.829281940058171241e-02
2.916962500094640379e-02
1.952745252055442318e-02
9.485220847695109356e-03
-6.557265078530570557e-04
-1.073480137879344321e-02
-2.047553107300158215e-02
-2.971530666236074647e-02
-3.822509991743357899e-02
-4.580313616948066685e-02
-5.234512950647466495e-02
-5.759899920115460481e-02
-6.160434128477281640e-02
-6.413138364489338883e-02
-6.518194113081016150e-02
-6.474616946438012388e-02
-6.273410646771496180e-02
-5.935555147089368461e-02
-5.450455256385209474e-02
-4.838378284175891969e-02
-4.108675632522436338e-02
-3.274486148373383088e-02
-2.362015685639628007e-02
-1.381296802102495447e-02
-3.616017665152307381e-03
6.802639287816670752e-03
1.715956722560707179e-02
2.726675609048037283e-02
3.686463085734296985e-02
4.573426327417634552e-02
5.370763299745835717e-02
6.051931710811749021e-02
6.614652587886210577e-02
7.032644079652185243e-02
7.304600342140921132e-02
7.422603365166616229e-02
7.378438480766241758e-02
7.187227626376457845e-02
6.838146056184955801e-02
6.351489529947215718e-02
5.732296575410491396e-02
4.995478205438887848e-02
4.164214232889467543e-02
3.249062792707226727e-02
2.279102913102829323e-02
1.269118914322120081e-02
2.478254174224703288e-03
-7.674982622398540157e-03
-1.750700781371353904e-02
-2.681862823685573702e-02
-3.543512629706105366e-02
-4.309112394655666839e-02
-4.976457737456815161e-02
-5.516194218286893380e-02
-5.928698410464299656e-02
-6.200296283644592815e-02
-6.319380729256207641e-02
-6.298408180550608970e-02
-6.117766651934932604e-02
-5.796922476192491180e-02
-5.331051121561588418e-02
-4.727916203295828151e-02
-4.007807450225520790e-02
-3.170235343313845128e-02
-2.243274567105385531e-02
-1.234835853707584238e-02
-1.677598834681459997e-03
9.378084124072667144e-03
2.061638317548847646e-02
3.180848699093924425e-02
4.274983423513995656e-02
5.317589717788453324e-02
6.295639375661120363e-02
7.177154636079284555e-02
7.956042172722153916e-02
8.606602298090998415e-02
9.112903950094884686e-02
9.474191117316320410e-02
9.663119741479307689e-02
9.694739075141298179e-02
9.550512386193175940e-02
9.234376899287784213e-02
8.759180133936782242e-02
8.116785147918083310e-02
7.337115999403852340e-02
6.419161443442479575e-02
5.384670483494596871e-02
4.255602088974685254e-02
3.046661330876363968e-02
1.787595252023259015e-02
4.970331056807423924e-03
-7.984184339007976278e-03
-2.075979086027401541e-02
-3.306934240860914809e-02
-4.476924716277941307e-02
-5.554462556220027963e-02
-6.523826193583390221e-02
-7.368911872053744705e-02
-8.062886353397230588e-02
-8.613343061061562445e-02
-8.989114483694055080e-02
-9.195192562668676184e-02
-9.226641414388568607e-02
-9.073847763334698391e-02
-8.761522926752983442e-02
-8.273898643116743556e-02
-7.635737461459268793e-02
-6.854510362871722717e-02
-5.945255032982741522e-02
-4.936007653083547553e-02
-3.837080374689478407e-02
-2.681203689510525123e-02
-1.485755342739136092e-02
-2.838856310209443047e-03
9.054786998097481832e-03
2.050507128401202195e-02
3.126913857011456160e-02
4.114461649362977091e-02
4.980012035722788249e-02
5.721808534743769159e-02
6.304320875039362559e-02
6.725508574345180623e-02
6.972213954777875533e-02
7.031264851285494444e-02
6.918912774647283104e-02
6.616613683533184576e-02
6.147439050998588367e-02
5.512548086130619751e-02
4.727593011241234405e-02
3.819084604239179198e-02
2.795749820111847680e-02
1.694340577300395764e-02
5.298423487801818058e-03
-6.620008129147950289e-03
-1.857302897588837889e-02
-3.026536552169431515e-02
-4.138907066302443399e-02
-5.173680134028918465e-02
-6.096044381378768612e-02
-6.895621140278247740e-02
-7.540892961686307405e-02
-8.023097390388471417e-02
-8.327129166588327636e-02
-8.439616342600067544e-02
-8.367342775515547448e-02
-8.096978252876352311e-02
-7.645412826982000976e-02
-7.012854293809445139e-02
-6.215593434536825085e-02
-5.273666763646033678e-02
-4.201996038944009332e-02
-3.032734151184215271e-02
-1.784322663917101495e-02
-4.932861695785916052e-03
8.165870165079639614e-03
2.109381718669079211e-02
3.357015848928844581e-02
4.530352171833205988e-02
5.595489368328983304e-02
6.536568233859653410e-02
7.318350487146099703e-02
7.934521958811045772e-02
8.360666248286813262e-02
8.588068895678205306e-02
8.616991996994040337e-02
8.435630110862685216e-02
8.064302773480266917e-02
7.497678287648006090e-02
6.759492489691526496e-02
5.865609502944747755e-02
4.836371661274072725e-02
3.706331891131440376e-02
2.493043759210500712e-02
1.238715578344175283e-02
-3.521020632708542382e-04
-1.287725896384954438e-02
-2.492968562107972588e-02
-3.619786540678122944e-02
-4.633840417288278418e-02
-5.521444070024528195e-02
-6.244296188681201093e-02
-6.803450232839509948e-02
-7.169921642284998731e-02
-7.337991772344593100e-02
-7.309852974762859334e-02
-7.069616842970513626e-02
-6.647023115482875166e-02
-6.028485498863251496e-02
-5.239267337925716805e-02
-4.296862608386810972e-02
-3.212684617820243949e-02
-2.030577723190473902e-02
-7.568511820025657609e-03
5.684493820387957752e-03
1.920084223753041122e-02
3.270820870742302544e-02
4.584354096584458693e-02
5.840374745714582011e-02
7.008246849886078100e-02
8.065472094574413497e-02
8.990236881093524590e-02
9.767173503854281735e-02
1.037821012904105583e-01
1.081878562190250609e-01
1.107814421857480081e-01
1.115702901964610166e-01
1.106248463517268410e-01
1.079328197721874383e-01
1.037135949723524964e-01
9.801101519489173464e-02
9.107741516964291961e-02
8.310936643499858278e-02
7.429325061178776446e-02
6.495666187934813485e-02
5.525374231187334811e-02
4.553278377668094901e-02
3.597454002103798315e-02
2.685711474042354330e-02
1.840501911801433257e-02
1.079516554243261164e-02
4.253426461171467589e-03
-1.150085806142507258e-03
-5.218934603959752595e-03
-7.963223080695983058e-03
-9.269637674903304092e-03
-9.187475411327822999e-03
-7.762867922906298811e-03
-5.017024303458516264e-03
-1.178559719915468415e-03
3.753707455217364895e-03
9.455688145330820582e-03
1.583103862838967577e-02
2.262471331077906336e-02
2.953183250572963964e-02
3.645577688174507502e-02
4.295216043287040236e-02
4.896961049964511370e-02
5.414261284480036823e-02
5.827571202798982608e-02
6.125752513832916080e-02
6.274926993328718006e-02
6.282837704506331888e-02
6.121948251673973301e-02
5.796525436246099949e-02
5.305405328049045410e-02
4.641729021291258334e-02
3.829067223033827405e-02
2.863628841638756958e-02
1.772551172840132472e-02
5.707542682045638194e-03
-7.226706578906823795e-03
-2.074169401531850143e-02
-3.465741166328692446e-02
-4.862391434483334662e-02
-6.238443593444494700e-02
-7.567166101029626502e-02
-8.817168238087116916e-02
-9.966485750876995231e-02
-1.099107147762349856e-01
-1.186866526213664064e-01
-1.258731244471504862e-01
-1.312874916887587784e-01
-1.348839628802078749e-01
-1.366257824422594802e-01
-1.364696457541075547e-01
-1.345524955609715689e-01
-1.308598182368064800e-01
-1.256273043201538153e-01
-1.189635313910384490e-01
-1.110725872657115920e-01
-1.022715819228780104e-01
-9.267058318443806286e-02
-8.272193715333943376e-02
-7.251662319916289678e-02
-6.245934902399639249e-02
-5.283794865402798024e-02
-4.379436969226700033e-02
-3.579274496919992998e-02
-2.875163213905593956e-02
-2.312246280143170560e-02
-1.895289079189932044e-02
-1.632129298518757154e-02
-1.546641266130750758e-02
-1.611095893866527212e-02
-1.854628992687481701e-02
-2.251222666164053379e-02
-2.798067179927540143e-02
-3.484980664022498120e-02
-4.275066556766158460e-02
-5.170699079294260869e-02
-6.126774206678396034e-02
-7.133685545552256868e-02
-8.154025616842897062e-02
-9.160643948707568318e-02
-1.013248498138632353e-01
-1.102849066112656096e-01
-1.184126914169089106e-01
-1.252544126584451689e-01
-1.307934482431790946e-01
-1.347182910824784030e-01
-1.368534840764359661e-01
-1.372262132264586987e-01
-1.354898578300972045e-01
-1.319150696218185925e-01
-1.262367199066728451e-01
-1.185607972666908594e-01
-1.090478255865350438e-01
-9.754288971502138306e-02
-8.451539457939000188e-02
-6.984385642165792663e-02
-5.381719751771297383e-02
-3.672297197417754427e-02
-1.856423308334401862e-02
1.255473042538037334e-04
1.931145267065444496e-02
3.868565967389433341e-02
5.787496538920428035e-02
7.683656028285805462e-02
9.509154859711342611e-02
1.125336365444386949e-01
1.289792754459964108e-01
1.440565913339211801e-01
1.578227121348559359e-01
1.699279972070469324e-01
1.803436668436129708e-01
1.890671935883747046e-01
1.958469495605181521e-01
2.009236913061502872e-01
2.040966545896564233e-01
2.055462475620078999e-01
2.053924023698264767e-01
2.036026432059566960e-01
2.005691989651376406e-01
1.961996588482404491e-01
1.909111467446826527e-01
1.847922884966028689e-01
1.780507739334754591e-01
1.710831224307667875e-01
1.638263408480135908e-01
1.568349818302063325e-01
1.500038415816855875e-01
1.437192112368191887e-01
1.382050312660290381e-01
1.333692532226936345e-01
1.297382859956741075e-01
1.269495979834897037e-01
1.254603140671640971e-01
1.252167414601607909e-01
1.260946704005033170e-01
1.284366853566348277e-01
1.316958164655639696e-01
1.362760303271152995e-01
1.418547689488416086e-01
1.483098914495053489e-01
1.557065395738692903e-01
1.634766677469855767e-01
1.718624523574732443e-01
1.803783208419021955e-01
1.889475933205057856e-01
1.973583946429810498e-01
2.052008494789851478e-01
2.125112950280218516e-01
2.188005300603596825e-01
2.240887416605572557e-01
2.279887889555127223e-01
2.303881885431723897e-01
2.311752987388750735e-01
2.300144526114376309e-01
2.270864609707472226e-01
2.219920534748089647e-01
2.149569896228033516e-01
2.058650791316896378e-01
1.946103712197798097e-01
1.815759362746999228e-01
1.664659917146618373e-01
1.497830235024493750e-01
1.315103423618259881e-01
1.117235867264022436e-01
9.097943710356488911e-02
6.907143786711213151e-02
4.664535415833345050e-02
2.376200683554817103e-02
5.392298284316314645e-04
-2.239302102752081802e-02
-4.527502403701701844e-02
-6.745391175008302875e-02
-8.891603307636559983e-02
-1.096303735088517139e-01
-1.290148026344602183e-01
-1.474740124872062907e-01
-1.644123528291510650e-01
-1.800062722629173773e-01
-1.943365769154906386e-01
-2.069643100931711777e-01
-2.185045022732154674e-01
-2.284008192205576881e-01
-2.371102280053172251e-01
-2.447359003655879828e-01
-2.510421278637342546e-01
-2.567880787497903716e-01
-2.614046319499459536e-01
-2.656270519057369328e-01
-2.694322667411355177e-01
-2.728057429133523004e-01
-2.764939367787272451e-01
-2.798745735252710642e-01
-2.838513172164909282e-01
-2.881415350154158395e-01
-2.929153659485690397e-01
-2.987183430866651723e-01
-3.048739198923333116e-01
-3.122688854474501285e-01
-3.203134986957025254e-01
-3.292829815532786197e-01
-3.393837469978666643e-01
-3.499380777161165690e-01
-3.616309427384709618e-01
-3.736428685908876890e-01
-3.862721385548351649e-01
-3.993625394966962561e-01
-4.123426608944779082e-01
-4.255906637973270179e-01
-4.382448066251372620e-01
-4.505847714544330973e-01
-4.621889560428799060e-01
-4.727236784196159891e-01
-4.822618355920451627e-01
-4.901168656078361274e-01
-4.965526503482743936e-01
-5.010327034281305547e-01
-5.035593989003182003e-01
-5.039709227413068371e-01
-5.019067111076960241e-01
-4.976423802925979412e-01
-4.906498377822271495e-01
-4.813033662525013634e-01
-4.692941254948683194e-01
-4.546335837430838800e-01
-4.376443267843799778e-01
-4.178628357568620610e-01
-3.960184087388002316e-01
-3.717131526471620373e-01
-3.452947712063934027e-01
-3.171437003887103145e-01
-2.868480013272660667e-01
-2.554337277365086867e-01
-2.224030194498166080e-01
-1.883689186816776273e-01
-1.537080794852746790e-01
-1.180027631391704634e-01
-8.247259640910904743e-02
-4.643346202030609188e-02
-1.069231211261302203e-02
2.452938084314675721e-02
5.971193602344022217e-02
9.358641231899526847e-02
1.271340012356237670e-01
1.594007562421154989e-01
1.905058786271993654e-01
2.209861243582539048e-01
2.496679134708648107e-01
2.778738052373486700e-01
3.044891280948255341e-01
3.301020849742669627e-01
3.551882066069631527e-01
3.787617008884554548e-01
4.023932788254278581e-01
4.247465459233935037e-01
4.468740668068034161e-01
4.689899705301172617e-01
4.903260466036682974e-01
5.124905660173572075e-01
5.338819470340601114e-01
5.558942759105186537e-01
5.783026811641686082e-01
6.005668953997979065e-01
6.241019908632864377e-01
6.470994666984236643e-01
6.711212972644148289e-01
6.954545976433305077e-01
7.198139841320482235e-01
7.452539217524664084e-01
7.699363725681928061e-01
7.954089649219208136e-01
8.205670126360682382e-01
8.454047451495718679e-01
8.705261709992047070e-01
8.942959462739566989e-01
9.180690412401569800e-01
9.405322306855173897e-01
9.619537875111683345e-01
9.824582753001763757e-01
1.000827437704162381e+00
1.018073260358878684e+00
1.032878468573427133e+00
1.045755982103900861e+00
1.056370393526307128e+00
1.064082465342700790e+00
1.069470889236736388e+00
1.071400924330929483e+00
1.070604275360729662e+00
1.066347812031837483e+00
1.058680527952255535e+00
1.047729434610346066e+00
1.032696795333284401e+00
1.014518179034384904e+00
9.921505266998791317e-01
9.663834190576993111e-01
9.369112046613300437e-01
9.033790741263596491e-01
8.668846082801677788e-01
8.261518007275696629e-01
7.826847481099290516e-01
7.357442240656307808e-01
6.854671786322430460e-01
6.330003553978053032e-01
5.768844327624662593e-01
5.192313015223750661e-01
4.588232788928208183e-01
3.963094833462909028e-01
3.326958966066788093e-01
2.663897094123218734e-01
1.999537759419932614e-01
1.316265100430596136e-01
6.261218256008889427e-02
-6.464299881442567113e-03
-7.723361457437243061e-02
-1.468566992233170387e-01
-2.176838440119667761e-01
-2.878667430536355210e-01
-3.574219026116740028e-01
-4.278582556374170842e-01
-4.962503553594423411e-01
-5.655297432718734418e-01
-6.331007715899775734e-01
-6.998658582518567650e-01
-7.670044110685733108e-01
-8.317126869544004819e-01
-8.973660120633905057e-01
-9.606836127165963024e-01
-1.023484477260054870e+00
-1.086429752516036240e+00
-1.147039431604055748e+00
-1.208860355638090800e+00
-1.268105117400823545e+00
-1.327342682591064360e+00
-1.386554876777120748e+00
-1.443750389819269619e+00
-1.502279159640333095e+00
-1.558078029005087295e+00
-1.614175925211827956e+00
-1.669769946479647160e+00
-1.723475077876731154e+00
-1.778035217429039916e+00
-1.829443235727894690e+00
-1.880796309310664105e+00
-1.930532803787542662e+00
-1.977960492274546178e+00
-2.024874951578653270e+00
-2.067739731168172668e+00
-2.109335187709931336e+00
-2.147527122893594598e+00
-2.182384920666828432e+00
-2.214562991178782969e+00
-2.241428334050350912e+00
-2.265147590640026021e+00
-2.283318761394907526e+00
-2.296808419406920709e+00
-2.305101413096940277e+00
-2.306829624403702983e+00
-2.303367909158273275e+00
-2.292394122534656464e+00
-2.275559959239779051e+00
-2.251286059752579671e+00
-2.219716359994601262e+00
-2.181361404970744822e+00
-2.134321244426728992e+00
-2.080970356561244738e+00
-2.018846250036550494e+00
-1.949750932725129449e+00
-1.873290372659426328e+00
-1.788306493019117038e+00
-1.697747229612027065e+00
-1.598438837214344099e+00
-1.493890667247566917e+00
-1.382669580164285428e+00
-1.264634161813916080e+00
-1.142976525543394350e+00
-1.013896352678770540e+00
-8.825113672875307680e-01
-7.460358050322571932e-01
-6.055426568237287643e-01
-4.638965618377574596e-01
-3.166867272429270130e-01
-1.703361726046466462e-01
-2.031738408778164737e-02
1.309626253494838577e-01
2.816754691110733844e-01
4.395611225855043380e-01
5.987208456522130628e-01
7.467500576147848568e-01
8.895954632420330910e-01
1.044954006996960727e+00
1.225585931777704474e+00
1.401293512756841109e+00
1.535809524920509483e+00
1.653589608951865575e+00
1.819998047063696722e+00
2.053260071572783119e+00
2.262623686704271719e+00
2.362474149537301837e+00
2.424147677562760173e+00
2.614795193057226630e+00
2.959547493086341685e+00
3.233927128678721896e+00
3.238019781367659444e+00
3.141480246167653867e+00
3.367869906494894483e+00
4.024203659591504056e+00
4.541424628322928925e+00
4.113814013311648310e+00
2.572557208616837787e+00
7.018547958407213017e-01
