BVP Signal
-4.149744641799603395e-03
-1.153290792433153689e-02
-2.124481658913271453e-02
-3.109187164821908267e-02
-3.978857131934745994e-02
-4.742517715035979298e-02
-5.500714924143096374e-02
-6.261119355904015693e-02
-6.970481224809205179e-02
-7.575848371624521738e-02
-8.047883534327687771e-02
-8.430633356939926104e-02
-8.705500641710789411e-02
-8.843163719933239131e-02
-8.819894836888914069e-02
-8.611843681409359075e-02
-8.243392889797035439e-02
-7.704135489118585367e-02
-6.986878554044834155e-02
-6.093900860977119471e-02
-5.031737817077103214e-02
-3.820514832584706588e-02
-2.483310619455442181e-02
-1.037273324111698258e-02
4.913827374965526462e-03
2.061585918652451138e-02
3.654183599335206201e-02
5.215601227016647412e-02
6.718725769618535959e-02
8.124833906497019864e-02
9.383760085180231636e-02
1.048532402960382082e-01
1.137077474968660740e-01
1.203007709832014105e-01
1.243369946167377504e-01
1.255651363899069062e-01
1.240660598189439190e-01
1.195848814232206569e-01
1.123261310205231345e-01
1.022894251512690977e-01
8.969447167287264433e-02
7.481613496107114569e-02
5.792765641679220590e-02
3.947723238155467773e-02
1.980447812939754859e-02
-4.933851550014550780e-04
-2.106471943262896995e-02
-4.125146170663728656e-02
-6.062566368280661311e-02
-7.867778621460042032e-02
-9.481321266155620653e-02
-1.088054688914192880e-01
-1.200245147793071732e-01
-1.283682591543321427e-01
-1.334574285981832142e-01
-1.351179757121945268e-01
-1.334054794808369471e-01
-1.281337828284040414e-01
-1.196404807286832184e-01
-1.079144515987220942e-01
-9.334978881265701411e-02
-7.626725812606709176e-02
-5.705448342807793727e-02
-3.629190903673801261e-02
-1.435201393017437876e-02
8.047183789351153305e-03
3.050982275677738276e-02
5.231398736206860356e-02
7.301530355005436679e-02
9.206287262148049599e-02
1.088765702093477672e-01
1.232124017866688681e-01
1.344543126629511587e-01
1.425849691256780849e-01
1.471752532917955936e-01
1.481492869837381654e-01
1.455432962549322862e-01
1.392161278080732978e-01
1.295904643449385663e-01
1.166026187384036350e-01
1.007246965213528106e-01
8.225386791625727279e-02
6.161176151490593833e-02
3.940066122187502184e-02
1.598880169581029520e-02
-7.899127655118076685e-03
-3.184754554803986837e-02
-5.511553850086653439e-02
-7.729076795599715277e-02
-9.774136856897291947e-02
-1.159462636329355312e-01
-1.315801646436348116e-01
-1.440359088688316636e-01
-1.533298166157973652e-01
-1.589334368979982703e-01
-1.608596200365596807e-01
-1.590503321292716932e-01
-1.534092911920781899e-01
-1.443673327837777520e-01
-1.318195873590174427e-01
-1.163032604220720356e-01
-9.806057003122536919e-02
-7.755405025429390475e-02
-5.536975839741559158e-02
-3.188292742212339714e-02
-7.809563877444525293e-03
1.643960594813265175e-02
4.014318927248677893e-02
6.289990781042908985e-02
8.407708060155311136e-02
1.032258873122642862e-01
1.199718270416445520e-01
1.337697253905675843e-01
1.446092335837720899e-01
1.519494334226199062e-01
1.558669114409454992e-01
1.561885100554981920e-01
1.528459234872601435e-01
1.461875191553690945e-01
1.360468302308477373e-01
1.229564106899890125e-01
1.070136461029127239e-01
8.864120409938869294e-02
6.833385371093775307e-02
4.638539280418263466e-02
2.345943545121836893e-02
-1.093729100834495149e-04
-2.365907323783028593e-02
-4.680182220222509071e-02
-6.892972009199552219e-02
-8.962889746802291113e-02
-1.084560097828031477e-01
-1.248779671906546374e-01
-1.387888659265649471e-01
-1.495750376921986258e-01
-1.573027389354113292e-01
-1.616104683368982664e-01
-1.623785720774111319e-01
-1.598177359288837085e-01
-1.536219020805986990e-01
-1.442994118188901664e-01
-1.317469781035921772e-01
-1.163062798410317011e-01
-9.839756763502302550e-02
-7.817362432477301115e-02
-5.630146704695320609e-02
-3.300985549519881712e-02
-8.891559728444395350e-03
1.561593012271106362e-02
3.998683443879555433e-02
6.376723815476692536e-02
8.646493706779317945e-02
1.075752155243879793e-01
1.268267107940447003e-01
1.435823260727389084e-01
1.578563706101547282e-01
1.690766539241991551e-01
1.771000621379464346e-01
1.819204727027631807e-01
1.830858657194049388e-01
1.810885800427125547e-01
1.755064181506608700e-01
1.666254649511940411e-01
1.546986653072532358e-01
1.396490837982806987e-01
1.222163391405641508e-01
1.023138550355902898e-01
8.049144788876269607e-02
5.716574156776044191e-02
3.263616683493905657e-02
7.534110612990030376e-03
-1.783070100050815343e-02
-4.295008653579290847e-02
-6.738868720910196064e-02
-9.064020494666935601e-02
-1.124878203053237269e-01
-1.323214717388702666e-01
-1.499558809281565930e-01
-1.650834776174169849e-01
-1.772436655777098191e-01
-1.867212877147151895e-01
-1.928564154773745321e-01
-1.958900943612945367e-01
-1.957434974047141674e-01
-1.921930723675842612e-01
-1.858972856770566562e-01
-1.763951743383268544e-01
-1.642330371996538196e-01
-1.495708464392162818e-01
-1.324564626860185723e-01
-1.136384294816543961e-01
-9.298803345616213356e-02
-7.107452042818382387e-02
-4.822234500015629144e-02
-2.465069105914874381e-02
-8.983572455503741061e-04
2.281892893774190023e-02
4.618355390366019053e-02
6.879581963795483590e-02
9.039128925924788671e-02
1.108031840413378211e-01
1.295366547147490111e-01
1.466437678982359660e-01
1.617124034676203359e-01
1.745166341338808824e-01
1.852414640268832402e-01
1.932494436316511133e-01
1.989047923519557393e-01
2.018524375537167348e-01
2.019610882887883374e-01
1.996386583188621000e-01
1.943192374237914244e-01
1.865241198732446870e-01
1.760682114613910110e-01
1.629672009631000229e-01
1.477121598311487150e-01
1.300444528619905116e-01
1.104729953473727044e-01
8.910865606346329848e-02
6.614011635369998476e-02
4.204041423001636524e-02
1.700023652519488948e-02
-8.625609478548401654e-03
-3.437882439326089834e-02
-5.995179212415002734e-02
-8.496757160349366345e-02
-1.088468944634274904e-01
-1.315061966355288714e-01
-1.522505411692059440e-01
-1.708183446098998082e-01
-1.870235711668962464e-01
-2.001743032495625629e-01
-2.105407605119288261e-01
-2.174566047066747720e-01
-2.209101403319708723e-01
-2.209936810086217673e-01
-2.172517984339545905e-01
-2.102816980646056710e-01
-1.997302601009088296e-01
-1.859212912966127229e-01
-1.692215820006189864e-01
-1.496245345568071317e-01
-1.278507632016903095e-01
-1.040039632824040217e-01
-7.860637497542333207e-02
-5.216238444091136905e-02
-2.507126136683246465e-02
2.148993603658611029e-03
2.899431900484433777e-02
5.503709607031476159e-02
7.983132433322287502e-02
1.028085419339833106e-01
1.239124864745085874e-01
1.424297044952967384e-01
1.582785029579367730e-01
1.712065436269556429e-01
1.807511127941469065e-01
1.873459870068607536e-01
1.903141434993483594e-01
1.899833745197134494e-01
1.863366656859808956e-01
1.792256937648339377e-01
1.693499457692902443e-01
1.563410118112817382e-01
1.407925251802395750e-01
1.229053349805497297e-01
1.029099220576331353e-01
8.145840037018600710e-02
5.865862071897331997e-02
3.510628422672469606e-02
1.115690160140344472e-02
-1.270053303844373947e-02
-3.609553015923876174e-02
-5.851002149281488152e-02
-7.960760866171531780e-02
-9.899465884764821477e-02
-1.161715889661913415e-01
-1.311648786926954136e-01
-1.433033954442096136e-01
-1.526692244075829041e-01
-1.589807114117939013e-01
-1.619817649327446041e-01
-1.620630494238891328e-01
-1.587198840903744912e-01
-1.524244546502122877e-01
-1.431219259971367175e-01
-1.309190025421602122e-01
-1.163901578358067790e-01
-9.941414567435671867e-02
-8.062583569181444587e-02
-6.021380362908783368e-02
-3.856931277175763839e-02
-1.619115899614884113e-02
6.631157884720351170e-03
2.941755149259664415e-02
5.180961630170935472e-02
7.334025737344579410e-02
9.378892149807863121e-02
1.125892578951598055e-01
1.296404278536511800e-01
1.445203360339005205e-01
1.568915566993473454e-01
1.668517263068721168e-01
1.737788989145497287e-01
1.779685081829527338e-01
1.790554081687115717e-01
1.769566497994553567e-01
1.719951441446879725e-01
1.637521392012387667e-01
1.527670556884551945e-01
1.388888781415072160e-01
1.223256523812858154e-01
1.035050321179198374e-01
8.243043095133012477e-02
5.966339388131769450e-02
3.541140645455742586e-02
1.010323617910949268e-02
-1.583245555141538086e-02
-4.192322710290097287e-02
-6.780830690650682668e-02
-9.291416524929163590e-02
-1.167851464061450129e-01
-1.391011568475598315e-01
-1.591250094313246544e-01
-1.768711668114630597e-01
-1.916031789780498762e-01
-2.031001110454574987e-01
-2.112750734249002338e-01
-2.155047037236846319e-01
-2.162369326919284240e-01
-2.129111730113784351e-01
-2.057220170934674353e-01
-1.948917840054909534e-01
-1.802429262287960632e-01
-1.625169353480227508e-01
-1.416074844995253712e-01
-1.180672370283830097e-01
-9.236653235917052784e-02
-6.484850360801736047e-02
-3.621127136693474968e-02
-6.862387209112086328e-03
2.259187745402441161e-02
5.162495943911826757e-02
7.958444186726748582e-02
1.061873871474793840e-01
1.306768247617368095e-01
1.527584225172244625e-01
1.720553303936352418e-01
1.879573586934880081e-01
2.007414311468261325e-01
2.096138754635410995e-01
2.147701608946849250e-01
2.160930651101987399e-01
2.133025916089189289e-01
2.070705793280706308e-01
1.968950348678821793e-01
1.833607871357240404e-01
1.666193231031078970e-01
1.468211274678695166e-01
1.247252366949771762e-01
1.003196684759904700e-01
7.430030226540673688e-02
4.704009934184510966e-02
1.902317487259425066e-02
-9.196280264117701053e-03
-3.714199237108610496e-02
-6.432623079948646128e-02
-9.025704715278951018e-02
-1.143674880307866126e-01
-1.364893438190269148e-01
-1.558824542356891940e-01
-1.724982681546898822e-01
-1.858904869858789000e-01
-1.957029427546532196e-01
-2.021889555467857869e-01
-2.046954236020478990e-01
-2.036547678723622523e-01
-1.988434690004401428e-01
-1.903000575798798333e-01
-1.785833066704305971e-01
-1.634223714800843164e-01
-1.455423539046060144e-01
-1.250373425830058061e-01
-1.023026873430205597e-01
-7.796326933075453658e-02
-5.221665923585716573e-02
-2.572926589377006606e-02
1.127128828723511500e-03
2.783437637808382215e-02
5.395719088347356029e-02
7.896010931227598340e-02
1.025596190441493416e-01
1.242355128888760207e-01
1.436186202977913218e-01
1.605971095714714969e-01
1.745428347608090625e-01
1.856704454547033478e-01
1.934710418288538292e-01
1.978892117131951234e-01
1.991098902458156017e-01
1.966729432857742821e-01
1.911636259089707357e-01
1.822575725562754489e-01
1.702249177439341121e-01
1.554346568527900652e-01
1.377943551673389555e-01
1.179934551911865914e-01
9.605242409935854653e-02
7.245044789961098408e-02
4.762829069653234243e-02
2.191878118628602656e-02
-4.157430515439153318e-03
-3.017727229948904966e-02
-5.566138822329036451e-02
-8.020183591616342200e-02
-1.031937997042347011e-01
-1.244878571134007683e-01
-1.434007550862358427e-01
-1.597013291793021872e-01
-1.731406309245607233e-01
-1.831677495789026389e-01
-1.900853061117988019e-01
-1.932644720233372970e-01
-1.928945532138044983e-01
-1.889988238498491180e-01
-1.813968227247719778e-01
-1.707439599225296645e-01
-1.567743398593454129e-01
-1.400550069040713275e-01
-1.208858538606602528e-01
-9.954858789302792332e-02
-7.675719552144719127e-02
-5.271587547921240124e-02
-2.807839578450133100e-02
-3.277230378178203063e-03
2.113908402472136627e-02
4.475413372136646806e-02
6.702791389506004838e-02
8.758727872745936116e-02
1.060605212499060035e-01
1.219700113355654536e-01
1.353551808499661169e-01
1.456368891708746949e-01
1.529132595158575469e-01
1.569990513369938778e-01
1.577446039022840640e-01
1.555602676893205194e-01
1.501013244329018337e-01
1.418662987698830202e-01
1.308894333856659153e-01
1.174111498005600551e-01
1.019690407805167176e-01
8.459829342694313858e-02
6.592996337810483332e-02
4.618276703610203759e-02
2.585120355230650230e-02
5.346616794220215851e-03
-1.494761072362857379e-02
-3.457583665304199416e-02
-5.321453869352606170e-02
-7.036681084280975440e-02
-8.589250445567193915e-02
-9.925922497242127551e-02
-1.103853841614026998e-01
-1.189642815592688863e-01
-1.247502782709325742e-01
-1.278837830056532288e-01
-1.279732129004904906e-01
-1.253260058859209936e-01
-1.197949085608305819e-01
-1.115234313873601085e-01
-1.008346557502279861e-01
-8.771001063562192113e-02
-7.267711351548530874e-02
-5.584271787729735981e-02
-3.768030409106301604e-02
-1.854025962467392707e-02
1.186277845212024840e-03
2.102340275499803290e-02
4.062925816960773207e-02
5.943789186375843248e-02
7.722124901249127760e-02
9.337078277774299440e-02
1.077049092005625680e-01
1.197935255577879943e-01
1.292769940708498322e-01
1.361422632315577586e-01
1.398912552710250279e-01
1.407317234169963571e-01
1.383667685034600525e-01
1.328445666056447538e-01
1.243771560563330103e-01
1.128649415301409831e-01
9.880379045802845095e-02
8.222053314069777130e-02
6.355782814586180551e-02
4.317838356483205686e-02
2.146259045943421651e-02
-1.063747979070245320e-03
-2.400647767779576225e-02
-4.677118643613534243e-02
-6.899234348935395778e-02
-8.999993852702548036e-02
-1.095407535458961523e-01
-1.270103275995885794e-01
-1.420152174501616016e-01
-1.543609049096432706e-01
-1.634495574481468760e-01
-1.694857648661246829e-01
-1.719415337977276692e-01
-1.708755176050149593e-01
-1.663752328542008607e-01
-1.582332974734390885e-01
-1.470497591943252524e-01
-1.326338542077093174e-01
-1.154746197328444662e-01
-9.591413042410901202e-02
-7.422161539151859999e-02
-5.107886953970504351e-02
-2.672862332420770232e-02
-1.790307650353879787e-03
2.329908150481079659e-02
4.797394623329065411e-02
7.185829770352746004e-02
9.437562190522369443e-02
1.151551776638879976e-01
1.338474065673910252e-01
1.499040617527849784e-01
1.634271031571360444e-01
1.737629388991480117e-01
1.809860336266319036e-01
1.849392138600731983e-01
1.853419877162517937e-01
1.826848280932671376e-01
1.765043955155906341e-01
1.672598166670815067e-01
1.550147721433303982e-01
1.398542399395022451e-01
1.224065775124455469e-01
1.025943898390962172e-01
8.101970304952207935e-02
5.795579371828199489e-02
3.378912013233587031e-02
9.029017301142944207e-03
-1.596743177756998477e-02
-4.074044002496265970e-02
-6.486016292172729070e-02
-8.782997443439589935e-02
-1.094258911118380639e-01
-1.290027137892983955e-01
-1.464558270192615475e-01
-1.613247181703896804e-01
-1.732525980221865936e-01
-1.823553597312584373e-01
-1.880004019561614115e-01
-1.905020976927033205e-01
-1.895493154017712234e-01
-1.851166760410443701e-01
-1.775993752953785587e-01
-1.666802465401034938e-01
-1.529644299387814266e-01
-1.364341146781780645e-01
-1.174128096863275850e-01
-9.641275352292014156e-02
-7.357400152188636744e-02
-4.951299977511233741e-02
-2.453567474649379077e-02
8.576481642487698842e-04
2.623488010147187466e-02
5.107779612907539790e-02
7.505347581151963765e-02
9.762635251029316841e-02
1.183820632079508051e-01
1.371117811693514377e-01
1.531654149787134989e-01
1.666540054296501983e-01
1.769988046905848766e-01
1.840883673417160749e-01
1.879829723975955102e-01
1.882027351070276744e-01
1.852597222212345462e-01
1.787612459811319665e-01
1.689707339733383384e-01
1.561806383950271604e-01
1.403086097084002004e-01
1.220498598425599490e-01
1.013854386244444350e-01
7.884098167441006000e-02
5.484426634199396355e-02
2.974768861833521072e-02
4.126326322186152362e-03
-2.162112282242348305e-02
-4.696592244976047215e-02
-7.148559529901504783e-02
-9.457504643960110147e-02
-1.160479296021060674e-01
-1.352353494934629974e-01
-1.518940908436577364e-01
-1.657644299339052218e-01
-1.763009020853453235e-01
-1.838279957644223805e-01
-1.876909812426240665e-01
-1.880977076012597671e-01
-1.850653248831921616e-01
-1.783760549517840466e-01
-1.687537042989365466e-01
-1.558329188529867793e-01
-1.401886888220031380e-01
-1.221050717038365541e-01
-1.017605380584123975e-01
-7.992451988667820251e-02
-5.666584956188602806e-02
-3.260704682021464684e-02
-8.162306303948513309e-03
1.626118682832417006e-02
4.018925480193138999e-02
6.321223151590155132e-02
8.499328413359391599e-02
1.051531931621399740e-01
1.232964995722082430e-01
1.394210238525239176e-01
1.529639446503964217e-01
1.640270231958612102e-01
1.723618925398885948e-01
1.777443016969167955e-01
1.805716413191320591e-01
1.803193305930928525e-01
1.774330173683069112e-01
1.718190657344684791e-01
1.634640367194552524e-01
1.529342324872113856e-01
1.399164336078476123e-01
1.249654645867018521e-01
1.081615325820402262e-01
8.967396064928279120e-02
7.001603815387044683e-02
4.921750719034789778e-02
2.771631401223409452e-02
5.794258758972437029e-03
-1.626149777475249109e-02
-3.811829813184464122e-02
-5.938614120070670466e-02
-7.988840298756379188e-02
-9.916968043294824287e-02
-1.169358863740726645e-01
-1.330851996156230954e-01
-1.470192254028809820e-01
-1.588816294268716178e-01
-1.681815063471763794e-01
-1.747670902264777948e-01
-1.787801587617559862e-01
-1.796909292132055913e-01
-1.779342903209023274e-01
-1.731882757470516176e-01
-1.655538944807138368e-01
-1.553765975434220348e-01
-1.424448130635562193e-01
-1.273368066840362134e-01
-1.100476912579258920e-01
-9.090548282511209943e-02
-7.034080717231996904e-02
-4.854406662025894520e-02
-2.599617183902001166e-02
-3.027298703144895922e-03
1.996941226700020208e-02
4.262784844461666584e-02
6.445729664748184318e-02
8.529139720545186876e-02
1.045669796297824250e-01
1.220286997520469152e-01
1.374808365891492246e-01
1.503555138667538593e-01
1.608803413623646761e-01
1.684476318088776736e-01
1.730807158952461511e-01
1.747919493581542860e-01
1.731930428550061962e-01
1.688176138091675993e-01
1.612507557656744361e-01
1.508160030530256157e-01
1.377267759123609603e-01
1.219666313997463669e-01
1.041678806855166062e-01
8.431214428118058435e-02
6.290503223897046803e-02
4.031099837071238506e-02
1.690653302811812725e-02
-6.836292607797223031e-03
-3.049261361309643648e-02
-5.361125044311271237e-02
-7.579174650450015704e-02
-9.645481810066747208e-02
-1.155060531676330160e-01
-1.322499465169778010e-01
-1.465416834226090370e-01
-1.581040808335406611e-01
-1.664716585488834610e-01
-1.719733560324635535e-01
-1.739872776094808504e-01
-1.727854652664012614e-01
-1.683396284587330149e-01
-1.605376973912954752e-01
-1.500033427339652059e-01
-1.364645955984917780e-01
-1.204946555495314264e-01
-1.023198660958815620e-01
-8.219817038923729613e-02
-6.076990919048599893e-02
-3.818660580400398685e-02
-1.502141576444154802e-02
8.355217921981378248e-03
3.149955342017395771e-02
5.403902902361410604e-02
7.550730266417790548e-02
9.563011463496706721e-02
1.140279333634224013e-01
1.303061421443722223e-01
1.444880476365882627e-01
1.559892774166771745e-01
1.649550657993178460e-01
1.710949469473641016e-01
1.742233374710528415e-01
1.746909341600582088e-01
1.720107942215236552e-01
1.666533216960843222e-01
1.584891271383235267e-01
1.475891741010057490e-01
1.344536380068396264e-01
1.188797058666105633e-01
1.014413391082657490e-01
8.223633004750724451e-02
6.154426123217454636e-02
3.984069263556955232e-02
1.730215289995190586e-02
-5.628270620447739514e-03
-2.860088154454182297e-02
-5.125226821219797113e-02
-7.325617076702709007e-02
-9.411935814371646947e-02
-1.137056343909129130e-01
-1.314931272080111513e-01
-1.472084349247387014e-01
-1.607574513468702782e-01
-1.715473030281201017e-01
-1.798249896477577270e-01
-1.850842725279667478e-01
-1.872961437690028319e-01
-1.866358586884176440e-01
-1.826794487400465461e-01
-1.759959688272801082e-01
-1.663039390425855024e-01
-1.538563202646170414e-01
-1.390496936543589301e-01
-1.217978438319760603e-01
-1.027722165211678584e-01
-8.202747632992568594e-02
-5.996511173930857419e-02
-3.705466259309075916e-02
-1.353730651030210508e-02
1.011834651863102730e-02
3.354222123696792845e-02
5.641060349543691732e-02
7.834985055079113359e-02
9.892513302682037768e-02
1.180936166759241068e-01
1.352722131954020857e-01
1.503855915410424737e-01
1.632505507079866636e-01
1.734051215293021253e-01
1.812513692276071786e-01
1.861459695330634490e-01
1.882945580034345034e-01
1.877134021699796707e-01
1.840693401193468359e-01
1.780333654388845943e-01
1.691041051732444789e-01
1.576775789525610150e-01
1.439429995866499945e-01
1.278255138712909855e-01
1.099845488546896816e-01
9.028935575236295141e-02
6.916851707161003615e-02
4.695499306403179418e-02
2.387609640527661725e-02
3.567192525329443420e-04
-2.326068469463547783e-02
-4.667447114036985673e-02
-6.946234114299690288e-02
-9.119054421628498830e-02
-1.117635174059422171e-01
-1.304950381935890413e-01
-1.473331465629531822e-01
-1.618776941914510381e-01
-1.736981868724368772e-01
-1.830370592765641624e-01
-1.891631675209798358e-01
-1.923373473709406589e-01
-1.923348612305676719e-01
-1.889580886845032004e-01
-1.827167778079935856e-01
-1.731619452334780540e-01
-1.608129525311858266e-01
-1.457304594666709585e-01
-1.280557935509939460e-01
-1.083950954774404174e-01
-8.675903186608152629e-02
-6.371690713944955231e-02
-3.959897334086848186e-02
-1.479136959672880391e-02
1.023697552498228913e-02
3.505879849293488948e-02
5.932974189417727917e-02
8.256814001570240980e-02
1.043602612775830774e-01
1.245431957844551352e-01
1.424705074811983274e-01
1.581943510320620860e-01
1.712246620717373380e-01
1.813209288114551176e-01
1.886394405949078923e-01
1.925713013617260105e-01
1.935394040635011192e-01
1.911860054288513910e-01
1.855489625315851487e-01
1.769975336638344721e-01
1.652096322726247513e-01
1.507977328896886737e-01
1.336815115172558244e-01
1.141733807325426286e-01
9.272590117777007590e-02
6.946536893205351726e-02
4.495635012134985287e-02
1.949337819027419094e-02
-6.455756136009904722e-03
-3.246943309646821429e-02
-5.800669525608126431e-02
-8.277226527060126127e-02
-1.061531768978267731e-01
-1.277508534448335287e-01
-1.472898000477909641e-01
-1.640764400847145033e-01
-1.782277960001911743e-01
-1.890547476077026889e-01
-1.964679393488157899e-01
-2.004412559186392051e-01
-2.004975559025284904e-01
-1.971579491335132550e-01
-1.899794289305919426e-01
-1.792892277767870191e-01
-1.653418872917137294e-01
-1.481377439562210907e-01
-1.283987774273787075e-01
-1.061480760921191813e-01
-8.199550737833222191e-02
-5.638201908581738642e-02
-2.977266704284514676e-02
-2.748737418332258819e-03
2.420722497239537196e-02
5.053071868919865872e-02
7.577608341620002685e-02
9.928199770575740768e-02
1.209007191614570043e-01
1.399032855892883287e-01
1.560905934824015628e-01
1.691757970019529544e-01
1.786664970200675939e-01
1.848881267113566818e-01
1.872097947872295443e-01
1.859128571464410684e-01
1.809561280506020164e-01
1.722861585669015483e-01
1.605009723126156751e-01
1.453873352811784203e-01
1.275726758030605312e-01
1.072721367145148541e-01
8.490638092950286708e-02
6.107727811979379862e-02
3.609475077270349330e-02
1.063716298705066898e-02
-1.489077994436306673e-02
-3.981527243595309185e-02
-6.376281727105080621e-02
-8.607385634648308248e-02
-1.063519859357519859e-01
-1.241647530743926753e-01
-1.389709270755560000e-01
-1.507627184045035595e-01
-1.589189350110644938e-01
-1.635464665652882621e-01
-1.644013764203420269e-01
-1.614143862433713439e-01
-1.549384301618544901e-01
-1.447649418851435499e-01
-1.314711299922755594e-01
-1.151400495833360127e-01
-9.623602672605285901e-02
-7.529386324382547624e-02
-5.262955505953093027e-02
-2.897572942614212721e-02
-4.693942553936514273e-03
1.949691820224380701e-02
4.316419182317127179e-02
6.568059459531322419e-02
8.658163474917701663e-02
1.054267050546031925e-01
1.216740774655606372e-01
1.352078530530582412e-01
1.454595707513836600e-01
1.524855481493188336e-01
1.559777374409357931e-01
1.558675267311378232e-01
1.523715982296397486e-01
1.452795005084586699e-01
1.351020488486814886e-01
1.217985215173327807e-01
1.057825420650472248e-01
8.745972823046360700e-02
6.707884906189548468e-02
4.530028195921420586e-02
2.238678849953018579e-02
-1.011291532666103166e-03
-2.448910589004554827e-02
-4.747009697529042116e-02
-6.950257107104579335e-02
-9.011062286116688913e-02
-1.087705504257274747e-01
-1.252397551196062220e-01
-1.389243619984469880e-01
-1.498150278781326672e-01
-1.574383148790530762e-01
-1.616918857557303746e-01
-1.625897300614839169e-01
-1.598567841947693691e-01
-1.539265154694474114e-01
-1.445823905373771479e-01
-1.322084528574657691e-01
-1.170701031766232386e-01
-9.937668127147977759e-02
-7.976490806363573105e-02
-5.841421799623006117e-02
-3.597343179618506248e-02
-1.283579046015054237e-02
1.042764374066157407e-02
3.333898473617891156e-02
5.539818018034303737e-02
7.607815928509675807e-02
9.504064121448663194e-02
1.116860920839290450e-01
1.259601399062671989e-01
1.372854934393818449e-01
1.455640657407832883e-01
1.506504707371412455e-01
1.522638018746170219e-01
1.507561888948785178e-01
1.457865509040695007e-01
1.377286331705812605e-01
1.266736510949916517e-01
1.128221981305262411e-01
9.670695107523394340e-02
7.842099799376905933e-02
5.859566853684647358e-02
3.751455178578311234e-02
1.575532896306643116e-02
-6.239925665186912829e-03
-2.798224853966865822e-02
-4.892084741279029148e-02
-6.869486908797045599e-02
-8.666552443993602584e-02
-1.026779708150739601e-01
-1.161152520538647759e-01
-1.268029172742468624e-01
-1.344706627256255227e-01
-1.387882014171272771e-01
-1.399451089937640558e-01
-1.375626933819311393e-01
-1.319432087617457561e-01
-1.230587322820756446e-01
-1.110941790139845647e-01
-9.647627059147184658e-02
-7.930399456513723133e-02
-6.018599852880913981e-02
-3.937262537555864805e-02
-1.746585304525598292e-02
5.098235268624573546e-03
2.778576421584007250e-02
5.003584330284990833e-02
7.143207070053106400e-02
9.130274341362090706e-02
1.094265369875188909e-01
1.251304934935217605e-01
1.382252383754850322e-01
1.483291815573637429e-01
1.550834961997471784e-01
1.585799575622780511e-01
1.583801295968436107e-01
1.547665539208646079e-01
1.475871061879990287e-01
1.369919878810104130e-01
1.233272352565089602e-01
1.066394959573392642e-01
8.751688716613348351e-02
6.614712186626003909e-02
4.310081729697953778e-02
1.882083002045803477e-02
-6.164620728891775925e-03
-3.128994733739137724e-02
-5.606453543766140579e-02
-7.982346325032083079e-02
-1.022148857120027815e-01
-1.225057711551234829e-01
-1.404762528984250247e-01
-1.555429633468308204e-01
-1.673432323524255694e-01
-1.757755956376880757e-01
-1.803182653911711841e-01
-1.812446120844675712e-01
-1.781797906619452809e-01
-1.712988851481722086e-01
-1.608091422387045721e-01
-1.467102041139206614e-01
-1.296368689424533538e-01
-1.096427643834357868e-01
-8.735133623184582197e-02
-6.318480013069061041e-02
-3.766742390835634002e-02
-1.143122951244976426e-02
1.504381946830268824e-02
4.106371920185852842e-02
6.619775462740341843e-02
8.969976020426549679e-02
1.113210759294986640e-01
1.303720715070914027e-01
1.465097293412692681e-01
1.594882893615860164e-01
1.687482313013699831e-01
1.745771332153147060e-01
1.763887047827679688e-01
1.743944492427678405e-01
1.686249909997632745e-01
1.590082981207246449e-01
1.461813729075051860e-01
1.299741593045243004e-01
1.110254221487805837e-01
8.962161193433534900e-02
6.620136262333183030e-02
4.142526738490927285e-02
1.562693120351887899e-02
-1.047963823944348533e-02
-3.646960621876031011e-02
-6.164700330819725821e-02
-8.564218859193115096e-02
-1.077938858319237303e-01
-1.277058071598784761e-01
-1.449962360892579072e-01
-1.590977449263414334e-01
-1.701048711465459051e-01
-1.773733008774473485e-01
-1.810498646194284578e-01
-1.809710528464040236e-01
-1.769949093684298758e-01
-1.696312423102386280e-01
-1.585681421883063102e-01
-1.444128616585558522e-01
-1.272898255734958850e-01
-1.075117025387288816e-01
-8.574133911074965919e-02
-6.211168661614330233e-02
-3.733508369888774436e-02
-1.175704133584493105e-02
1.408374980564328083e-02
3.969642138034336354e-02
6.460465052078456782e-02
8.838900168138806579e-02
1.106113018067006182e-01
1.308097867310615003e-01
1.488561919155097502e-01
1.641440697633236856e-01
1.767462890356911731e-01
1.862538173379604534e-01
1.924844165453318823e-01
1.956573007054003277e-01
1.952712978216070427e-01
1.918190976733833986e-01
1.850398592096260952e-01
1.750766869843137230e-01
1.623565995846604770e-01
1.466866598993362969e-01
1.287305048147514841e-01
1.085019464271061024e-01
8.638538388338684593e-02
6.286279753226219069e-02
3.814818932452031242e-02
1.278726570062697909e-02
-1.286509272541712379e-02
-3.836421468128115020e-02
-6.330501364057553038e-02
-8.715086782034708879e-02
-1.097059037479193033e-01
-1.303579430381944793e-01
-1.488267475536775020e-01
-1.648972581632217049e-01
-1.779637693671384524e-01
-1.882802309421567899e-01
-1.952091207273271012e-01
-1.988041544256839432e-01
-1.991128597906162701e-01
-1.957576731083650323e-01
-1.893607680691930806e-01
-1.795319086386801821e-01
-1.666685045283773092e-01
-1.510664040370814920e-01
-1.327496361554927617e-01
-1.124460067433117327e-01
-9.018089451857064232e-02
-6.650637089236766109e-02
-4.184914704080505699e-02
-1.659427980812561154e-02
8.762691588851789781e-03
3.378369664920327642e-02
5.804934582560661305e-02
8.115516578949427684e-02
1.025568405552684248e-01
1.222180249120650430e-01
1.394406663916182842e-01
1.541555086192875901e-01
1.660961574314332445e-01
1.748270483781635409e-01
1.807319363852365190e-01
1.831553880261084233e-01
1.824100413471627380e-01
1.784344320405230611e-01
1.711079160476963734e-01
1.610384450775672049e-01
1.479012127752367400e-01
1.322566200276244497e-01
1.142719863110719380e-01
9.419931599282804768e-02
7.262891889070863249e-02
4.971157184008659358e-02
2.601822790980592992e-02
1.910951798002102908e-03
-2.211258661587825469e-02
-4.567820307332032259e-02
-6.824395134456132106e-02
-8.947940680216689979e-02
-1.089444844567556692e-01
-1.261632291611974599e-01
-1.410881945230582635e-01
-1.530749870209701380e-01
-1.621979567170205860e-01
-1.681179726730169244e-01
-1.706544714547015840e-01
-1.700845661732354186e-01
-1.660037923628032430e-01
-1.588791260750884449e-01
-1.486301245193543397e-01
-1.354892224483848495e-01
-1.199325206794222276e-01
-1.019971132217814547e-01
-8.232621533612830000e-02
-6.113691440123886212e-02
-3.894720848468255503e-02
-1.621606808479580941e-02
6.629641090152904592e-03
2.910051569545319544e-02
5.078482373607767775e-02
7.117626960431690242e-02
9.002777504403011721e-02
1.067693302546404155e-01
1.213114202288231858e-01
1.332187498215097743e-01
1.422710411089589400e-01
1.484969331652274405e-01
1.514753481530731194e-01
1.515381768091733083e-01
1.483997808696452814e-01
1.422372380826563143e-01
1.332941203189212942e-01
1.215129191392975150e-01
1.074615995954203984e-01
9.114170125928733324e-02
7.304254536493526295e-02
5.350620561366029038e-02
3.288461017371305251e-02
1.169873512031827101e-02
-9.724882781634663909e-03
-3.082560337816738633e-02
-5.129122601943253423e-02
-7.052575762669226200e-02
-8.831040546250176759e-02
-1.041172179655912022e-01
-1.176088751292287682e-01
-1.286261890900901039e-01
-1.366470928066751966e-01
-1.418737232723692454e-01
-1.438370182384365314e-01
-1.426217028869040948e-01
-1.382994767897941513e-01
-1.307189648787969172e-01
-1.204102927317518695e-01
-1.072190694041832149e-01
-9.162013320903958369e-02
-7.389105095230193154e-02
-5.434189288840281934e-02
-3.354799984591959328e-02
-1.177192768999820588e-02
1.038459303496794273e-02
3.256319517732773894e-02
5.415862786905431547e-02
7.486995013586902892e-02
9.412266115286434254e-02
1.115291655284452177e-01
1.268080697676265411e-01
1.393892959583833691e-01
1.493867741227171697e-01
1.562043679201568780e-01
1.598762859049125407e-01
1.603148590836980525e-01
1.572841282957519737e-01
1.512337388747045097e-01
1.418519362792433625e-01
1.295686291864022455e-01
1.145329968666315007e-01
9.695669668306769462e-02
7.740540537888894457e-02
5.601841738242739621e-02
3.339273849478577305e-02
9.878860226690461266e-03
-1.398759094804889747e-02
-3.777084295157233373e-02
-6.094250412950104334e-02
-8.305512965029526740e-02
-1.036775884683076854e-01
-1.222508378109814220e-01
-1.386507320038395941e-01
-1.522306026160977765e-01
-1.629455274488094685e-01
-1.704647975724891129e-01
-1.745229106852806966e-01
-1.753638784661936678e-01
-1.725595953726630771e-01
-1.665210758665565394e-01
-1.571783741435077708e-01
-1.447064858279127064e-01
-1.296122842290784727e-01
-1.118920525375496633e-01
-9.220559784771645284e-02
-7.077809989449668215e-02
-4.809805482624207595e-02
-2.468719652100126449e-02
-9.249762361614732864e-04
2.265688402113717748e-02
4.564760633853415239e-02
6.755444540336423553e-02
8.809194554172805613e-02
1.067115143180393244e-01
1.233120592461900422e-01
1.374501425104156793e-01
1.488935965866576838e-01
1.576842281657730160e-01
1.633362084593732166e-01
1.662164198056104714e-01
1.659726932247820308e-01
1.627114026541162106e-01
1.567175243779078131e-01
1.477373307051647044e-01
1.363958745526915317e-01
1.225400383649443148e-01
1.065236043068900629e-01
8.872939234647020390e-02
6.922741561158435308e-02
4.860412613590503472e-02
2.700355600581838544e-02
4.856445921983670866e-03
-1.746852390316849801e-02
-3.958904575342518661e-02
-6.119866281010642034e-02
-8.184057280523054922e-02
-1.011958787970642509e-01
-1.189978635265548645e-01
-1.347036970625756502e-01
-1.484191347164497965e-01
-1.595185690030073711e-01
-1.679567140660883084e-01
-1.736603963135228135e-01
-1.761716756654295724e-01
-1.760005436092602626e-01
-1.726070492699888215e-01
-1.662716752390190900e-01
-1.571657279973607269e-01
-1.451140093342220827e-01
-1.308524056054872209e-01
-1.141470011134455009e-01
-9.548171368515045998e-02
-7.522096820232695991e-02
-5.351100044205512468e-02
-3.099371210264944762e-02
-7.831048890424283093e-03
1.554719378141983244e-02
3.872157592640057544e-02
6.134586196080524245e-02
8.314868008528425447e-02
1.036450317753955241e-01
1.226844390864818002e-01
1.399232645307808554e-01
1.549864389199687165e-01
1.680464608756319644e-01
1.784694603750698327e-01
1.864428206888960049e-01
1.917654493525229320e-01
1.941631088587699172e-01
1.941320694043548456e-01
1.910952369734786327e-01
1.854760658014998898e-01
1.772447730511907404e-01
1.663043213143650945e-01
1.532598527925734533e-01
1.377960233049959349e-01
1.203923700137019825e-01
1.012177010622626050e-01
8.037921680229132004e-02
5.840101174645800919e-02
3.537075900072994550e-02
1.165632930808818690e-02
-1.235983090205441948e-02
-3.640274102814528012e-02
-6.013875492688575131e-02
-8.308526529373197467e-02
-1.051057049956500844e-01
-1.256644943975699924e-01
-1.444453923062861689e-01
-1.613608909143990078e-01
-1.757336097093885052e-01
-1.877308760250157582e-01
-1.968347814404553531e-01
-2.028752945554774811e-01
-2.060366978446063480e-01
-2.057610219232551829e-01
-2.025144985345139204e-01
-1.960113703875476510e-01
-1.863642241174358061e-01
-1.739906223400926044e-01
-1.587062898827691915e-01
-1.411353136784662121e-01
-1.213506582418738544e-01
-9.971181309197854614e-02
-7.672480393501523999e-02
-5.262661762277834332e-02
-2.792954147502368922e-02
-3.031879089620048706e-03
2.166444769240841173e-02
4.575870471244043725e-02
6.874263514332590308e-02
9.046608318052981601e-02
1.103450709677100544e-01
1.281617639437685197e-01
1.437381862075982064e-01
1.565294600153345761e-01
1.668160156883730094e-01
1.740081691911699591e-01
1.781902845889097864e-01
1.794086099766435127e-01
1.773138376611367306e-01
1.724775426566381165e-01
1.645073565074890443e-01
1.537672178424885350e-01
1.404703504087117527e-01
1.246306121174398651e-01
1.068588491907677129e-01
8.714718556253778226e-02
6.600505187403496454e-02
4.375318276533168849e-02
2.079919441227423560e-02
-2.449182853552833716e-03
-2.554881360297139858e-02
-4.804934243591735266e-02
-6.959736155839008065e-02
-8.956063336680319953e-02
-1.078958608579951017e-01
-1.238698174297256094e-01
-1.373150298436901784e-01
-1.479724051272514607e-01
-1.553251547803002064e-01
-1.597096343373028415e-01
-1.604827330447241573e-01
-1.578893313100900586e-01
-1.519024320554884233e-01
-1.424387564362104286e-01
-1.300721861992228390e-01
-1.146172421020756338e-01
-9.665378814029379484e-02
-7.642819474113987654e-02
-5.435547777978166906e-02
-3.100388907920514914e-02
-6.730419540220855534e-03
1.783415376315866663e-02
4.228014349798209226e-02
6.593126508495622540e-02
8.848921544359322766e-02
1.092681420367737077e-01
1.279288135701313611e-01
1.440899967938809034e-01
1.571916117690983494e-01
1.673385481132360630e-01
1.738777727747487512e-01
1.769481807872225476e-01
1.763648001588367376e-01
1.719768760566662558e-01
1.642277008447092512e-01
1.528228791412788168e-01
1.383074123617274442e-01
1.207827191182159199e-01
1.005710886230840040e-01
7.824567269231580413e-02
5.401510482121829604e-02
2.854272811521013642e-02
2.202096446728141199e-03
-2.440115588426047810e-02
-5.081011458983783480e-02
-7.641644407904851777e-02
-1.007912847597440820e-01
-1.234131459781152851e-01
-1.437290941777067121e-01
-1.615800981190778085e-01
-1.762596009240575967e-01
-1.878124178471275718e-01
-1.957762645687216863e-01
-1.999569220333884956e-01
-2.005526827783039034e-01
-1.971120890734678888e-01
-1.901561937734781993e-01
-1.794915972491991640e-01
-1.653881466026265734e-01
-1.483118616272623425e-01
-1.282791505845166657e-01
-1.060275153198077247e-01
-8.173133247258106138e-02
-5.595721281328752683e-02
-2.922902314486566788e-02
-1.994090117895919168e-03
2.518827888709671003e-02
5.183143670399953384e-02
7.740365977855021007e-02
1.015388279613841371e-01
1.235923643505282832e-01
1.434807508507959795e-01
1.605721095833080592e-01
1.746582048707452650e-01
1.856405715258763189e-01
1.929719161296795937e-01
1.970800801426505489e-01
1.974094598699208392e-01
1.941736388448400130e-01
1.875307236735396232e-01
1.772674627621683707e-01
1.641052006985245504e-01
1.477929192692227778e-01
1.288573785386929460e-01
1.076401191113093569e-01
8.436230033834135611e-02
5.970405487798219335e-02
3.387312766775080197e-02
7.460504709018545011e-03
-1.910855451441051400e-02
-4.526985300155761394e-02
-7.068941166828537903e-02
-9.473101420909491033e-02
-1.170301506063609887e-01
-1.372087344030726574e-01
-1.546356827464552830e-01
-1.694572173200278031e-01
-1.808826493743015129e-01
-1.889704456730517401e-01
-1.935325738248532268e-01
-1.942003653049342582e-01
-1.915218648723484574e-01
-1.849428570624580548e-01
-1.749429476932424787e-01
-1.616168157042834896e-01
-1.450446017515036878e-01
-1.259484987442017478e-01
-1.042652097060211003e-01
-8.067507194039708063e-02
-5.552680895058872967e-02
-2.927923220906614166e-02
-2.519079902033427576e-03
2.433162430134955256e-02
5.073951806835108602e-02
7.624199323376418258e-02
1.002693338852572724e-01
1.226124779445439406e-01
1.425838125156021485e-01
1.600697497810754100e-01
1.746580259283413428e-01
1.859572644690994092e-01
1.941856328374586826e-01
1.986939697139024907e-01
1.998363313639160421e-01
1.973809906892764476e-01
1.912846085292447262e-01
1.820552763020002185e-01
1.693542716358115985e-01
1.538236683964197826e-01
1.354984190690555756e-01
1.146817576045167097e-01
9.195051044589047651e-02
6.742302217671186648e-02
4.172982474758307747e-02
1.519888963053883657e-02
-1.167515910218541730e-02
-3.844753503351366897e-02
-6.458804360766956520e-02
-8.976037668312419893e-02
-1.134157398339093459e-01
-1.351115727398172761e-01
-1.546628504089810896e-01
-1.713641967498117369e-01
-1.853288918225013959e-01
-1.959729037526669881e-01
-2.031353815151474007e-01
-2.069333021500238678e-01
-2.068193864629383483e-01
-2.033253663701192204e-01
-1.960773351197836467e-01
-1.853010408382466667e-01
-1.713686391962462308e-01
-1.541581110105743613e-01
-1.343985659015435319e-01
-1.121120868224098621e-01
-8.781360343106792143e-02
-6.199207945945628406e-02
-3.500311950106993475e-02
-7.434770024472792116e-03
2.027352863835174546e-02
4.758587684829235220e-02
7.407727213535003630e-02
9.909727685427832666e-02
1.224854654450009961e-01
1.435349893936321841e-01
1.619744373860663722e-01
1.775758642996363990e-01
1.897061533134873357e-01
1.987067682222461162e-01
2.038701200918754952e-01
2.053399052454119578e-01
2.031348202475304898e-01
1.969438940634268276e-01
1.874476662646245573e-01
1.742446658301540774e-01
1.578480457712887475e-01
1.385129077770318462e-01
1.164195574553618107e-01
9.228648112492865430e-02
6.624314199480685339e-02
3.895186442948750383e-02
1.084551178131554217e-02
-1.747126684972916122e-02
-4.554074977279898295e-02
-7.271207234510257411e-02
-9.848841047877962551e-02
-1.223920194817223195e-01
-1.437221443606490900e-01
-1.624331529752529590e-01
-1.777014093896952251e-01
-1.894649746924387257e-01
-1.974054474533455950e-01
-2.011458363389045378e-01
-2.010659467934902134e-01
-1.966335061050468180e-01
-1.883055990248957423e-01
-1.760928921508064793e-01
-1.601855713325177621e-01
-1.412290638961101186e-01
-1.192663523381384261e-01
-9.506829336517230722e-02
-6.897963142887730825e-02
-4.164547447454014506e-02
-1.367842725334189602e-02
1.437037399140023153e-02
4.183090851309118063e-02
6.819774510832921077e-02
9.276874016342528950e-02
1.152486713456065681e-01
1.349234550587614101e-01
1.515957302490083813e-01
1.648359558097297617e-01
1.743012848019238614e-01
1.801153126810358107e-01
1.817966943119780354e-01
1.797150936115858300e-01
1.736939055323577508e-01
1.639361490862419335e-01
1.508690485562750316e-01
1.344891752229918080e-01
1.155140169827734986e-01
9.409063422674029953e-02
7.084765067653611692e-02
4.628719453201882161e-02
2.087858877869835927e-02
-4.702491145659321026e-03
-3.003811945665123273e-02
-5.442055423531767799e-02
-7.749751373444901947e-02
-9.857957977362069579e-02
-1.173881942540059009e-01
-1.334149156131561598e-01
-1.462630930341764779e-01
-1.558731908288214785e-01
-1.617146805514590724e-01
-1.640502524860786848e-01
-1.625312640305298650e-01
-1.572952782795262738e-01
-1.485884408861939399e-01
-1.363374514166681706e-01
-1.211954552010916231e-01
-1.031635161637966813e-01
-8.283012659482483220e-02
-6.061311148649160124e-02
-3.693428995722408681e-02
-1.245620018728896966e-02
1.245410308582005354e-02
3.710415417920566450e-02
6.111760296904024392e-02
8.380748807497168107e-02
1.048864503080259025e-01
1.237733198649211552e-01
1.400582280661110679e-01
1.535691588588086465e-01
1.637000846727763026e-01
1.706912257338436545e-01
1.739931700978781248e-01
1.736821371963177540e-01
1.698385035494636708e-01
1.622291085771777053e-01
1.514746874117831044e-01
1.373178147196626453e-01
1.202567415220115454e-01
1.005811789484943597e-01
7.854833832946117589e-02
5.482202755325246701e-02
2.961379287652590730e-02
3.570425181807806991e-03
-2.290030350263322356e-02
-4.916259721340973665e-02
-7.483980247428970167e-02
-9.927793848932127407e-02
-1.220218736346664196e-01
-1.426763259181460519e-01
-1.605506343873079056e-01
-1.756995558928978185e-01
-1.873430815479589506e-01
-1.954618715721498090e-01
-1.998379575450852930e-01
-2.001013134834030427e-01
-1.967084491621248210e-01
-1.891687768657148716e-01
-1.779352657499169710e-01
-1.630934594960128381e-01
-1.448031166599841324e-01
-1.237210911476246955e-01
-9.991371632401396807e-02
-7.408081999859833511e-02
-4.660522522116933297e-02
-1.807982746688285847e-02
1.093838584755429943e-02
3.986167607241164479e-02
6.812587364555672265e-02
9.519669219262427706e-02
1.203881464573205995e-01
1.434893724560309392e-01
1.636888660864851686e-01
1.808729879964063036e-01
1.945611362459322979e-01
2.043468282312564943e-01
2.104303158066790636e-01
2.121676262707358207e-01
2.099647123279043404e-01
2.035819035310188485e-01
1.931018659573034424e-01
1.790224666795596220e-01
1.611767369987291976e-01
1.402972250898872342e-01
1.165085391196280518e-01
9.033933214158818004e-02
6.237986011512741680e-02
3.302620142826651062e-02
2.983502299423623771e-03
-2.726385270046910447e-02
-5.702253270946255892e-02
-8.583397059558944830e-02
-1.129376619720302011e-01
-1.380170066149302710e-01
-1.604030423067065447e-01
-1.796242363487162708e-01
-1.955357408258267538e-01
-2.074037499867022738e-01
-2.154974628875452880e-01
-2.192528329014468980e-01
-2.186985273967941845e-01
-2.140716385591932835e-01
-2.050306659448012936e-01
-1.923375672568890526e-01
-1.757855276648737086e-01
-1.558915376083821469e-01
-1.331688333135355173e-01
-1.077967637855085092e-01
-8.064937231934693473e-02
-5.195607418065778527e-02
-2.241103574752090211e-02
7.436961903246275263e-03
3.703497146798429007e-02
6.586491029475272097e-02
9.335639174406101803e-02
1.190397308197917448e-01
1.425534675870832602e-01
1.632542156666701438e-01
1.812485153979351005e-01
1.958137024108795587e-01
2.069422160185363235e-01
2.145449507762220154e-01
2.181492887385666490e-01
2.184058838531995339e-01
2.146709591676756457e-01
2.073660767193771792e-01
1.966376297174491361e-01
1.823533031832232920e-01
1.653586304103433768e-01
1.453517546329837762e-01
1.229569202144576989e-01
9.849737445906658895e-02
7.224221434162314548e-02
4.484867946285064910e-02
1.656564376116687054e-02
-1.205532732612957236e-02
-4.056077962658621860e-02
-6.838957260212630285e-02
-9.525296514349912425e-02
-1.204304319814046287e-01
-1.436584440230700976e-01
-1.644554077570007378e-01
-1.822400802535899256e-01
-1.971377788459938996e-01
-2.083020266047506397e-01
-2.158943337709521293e-01
-2.195954249006223380e-01
-2.191341123536471591e-01
-2.149991443820860049e-01
-2.066602481133343883e-01
-1.946907402096161865e-01
-1.791105693590837600e-01
-1.601351946269568005e-01
-1.384469635808653898e-01
-1.140896263068821304e-01
-8.781245740514065368e-02
-5.998542479041335529e-02
-3.118139891017857046e-02
-1.996625019909381571e-03
2.702949456709446974e-02
5.535166841011179839e-02
8.241766511717174559e-02
1.076457117221966686e-01
1.307731633239327118e-01
1.510787892701452861e-01
1.685111350302917754e-01
1.825568499323564631e-01
1.929528028324089539e-01
1.998380963771997920e-01
2.026594168092999970e-01
2.018821804025324740e-01
1.972098147610698016e-01
1.888271831442429605e-01
1.771586907730029470e-01
1.620571539777403425e-01
1.442667710663214087e-01
1.238129367093403488e-01
1.012222634180764413e-01
7.700487654151905170e-02
5.146807146771764652e-02
2.527935903993272504e-02
-1.203552258047690948e-03
-2.738188521340004233e-02
-5.284281164114662532e-02
-7.698589458263005447e-02
-9.952116409406991382e-02
-1.198801034446539682e-01
-1.376995971562030574e-01
-1.527894183499582392e-01
-1.645696955370627990e-01
-1.732509813197232740e-01
-1.782972025872337496e-01
-1.797830177850621713e-01
-1.777905511223559221e-01
-1.720745641141848692e-01
-1.632377459744752957e-01
-1.510356046900860061e-01
-1.359618687952005023e-01
-1.183244073714394273e-01
-9.834902974184459024e-02
-7.672951434878699795e-02
-5.364301328293072380e-02
-2.975102292827278005e-02
-5.449784889021314083e-03
1.869042075265900382e-02
4.223622632979179281e-02
6.466580913552268106e-02
8.550380983128635926e-02
1.044304140002512704e-01
1.208440644130882591e-01
1.347779158768994401e-01
1.456084883730508484e-01
1.532968466656792761e-01
1.577112755802829724e-01
1.585468087964568562e-01
1.562391608933203224e-01
1.503800765505374226e-01
1.413798472695839137e-01
1.293325252335447706e-01
1.144131265107142248e-01
9.719615523567709525e-02
7.773986822331563351e-02
5.669115285504194857e-02
3.434191302865619022e-02
1.127381681280636982e-02
-1.205933343682585868e-02
-3.514636856951069976e-02
-5.742266836577120115e-02
-7.850459569205212040e-02
-9.771104020047433059e-02
-1.148927884300516011e-01
-1.293676490253523881e-01
-1.409475588713494099e-01
-1.493377243013907507e-01
-1.541525062410571412e-01
-1.556054368812273547e-01
-1.532527554057832309e-01
-1.474012087906856894e-01
-1.380203498804059570e-01
-1.252666960127062079e-01
-1.096135054205515102e-01
-9.113545513007213772e-02
-7.047555180402562125e-02
-4.791238761965913029e-02
-2.406457043997453638e-02
5.774554121359132264e-04
2.545507294931441400e-02
4.996066605330698462e-02
7.363429385648345704e-02
9.575930137021759769e-02
1.160809684793058238e-01
1.338713965335549538e-01
1.489148381038526980e-01
1.607907404211245395e-01
1.690981406328250780e-01
1.739332444383776821e-01
1.747983786453367050e-01
1.719900362198719945e-01
1.653305292826344475e-01
1.549538839034169668e-01
1.412397190687951498e-01
1.241928188569514785e-01
1.044475899233875404e-01
8.217946484169474930e-02
5.797432225692875085e-02
3.231300164169381706e-02
5.716336048634404476e-03
-2.119789605654063408e-02
-4.793299188947049150e-02
-7.378271512814980893e-02
-9.836992647293696379e-02
-1.209213268246494694e-01
-1.411835088262313465e-01
-1.585370597392761760e-01
-1.725648181476741316e-01
-1.831560511385094125e-01
-1.897059436629786600e-01
-1.924890258444386104e-01
-1.910648729954071978e-01
-1.855638079317016298e-01
-1.761987283554493910e-01
-1.628755694885290484e-01
-1.462703361876845909e-01
-1.263657762484393654e-01
-1.037774851002695176e-01
-7.894979628894868706e-02
-5.235260472651404040e-02
-2.469060431448033555e-02
3.591940061216103430e-03
3.175748288428542621e-02
5.933846117170055168e-02
8.556729044062172385e-02
1.101230433623564542e-01
1.322894527874755033e-01
1.516478050050982795e-01
1.679155229133164062e-01
1.804397760279300433e-01
1.894797951671420844e-01
1.943603217763328894e-01
1.952247835845942192e-01
1.920794810569320110e-01
1.847193926183943458e-01
1.738296690994768912e-01
1.591017653604644977e-01
1.411527027464191675e-01
1.202622619371752632e-01
9.676257906753432669e-02
7.139990668976792243e-02
4.440194070693664896e-02
1.651644136823104958e-02
-1.181142585006478285e-02
-3.991041222048108406e-02
-6.731433202234438085e-02
-9.337468981326402240e-02
-1.176112033730438156e-01
-1.395815217573772027e-01
-1.586413516856463035e-01
-1.747976649221099632e-01
-1.873056148075616378e-01
-1.962089255337535199e-01
-2.012463013619495700e-01
-2.021387459359481609e-01
-1.993430830238851204e-01
-1.923872936373281772e-01
-1.818199192590053692e-01
-1.676753897136574467e-01
-1.501652879123728246e-01
-1.299682290571017029e-01
-1.070993668157575462e-01
-8.231198690928898110e-02
-5.592214332165290624e-02
-2.847776209692476357e-02
-5.549197443571740607e-04
2.737961922059278796e-02
5.477807840354603774e-02
8.116027000444170358e-02
1.059533148416157977e-01
1.289183154794917852e-01
1.493603594105237797e-01
1.672093925376064716e-01
1.819718272954657101e-01
1.933295344199593979e-01
2.014184621368631800e-01
2.056178584255508035e-01
2.063425828450163868e-01
2.032468270437968183e-01
1.964032259616701470e-01
1.862083529313350305e-01
1.723966377161330610e-01
1.556539865483641538e-01
1.359426696096138754e-01
1.136906444942705763e-01
8.939469839642089077e-02
6.329229687031534546e-02
3.603067175806512479e-02
7.967131895811052633e-03
-2.031013637461900889e-02
-4.835642933240194563e-02
-7.552020327832935365e-02
-1.014806136227602990e-01
-1.255739370910389230e-01
-1.473483317980116558e-01
-1.665493838133379756e-01
-1.824327475450849556e-01
-1.951673485142925712e-01
-2.040574131728664919e-01
-2.090521215844020619e-01
-2.101862119881757751e-01
-2.070174444910897749e-01
-2.001621939371932002e-01
-1.892272051297360647e-01
-1.746364641149484587e-01
-1.567173792880999228e-01
-1.355693518092866423e-01
-1.119878500182436704e-01
-8.608703849367324579e-02
-5.856411237846891049e-02
-2.990950399799886805e-02
-6.984814745530365521e-04
2.849081964018823632e-02
5.707702569866190956e-02
8.447433355357780727e-02
1.102341705655991988e-01
1.336243788257254206e-01
1.545872822322085227e-01
1.723228713869759121e-01
1.866882500201406392e-01
1.974419570318288741e-01
2.040846991098186070e-01
2.070737695640512410e-01
2.057659268542314512e-01
2.005375026896668023e-01
1.914240952488348024e-01
1.784150430257250841e-01
1.622227193766758724e-01
1.426792143031424542e-01
1.204872029903519826e-01
9.594421691913102013e-02
6.952568988310781073e-02
4.188619434937174146e-02
1.341436376195553892e-02
-1.519808647612319596e-02
-4.347925968327356894e-02
-7.072270654581136462e-02
-9.657130272308342422e-02
-1.202854473219990422e-01
-1.415205619079086818e-01
-1.598030289952112604e-01
-1.745961053427763643e-01
-1.859529886245935848e-01
-1.932013347000573478e-01
-1.965357871742825502e-01
-1.957034604774330888e-01
-1.906728743922659897e-01
-1.818685716743966285e-01
-1.690794527163483330e-01
-1.529661482645790493e-01
-1.336385078869855580e-01
-1.116140316023380707e-01
-8.748594332911396876e-02
-6.161491899419441198e-02
-3.478215975467197074e-02
-7.408072789762798482e-03
1.974577478358519045e-02
4.620679082889209144e-02
7.128284819141880724e-02
9.450514833895218292e-02
1.153593079129236754e-01
1.332985622005334603e-01
1.481797046509019111e-01
1.593958640907543467e-01
1.670359062940478534e-01
1.707357746998055537e-01
1.704799156562397666e-01
1.664676979579016169e-01
1.585203378283012166e-01
1.472026348563993947e-01
1.324686218248474767e-01
1.148407172067066329e-01
9.471970727512626920e-02
7.246209968882288965e-02
4.878250697329172825e-02
2.399411396788761475e-02
-1.126307069289622653e-03
-2.616940476489493239e-02
-5.042571704222723050e-02
-7.341459550895565456e-02
-9.459407465104510693e-02
-1.133614459487610471e-01
-1.294776791042054065e-01
-1.422801535274354767e-01
-1.517764380880512465e-01
-1.574800294712798143e-01
-1.593121095478335081e-01
-1.573181872810300586e-01
-1.512881140988249495e-01
-1.417105092003661526e-01
-1.284535786218511111e-01
-1.120225461567824488e-01
-9.273506559899155621e-02
-7.098746675139241957e-02
-4.746037723710630485e-02
-2.249236070862592474e-02
3.125254206283595293e-03
2.896689304780128427e-02
5.424679461883069598e-02
7.851512382531056211e-02
1.011187654141596504e-01
1.214621174342690457e-01
1.392375750608218499e-01
1.537176689530327656e-01
1.649673156689052678e-01
1.723495177219562524e-01
1.758163870617771574e-01
1.753296261531486766e-01
1.706329307473435364e-01
1.622382144614858412e-01
1.498906048049940265e-01
1.340936563200784137e-01
1.150962038855409819e-01
9.324980513986297348e-02
6.921136927639309766e-02
4.327424657302064714e-02
1.618542228978203656e-02
-1.161903845285050529e-02
-3.938176906600643346e-02
-6.664199090914901813e-02
-9.268769572316420957e-02
-1.169580521020019970e-01
-1.390040163772405801e-01
-1.580847427083067469e-01
-1.741521957615063676e-01
-1.864426705973675769e-01
-1.949021901573572690e-01
-1.992685093037540045e-01
-1.992367879507160044e-01
-1.951834087593545264e-01
-1.867166819637944286e-01
-1.743306188571177029e-01
-1.580957553401292626e-01
-1.383215092632684440e-01
-1.156168368506351185e-01
-9.019509294942720801e-02
-6.282073859060471888e-02
-3.389609702953177983e-02
-4.163659919511342178e-03
2.583937330893476547e-02
5.539745687661623563e-02
8.391802373890078215e-02
1.108257748894988515e-01
1.353738882917907005e-01
1.573454482907583052e-01
1.758962313362957830e-01
1.909439621789709718e-01
2.019814103828750929e-01
2.086772717271683231e-01
2.112052598361024991e-01
2.090351868100843447e-01
2.026410138205837208e-01
1.918158892627469803e-01
1.768299530141886899e-01
1.581430790390023766e-01
1.358319021600884191e-01
1.106757141905167774e-01
8.290634457445758554e-02
5.325929701116721704e-02
2.228224394952288412e-02
-9.352206641561056077e-03
-4.096743529733967715e-02
-7.193721173825115556e-02
-1.014581390276666495e-01
-1.291177973120156974e-01
-1.539905560000802698e-01
-1.758767173603695000e-01
-1.940226425181604264e-01
-2.080229636993119191e-01
-2.177858826540521042e-01
-2.226446726458042868e-01
-2.230211246059300434e-01
-2.184142444304581210e-01
-2.090763412435979740e-01
-1.952914594342319288e-01
-1.770288778956730646e-01
-1.551316043728938054e-01
-1.296270217100625732e-01
-1.012943189189279836e-01
-7.066687875443261602e-02
-3.835941745410742509e-02
-5.175027219922578858e-03
2.831804876715693364e-02
6.126948092056005990e-02
9.313990992215748221e-02
1.230202416510610686e-01
1.505975361116406175e-01
1.750114476762935078e-01
1.958357212494999389e-01
2.127477952253796212e-01
2.250372433233436276e-01
2.330491323867872333e-01
2.360235930135104465e-01
2.342032453420172800e-01
2.276005295218970215e-01
2.160957604200983151e-01
2.004606999664650946e-01
1.804591167771836813e-01
1.568640562019726348e-01
1.300236838721015031e-01
1.004659733138825173e-01
6.901791813643254336e-02
3.609432822383629169e-02
2.589343710852287650e-03
-3.093684264739349210e-02
-6.362129399881211178e-02
-9.493986240834995094e-02
-1.240647470511387906e-01
-1.504618392590759690e-01
-1.735874551732460302e-01
-1.927604571144412304e-01
-2.079658976126369518e-01
-2.184454796314711233e-01
-2.243295929789608789e-01
-2.253445481774338510e-01
-2.214147332568953963e-01
-2.130141047098404461e-01
-1.998966659810257895e-01
-1.828050961020274978e-01
-1.618743348770320667e-01
-1.376896585220059865e-01
-1.109627694197331538e-01
-8.207646400314272395e-02
-5.197263550632114093e-02
-2.111536424892435093e-02
9.614939388481680282e-03
3.963286756737172123e-02
6.819799503293255682e-02
9.470441922424099879e-02
1.186046479638216411e-01
1.392655785483535302e-01
1.564950584431744618e-01
1.696532429480783200e-01
1.787938629607198626e-01
1.835493904669462939e-01
1.839053029761962832e-01
1.800956551493620439e-01
1.719449820330264112e-01
1.600974551871671148e-01
1.445249866001199479e-01
1.258240375144013268e-01
1.044784345529624903e-01
8.085872771773006118e-02
5.580969463019913590e-02
2.964518888177092304e-02
3.217962084313685800e-03
-2.299751655647985782e-02
-4.831102132523562576e-02
-7.214782009485964931e-02
-9.401097436558064624e-02
-1.132811832372320748e-01
-1.297137232003075513e-01
-1.427082173481357685e-01
-1.522572760238537770e-01
-1.579454885874929937e-01
-1.597350791699360673e-01
-1.577070151117022645e-01
-1.517088874079718375e-01
-1.422665166656187918e-01
-1.292807540150459622e-01
-1.132968157984868274e-01
-9.465339762775508425e-02
-7.373492992808175495e-02
-5.126118483532443593e-02
-2.751640632439289469e-02
-3.286159330655652466e-03
2.102212464573482986e-02
4.471829067501681410e-02
6.732012947296533989e-02
8.830070187089517075e-02
1.071016869129347571e-01
1.234457255702895995e-01
1.367386173629456803e-01
1.469916666523278792e-01
1.537079301985558311e-01
1.568628092511181182e-01
1.564206044918566851e-01
1.522235062612920520e-01
1.447198312727261960e-01
1.337249670634003407e-01
1.197349406314739406e-01
1.029607144953636616e-01
8.378734485222145978e-02
6.279709998948213023e-02
4.027818611404934690e-02
1.694332140528082009e-02
-6.838353047065592882e-03
-3.034951087792131519e-02
-5.318046132595238840e-02
-7.471060138034713027e-02
-9.441708827768202639e-02
-1.119384193926274973e-01
-1.266414815198826371e-01
-1.384843101111841168e-01
-1.468747708357627246e-01
-1.517788522089431602e-01
-1.530280085910067367e-01
-1.504588056805944429e-01
-1.443987350237233569e-01
-1.346550578727972458e-01
-1.217015590319473484e-01
-1.056691000951928139e-01
-8.697798136502676858e-02
-6.613297245573632188e-02
-4.348176037108780756e-02
-1.971941498683704025e-02
4.774621672852093213e-03
2.923818880587833458e-02
5.327433343530305065e-02
7.617809469558353697e-02
9.745301643260123603e-02
1.166537326130096530e-01
1.331185123679073379e-01
1.467647691495190254e-01
1.569184290792284830e-01
1.635691604062037285e-01
1.664230342615627967e-01
1.652927766946731269e-01
1.604360596376652737e-01
1.515894265695320042e-01
1.392270325847948520e-01
1.233737748118308719e-01
1.044216344971684585e-01
8.283452506842914342e-02
5.893157245678193323e-02
3.339633905687217075e-02
6.612576558574057017e-03
-2.067018582488827638e-02
-4.799932806667445151e-02
-7.461747668591776905e-02
-1.000290817351730116e-01
-1.236299548831883144e-01
-1.447459694073129910e-01
-1.631473667010968076e-01
-1.780429938545458612e-01
-1.894301395783559716e-01
-1.967703828154245826e-01
-1.998685638287011068e-01
-1.988367658519373249e-01
-1.932973622191879182e-01
-1.837709478253604090e-01
-1.700790977797485004e-01
-1.526295047202526067e-01
-1.318321829574825577e-01
-1.079415745677844152e-01
-8.171161599528908859e-02
-5.345297331446807743e-02
-2.392972175698682147e-02
6.341920586032501195e-03
3.661316966333566514e-02
6.633971522188616965e-02
9.482631367490204632e-02
1.214100935841837398e-01
1.456948172656245544e-01
1.668372350834053663e-01
1.848257055049933317e-01
1.988727560045747134e-01
2.088088635145962102e-01
2.145156412884628994e-01
2.155008264824768149e-01
2.123099324014581790e-01
2.044298454934284082e-01
1.922960882876661448e-01
1.761165651160874757e-01
1.560174901028271721e-01
1.328180760837879282e-01
1.065683055449012095e-01
7.807896860115209892e-02
4.781535990232410605e-02
1.645734838517573517e-02
-1.531735814302900844e-02
-4.687950032099873210e-02
-7.749289040814108520e-02
-1.066178865718550584e-01
-1.334123165387210985e-01
-1.576536527800801446e-01
-1.784716142774153136e-01
-1.956256800495048132e-01
-2.087430360381111738e-01
-2.173011684992374182e-01
-2.216418943560093391e-01
-2.211154526125785336e-01
-2.161352698203589107e-01
-2.066725819743152059e-01
-1.928007264762319484e-01
-1.752635576147414942e-01
-1.539420534445398170e-01
-1.296831462730161921e-01
-1.028091756258910361e-01
-7.389461120955154172e-02
-4.371706074661249608e-02
-1.268779371640232911e-02
1.839689638262964611e-02
4.902280748338255778e-02
7.849208639112653652e-02
1.063670414662517549e-01
1.319599000348028461e-01
1.549718572216266521e-01
1.749057668014999400e-01
1.913309662324558236e-01
2.043128485943723760e-01
2.132085166751984673e-01
2.183550866684196845e-01
2.194262057731734550e-01
2.164369905224264312e-01
2.098525048566412532e-01
1.993191666535512885e-01
1.855969517446985906e-01
1.686156581767483120e-01
1.487601239478033022e-01
1.266437019019756860e-01
1.023105900996768569e-01
7.654455927160630502e-02
4.956726779989473197e-02
2.189972978788889968e-02
-5.934537923847238439e-03
-3.353048141374659341e-02
-6.043964689777103771e-02
-8.617477056254385648e-02
-1.103333892431357377e-01
-1.326222854878078006e-01
-1.524435306462735285e-01
-1.698610544633586961e-01
-1.842518946052631446e-01
-1.955146999315891532e-01
-2.036431532359933572e-01
-2.080989037227185534e-01
-2.094271429905767978e-01
-2.070951991647815849e-01
-2.013548433373981150e-01
-1.924770417196131622e-01
-1.802073151184215016e-01
-1.653535428370270788e-01
-1.476890270150064688e-01
-1.277010343260969738e-01
-1.058426369944142631e-01
-8.221969013371455137e-02
-5.755970567316931463e-02
-3.203356256730860441e-02
-6.114710072975926280e-03
1.972699115569154227e-02
4.511586416644441933e-02
6.973203712103473451e-02
9.305812818794464980e-02
1.148787198927599118e-01
1.348573144028125947e-01
1.525158781012701525e-01
1.680829309034387598e-01
1.808332613073027895e-01
1.909050106912903721e-01
1.981562468893311446e-01
2.021712186473438866e-01
2.035896273081477248e-01
2.017031915549120646e-01
1.969190953471197103e-01
1.892876552159644676e-01
1.785975303232250067e-01
1.655959082548035810e-01
1.498737797824727935e-01
1.319270249239700710e-01
1.119884882306915741e-01
9.013165081528257128e-02
6.695919918934986614e-02
4.254208922216962119e-02
1.729240055347507077e-02
-8.390399567515846591e-03
-3.416529912714466599e-02
-5.971547684873738937e-02
-8.449060429599020150e-02
-1.082925745874215584e-01
-1.306189762519986419e-01
-1.510070441585530387e-01
-1.694593240452962613e-01
-1.851736502127295514e-01
-1.982478448277858740e-01
-2.082276000597170496e-01
-2.147748562691249308e-01
-2.181844966257178997e-01
-2.177831823216498652e-01
-2.139809464745839884e-01
-2.065731748064238982e-01
-1.955691316161083382e-01
-1.814792537207789991e-01
-1.640960180929190160e-01
-1.440372012062671736e-01
-1.214783369854851025e-01
-9.681017020167542730e-02
-7.060587167097392980e-02
-4.321072829924177405e-02
-1.520064428370199172e-02
1.291826669271278760e-02
4.059233055589384076e-02
6.739401184450433124e-02
9.264193607081305792e-02
1.160944587515209125e-01
1.371249492350310462e-01
1.553569149405949479e-01
1.706631419344563083e-01
1.824001760971712127e-01
1.908071621374344273e-01
1.953888710653184368e-01
1.961874659874781601e-01
1.933897315535452188e-01
1.867165750236935151e-01
1.767880903631466050e-01
1.634353505354771974e-01
1.471273473401438214e-01
1.282537937967942465e-01
1.070326788254370998e-01
8.417041349935328043e-02
5.989702550355568977e-02
3.488075755627462193e-02
9.543671428683953017e-03
-1.551988168428752868e-02
-3.985957445167842561e-02
-6.293902213595914397e-02
-8.423859727877525128e-02
-1.034684962214234005e-01
-1.199764816199777595e-01
-1.337869683852844216e-01
-1.442996623397552747e-01
-1.514286454436399865e-01
-1.551222374632074130e-01
-1.550292271220148899e-01
-1.516298825190156851e-01
-1.445577346296663679e-01
-1.342239792533819198e-01
-1.208236296409107013e-01
-1.045131503837482267e-01
-8.596760644096623771e-02
-6.525587922903203220e-02
-4.307422083889692055e-02
-1.976278211118162598e-02
4.083242594106140100e-03
2.796957185124204770e-02
5.139998905738218937e-02
7.376847447246304146e-02
9.474855780510726966e-02
1.136146578510841554e-01
1.303059253807574702e-01
1.441335398732510042e-01
1.548934419577585042e-01
1.624091581754789071e-01
1.662093900396834356e-01
1.666433317987721097e-01
1.632082602222469925e-01
1.561832650789288235e-01
1.456225481272348798e-01
1.315675925503147492e-01
1.145741678779087225e-01
9.463221187632372966e-02
7.235013444214688505e-02
4.803161219877863375e-02
2.223538613807726771e-02
-4.530452985757854600e-03
-3.171720576966144400e-02
-5.869805646884876382e-02
-8.499604191949736154e-02
-1.098160083395521291e-01
-1.329110996775613174e-01
-1.534338428198005200e-01
-1.710821212543182090e-01
-1.854071802716170114e-01
-1.958302736654668474e-01
-2.024842812684583826e-01
-2.047009888345995010e-01
-2.027062369123159291e-01
-1.963301870554554074e-01
-1.855727965028854676e-01
-1.709068491860594174e-01
-1.522500444003553888e-01
-1.302670195336207704e-01
-1.052041027189812850e-01
-7.766131199211134817e-02
-4.823518220902081599e-02
-1.749923982557088920e-02
1.381583365093697058e-02
4.512796894763704270e-02
7.558958447137720249e-02
1.047735037933548163e-01
1.317583318108950241e-01
1.561872751964790695e-01
1.773981673422226346e-01
1.947995424371113948e-01
2.083340595307520138e-01
2.172281731252156955e-01
2.217268237304794165e-01
2.213892160773414108e-01
2.162281241850317892e-01
2.065644985842592374e-01
1.921874560022793776e-01
1.738241062242359969e-01
1.514789338021553800e-01
1.257702705692962108e-01
9.724167101692322845e-02
6.636950266335570059e-02
3.397310608380250951e-02
5.506980673264799675e-04
-3.301411702737007403e-02
-6.618525011016845871e-02
-9.803697503461053508e-02
-1.281028667279345834e-01
-1.555740635882377765e-01
-1.798014943126962084e-01
-2.004760819376400771e-01
-2.167190782251010583e-01
-2.286865765600303302e-01
-2.356365284172902419e-01
-2.375461252531151646e-01
-2.344744402520121951e-01
-2.260901675877448058e-01
-2.131185840662351838e-01
-1.952850365742217487e-01
-1.732394352282738970e-01
-1.473987762526766665e-01
-1.181823494303692601e-01
-8.650193656172955325e-02
-5.273277409735499521e-02
-1.783291938757131101e-02
1.760866655783727142e-02
5.265658321770130823e-02
8.672747273818923186e-02
1.189497807059317902e-01
1.486215093197484349e-01
1.752448006911412892e-01
1.979040395911108030e-01
2.166414168442498678e-01
2.305322182390293073e-01
2.395333337537576268e-01
2.434450572549040626e-01
2.418930199149882665e-01
2.354720692264617166e-01
2.237101096540916600e-01
2.072445089328168177e-01
1.862590800734150176e-01
1.611355714929604832e-01
1.327038131512777719e-01
1.012144739767351087e-01
6.764488916812094743e-02
3.250548738829928119e-02
-3.272057960463592430e-03
-3.901421769491109082e-02
-7.386950783283108279e-02
-1.070494706326131640e-01
-1.379238194645404647e-01
-1.655438281997888006e-01
-1.896954677065841866e-01
-2.094044374042028922e-01
-2.245185877224866733e-01
-2.345875614323469638e-01
-2.392105568760219958e-01
-2.387218857904859215e-01
-2.325897407926077465e-01
-2.214025910687620891e-01
-2.051294012562258906e-01
-1.841635375351880211e-01
-1.592070086536045981e-01
-1.304752778454130735e-01
-9.896936207633083571e-02
-6.510857969149302926e-02
-2.984434157601312254e-02
6.118629216173510077e-03
4.195341580572042872e-02
7.682437245287471184e-02
1.100590836714747667e-01
1.407157119408438684e-01
1.684300502638386154e-01
1.922390354649555766e-01
2.119443614865584857e-01
2.269336353201308887e-01
2.368164174288732715e-01
2.417035557447547722e-01
2.410265581821516845e-01
2.353114873654335304e-01
2.242931440728005987e-01
2.083405004661112725e-01
1.879385573539831544e-01
1.632248226614265996e-01
1.351368923151163581e-01
1.039131352775764378e-01
7.046695525128074400e-02
3.542564912404208566e-02
-4.317501042894467123e-04
-3.626594707774410953e-02
-7.139648026937886471e-02
-1.048801019795318756e-01
-1.362034894654998440e-01
-1.643762091289009686e-01
-1.890980042343177459e-01
-2.095559546195094880e-01
-2.253248838291435074e-01
-2.362157786480195143e-01
-2.416125766390676555e-01
-2.419133849527613234e-01
-2.366150726637926138e-01
-2.260887962245912708e-01
-2.105634688598866655e-01
-1.901945135350182337e-01
-1.658680993223873024e-01
-1.377056714429151230e-01
-1.066885822156531938e-01
-7.336605620874403488e-02
-3.858967948249830693e-02
-3.240845998052632737e-03
3.198067456363401506e-02
6.606311394116776148e-02
9.840893102991787877e-02
1.279994630928569244e-01
1.544544969570166848e-01
1.768948899011040521e-01
1.948964814631953535e-01
2.081111597721327922e-01
2.160097696114691157e-01
2.188706076467160089e-01
2.161862367087481196e-01
2.083730270083701819e-01
1.954979955882888421e-01
1.778723418824673108e-01
1.562319235317101707e-01
1.307608154710075410e-01
1.024701122084847871e-01
7.179751153910729489e-02
3.971339233180826156e-02
6.997158285489302187e-03
-2.560150218101298059e-02
-5.707365034196143494e-02
-8.685206837180448058e-02
-1.139179830255518944e-01
-1.378573675891699990e-01
-1.578555779405859671e-01
-1.735034893696235092e-01
-1.844292370952135829e-01
-1.902271296063386963e-01
-1.910415486706587562e-01
-1.865511219973325641e-01
-1.771783153199800176e-01
-1.629720388465384640e-01
-1.444174032756965209e-01
-1.220904293360421666e-01
-9.640074199199377691e-02
-6.831337750078425586e-02
-3.827418490758904834e-02
-7.356177043312817077e-03
2.380162476119906945e-02
5.430919705555858901e-02
8.328148795396383974e-02
1.101399083748475505e-01
1.339065541157458128e-01
1.542561451779882464e-01
1.703881067379684477e-01
1.820414565871808499e-01
1.888496940950722403e-01
1.905428634824366529e-01
1.872733009611311505e-01
1.788510940869231236e-01
1.657649324691913839e-01
1.480937936522881415e-01
1.264328160486913322e-01
1.012953452597680493e-01
7.325007327139511359e-02
4.318735009614010911e-02
1.162611828813364667e-02
-2.035836396025653139e-02
-5.219653444918448404e-02
-8.288195420774202571e-02
-1.117071797286907087e-01
-1.379713542747226240e-01
-1.608002239958835622e-01
-1.798899691791264743e-01
-1.944048571881009657e-01
-2.042745710649204183e-01
-2.090111618644008296e-01
-2.084939810621735390e-01
-2.028550015334750212e-01
-1.919564656392140911e-01
-1.763995776047709851e-01
-1.562186141168611098e-01
-1.321123613228391003e-01
-1.045675087726397612e-01
-7.424853794250496630e-02
-4.201548032784438447e-02
-8.453582798762654393e-03
2.538051717977760427e-02
5.892065717210394349e-02
9.108409085193255872e-02
1.213230273389550584e-01
1.487743273520509835e-01
1.726931799315790661e-01
1.927242663031253911e-01
2.079948332683731471e-01
2.186109570019907355e-01
2.238711269622116751e-01
2.237932516345466083e-01
2.183953361347221733e-01
2.075274182341846352e-01
1.918654745549464025e-01
1.712779839182584918e-01
1.465279363551803549e-01
1.180051412590764903e-01
8.640507163499777654e-02
5.254776937084866539e-02
1.704293313120745085e-02
-1.905946688338445300e-02
-5.515446175157474873e-02
-9.008286611816532230e-02
-1.233163195231432585e-01
-1.538096555450556568e-01
-1.808479245853585882e-01
-2.039004662911518273e-01
-2.220328518923054273e-01
-2.352983758430861605e-01
-2.428302609436229220e-01
-2.446994166583767449e-01
-2.407522797644776613e-01
-2.308609452233077453e-01
-2.156457297251362371e-01
-1.949560376665012695e-01
-1.696236858739423037e-01
-1.399886479236133741e-01
-1.068109340128308715e-01
-7.093275237415158641e-02
-3.302287047423413391e-02
5.841796309624225358e-03
4.498711962578538781e-02
8.323827544563044967e-02
1.200059083620528266e-01
1.541811449759891151e-01
1.851112172231614283e-01
2.121144112032717355e-01
2.343027804967673378e-01
2.516429000966833307e-01
2.631925528208126641e-01
2.691088369425539417e-01
2.690155413376806859e-01
2.628065487631787711e-01
2.509819531337138532e-01
2.332670106304984836e-01
2.105206033315191738e-01
1.828604579073713765e-01
1.509983522584389393e-01
1.156991217668104088e-01
7.751490886177758721e-02
3.751049041927823069e-02
-3.697587955456826947e-03
-4.499307197915303203e-02
-8.569767023135044237e-02
-1.247042440315535572e-01
-1.613479689861103683e-01
-1.947413976370548916e-01
-2.240076105161899478e-01
-2.488570057069860453e-01
-2.682164452288104406e-01
-2.822225063804328915e-01
-2.901241239605794053e-01
-2.918017508351477551e-01
-2.874915020993972226e-01
-2.767390382926410153e-01
-2.604443858906699272e-01
-2.383776036527298081e-01
-2.112496410965342131e-01
-1.797119265054151205e-01
-1.441598258223246720e-01
-1.057625427147461661e-01
-6.494836507000356640e-02
-2.282417814125059508e-02
1.986054652375102147e-02
6.210831391917626121e-02
1.031547973810708618e-01
1.420866585620606526e-01
1.780619468480597045e-01
2.105654348390098574e-01
2.385367530604651509e-01
2.620463731303342980e-01
2.800699863854741456e-01
2.925004331883813702e-01
2.992280845716118742e-01
2.996536555997652007e-01
2.946234050063225585e-01
2.834341284706092257e-01
2.667502785055770875e-01
2.448620440722386604e-01
2.179137509511460680e-01
1.870539806181041875e-01
1.522604921231419661e-01
1.146014388522622607e-01
7.465798757686337161e-02
3.324152043599015727e-02
-8.758514018179952565e-03
-5.060073419356525548e-02
-9.136361087653716018e-02
-1.303527008872395476e-01
-1.665284199331213966e-01
-1.995835369871138965e-01
-2.283932940480069007e-01
-2.526460239311479339e-01
-2.717908835157586966e-01
-2.851539837339017169e-01
-2.930855343911303867e-01
-2.947064739414085865e-01
-2.905032337568036471e-01
-2.803306947847112873e-01
-2.642989077089670236e-01
-2.432339511102266372e-01
-2.170044985547318894e-01
-1.866727179400702319e-01
-1.525956483840104627e-01
-1.156209815082799852e-01
-7.666245456738063346e-02
-3.638430456329527773e-02
4.137051761323451426e-03
4.420591960649283836e-02
8.274533268759884375e-02
1.191748647308872033e-01
1.524575702210684280e-01
1.820909174213387050e-01
2.073732365853774295e-01
2.276460717510578324e-01
2.428887397963266914e-01
2.523019361071743294e-01
2.562157592753024349e-01
2.542424633610480544e-01
2.465309836695360746e-01
2.335521320266981671e-01
2.151942741900224609e-01
1.924138094120509401e-01
1.653144939516008605e-01
1.347776179247542894e-01
1.014901764712163312e-01
6.609560235907419035e-02
2.964577459312031649e-02
-7.297607116172610819e-03
-4.360619922000336102e-02
-7.870926195110988788e-02
-1.115634313154282159e-01
-1.415923430854784393e-01
-1.680411768668406414e-01
-1.901707848988173355e-01
-2.077875102717363642e-01
-2.200469299319711969e-01
-2.271597617085064913e-01
-2.285767304563174895e-01
-2.243752312563713769e-01
-2.148204542320704680e-01
-1.997676879918525716e-01
-1.800818854352728149e-01
-1.557391499043978556e-01
-1.275845616628148993e-01
-9.619223066755011597e-02
-6.221249397926681413e-02
-2.663889979418593290e-02
9.980047314264495206e-03
4.654124326891079244e-02
8.247007179776905117e-02
1.166821788029173135e-01
1.486600414420932714e-01
1.775281270595578387e-01
2.025686817424197095e-01
2.234847008302257021e-01
2.393360910550277609e-01
2.503795701277237162e-01
2.558160601868070816e-01
2.556953161702072430e-01
2.501113299212835428e-01
2.387484831971917743e-01
2.224746285805309087e-01
2.009716310262769923e-01
1.749959238150708141e-01
1.449911080793481188e-01
1.114348364652824053e-01
7.531005948784785797e-02
3.702790782427756167e-02
-2.389449273021704290e-03
-4.229924829997760982e-02
-8.167809243397117225e-02
-1.199232070172533970e-01
-1.560287014147411777e-01
-1.892777730167656269e-01
-2.190662475932778075e-01
-2.443889045958339001e-01
-2.652870865204229323e-01
-2.806799283301298908e-01
-2.905673234691048545e-01
-2.946544109775153797e-01
-2.925259009987666303e-01
-2.848436292663406588e-01
-2.710438729478930053e-01
-2.518749040854701970e-01
-2.275197386066089567e-01
-1.983853095549539536e-01
-1.654386429573791450e-01
-1.289345608036991941e-01
-8.996387342761646977e-02
-4.912988981204836902e-02
-7.399740586314457191e-03
3.442277403254415113e-02
7.542409961364691939e-02
1.147930418389025986e-01
1.517618788708423039e-01
1.853820632250850475e-01
2.153774645410790056e-01
2.406679549167633492e-01
2.611803478719132432e-01
2.762923800560979082e-01
2.856055599681535107e-01
2.894412521403826877e-01
2.870925161619041210e-01
2.792563056668672661e-01
2.656956509137108347e-01
2.467604904105552555e-01
2.231616070251637995e-01
1.949014516538090658e-01
1.630724196839539730e-01
1.279359735709897361e-01
9.038958989798601129e-02
5.120759217703213517e-02
1.109415920163109304e-02
-2.902072768235841593e-02
-6.844189272458423012e-02
-1.062082897700943052e-01
-1.417887900754767339e-01
-1.741411284038248686e-01
-2.029749293662305998e-01
-2.274362848873289211e-01
-2.470307386090424273e-01
-2.616749725068738819e-01
-2.705379586036842365e-01
-2.741379576299154408e-01
-2.718520077181719730e-01
-2.639369754600829343e-01
-2.507804808178740741e-01
-2.321911257604846734e-01
-2.092426878670426427e-01
-1.818413254951337099e-01
-1.508496591643824214e-01
-1.169334501130928072e-01
-8.060397300870020265e-02
-4.291488227609252526e-02
-4.347278199021142875e-03
3.413231431961200046e-02
7.189652140476360254e-02
1.080354901534207879e-01
1.420904084332862416e-01
1.732009524672218914e-01
2.008328187851141644e-01
2.246427225947796869e-01
2.437734306664796624e-01
2.585822435911535044e-01
2.681538844596607074e-01
2.726384672204055226e-01
2.720461838941110599e-01
2.659502722040753553e-01
2.552973430542551103e-01
2.394886624589535884e-01
2.192448474704889461e-01
1.948833084873316801e-01
1.666029623994343400e-01
1.354289490841261712e-01
1.014203067112119938e-01
6.549383714475814910e-02
2.818841299844770942e-02
-9.758057623338700637e-03
-4.767420945392258913e-02
-8.480424844325201716e-02
-1.204638273446653196e-01
-1.540300203822136393e-01
-1.845961863469730013e-01
-2.120468905488173683e-01
-2.352970248024391364e-01
-2.542204587235031843e-01
-2.683338015826059464e-01
-2.770619721750743336e-01
-2.808441154613011692e-01
-2.788520684908718517e-01
-2.716160979179897961e-01
-2.590310637477111211e-01
-2.412062428464091246e-01
-2.189438142082008876e-01
-1.921327440720466129e-01
-1.617370709226681469e-01
-1.281238126500751640e-01
-9.204669081502264705e-02
-5.433248312999003349e-02
-1.563162868370365777e-02
2.314054999311165872e-02
6.128852538835027897e-02
9.785330555340832070e-02
1.323367246112059359e-01
1.637184496686326374e-01
1.916242346100168747e-01
2.153419087753424832e-01
2.342789522901730370e-01
2.484520390581485549e-01
2.570483408249100710e-01
2.604392928604118418e-01
2.582103983141089687e-01
2.504893715561787859e-01
2.377392600211986617e-01
2.197949931658517153e-01
1.975729056945479956e-01
1.711444467445958351e-01
1.413031005504114257e-01
1.087130712140990940e-01
7.394626693636653647e-02
3.798639800110575893e-02
1.381600667918758685e-03
-3.483328016547782013e-02
-7.008183752916652409e-02
-1.033692475702515101e-01
-1.341496988172724003e-01
-1.616396181633333318e-01
-1.851414552654864765e-01
-2.044015247976747607e-01
-2.185753035175824199e-01
-2.278388328604699087e-01
-2.315756793353929144e-01
-2.298451218250507910e-01
-2.228202156790214383e-01
-2.103227752065816580e-01
-1.931559079127463940e-01
-1.712274749665669282e-01
-1.453495938073368077e-01
-1.160330423057603921e-01
-8.389613590505401453e-02
-4.991469207635440553e-02
-1.459988750891674791e-02
2.094775947476380795e-02
5.614399234985743836e-02
8.992961724229406317e-02
1.217233476838322226e-01
1.506696609786520868e-01
1.760263793169027924e-01
1.974283858418890980e-01
2.139881215349591637e-01
2.258473835573566180e-01
2.322541990105311260e-01
2.332506188941273484e-01
2.288594402138419692e-01
2.188708453227248829e-01
2.040530508658309761e-01
1.841733604681602410e-01
1.600229381091154979e-01
1.320036033027814359e-01
1.007131916606640587e-01
6.708220244215062911e-02
3.158604782631013741e-02
-4.710452525457820006e-03
-4.120277284912648996e-02
-7.683392516131104522e-02
-1.110061302884465806e-01
-1.427807427133331308e-01
-1.714421413280737272e-01
-1.964651068516384824e-01
-2.169572704481437242e-01
-2.329513244154984564e-01
-2.435811235735497737e-01
-2.489001448671804284e-01
-2.487254460501141518e-01
-2.428499735963983164e-01
-2.319024427095098817e-01
-2.155810894736312489e-01
-1.946706800594512066e-01
-1.694267147001616292e-01
-1.404217780381425418e-01
-1.085245438594440448e-01
-7.415014911664075115e-02
-3.833156392557035552e-02
-1.637528050757897091e-03
3.495222458661773057e-02
7.079632098184279743e-02
1.050069228190434467e-01
1.369179029206491482e-01
1.659002454884945243e-01
1.911409922998350275e-01
2.125207633620188885e-01
2.291443791704142752e-01
2.410747268348223116e-01
2.478717235320714030e-01
2.493200307604772070e-01
2.458106517001842350e-01
2.368854585281464087e-01
2.232663260470634237e-01
2.048792765342074551e-01
1.821920805851544034e-01
1.558703372393588638e-01
1.261240616375085832e-01
9.392657941576865177e-02
5.963956500408124084e-02
2.414877636384163417e-02
-1.190081297816822370e-02
-4.772301439373186072e-02
-8.260138662906382767e-02
-1.158370282919639338e-01
-1.466051488083182086e-01
-1.745300243672179841e-01
-1.986509876702498845e-01
-2.188823331847631892e-01
-2.344789737204345803e-01
-2.451384519297625242e-01
-2.509001209599185378e-01
-2.511488315538042970e-01
-2.464931099790989011e-01
-2.365107478348994208e-01
-2.216083060065394406e-01
-2.022235658103444522e-01
-1.784237870183640329e-01
-1.512048201213506970e-01
-1.206998187671364797e-01
-8.779850649897789905e-02
-5.313365418199123003e-02
-1.739895992183125573e-02
1.856800690914674201e-02
5.412533854766436725e-02
8.842144935469190004e-02
1.209226187765652938e-01
1.507040470870744941e-01
1.775542088005576113e-01
2.006012389966270182e-01
2.195162523475848448e-01
2.340727543052177340e-01
2.435918162711016022e-01
2.485864063730255369e-01
2.483219809615136442e-01
2.431547888516989997e-01
2.332079685498855692e-01
2.183713200789081654e-01
1.995825300373449684e-01
1.765802849964181465e-01
1.501987766324713314e-01
1.208394754016288430e-01
8.901865050363591547e-02
5.559002956386918659e-02
2.096351910398022711e-02
-1.399098927804395820e-02
-4.872404477843955695e-02
-8.235808038089986738e-02
-1.144754468020166838e-01
-1.441755280521824778e-01
-1.709824469432614513e-01
-1.943850530201522986e-01
-2.136115822117543306e-01
-2.288110773154405364e-01
-2.390635100982463068e-01
-2.445351243641097350e-01
-2.449723891616178151e-01
-2.401474528780230822e-01
-2.306792636457657419e-01
-2.161382723216565271e-01
-1.972695842349810325e-01
-1.742217571321786063e-01
-1.474551703816796844e-01
-1.177681183281485688e-01
-8.545911815766774056e-02
-5.147221307969127024e-02
-1.631724046978044740e-02
1.911612717660002292e-02
5.421487691324761160e-02
8.812782010262673604e-02
1.202157762239732808e-01
1.498242129901704023e-01
1.761430514048444862e-01
1.989982758967263343e-01
2.174577239277284135e-01
2.315244052285316267e-01
2.406831177842664871e-01
2.446609969234972704e-01
2.437484450451953000e-01
2.374381697576459782e-01
2.263625768854433673e-01
2.103840635901991218e-01
1.899263696302495030e-01
1.655748196734035949e-01
1.375331119828229753e-01
1.067316766151353569e-01
7.351628625578535137e-02
3.879237313022740330e-02
3.191352679817072158e-03
-3.246245122134994165e-02
-6.741083290244495596e-02
-1.009344242480090942e-01
-1.321412051537015075e-01
-1.605983761858723324e-01
-1.853223513627290930e-01
-2.061196089041222312e-01
-2.222393504568697664e-01
-2.333346767020760548e-01
-2.393513526238278677e-01
-2.397467221863981979e-01
-2.350100044242146025e-01
-2.247824744083554704e-01
-2.095150158987740263e-01
-1.895651062741549597e-01
-1.651958757929644361e-01
-1.373276913971975821e-01
-1.062311101180495182e-01
-7.292854818886009005e-02
-3.802002789512468062e-02
-2.436510305426076162e-03
3.298765376448656306e-02
6.748331222870093682e-02
1.000625096980719830e-01
1.301866197636006306e-01
1.568295212355040880e-01
1.797201820731185729e-01
1.980218049203255615e-01
2.113853771478613752e-01
2.195978003822162683e-01
2.221789318305605054e-01
2.195565589515373339e-01
2.113105346731628253e-01
1.979521568435274048e-01
1.796887363445503205e-01
1.569068654703656418e-01
1.304598750899514936e-01
1.006204724450075472e-01
6.846779520109774753e-02
3.452454892755862925e-02
-1.558049520458681947e-04
-3.480207946486901793e-02
-6.856494405828017502e-02
-1.004406006036320242e-01
-1.298620830211060229e-01
-1.557563863764380718e-01
-1.778370355585864315e-01
-1.952204065196218030e-01
-2.075775461651468978e-01
-2.146176660994127960e-01
-2.159385560957558514e-01
-2.118726430696489249e-01
-2.020955484443086592e-01
-1.871521788471006142e-01
-1.672161100105123976e-01
-1.428362503788319082e-01
-1.147482900574100517e-01
-8.342991212356343222e-02
-4.995011930132978173e-02
-1.486527186023456348e-02
2.066156179802033921e-02
5.593729847798714627e-02
8.996492775437597844e-02
1.218305151554869847e-01
1.509021779569866828e-01
1.761337358506567807e-01
1.972640027813187813e-01
2.133914822415192147e-01
2.243118165711320833e-01
2.296634592363821503e-01
2.291640821703309072e-01
2.230937077030895055e-01
2.112133140909751572e-01
1.941253054005324941e-01
1.719569807840156117e-01
1.453675567259080093e-01
1.149986095552625320e-01
8.146197586340310492e-02
4.578206180966271077e-02
8.560949562850667105e-03
-2.899434617512169216e-02
-6.622361247347588464e-02
-1.019911085738608170e-01
-1.354796946906529909e-01
-1.658945961291792559e-01
-1.922267419917097764e-01
-2.141426166214678850e-01
-2.306719244335282692e-01
-2.417152174494316408e-01
-2.467349803369088546e-01
-2.455747511479447476e-01
-2.384154019340670727e-01
-2.250926315406628908e-01
-2.062990020897617072e-01
-1.821132623696869457e-01
-1.533587644620313939e-01
-1.206366574633002398e-01
-8.473806381211559935e-02
-4.670520773647982710e-02
-7.241867261596285354e-03
3.236528003337391796e-02
7.143783916404480849e-02
1.086941319677406093e-01
1.434217844901392314e-01
1.746586542396522113e-01
2.014754274453213756e-01
2.234944617132254563e-01
2.397225510537324134e-01
2.502354649885447091e-01
2.543448170455358537e-01
2.520645191677756691e-01
2.435135539094186452e-01
2.285975640290659472e-01
2.081251531380884923e-01
1.820937977862812640e-01
1.514487636006212612e-01
1.167370670857130754e-01
7.884552092591762262e-02
3.879627132020124769e-02
-2.657097471640224029e-03
-4.422747684968969528e-02
-8.521990272273116673e-02
-1.242603995301613251e-01
-1.607677532637646900e-01
-1.935764575820611011e-01
-2.218614392467202490e-01
-2.451436284409956867e-01
-2.623713511010633548e-01
-2.737552238967098095e-01
-2.783813824754590160e-01
-2.763970354295464671e-01
-2.678119347883473056e-01
-2.525165865354255246e-01
-2.314017206957694750e-01
-2.043446062831087984e-01
-1.723634591173552888e-01
-1.359713225683211180e-01
-9.603256914867719374e-02
-5.360491811569756404e-02
-9.426340204546246326e-03
3.526445330650740395e-02
7.970307947829324835e-02
1.226005533232410460e-01
1.633251769382842999e-01
2.006850286702080988e-01
2.339811056079357243e-01
2.625479482938123388e-01
2.854206211504585200e-01
3.027009261840759580e-01
3.133637211603580996e-01
3.176422048669765852e-01
3.152471701279738192e-01
3.060448552314227189e-01
2.907626125096445246e-01
2.690583500898111602e-01
2.419329729578232335e-01
2.096046800931636589e-01
1.727965339482605001e-01
1.324777733846932148e-01
8.916541273768013864e-02
4.405570698474425839e-02
-2.166590455205841259e-03
-4.835307369167429759e-02
-9.372348500193017351e-02
-1.371604571456103150e-01
-1.779284174876736291e-01
-2.151149523008071274e-01
-2.478030872116626648e-01
-2.757137022721271036e-01
-2.977172187170320505e-01
-3.139498736390147204e-01
-3.236616591867744752e-01
-3.266994959719623504e-01
-3.233806992073253728e-01
-3.131720501453350014e-01
-2.970318254783698153e-01
-2.747365647474515615e-01
-2.469946311998753030e-01
-2.145551335042024110e-01
-1.777542588701536141e-01
-1.378602469936711650e-01
-9.529964129055590316e-02
-5.122485206312765715e-02
-6.452340717460702813e-03
3.803406227214467528e-02
8.136129149114468273e-02
1.226398588890618147e-01
1.609490418606709383e-01
1.957660918559438468e-01
2.260058729550989964e-01
2.516565951571297921e-01
2.717396921620677253e-01
2.860715911761878560e-01
2.945843230967033488e-01
2.966387846406083328e-01
2.930480187582968910e-01
2.831537239137990047e-01
2.675855360120641402e-01
2.466852506363429454e-01
2.205685747689197784e-01
1.904176096989302902e-01
1.562144814308747964e-01
1.190630352240127365e-01
7.956076923022747938e-02
3.852503907204263278e-02
-3.089293344981980383e-03
-4.458503266598601300e-02
-8.495147143739889550e-02
-1.235452048355343280e-01
-1.592633077529082009e-01
-1.918210006766050135e-01
-2.201024649766785135e-01
-2.437179826310252873e-01
-2.622268510806096131e-01
-2.748588781803031900e-01
-2.820684598180386304e-01
-2.829472272754779416e-01
-2.779409399544001680e-01
-2.670244061474370545e-01
-2.502149737289598441e-01
-2.284605538636675925e-01
-2.015785021278795330e-01
-1.706267157011948088e-01
-1.360297001495975877e-01
-9.858131713115275696e-02
-5.925518411622104908e-02
-1.867321148334766256e-02
2.207266880707672851e-02
6.230357055137861894e-02
1.009264995346620120e-01
1.374044373541384312e-01
1.706886173087052705e-01
2.002518981014225208e-01
2.254683027822230734e-01
2.455768347308527888e-01
2.606810907541978750e-01
2.698850068205645991e-01
2.734898092948018222e-01
2.711852408457406938e-01
2.629557283090406816e-01
2.494174249270597610e-01
2.303016785033074054e-01
2.065464822527780520e-01
1.782981446995748342e-01
1.462868078804391292e-01
1.113140275660238210e-01
7.389221770095200092e-02
3.508952031272816185e-02
-4.514069509083062925e-03
-4.383920666651763831e-02
-8.225528599169562582e-02
-1.187276111098989340e-01
-1.526255221086678660e-01
-1.831639883575308936e-01
-2.095148965463509150e-01
-2.314875033515397806e-01
-2.480862414243929503e-01
-2.594712701370098795e-01
-2.650253149293240185e-01
-2.646481226381551810e-01
-2.586711894719531113e-01
-2.466875484486619197e-01
-2.295824536811912342e-01
-2.072296144425176401e-01
-1.803149631313480938e-01
-1.495293773820773886e-01
-1.152630825293989858e-01
-7.863818539227729332e-02
-4.009902927181263621e-02
-7.033078647209478618e-04
3.884716202554372444e-02
7.760661371923305296e-02
1.148665204032908171e-01
1.498081995558004920e-01
1.816257005036785444e-01
2.099382091136949846e-01
2.337475071637631352e-01
2.531656691235366630e-01
2.673365346206870719e-01
2.761368244635966640e-01
2.796307922632301768e-01
2.772328770141072596e-01
2.697954862437903500e-01
2.567646455672112360e-01
2.387153542443418708e-01
2.160706135170284981e-01
1.888972052964159598e-01
1.583160782163841596e-01
1.243392074296643113e-01
8.789882839675677850e-02
4.960331071068257991e-02
1.012853889189457846e-02
-2.970301182267898188e-02
-6.922356024941123120e-02
-1.076318573212936003e-01
-1.443161963358498001e-01
-1.783039457878337064e-01
-2.094451897879942293e-01
-2.366295375515939381e-01
-2.595971361350355999e-01
-2.779278776482804192e-01
-2.908382491172655238e-01
-2.988756576915923002e-01
-3.010187631517430296e-01
-2.976992323802540863e-01
-2.888729877244604616e-01
-2.743469064340431363e-01
-2.551315773749287530e-01
-2.307991376014630891e-01
-2.022864578866898633e-01
-1.699832195130552837e-01
-1.343571401213441430e-01
-9.645271078540829102e-02
-5.661449924188000082e-02
-1.580524929509374843e-02
2.529660954505752457e-02
6.586692618533662724e-02
1.052846927708044333e-01
1.426427610612255314e-01
1.774723582460655535e-01
2.090672168057872149e-01
2.367068696599470279e-01
2.604340238738704905e-01
2.791994778088007223e-01
2.932711961027507641e-01
3.021391571248410735e-01
3.055190440807216135e-01
3.040197854876529604e-01
2.968697540600659934e-01
2.849188106633322448e-01
2.679927017133509892e-01
2.463236718720125396e-01
2.207720083844000314e-01
1.911410142179512661e-01
1.584506721941494334e-01
1.229473966204190916e-01
8.523990084433918923e-02
4.612124222398961138e-02
6.058457636028080628e-03
-3.419620979996995658e-02
-7.397562351345943199e-02
-1.125799071373050353e-01
-1.494949592553025397e-01
-1.837820764843662857e-01
-2.152603857239752116e-01
-2.430174284158734821e-01
-2.666074798775035504e-01
-2.859154152130800597e-01
-2.999731666434044541e-01
-3.092698812081993154e-01
-3.130071582193831858e-01
-3.112639596436315159e-01
-3.043674843685799658e-01
-2.918040343504690881e-01
-2.745783817662053039e-01
-2.523767279751911730e-01
-2.258176935102702565e-01
-1.955746310467945115e-01
-1.618191004452569359e-01
-1.256538030795661953e-01
-8.739698485103364334e-02
-4.788958180484215177e-02
-7.889559173896110167e-03
3.190002869313035561e-02
7.080810075252941260e-02
1.080283608461831690e-01
1.429773147950246237e-01
1.751127395865192948e-01
2.035969152731932352e-01
2.285365102839461149e-01
2.489504211991800109e-01
2.648461130446354561e-01
2.760604314853104535e-01
2.820054022754309164e-01
2.835099384951094148e-01
2.797514676144290391e-01
2.713191871279554412e-01
2.584045597595969745e-01
2.408796747725814313e-01
2.198812403640033608e-01
1.950285666488604797e-01
1.671897634131811472e-01
1.367949382801572078e-01
1.041994447322061035e-01
7.031364501875803086e-02
3.539889793443684596e-02
1.965850868339558133e-04
-3.474307221134864676e-02
-6.875611434566142322e-02
-1.014645045099031861e-01
-1.320580719509623080e-01
-1.602258593747096782e-01
-1.854318595275170622e-01
-2.070202685757482897e-01
-2.251939434933944995e-01
-2.389683519580962923e-01
-2.485873872269497298e-01
-2.537034104273629964e-01
-2.540015130623221040e-01
-2.501296837174518117e-01
-2.414030332582264293e-01
-2.285317490350760039e-01
-2.115113287967798072e-01
-1.905403677536021689e-01
-1.664495781083967785e-01
-1.391703511760749024e-01
-1.095807095019800670e-01
-7.804613305003194057e-02
-4.516911430845560460e-02
-1.164812367426293349e-02
2.198199480619855706e-02
5.507372590304271398e-02
8.702575226106290529e-02
1.171685013044108103e-01
1.451745593180486793e-01
1.702154819970456145e-01
1.921694626798018390e-01
2.104268429243560945e-01
2.246207076823374393e-01
2.348521251624404726e-01
2.404336794787234055e-01
2.418068421361727616e-01
2.385885520105706092e-01
2.309246533039690519e-01
2.192291965919181962e-01
2.033128835981425908e-01
1.839566818657392133e-01
1.611784121079402610e-01
1.355908489819501739e-01
1.077317281542882199e-01
7.802601730167157967e-02
4.723697784641078812e-02
1.582412835707547316e-02
-1.541832479881666274e-02
-4.600906857685327367e-02
-7.511851145803660756e-02
-1.023393723615284578e-01
-1.269446924226280693e-01
-1.483808921870992670e-01
-1.663834535215111821e-01
-1.801970587497154774e-01
-1.899690459815592258e-01
-1.950780357325194725e-01
-1.955693416066852652e-01
-1.915100306260932861e-01
-1.827083889312333120e-01
-1.697009229665402685e-01
-1.525520591299622808e-01
-1.321457843129705267e-01
-1.085492349877990037e-01
-8.176059002347102478e-02
-5.295629489895503639e-02
-2.336074812600941186e-02
5.776384124693834110e-03
3.501661520188470433e-02
6.496162025912788351e-02
9.378900123201638905e-02
1.184467382144163139e-01
1.378874529137785743e-01
1.548674681367430139e-01
1.718475596112938319e-01
1.858735079249314026e-01
1.904962777301832944e-01
1.850280820003966653e-01
1.774215946733299631e-01
1.753175261929840190e-01
1.733584065913369443e-01
1.540675300019174188e-01
1.077236482152130748e-01
4.679180600519039501e-02
