BVP Signal
-4.147852591519701759e-03
-2.609300451010704291e-02
-4.718045655860972354e-02
-6.588038793391953751e-02
-8.018249671506849641e-02
-8.774230931152976476e-02
-8.630878884950560215e-02
-7.433464640047915406e-02
-5.159239780419577759e-02
-1.959774049151402631e-02
1.831119554979680417e-02
5.729479158539932393e-02
9.168707493592215263e-02
1.159048054501799485e-01
1.254316432128275705e-01
1.177047247845008915e-01
9.273570847613621382e-02
5.332847271227597608e-02
4.817570973136404977e-03
-4.566286357896921777e-02
-9.027990555226481084e-02
-1.217955107020420868e-01
-1.348253342982287106e-01
-1.268229385126250497e-01
-9.858950671869283477e-02
-5.420175079798372764e-02
-3.730695406234940670e-04
5.462379960301627646e-02
1.022719614846296365e-01
1.351394187132904379e-01
1.480147783277419304e-01
1.386871821266538185e-01
1.082709354908772265e-01
6.104405991710737389e-02
3.831919388622317957e-03
-5.498193910166426779e-02
-1.066906024493426974e-01
-1.435752919793198412e-01
-1.600941422845856277e-01
-1.537475450725804271e-01
-1.254627526463727993e-01
-7.942708152125904641e-02
-2.240570910704192675e-02
3.732508752693219911e-02
9.123779150944943961e-02
1.317964889754958957e-01
1.534939352132875245e-01
1.535467828456115180e-01
1.321811928438850758e-01
9.250656542258228754e-02
4.002569352282148163e-02
-1.813677221488030344e-02
-7.418446774418094303e-02
-1.206617001767897324e-01
-1.514065561695573936e-01
-1.623294053890260435e-01
-1.519202211307069672e-01
-1.214189716373259148e-01
-7.462629066435776115e-02
-1.738332165357851788e-02
4.320069405219628678e-02
9.965983442359022115e-02
1.450964847290840409e-01
1.740042864113438559e-01
1.828976867218470304e-01
1.706853041448326835e-01
1.387527224536936887e-01
9.075146272075421128e-02
3.212648036877041591e-02
-3.055213974053533343e-02
-9.036686003989108373e-02
-1.408479330020065978e-01
-1.766976782674622992e-01
-1.943606808486277038e-01
-1.923666408120940363e-01
-1.713960329449606135e-01
-1.340621277848863535e-01
-8.445967282266123033e-02
-2.757996053179850859e-02
3.128793203677177059e-02
8.706754514248193910e-02
1.352608876113756686e-01
1.721679312049678723e-01
1.949998525986322839e-01
2.019424452152267790e-01
1.922160567447021295e-01
1.661521808233157871e-01
1.252780903233026155e-01
7.237727104051205895e-02
1.147529663536406286e-02
-5.230939113030463883e-02
-1.131022055022281592e-01
-1.648130628584805468e-01
-2.018387585239745929e-01
-2.198250108483474352e-01
-2.163486578660580029e-01
-1.913775721768202209e-01
-1.473978779757226798e-01
-8.916048088022954232e-02
-2.308103479722789508e-02
4.359399884161574423e-02
1.036976169774990741e-01
1.509771106809949248e-01
1.807487102193117146e-01
1.903262200945745608e-01
1.792210047368897885e-01
1.491284975226164766e-01
1.037180684940809117e-01
4.824367258635910150e-02
-1.100026283784985397e-02
-6.734060764861651838e-02
-1.144513175505470493e-01
-1.470702325341828320e-01
-1.616172062649537944e-01
-1.566207676618805444e-01
-1.328798886050256700e-01
-9.332884774646114934e-02
-4.262698096915452928e-02
1.345227962714845571e-02
6.872194948848020513e-02
1.172536946224991550e-01
1.539329369291672633e-01
1.748621776492366164e-01
1.776298563894714300e-01
1.614846605832814808e-01
1.274401202517516374e-01
7.829799155293667989e-02
1.854803104548552461e-02
-4.590647249393403628e-02
-1.082314922625304265e-01
-1.613510242846303844e-01
-1.987890081934039488e-01
-2.155567666959201101e-01
-2.089358085952854049e-01
-1.789956773178998373e-01
-1.287212728017310681e-01
-6.369852073700654760e-02
8.600898302335402423e-03
7.981298207168696646e-02
1.417786046051848770e-01
1.875606615939636457e-01
2.122323444649307222e-01
2.133547567876104833e-01
1.911338659156419095e-01
1.482952499206132424e-01
8.973002209776489990e-02
2.195843305581327010e-02
-4.755024426910682556e-02
-1.111581052982168472e-01
-1.618788161551391880e-01
-1.941580765639255302e-01
-2.045225867600143910e-01
-1.920042039265402734e-01
-1.582602045146803693e-01
-1.073496498025787171e-01
-4.519038011924678827e-02
2.120908080994834966e-02
8.460510714756902528e-02
1.383256145454781483e-01
1.769286956351035500e-01
1.966645851533944112e-01
1.957367486843038518e-01
1.743870152667170159e-01
1.348384947615656193e-01
8.111755745592207079e-02
1.875126081530033295e-02
-4.568172716360607843e-02
-1.051620543687942777e-01
-1.529824931982878833e-01
-1.835723988774465298e-01
-1.932777188747828445e-01
-1.809533305248685053e-01
-1.482281367573063391e-01
-9.934993423806316726e-02
-4.060627782649255113e-02
2.057765950983217462e-02
7.668756879229415846e-02
1.211226412049530299e-01
1.489999697465015371e-01
1.576721061700684379e-01
1.469272943155820188e-01
1.188845932343761125e-01
7.762811387292656296e-02
2.864877295999256751e-02
-2.182716900958817097e-02
-6.754970899005403873e-02
-1.029381318985495702e-01
-1.237040923940874448e-01
-1.273493218162264906e-01
-1.134785485762567075e-01
-8.387807020630735910e-02
-4.233653502821432824e-02
5.781717344266273928e-03
5.416874097440345370e-02
9.634258248509038058e-02
1.264663230984108266e-01
1.401170269784350331e-01
1.349068777361522864e-01
1.108729397725103927e-01
7.057290696864698676e-02
1.885069932868688181e-02
-3.772678777108204318e-02
-9.170982622112802685e-02
-1.357767918906430116e-01
-1.637694582632580886e-01
-1.715919232633470182e-01
-1.578259008370873628e-01
-1.239533377286151095e-01
-7.413892795662965773e-02
-1.460624323756479909e-02
4.727474290587779793e-02
1.040135496493899830e-01
1.489571925156895071e-01
1.770435976893985908e-01
1.852826471992417845e-01
1.729584395098517358e-01
1.415839421424490430e-01
9.465490263746664801e-02
3.725102006693267742e-02
-2.447609519240026565e-02
-8.390001562547338976e-02
-1.345763245005748288e-01
-1.709198378599200707e-01
-1.888367206609190829e-01
-1.862250187077038599e-01
-1.632588974222721201e-01
-1.224008776959623623e-01
-6.813242263735197479e-02
-6.440776086599236949e-03
5.586363875259492406e-02
1.119070759320670155e-01
1.554996393898063767e-01
1.817963458251076747e-01
1.878179091389919342e-01
1.727898465566510278e-01
1.382651315036110828e-01
8.800469898417806469e-02
2.760956044790899289e-02
-3.607309173096498456e-02
-9.571835247971348382e-02
-1.443907917885074721e-01
-1.764114280239436616e-01
-1.881033940606111621e-01
-1.782874905385324893e-01
-1.484247665478159450e-01
-1.023673892701119081e-01
-4.576236344770273634e-02
1.477489510604490519e-02
7.256019539300354038e-02
1.216549223255775636e-01
1.574698101597034883e-01
1.770935268383698191e-01
1.793550676260761145e-01
1.646904707767265497e-01
1.349091436662501198e-01
9.293755563290509447e-02
4.257644532627227751e-02
-1.173261832219347350e-02
-6.516048705552174303e-02
-1.127998787683333337e-01
-1.500549039814711716e-01
-1.731004671416590257e-01
-1.793545763037443230e-01
-1.678697689965962803e-01
-1.395463103314486530e-01
-9.710589342070662100e-02
-4.482276317644814240e-02
1.193901406718889807e-02
6.730566371429989869e-02
1.155106971533734206e-01
1.514803827771065425e-01
1.713404401913297126e-01
1.728171700996756766e-01
1.555141693401453917e-01
1.210378416303172500e-01
7.293327152121879819e-02
1.639607875041275420e-02
-4.224540962368536490e-02
-9.623976674951245647e-02
-1.392346971471941086e-01
-1.661022575410766033e-01
-1.736391903791072999e-01
-1.610157512392177970e-01
-1.298796362676488125e-01
-8.408879094233240314e-02
-2.912957698775484050e-02
2.865612761830683974e-02
8.288487601707897334e-02
1.278549013964923597e-01
1.590935693559671349e-01
1.736966749751416295e-01
1.704711360338047044e-01
1.499205622992593745e-01
1.141203006600517988e-01
6.651470203302767281e-02
1.164520327704371416e-02
-4.519946699317783922e-02
-9.841920255162681097e-02
-1.426159608712252724e-01
-1.731510043388586884e-01
-1.866858340515386017e-01
-1.816242126170101445e-01
-1.583635153411535601e-01
-1.192828033939515309e-01
-6.844890151865951067e-02
-1.109286328967440394e-02
4.703627262129889131e-02
1.003192172454740738e-01
1.438186442527323861e-01
1.736827539457332925e-01
1.873906342169282258e-01
1.838610928662094413e-01
1.634611605753770180e-01
1.279472611368752122e-01
8.035364900091010454e-02
2.481939088467394194e-02
-3.366830911663977466e-02
-8.963276525135813189e-02
-1.375700871974974704e-01
-1.724943505428271351e-01
-1.905175746403805492e-01
-1.893842260037755798e-01
-1.688549709014822708e-01
-1.308388977819828769e-01
-7.921980020470886785e-02
-1.939607864850856345e-02
4.237724594046504700e-02
9.971944733061596788e-02
1.468076602259308361e-01
1.789299592167779285e-01
1.928750271529701688e-01
1.871674105816218958e-01
1.621764055435316321e-01
1.201190894787541041e-01
6.495183570360224534e-02
2.118890171901754993e-03
-6.187680889167321285e-02
-1.200879274255890333e-01
-1.658829849366147968e-01
-1.937677334104108695e-01
-2.001507283458116015e-01
-1.839221035548297412e-01
-1.467241280376201384e-01
-9.283394132037153801e-02
-2.865271260817053856e-02
3.811952208149953225e-02
9.948158940723059174e-02
1.481417087386309728e-01
1.784029654097739614e-01
1.868265718078191417e-01
1.726171966123264956e-01
1.377089600273246894e-01
8.655535741648406889e-02
2.564170614225116940e-02
-3.724956928969264114e-02
-9.397183737493709776e-02
-1.370628773384079957e-01
-1.607830845518634644e-01
-1.619822843919703215e-01
-1.406305628059476009e-01
-9.988835337933354985e-02
-4.567065936008485316e-02
1.423772416483082282e-02
7.136139391068335724e-02
1.177898888687699819e-01
1.472861392792301771e-01
1.560794509608641190e-01
1.432634656527916883e-01
1.108006332636902180e-01
6.318183613786498842e-02
6.806826438229829357e-03
-5.084121345557385263e-02
-1.021417698216789960e-01
-1.403047312794928891e-01
-1.602529036579975474e-01
-1.593120446982058958e-01
-1.376068646598863632e-01
-9.808125146586599286e-02
-4.610907624131288518e-02
1.126194443230615905e-02
6.631222077955295502e-02
1.117297160406143242e-01
1.415979257520761370e-01
1.521587458878591315e-01
1.422655562585133371e-01
1.134899548046367362e-01
6.988858143238937948e-02
1.747153887173896747e-02
-3.656318499062199967e-02
-8.475163716600842001e-02
-1.203497246260226972e-01
-1.382679810231063067e-01
-1.358209313768594384e-01
-1.131613147942636816e-01
-7.330982862506711661e-02
-2.175984931717155069e-02
3.428689819486199775e-02
8.693432482173016340e-02
1.286984642822369684e-01
1.535417185192404776e-01
1.576919729075074439e-01
1.401480637821878594e-01
1.028249701349645551e-01
5.033502574894260784e-02
-1.056953598160962488e-02
-7.184225160705852431e-02
-1.251929153868925060e-01
-1.632203756490944735e-01
-1.804739985678536773e-01
-1.742809982654964784e-01
-1.451959500303868222e-01
-9.697765004341096784e-02
-3.607556740927653216e-02
2.929784237407287439e-02
9.034864381015816903e-02
1.389341599128775528e-01
1.686569873736475378e-01
1.756810412031914459e-01
1.591885560165009483e-01
1.214443454403994760e-01
6.747225824596211896e-02
4.387002384794273790e-03
-5.953767458412745350e-02
-1.159525260446352402e-01
-1.575347149668834823e-01
-1.789613707898904948e-01
-1.776077108131973170e-01
-1.538497213439267708e-01
-1.109163272052210159e-01
-5.432823855373333788e-02
8.951950617156756440e-03
7.148564469186555193e-02
1.262718372692788193e-01
1.674853295155970256e-01
1.909792642383132677e-01
1.945515036391387287e-01
1.780154351972825788e-01
1.431267393304640756e-01
9.339876636234856200e-02
3.380842497359108634e-02
-2.962180541386266741e-02
-9.036864490968751773e-02
-1.420525945502130738e-01
-1.791252350001064364e-01
-1.975205137532067556e-01
-1.951776429111353184e-01
-1.723414414449770116e-01
-1.315685357972474767e-01
-7.742134843847015002e-02
-1.590090779949310251e-02
4.627748565202860487e-02
1.024479951036172398e-01
1.467015619465439069e-01
1.744749721040291246e-01
1.829857593929531123e-01
1.714916094604220509e-01
1.413623569875317176e-01
9.596014601330182803e-02
4.032889272478534792e-02
-1.929849539831543503e-02
-7.615079521005577168e-02
-1.236763056858669052e-01
-1.563278690480867927e-01
-1.702745547014781757e-01
-1.639340896157965577e-01
-1.382307039234561830e-01
-9.651259922774080291e-02
-4.411738458431466170e-02
1.235288787062067961e-02
6.591911652768328578e-02
1.101196676655909479e-01
1.397791791982783693e-01
1.515712897144054772e-01
1.443451924145793264e-01
1.192147547530304497e-01
7.941897369631542580e-02
2.996694687394993450e-02
-2.291171426868165995e-02
-7.247676719960920166e-02
-1.122921739080467995e-01
-1.370602691133320783e-01
-1.433591418073122403e-01
-1.301568606606070544e-01
-9.900212443286331154e-02
-5.384841934085576876e-02
-5.360085959956462087e-04
5.398757034269542621e-02
1.025906915092133775e-01
1.388901213069762275e-01
1.580645568248728317e-01
1.574497069517575287e-01
1.368569084887029663e-01
9.859550366351790829e-02
4.720533948893992915e-02
-1.107499680172219225e-02
-6.905614498463565065e-02
-1.194865847091979294e-01
-1.559811465898504057e-01
-1.738729081373776020e-01
-1.708670100196599262e-01
-1.473825520366990882e-01
-1.064994045858208283e-01
-5.349279839488579880e-02
4.967774619324599739e-03
6.179399394235027265e-02
1.104329306447411757e-01
1.456346236614197154e-01
1.639402181414767734e-01
1.638777043941911371e-01
1.459135631210850548e-01
1.122396768730552497e-01
6.647251192446590462e-02
1.331087016212939567e-02
-4.184310442947988817e-02
-9.332173856798803291e-02
-1.357036758515390573e-01
-1.643771907293506973e-01
-1.760867532121040968e-01
-1.693669496077969128e-01
-1.447701443145221756e-01
-1.048247898272586520e-01
-5.371369414610135951e-02
3.274779830129567748e-03
6.041490527438472813e-02
1.122019146705278136e-01
1.538933701298353385e-01
1.818787239483263263e-01
1.938759532322502643e-01
1.889878903413009792e-01
1.676623394019114144e-01
1.315976447148008155e-01
8.362311172653436042e-02
2.756045314262625667e-02
-3.195650042552325432e-02
-8.974519231304925460e-02
-1.404552739475040946e-01
-1.790686684608803481e-01
-2.014755873779456585e-01
-2.050424658668469347e-01
-1.890611395257599525e-01
-1.549663285342549324e-01
-1.062431737747192295e-01
-4.801897065150015353e-02
1.358235616970401849e-02
7.218907856266873480e-02
1.218978153944655363e-01
1.578623268150641801e-01
1.767139155422288721e-01
1.768131856398299506e-01
1.583535450819255619e-01
1.233401505650179031e-01
7.545681838780354811e-02
1.981269487122783168e-02
-3.745642934054835282e-02
-8.975295966660501445e-02
-1.307357958837538081e-01
-1.551263322604615191e-01
-1.594854861585662253e-01
-1.428170612331299549e-01
-1.068596805585775855e-01
-5.597532248941594624e-02
3.378279243684056965e-03
6.351199076495306350e-02
1.165547393223476391e-01
1.555105489297379795e-01
1.751676493981931537e-01
1.727514393434315954e-01
1.482594368462880896e-01
1.044523876086726200e-01
4.650915557355203567e-02
-1.860930505592420237e-02
-8.300699011132284255e-02
-1.388114401196927639e-01
-1.791390846137154713e-01
-1.989595858340070800e-01
-1.957474186823355278e-01
-1.698170344001687926e-01
-1.242745169325188415e-01
-6.458453788862053568e-02
2.173310240329712206e-03
6.822852561959161233e-02
1.260743612447451367e-01
1.693196911777784808e-01
1.933442308346302319e-01
1.957123272539844361e-01
1.763446985576478943e-01
1.374724410554225007e-01
8.339821538458827566e-02
2.007817088157717866e-02
-4.546372193679276696e-02
-1.058594291223861894e-01
-1.542006982078550081e-01
-1.848409831909668122e-01
-1.940995330199218882e-01
-1.807660151805738635e-01
-1.463107299630481417e-01
-9.473761517186760073e-02
-3.208089510698913793e-02
3.437596382970137254e-02
9.702227325014339820e-02
1.488318933668409394e-01
1.841397299212255145e-01
1.992043635274650670e-01
1.925248094972291935e-01
1.649148988970785823e-01
1.193595971928707034e-01
6.068536506337068870e-02
-4.922857447971495937e-03
-7.052461365065948451e-02
-1.291072869156756342e-01
-1.743001474663550265e-01
-2.010593624194710327e-01
-2.062555900098587136e-01
-1.890884547680810601e-01
-1.512527808302638332e-01
-9.680309823115051948e-02
-3.171170800793898792e-02
3.682198828975014049e-02
1.012044034625291244e-01
1.543016713041845955e-01
1.902114893237341064e-01
2.048833514497459540e-01
1.965476971512493121e-01
1.659322505706090634e-01
1.162511627466937814e-01
5.295589733851080450e-02
-1.675837017943632157e-02
-8.468464895174659945e-02
-1.425395276889153129e-01
-1.830184167109900339e-01
-2.008297832961738472e-01
-1.935294499625531683e-01
-1.619824953281139290e-01
-1.103367834453984342e-01
-4.548359268584101223e-02
2.391694653320874941e-02
8.868004735599266386e-02
1.403941974825519690e-01
1.725590227529851806e-01
1.814008750369700551e-01
1.662815490794309903e-01
1.296880056108841717e-01
7.683992079838833367e-02
1.498012404052184721e-02
-4.756671712745182828e-02
-1.024628127009070688e-01
-1.424336050633113193e-01
-1.622235827237281103e-01
-1.593036870455905862e-01
-1.342173522173532030e-01
-9.049328086306741847e-02
-3.412536706740080389e-02
2.729287179243085337e-02
8.562477916485797258e-02
1.332627191673749212e-01
1.640657234280332166e-01
1.740606344632740776e-01
1.618532816074063629e-01
1.287356729857771498e-01
7.850554779015561646e-02
1.703484050337195077e-02
-4.836853469630864044e-02
-1.097603464156797493e-01
-1.594684462902929145e-01
-1.910332565680568084e-01
-2.000696913771436991e-01
-1.849167916400856759e-01
-1.469501535068312159e-01
-9.047938858281617813e-02
-2.222706030210996886e-02
4.953506378827216006e-02
1.160544226845460214e-01
1.692041577278585174e-01
2.024724228197581077e-01
2.117219151802569310e-01
1.956584547310145084e-01
1.559844547412319038e-01
9.723034243553552169e-02
2.626907286967394839e-02
-4.845732370627758856e-02
-1.179328474630203516e-01
-1.736783281648576205e-01
-2.088410597724399687e-01
-2.191094711938010864e-01
-2.033022935099883799e-01
-1.635168623468963855e-01
-1.047953139028115488e-01
-3.436684829316294376e-02
3.938577587377034561e-02
1.080409156005975868e-01
1.641471179021982141e-01
2.019889092096827377e-01
2.180420289972936354e-01
2.111251055392019960e-01
1.823136291862887948e-01
1.347052033237962076e-01
7.310526279936313543e-02
3.655709780478022530e-03
-6.661468479711174506e-02
-1.303545881149263397e-01
-1.805846309399194993e-01
-2.114885220393388221e-01
-2.192062376541688007e-01
-2.024830111358378870e-01
-1.630107669573427343e-01
-1.053383339457036882e-01
-3.632226861429843634e-02
3.579296994693259570e-02
1.024887558710845803e-01
1.560771729716246004e-01
1.906269905886159577e-01
2.026030679156608505e-01
1.911746325731843998e-01
1.581983759097701503e-01
1.079171424201298413e-01
4.643247677302608789e-02
-1.898847827979149860e-02
-8.071393401610155172e-02
-1.315942948722221006e-01
-1.657796030015118993e-01
-1.794182829263730738e-01
-1.711443109761260628e-01
-1.422734933089673526e-01
-9.666136207097691946e-02
-4.022282018242748225e-02
1.982929862319071646e-02
7.591621852422257566e-02
1.210542398042995238e-01
1.497086299449780222e-01
1.584416129812907803e-01
1.463020705369010854e-01
1.149372247806015879e-01
6.842228057919058637e-02
1.281565440636261988e-02
-4.453445959678453692e-02
-9.588087549688434352e-02
-1.340827035769105169e-01
-1.536065998368983387e-01
-1.513749128222240670e-01
-1.273046122584382545e-01
-8.441433441377946267e-02
-2.845241249453406285e-02
3.290436389131477790e-02
9.114667210232219041e-02
1.381406944026284667e-01
1.672596521093021871e-01
1.742785323533002362e-01
1.579230744237904438e-01
1.200240746874734477e-01
6.528104615354486662e-02
6.762987938769282614e-04
-6.539536574876349262e-02
-1.241940725413007429e-01
-1.677844884605365905e-01
-1.901243211979627423e-01
-1.879347049170203565e-01
-1.612102592456527428e-01
-1.132722712462832376e-01
-5.033804382373197051e-02
1.933821603661634025e-02
8.661858265722977013e-02
1.427400983204719642e-01
1.804799714192082405e-01
1.950642952045466005e-01
1.847205343597368710e-01
1.508362956903899765e-01
9.773225270275809340e-02
3.208955609084984673e-02
-3.789732227932618436e-02
-1.035413196069772113e-01
-1.567359344706653612e-01
-1.909552618462270757e-01
-2.020614092081236546e-01
-1.888108961896306504e-01
-1.529765690188662486e-01
-9.905555897850615299e-02
-3.361383856038935303e-02
3.560665897074843933e-02
1.006572532906027106e-01
1.542827426501170440e-01
1.906554031877245314e-01
2.058988193742216366e-01
1.983981842574735199e-01
1.689136934198612328e-01
1.205120508154824965e-01
5.831610902446360267e-02
-1.093864256954782399e-02
-7.954366280718681848e-02
-1.396249403834611824e-01
-1.840487256637431401e-01
-2.073196134066436491e-01
-2.063447757356705325e-01
-1.809356728519010415e-01
-1.339387667903948753e-01
-7.093852482243889757e-02
4.428317204824838704e-04
7.153871624955954189e-02
1.337589288584188907e-01
1.796643650214030108e-01
2.038538670345262094e-01
2.035698580293133775e-01
1.789776667945287558e-01
1.331147287654143030e-01
7.153624679990538970e-02
1.699863261464207298e-03
-6.786291186669571318e-02
-1.285327804343184832e-01
-1.726666415751873518e-01
-1.946216617613066857e-01
-1.915876308535290340e-01
-1.640702161033927853e-01
-1.159054491384747254e-01
-5.376441655460800773e-02
1.379202725611106128e-02
7.755351646658716069e-02
1.289795740298870785e-01
1.613763928216154775e-01
1.707589810752422332e-01
1.563076528818302391e-01
1.204035179904965336e-01
6.827475580340691685e-02
7.307698218191244210e-03
-5.390683888412559077e-02
-1.066981043677542179e-01
-1.434887364007004229e-01
-1.588715094970332420e-01
-1.504341906946432550e-01
-1.191876558098009520e-01
-6.949350788206795637e-02
-8.466559559908631849e-03
5.506700523353152965e-02
1.118788640125898404e-01
1.536895234003564925e-01
1.743459932081230512e-01
1.706631333591794308e-01
1.428321767023286171e-01
9.436505599657663002e-02
3.160259279654242803e-02
-3.713473945209144755e-02
-1.026391525082253620e-01
-1.560190498998594855e-01
-1.898762037137555203e-01
-1.993167773667289810e-01
-1.826581987785533823e-01
-1.417138811223747075e-01
-8.159039266825413028e-02
-1.001381749622598516e-02
6.371129844171785628e-02
1.299465917519769254e-01
1.799849285690794942e-01
2.071684402746938880e-01
2.077290156985101000e-01
1.812671018498015763e-01
1.308306477253135536e-01
6.259259484167933874e-02
-1.484890953736064945e-02
-9.149740317644644572e-02
-1.572216178190672664e-01
-2.031112818904190209e-01
-2.227347303602774664e-01
-2.130954370794984065e-01
-1.751180417368223274e-01
-1.135682900643989468e-01
-3.640962840487782515e-02
4.629958793463906375e-02
1.237852179889722404e-01
1.859949158090024035e-01
2.248929336895043596e-01
2.354623351027837486e-01
2.163202291673343713e-01
1.698920306694262083e-01
1.021228879792915878e-01
2.174565531449079714e-02
-6.082171696119409443e-02
-1.348247771964937725e-01
-1.906055333571864963e-01
-2.209364741676742294e-01
-2.220639098111582277e-01
-1.942826210008705146e-01
-1.419169489280472929e-01
-7.268192449996546678e-02
3.480118830179734779e-03
7.588800648271765148e-02
1.346823043657749963e-01
1.722090549595704512e-01
1.840269293514742444e-01
1.694143878401424552e-01
1.313390459276220779e-01
7.592942784015987989e-02
1.154649985636224674e-02
-5.241356436645427941e-02
-1.068334993878218842e-01
-1.441387793706005449e-01
-1.593394802960353684e-01
-1.506986095996982744e-01
-1.199256614091559897e-01
-7.186654647705278953e-02
-1.374136086648058974e-02
4.594478132457080477e-02
9.864091441341021893e-02
1.369470796059086837e-01
1.556016950059065374e-01
1.521451959223643624e-01
1.272029537392356247e-01
8.437452292532740539e-02
2.974739078647622992e-02
-2.891581638844242796e-02
-8.322915990837287392e-02
-1.253468231148932022e-01
-1.490837535381051016e-01
-1.508333964524675164e-01
-1.301378949618801073e-01
-8.980446879334696986e-02
-3.552839324235251839e-02
2.492701836908593760e-02
8.285594828999659489e-02
1.298530239915675621e-01
1.589858798952796803e-01
1.657458369190146774e-01
1.486703833665565799e-01
1.095706461891023942e-01
5.333506810396665410e-02
-1.267480731604181399e-02
-7.957136007643678122e-02
-1.381212977141251796e-01
-1.800150975988747959e-01
-1.990552654649082598e-01
-1.920825530016805338e-01
-1.594802172590145117e-01
-1.051607226483416424e-01
-3.603581724369120387e-02
3.893390664299295478e-02
1.099521930454271379e-01
1.676853177124365268e-01
2.044767356747589360e-01
2.153342166654076961e-01
1.985797246725449217e-01
1.560919137832207371e-01
9.311057367805436469e-02
1.761141910448307812e-02
-6.069505512312794310e-02
-1.316321524477967186e-01
-1.859300776006694855e-01
-2.165054480820711169e-01
-2.194481023936749042e-01
-1.945529451999474801e-01
-1.453039078985191024e-01
-7.830915810608254923e-02
-2.286811536339861117e-03
7.321391231206142436e-02
1.391264176661870522e-01
1.879985531730794523e-01
2.147897026917090502e-01
2.172675415516914788e-01
1.960180474532597639e-01
1.541364029374144295e-01
9.669430588420296901e-02
3.008515372809483779e-02
-3.866542706972697641e-02
-1.025659363274981084e-01
-1.552760872847340212e-01
-1.916630661693355386e-01
-2.082747623235989276e-01
-2.036839584540530712e-01
-1.786430778615966108e-01
-1.359993533840428981e-01
-8.035578712323110384e-02
-1.751378833373834487e-02
4.621657050371991149e-02
1.047204567124181834e-01
1.526791145071360323e-01
1.859900117543556719e-01
2.019917803071435425e-01
1.995338035654360964e-01
1.789494088253853477e-01
1.419761203220127332e-01
9.163908470498025038e-02
3.209371911922415110e-02
-3.158811908689997117e-02
-9.371308380283752126e-02
-1.483691830663748656e-01
-1.899476862794830245e-01
-2.137589539501574265e-01
-2.166714681576109303e-01
-1.976661273647360439e-01
-1.581822841379303402e-01
-1.021462959328027775e-01
-3.562308623467103086e-02
3.388846341455553635e-02
9.840923304737420052e-02
1.505187306511583945e-01
1.843085372804914301e-01
1.961161362056045854e-01
1.849584290605357506e-01
1.526316288776320418e-01
1.034788405731486560e-01
4.385561446916341755e-02
-1.864629439611253936e-02
-7.612861184032426731e-02
-1.213623911493207919e-01
-1.486960522799548046e-01
-1.547846435260525344e-01
-1.390402874467953076e-01
-1.037278898496926255e-01
-5.367580055210122159e-02
4.363869866641389983e-03
6.260595348948222449e-02
1.132362730962160335e-01
1.493901199732782792e-01
1.659913593835338208e-01
1.603719301141017795e-01
1.326228454083462904e-01
8.565217266974645138e-02
2.493966227861268981e-02
-4.201430185631183090e-02
-1.065307454155014766e-01
-1.598300981862772474e-01
-1.942312578669279644e-01
-2.043008451680761173e-01
-1.877562787172463998e-01
-1.459459031996489242e-01
-8.379361333938237233e-02
-9.191544804758366993e-03
6.807072086952359324e-02
1.376666745313397944e-01
1.901654758116442800e-01
2.183227069337030368e-01
2.180566282261052757e-01
1.889968525492872753e-01
1.345531596950496345e-01
6.150721271611631763e-02
-2.082047558409172439e-02
-1.017324550067618683e-01
-1.705152783307193887e-01
-2.178462548880822913e-01
-2.370766730519763554e-01
-2.252132009261030299e-01
-1.834300688051604955e-01
-1.169954842609859935e-01
-3.459210389711797617e-02
5.287132064182328839e-02
1.337640753243111991e-01
1.973163812642681203e-01
2.350544341472042553e-01
2.419071555959284858e-01
2.168638877918085406e-01
1.631203805090831738e-01
8.770146092654917958e-02
5.948261708531576986e-04
-8.652215944851004981e-02
-1.618271294244216785e-01
-2.149779573225216178e-01
-2.385877774933225226e-01
-2.293162695913686100e-01
-1.883897724120778827e-01
-1.214517187606020676e-01
-3.775777703840915711e-02
5.115696401577679575e-02
1.331222586153969489e-01
1.970265892106005112e-01
2.343081033963503867e-01
2.400477325178336507e-01
2.135518559593195809e-01
1.583899496401233731e-01
8.191096663639538256e-02
-5.696512850215301738e-03
-9.270031506040163349e-02
-1.673419423114126114e-01
-2.194074790785921492e-01
-2.416602838730589342e-01
-2.309339046917180394e-01
-1.886973668423000128e-01
-1.209566567286886607e-01
-3.745532047349109384e-02
4.973124234028231117e-02
1.279896835897429974e-01
1.860587413232182852e-01
2.157150472328471791e-01
2.130001722169449219e-01
1.788116415506013079e-01
1.187722398944504043e-01
4.239048826150981775e-02
-3.837469197056087022e-02
-1.109415297574701809e-01
-1.640551057977224225e-01
-1.895583316195118551e-01
-1.836957450451601470e-01
-1.477228647605643430e-01
-8.770362358554645299e-02
-1.352145429701889778e-02
6.272699569656625673e-02
1.286797569432148736e-01
1.736749646292101712e-01
1.904209579439126721e-01
1.761176707201717040e-01
1.328691857973782753e-01
6.733884667550509018e-02
-1.028928639474752105e-02
-8.788210053539591282e-02
-1.532301616863227522e-01
-1.959452103272754098e-01
-2.090916988912931984e-01
-1.902869051535702738e-01
-1.420803809627755321e-01
-7.154739684418343071e-02
1.082466075897406399e-02
9.275389455083504764e-02
1.620101016638781366e-01
2.082024359635027966e-01
2.242595330089826033e-01
2.074213604902011010e-01
1.596396983238690948e-01
8.735470150903407172e-02
6.722551945172565435e-04
-8.798144808143443241e-02
-1.655908327600199015e-01
-2.204558452338658547e-01
-2.439909882730357249e-01
-2.321122782228125236e-01
-1.859496856321021241e-01
-1.117367680378726913e-01
-1.988605644139040951e-02
7.658424463869839549e-02
1.639910803619480939e-01
2.299658975940946370e-01
2.651677757699537619e-01
2.645057219639987411e-01
2.277505181352248997e-01
1.595113299314584454e-01
6.861636348784116990e-02
-3.302309868077590860e-02
-1.319473877124656136e-01
-2.149151956092256732e-01
-2.706873386726721398e-01
-2.915844905410265864e-01
-2.745824491159444269e-01
-2.217574181650856513e-01
-1.399883690648765500e-01
-3.995451525196525022e-02
6.539810270184287511e-02
1.626508658838908272e-01
2.396735159702698681e-01
2.871039690959408253e-01
2.993856897034725129e-01
2.752926738312927446e-01
2.179459314147493831e-01
1.343732768187440030e-01
3.468610908235936208e-02
-6.905015690261956385e-02
-1.641746792103613295e-01
-2.389228121261932347e-01
-2.839111485701056870e-01
-2.934259959012803232e-01
-2.663017138461513111e-01
-2.062045452515604838e-01
-1.212232866886535088e-01
-2.279183181113797474e-02
7.590203001448089792e-02
1.617672521195006596e-01
2.236219028017737420e-01
2.536924983817548940e-01
2.486018671061533403e-01
2.097455496415369658e-01
1.430445947156757658e-01
5.812605131413245418e-02
-3.296921804370944731e-02
-1.174040632198593975e-01
-1.832932675018400515e-01
-2.213543099473013198e-01
-2.262261843478228229e-01
-1.972500485927838332e-01
-1.385722813582445090e-01
-5.853464936280994291e-02
3.155680028742935406e-02
1.190746080167879861e-01
1.918450163187263025e-01
2.397777029479492006e-01
2.561376337028750116e-01
2.383376519497579782e-01
1.882081631926320886e-01
1.117498607830537116e-01
1.840796702695407516e-02
-8.006213190395533585e-02
-1.710323098192759739e-01
-2.425986357471111021e-01
-2.851566653087068137e-01
-2.927441204249335849e-01
-2.639358203641458123e-01
-2.021184538565720668e-01
-1.150688045102437329e-01
-1.388759217309955274e-02
8.853741286296164248e-02
1.792860832005992722e-01
2.471039430157352945e-01
2.838030006154732554e-01
2.852002109218936265e-01
2.515199697784921140e-01
1.872665691879445982e-01
1.006223883075425540e-01
2.450102929866082579e-03
-9.500853420070642930e-02
-1.796189135472169296e-01
-2.408671555425583033e-01
-2.712100165701835097e-01
-2.670651391269588393e-01
-2.292792169849344197e-01
-1.629816989284659234e-01
-7.683141172693480625e-02
1.822200468287094033e-02
1.104418318095508056e-01
1.888104763773086336e-01
2.443081421685561749e-01
2.708234460424648882e-01
2.656558111842775571e-01
2.296398579739958867e-01
1.669494613020405804e-01
8.463524498126023810e-02
-8.067042397184920333e-03
-1.006327094025697422e-01
-1.823206445032378165e-01
-2.433646588419979273e-01
-2.761749435468319747e-01
-2.763896732477460483e-01
-2.435944581121030628e-01
-1.815515018714939088e-01
-9.784937708351465480e-02
-2.983262667550778957e-03
9.101757225082324210e-02
1.722086907309050008e-01
2.303413839985075651e-01
2.582194733843943824e-01
2.526169984140816949e-01
2.146597288786071533e-01
1.496547594219088950e-01
6.640941463203664519e-02
-2.388050200555930092e-02
-1.090573071928275239e-01
-1.775886625563486421e-01
-2.201273205602965466e-01
-2.308368284142891524e-01
-2.082814879756821891e-01
-1.557150921375966557e-01
-8.068053375987790932e-02
6.049715948094188875e-03
9.203174258240773287e-02
1.649495837967851486e-01
2.143686873330726828e-01
2.331904727773933539e-01
2.186231803871171442e-01
1.725577951843205726e-01
1.013082526381972603e-01
1.474706339730980087e-02
-7.505758422230096594e-02
-1.555276638703692871e-01
-2.153560972815462826e-01
-2.461275765012047589e-01
-2.435307258518570328e-01
-2.079619248585934388e-01
-1.444166564926415708e-01
-6.169220354772197989e-02
2.894689771889935592e-02
1.153994591722791174e-01
1.863840365687759737e-01
2.328810196854199932e-01
2.491896409803181500e-01
2.335121015321658389e-01
1.880516310617340592e-01
1.186628089144861065e-01
3.411777357655024212e-02
-5.493772317299652763e-02
-1.372510648329290095e-01
-2.023384242841480274e-01
-2.418214083404745529e-01
-2.505513358485445541e-01
-2.273469644936192136e-01
-1.752056112875838012e-01
-1.009200885713210927e-01
-1.413778383813252271e-02
7.398942014875312112e-02
1.523317762565667699e-01
2.112297573689972952e-01
2.436537677897040732e-01
2.459527735266076598e-01
2.181577468741917047e-01
1.638669059663132033e-01
8.976858922110325656e-02
4.866396548577400782e-03
-8.052591073992698689e-02
-1.559455641640062895e-01
-2.120067610851969486e-01
-2.415716965676283357e-01
-2.407172687506589637e-01
-2.093386851733314014e-01
-1.512619232169549188e-01
-7.381093212051542674e-02
1.312609446290394222e-02
9.839494320248790005e-02
1.710419349292695013e-01
2.217357004590998493e-01
2.439537857483840000e-01
2.347952788450176909e-01
1.953439246180341260e-01
1.305615357402523657e-01
4.872879406790284196e-02
-3.952308382513783358e-02
-1.225141641682833821e-01
-1.890283812559561960e-01
-2.298607812637994685e-01
-2.391835375363340899e-01
-2.155066740963682004e-01
-1.620432260663293988e-01
-8.636836807060445376e-02
6.180257305433423110e-04
8.627984240454594778e-02
1.581264223234843946e-01
2.056778508968533647e-01
2.220231807702298943e-01
2.048503398264591158e-01
1.568137061155651102e-01
8.519004979635580455e-02
8.563915224302776075e-04
-8.328844591046780099e-02
-1.542489944470550878e-01
-2.009278227207591527e-01
-2.158828849457468113e-01
-1.965560481185462116e-01
-1.457459448743734787e-01
-7.121573813530002184e-02
1.551530480311466564e-02
1.009871229192409597e-01
1.719006213447035192e-01
2.171556240153073580e-01
2.295193907026801261e-01
2.067047126975458671e-01
1.517289564014326630e-01
7.251428042305761712e-02
-1.922236069083566729e-02
-1.096533261002110016e-01
-1.848840005718802859e-01
-2.330795549698549129e-01
-2.463583084109732535e-01
-2.221325526258028926e-01
-1.636363360814133139e-01
-7.951049530851941882e-02
1.750636169782757157e-02
1.125593085989422815e-01
1.909917221628324724e-01
2.406121883289120689e-01
2.535605462426282486e-01
2.274993038819760338e-01
1.659691018929462802e-01
7.787354012732400355e-02
-2.381984757321797819e-02
-1.239750531004831235e-01
-2.075178794840869534e-01
-2.616888054581716361e-01
-2.779819139390568017e-01
-2.534535987935317425e-01
-1.911701930796045890e-01
-9.971296199613810529e-02
8.162243342889952125e-03
1.174581051576819579e-01
2.131208538981753664e-01
2.821283489601351668e-01
3.151902100111497185e-01
3.078652383989421981e-01
2.610076934345020305e-01
1.805465639379816301e-01
7.666768312872579427e-02
-3.749005726786208692e-02
-1.474823193095519125e-01
-2.393769933749503309e-01
-3.015369251487870494e-01
-3.261447294417306741e-01
-3.102558284515700704e-01
-2.562086849861753279e-01
-1.713002400390984947e-01
-6.674984961566909902e-02
4.388952626957176584e-02
1.466010825921223448e-01
2.287407051593515206e-01
2.805707346267349855e-01
2.963232741870990283e-01
2.747315383126440747e-01
2.190401084553257327e-01
1.365401955173223270e-01
3.769313360328774287e-02
-6.507919593678268555e-02
-1.588391702214149159e-01
-2.316904560186154871e-01
-2.742902028076741328e-01
-2.811228722269961677e-01
-2.513267256163583818e-01
-1.888984631256628299e-01
-1.021962097681990977e-01
-2.794136100910060705e-03
9.612962713517135549e-02
1.816061749107708012e-01
2.426043538345482586e-01
2.714301983548583763e-01
2.646362972282527704e-01
2.233739120041255966e-01
1.531932774946989095e-01
6.333780444446390767e-02
-3.439795715227145223e-02
-1.271439995951677560e-01
-2.026122874682037001e-01
-2.507336712564303127e-01
-2.650452881462193044e-01
-2.436120267045842613e-01
-1.893193664198604687e-01
-1.094657090231163643e-01
-1.470184786836625790e-02
8.250868581602599505e-02
1.696392926592271699e-01
2.357612433625280168e-01
2.728641313858135575e-01
2.766860597694624779e-01
2.470175633380580216e-01
1.875292071992940013e-01
1.052158417076949348e-01
9.559049844541478436e-03
-8.850150801002754086e-02
-1.777140363634765463e-01
-2.477118072739639132e-01
-2.901804819348712261e-01
-2.998783016087315234e-01
-2.753587626677451716e-01
-2.192468770151834168e-01
-1.379731789609832671e-01
-4.096671798193041170e-02
6.057763110054903422e-02
1.551478672840422846e-01
2.323293621963733457e-01
2.839637720989656167e-01
3.049159537836754197e-01
2.934166759825114212e-01
2.510317183261419061e-01
1.823465670885369150e-01
9.445212905534461356e-02
-3.711824898014803864e-03
-1.021309278427917633e-01
-1.906008341029892250e-01
-2.597057250578478360e-01
-3.018371385438713972e-01
-3.121445914081091288e-01
-2.892604496217563437e-01
-2.356300956928403245e-01
-1.573261868927917639e-01
-6.332665721960761829e-02
3.564338042188852640e-02
1.285082454720110068e-01
2.052350121078225786e-01
2.579981560101128890e-01
2.819566331145677562e-01
2.755803608958848905e-01
2.405599307215195992e-01
1.814003030061916988e-01
1.048168554058852564e-01
1.902588877750499563e-02
-6.702069172361468929e-02
-1.444350616843363966e-01
-2.052074567784867298e-01
-2.429949174462535666e-01
-2.538168999997694186e-01
-2.365640605416441389e-01
-1.932182244539379923e-01
-1.287065190404668158e-01
-5.037311769614305490e-02
3.287161638145619236e-02
1.116026756619401539e-01
1.769827281320903722e-01
2.217717867178183866e-01
2.411298988565651058e-01
2.331378793174287978e-01
1.990018178874954913e-01
1.429405861821315682e-01
7.177395398761099443e-02
-5.767125740125500499e-03
-7.998239479464608337e-02
-1.413466996414216581e-01
-1.817568046841709917e-01
-1.957192798134677059e-01
-1.812767266159927004e-01
-1.404748226904253272e-01
-7.923278522914500854e-02
-6.583826012253268800e-03
6.662264458224242958e-02
1.293495156933364143e-01
1.720519060933405342e-01
1.881248813846525536e-01
1.748935668675386523e-01
1.340117205054731642e-01
