BVP Signal
-1.490587917561840559e-03
1.240745331130511941e-02
3.302336328599882881e-02
5.413434781364499793e-02
7.140658218593327888e-02
8.422376898604189144e-02
9.506685340062637213e-02
1.053730704185334710e-01
1.140225900426232730e-01
1.194695901594766962e-01
1.207025233729132063e-01
1.184340480828349473e-01
1.137270932437607074e-01
1.064502520485102466e-01
9.616135574463713365e-02
8.259912142884726083e-02
6.618768828753665567e-02
4.769968831198140302e-02
2.759908275460554172e-02
6.007854129942008514e-03
-1.681934524635901596e-02
-4.023527615915381550e-02
-6.380355000484499994e-02
-8.679153281956425436e-02
-1.087376861751051943e-01
-1.294054532876164343e-01
-1.480406598066991430e-01
-1.643627325440950582e-01
-1.779655633246047808e-01
-1.883237213168983404e-01
-1.955175549758442766e-01
-1.990264331724427294e-01
-1.988480523774419917e-01
-1.950211409227837756e-01
-1.873496369527350158e-01
-1.762759030956228545e-01
-1.617447438496679990e-01
-1.440767754259642264e-01
-1.237342036721885974e-01
-1.009343573440810576e-01
-7.627803460468786378e-02
-5.014388201692426827e-02
-2.310077330767426607e-02
4.341449974350722329e-03
3.166630432975126030e-02
5.827453539616841982e-02
8.380514059776392188e-02
1.075775885114470531e-01
1.293409595500137343e-01
1.486083915528692012e-01
1.648839358672213318e-01
1.782538934947883735e-01
1.880761605020385696e-01
1.943962734558864480e-01
1.971435237464628787e-01
1.959988768372286083e-01
1.914599484823434339e-01
1.832135972843555449e-01
1.715235767585897020e-01
1.568044619753879432e-01
1.390062731698714082e-01
1.187570594000037089e-01
9.624514591489789772e-02
7.188970298601707332e-02
4.630264261058787689e-02
1.974205390735704613e-02
-7.135502023239898017e-03
-3.396195306724461571e-02
-6.012373423879074918e-02
-8.520999559648526067e-02
-1.087520939827093525e-01
-1.301316587622678433e-01
-1.492819581059336986e-01
-1.654857028219343662e-01
-1.785850694472562727e-01
-1.884050536619852889e-01
-1.944232540134532838e-01
-1.970118569340624237e-01
-1.957070874283223794e-01
-1.905730871286395733e-01
-1.819995114837172911e-01
-1.697109622584607180e-01
-1.542869314390663549e-01
-1.358543031775665821e-01
-1.146357765240505755e-01
-9.139229009515516255e-02
-6.617190546343121316e-02
-3.962712793802902755e-02
-1.221307299899819510e-02
1.561564138489758558e-02
4.329600370617822658e-02
7.041206670848901283e-02
9.636213766427736971e-02
1.208941353358217174e-01
1.433813202272994913e-01
1.635264091869324532e-01
1.810728913873007606e-01
1.954440812574579356e-01
2.068347522149091011e-01
2.147064453716894250e-01
2.189484486388739160e-01
2.198160954671721790e-01
2.168415986287610675e-01
2.104425081449689539e-01
2.005793004434304194e-01
1.872246061208364953e-01
1.710920747311361900e-01
1.519514025915686961e-01
1.303277628542787447e-01
1.066223782614380972e-01
8.105939003617224081e-02
5.425802879266566903e-02
2.652391678189219837e-02
-1.600581752685958925e-03
-2.967996127769695347e-02
-5.718965304742795741e-02
-8.366582035696257247e-02
-1.087073634365701147e-01
-1.316808642823521502e-01
-1.524924225790578736e-01
-1.704993781354235960e-01
-1.853950291965186237e-01
-1.971811000166451833e-01
-2.052396735772441527e-01
-2.097836140903095448e-01
-2.105765547639899538e-01
-2.074265935403937222e-01
-2.009434715108899816e-01
-1.906966527263994626e-01
-1.771542206287229915e-01
-1.606404134458043476e-01
-1.412349364499037030e-01
-1.196468491861585881e-01
-9.603680395658820146e-02
-7.093846466254791205e-02
-4.492715313821624146e-02
-1.834334148263916386e-02
8.184536034817502248e-03
3.426850268391457011e-02
5.932219090217716317e-02
8.302036650803845674e-02
1.048560759465400616e-01
1.243963154189862141e-01
1.415231105728217975e-01
1.556603654287475047e-01
1.668264709525845713e-01
1.747569488628591405e-01
1.791549124905483792e-01
1.804660600889904098e-01
1.781916166558834558e-01
1.726375887362413541e-01
1.640121679570799573e-01
1.522269363757914606e-01
1.378977878376441424e-01
1.210148410213346959e-01
1.019692457394331120e-01
8.131358662086246580e-02
5.916893266635484677e-02
3.616835056786939229e-02
1.262292787943762595e-02
-1.098953028235080676e-02
-3.420484053582323325e-02
-5.665294245585150712e-02
-7.781510192938206893e-02
-9.745622935052322688e-02
-1.150422684883287694e-01
-1.303772782709665123e-01
-1.431625387988485487e-01
-1.529926056478994045e-01
-1.600889021330242912e-01
-1.639412251504197005e-01
-1.646531006771732031e-01
-1.623325004650953973e-01
-1.567789133418090730e-01
-1.484681774448932956e-01
-1.373269832406859570e-01
-1.236142921494378100e-01
-1.078514715484833880e-01
-9.005329840740715353e-02
-7.080650143105672589e-02
-5.039725032837102936e-02
-2.921070988676091607e-02
-7.763843524329405721e-03
1.366503822832104698e-02
3.455614357173103501e-02
5.463953892705625259e-02
7.345088945823530224e-02
9.071486819970087101e-02
1.061651567477761571e-01
1.193597110888819923e-01
1.304339779664579480e-01
1.388905632376092880e-01
1.447010646967771264e-01
1.479353390233605348e-01
1.482650052189471435e-01
1.460437974141625683e-01
1.411038741579422884e-01
1.335003514902157185e-01
1.236820593317752848e-01
1.114553352512601125e-01
9.725858575854960664e-02
8.127414302623205133e-02
6.368036149382957922e-02
4.496020734656913653e-02
2.523691870228861323e-02
4.957136037088749614e-03
-1.559599206331652166e-02
-3.603943150713906363e-02
-5.601454881525158580e-02
-7.523536414426434948e-02
-9.317357749921262311e-02
-1.098013670949571363e-01
-1.245434601391138818e-01
-1.371497128716510083e-01
-1.475587968089687729e-01
-1.552269701810291558e-01
-1.603093942993675247e-01
-1.624954221623531314e-01
-1.615839110733170436e-01
-1.579497039948999926e-01
-1.511927855174670654e-01
-1.416158047722615998e-01
-1.293704932558845666e-01
-1.144543033761103445e-01
-9.740241928681928063e-02
-7.825490390240394389e-02
-5.741888070728559668e-02
-3.529632875985772023e-02
-1.219449680663259317e-02
1.141021600683622683e-02
3.517922514508492471e-02
5.855593777380291298e-02
8.132398994655454239e-02
1.029057188435940073e-01
1.228994816092477960e-01
1.411346526736919627e-01
1.569570851777564169e-01
1.703698778141627956e-01
1.809583203023392706e-01
1.883349628974095857e-01
1.927903366608737512e-01
1.937259080443937131e-01
1.913066172593263781e-01
1.855813304467305025e-01
1.763199223990203623e-01
1.640474690106011602e-01
1.486029096792661208e-01
1.302830550883487259e-01
1.095199833065143846e-01
8.642967806890353155e-02
6.156337692937745298e-02
3.523337324570374740e-02
7.957242147894172390e-03
-1.982539919601516987e-02
-4.759651673823767082e-02
-7.478009622544357082e-02
-1.010298913291285128e-01
-1.255972895512246501e-01
-1.482354778746775847e-01
-1.683838179519443201e-01
-1.854513503345281422e-01
-1.995296601274209602e-01
-2.098372833926351877e-01
-2.163657275640074873e-01
-2.190239480780121206e-01
-2.173887882625754053e-01
-2.119669382377709355e-01
-2.024254626026830151e-01
-1.889902699316127199e-01
-1.721569040691384167e-01
-1.518672462475748053e-01
-1.287939812267486217e-01
-1.032234880189103754e-01
-7.559985213115569258e-02
-4.663186655982720641e-02
-1.665305018397048031e-02
1.363544289212104133e-02
4.376974515771686614e-02
7.309735972495390310e-02
1.011623232048437515e-01
1.274424613801348194e-01
1.513100383590901266e-01
1.726753427406123587e-01
1.908062866009823111e-01
2.055568648476788218e-01
2.167395186765653792e-01
2.238533316601293288e-01
2.272700335256481741e-01
2.265270454373506936e-01
2.217165291815184069e-01
2.132134616859495957e-01
2.007550369734977802e-01
1.849367490701180339e-01
1.658646216555477448e-01
1.438062069260400699e-01
1.195064209544979550e-01
9.303838995895291619e-02
6.510414237440054208e-02
3.616358263570673692e-02
6.728775320931745796e-03
-2.258103443234327212e-02
-5.130727895680819994e-02
-7.878043550076851975e-02
-1.046743684904355431e-01
-1.283164047355399573e-01
-1.493459570918531654e-01
-1.674278301173858230e-01
-1.820039248193497938e-01
-1.931767841311882172e-01
-2.004230304862310019e-01
-2.037025046511904414e-01
-2.031888668230165118e-01
-1.985739894235190595e-01
-1.903303562260900694e-01
-1.784449642652090606e-01
-1.631616679154236915e-01
-1.451446398825493311e-01
-1.243971496082851291e-01
-1.016517200730554099e-01
-7.728849043508870253e-02
-5.181019404785616733e-02
-2.590211325143565446e-02
8.423284055358859490e-05
2.540639420685042449e-02
4.970560919297628555e-02
7.238959008511713922e-02
9.296054554528720981e-02
1.111391185218990607e-01
1.263377087285783018e-01
1.385207905426136810e-01
1.472448944270252635e-01
1.523438883757790574e-01
1.539190805353625180e-01
1.516652594150030287e-01
1.459057384722559081e-01
1.366031400083440039e-01
1.239454705470286466e-01
1.084698605414115002e-01
9.017994950918221952e-02
6.975190223607816153e-02
4.750013227290467155e-02
2.394379633416013342e-02
-2.427987368109618682e-04
-2.472675598866413971e-02
-4.869049322039820105e-02
-7.177130312521068367e-02
-9.333558116478080091e-02
-1.127761601603685659e-01
-1.298319384233032614e-01
-1.438130663096635065e-01
-1.546211825759797320e-01
-1.618417156870852747e-01
-1.651931595346818327e-01
-1.648325657629398089e-01
-1.604435058021498328e-01
-1.523083053619982696e-01
-1.405137342119930632e-01
-1.252034797382803044e-01
-1.069891309280262270e-01
-8.595671876481927876e-02
-6.274787564798874062e-02
-3.780675630781427099e-02
-1.164299795449683095e-02
1.506608566415579276e-02
4.191015217425339556e-02
6.813780425093887705e-02
9.336508190072706492e-02
1.169672141198078996e-01
1.384124530635174877e-01
1.574315199641106167e-01
1.733750234198121465e-01
1.862145565949389070e-01
1.955121521972029708e-01
2.010161850245936743e-01
2.029193634931534540e-01
2.008306519963540815e-01
1.950494118951988654e-01
1.856109551911927780e-01
1.725408543229603187e-01
1.564760824749819590e-01
1.373372854917238040e-01
1.156744297106057223e-01
9.190433884375591445e-02
6.636384419700677717e-02
3.969695767056315161e-02
1.224564736839267587e-02
-1.534990129059347896e-02
-4.266857075497693802e-02
-6.914368320546133984e-02
-9.425055877579660568e-02
-1.176443536621830932e-01
-1.386549868886344516e-01
-1.571836780087069174e-01
-1.726669897285705302e-01
-1.847721703744182042e-01
-1.935724461210928948e-01
-1.985091314610928359e-01
-1.997961775924806949e-01
-1.973010203940058771e-01
-1.908909860510107359e-01
-1.811634767226700804e-01
-1.678243869610966388e-01
-1.513594072005888802e-01
-1.321174414847495204e-01
-1.102868082056852606e-01
-8.654258235414452605e-02
-6.111554436397464984e-02
-3.461780540357203839e-02
-7.541167136139448335e-03
1.964461774609180256e-02
4.631325242213636673e-02
7.210949910479358405e-02
9.633010207982313500e-02
1.187313589202744352e-01
1.387509802349261578e-01
1.559049022362756498e-01
1.701700263118016698e-01
1.808921913720939467e-01
1.881157621938848168e-01
1.916297192871231903e-01
1.911232481885629664e-01
1.870956468681329032e-01
1.791137391492803044e-01
1.675190396287875583e-01
1.526035790288984839e-01
1.343933080916754341e-01
1.135426080494316703e-01
9.019488857124852155e-02
6.488383919058737792e-02
3.818925805257736283e-02
1.047059394344759808e-02
-1.755850868480283988e-02
-4.548989344009274349e-02
-7.262391338647936068e-02
-9.852214275218881823e-02
-1.226271747979879034e-01
-1.443252716937595548e-01
-1.634414177634529730e-01
-1.792834564368362138e-01
-1.917229844000755412e-01
-2.004878278335338049e-01
-2.051574966190694294e-01
-2.061350852698840830e-01
-2.029358618367048672e-01
-1.958011948576494354e-01
-1.850247004878337875e-01
-1.705272034672524750e-01
-1.529767662881988954e-01
-1.324865165905635966e-01
-1.094963438135526518e-01
-8.470190543130659555e-02
-5.831808946629215423e-02
-3.107287083786141463e-02
-3.404390730906453610e-03
2.412933143355043553e-02
5.098823710344675686e-02
7.672687407833851669e-02
1.007809135731695671e-01
1.229083408121669496e-01
1.425325919650745621e-01
1.594849598288489156e-01
1.734900675651183111e-01
1.841307770073333239e-01
1.917339936287579261e-01
1.957683954866191178e-01
1.963775313976296455e-01
1.937563938162294441e-01
1.876526868916347790e-01
1.786189509111466567e-01
1.665685824114185309e-01
1.517202742603616927e-01
1.346643959654189038e-01
1.153201154859399558e-01
9.427356449923823822e-02
7.179656521788614632e-02
4.822444410217657795e-02
2.406991677100936422e-02
-4.072158290585048412e-04
-2.467966699564788646e-02
-4.847904969770899797e-02
-7.128131193310371927e-02
-9.277537706555927244e-02
-1.126256641269171022e-01
-1.302674737009376082e-01
-1.457864070180381333e-01
-1.585183270474990191e-01
-1.683187832289383401e-01
-1.751563026705144077e-01
-1.785389604337714875e-01
-1.787366345760471598e-01
-1.754586093907755662e-01
-1.686904525519304920e-01
-1.588308469215612972e-01
-1.456412541576879160e-01
-1.295957304596773718e-01
-1.108647776902546289e-01
-8.975160779783740439e-02
-6.680284344704703892e-02
-4.225881418142560242e-02
-1.678947767154759241e-02
9.244549526087053604e-03
3.521124307539774678e-02
6.054386193866168053e-02
8.482756082757425542e-02
1.072645931297206978e-01
1.276943080245931395e-01
1.453830816324810371e-01
1.599053299229931113e-01
1.711270932181228055e-01
1.784355881537067479e-01
1.819151127922737921e-01
1.812746483482125526e-01
1.764006884622854598e-01
1.676578869291512341e-01
1.548427060315468173e-01
1.384290991351880551e-01
1.186502819203682224e-01
9.588129127414880826e-02
7.076993875576116644e-02
4.363357682164541174e-02
1.528022748882602172e-02
-1.382227561849190545e-02
-4.294873543844491409e-02
-7.137220400208151017e-02
-9.863257363715716153e-02
-1.238102253855338369e-01
-1.466513038056842522e-01
-1.664096507473247222e-01
-1.825549521892180782e-01
-1.949756150948975253e-01
-2.030181166753243227e-01
-2.067632338041641704e-01
-2.059696928017632489e-01
-2.004910531051338485e-01
-1.907983759528157908e-01
-1.766767707575150337e-01
-1.586411533721702183e-01
-1.370166308619611972e-01
-1.121435250434631159e-01
-8.478016785807898636e-02
-5.523885186901697497e-02
-2.432145569210641955e-02
7.409922451570405411e-03
3.928968126043719256e-02
7.056036679566080050e-02
1.007422085356127761e-01
1.289571540519078297e-01
1.549170524382821323e-01
1.778873749885080402e-01
1.973473887500021284e-01
2.131691463361592431e-01
2.246656792216854548e-01
2.319350620857216771e-01
2.346731674562125836e-01
2.326680942236726279e-01
2.264286192853629531e-01
2.155809131467608109e-01
2.006154642330214566e-01
1.818205291911394739e-01
1.593607027418757760e-01
1.340429682774853803e-01
1.060273845221407774e-01
7.600938880783959795e-02
4.461225907427354698e-02
1.231432752403335829e-02
-2.011206762960576766e-02
-5.219083147673325707e-02
-8.315658349394328130e-02
-1.125928152160348139e-01
-1.398257408444861793e-01
-1.643104360206259495e-01
-1.857956073940300601e-01
-2.035829003674810012e-01
-2.176667422448967382e-01
-2.276246311742218253e-01
-2.331588000242522385e-01
-2.346621760797219236e-01
-2.316082133637186735e-01
-2.243953926502877394e-01
-2.131832447490570881e-01
-1.979674056037450391e-01
-1.795282930508113051e-01
-1.578369459125039398e-01
-1.334855024776756272e-01
-1.070907371270794772e-01
-7.892433027285221392e-02
-4.977556354766180663e-02
-2.003421807110737987e-02
9.657157570412152822e-03
3.876351607989751702e-02
6.678177371790895711e-02
9.312501900962542878e-02
1.174906345783584827e-01
1.392408772671075157e-01
1.582320264432395263e-01
1.740344496823343079e-01
1.862639391651091936e-01
1.951577110105232604e-01
2.001214798101144943e-01
2.013757929623573029e-01
1.989396182863362450e-01
1.926275041194407678e-01
1.830602659665195309e-01
1.700160181291724970e-01
1.538988388110784644e-01
1.352021370435625147e-01
1.139707607564802022e-01
9.091392494655063661e-02
6.627250523182072472e-02
4.055068979074913371e-02
1.433939933753969331e-02
-1.203502144256148043e-02
-3.792477103314255416e-02
-6.299175664828593479e-02
-8.662754807769304510e-02
-1.084942365007612874e-01
-1.281645374950837746e-01
-1.451054227169303878e-01
-1.593567486813025624e-01
-1.702807395401784163e-01
-1.778512482248678084e-01
-1.819927316339588486e-01
-1.823489262285284962e-01
-1.793645356870365859e-01
-1.727378634297197513e-01
-1.626784809953216726e-01
-1.496392511595112662e-01
-1.335181861487806931e-01
-1.149528047617781601e-01
-9.415753054295372682e-02
-7.149550104336743761e-02
-4.765512843901642537e-02
-2.283089070322749659e-02
2.330585729692913333e-03
2.741975229721424490e-02
5.193959304916173636e-02
7.542959360326634277e-02
9.750682846194609621e-02
1.176381384449313033e-01
1.357227169167582459e-01
1.512017753037723511e-01
1.639259972449367275e-01
1.737814728649947349e-01
1.803526339658496902e-01
1.839571169656772087e-01
1.842471345059496501e-01
1.812673625008069112e-01
1.754025709875507433e-01
1.663742818525032752e-01
1.546833470583369730e-01
1.404387719421102965e-01
1.237579991468873986e-01
1.053151055862958096e-01
8.506584041702869303e-02
6.351703099339545133e-02
4.106263877661059380e-02
1.797119756533444024e-02
-5.268833463805855377e-03
-2.835773588105638954e-02
-5.084945913516586424e-02
-7.249478388606089840e-02
-9.282731983104999807e-02
-1.115830543145176212e-01
-1.285293105574849826e-01
-1.431868999882410787e-01
-1.556617791585139243e-01
-1.654855978794888549e-01
-1.725077742156733429e-01
-1.769192613900653077e-01
-1.782398961378628410e-01
-1.767731499666674588e-01
-1.724413516331811946e-01
-1.651245101671293680e-01
-1.554087686340477614e-01
-1.430057690919930291e-01
-1.282961156300104488e-01
-1.116100553222231229e-01
-9.301444703425866545e-02
-7.303618032548671313e-02
-5.185741452396078199e-02
-2.987215802366538497e-02
-7.466685104922585192e-03
1.502205834548506203e-02
3.718262939109133469e-02
5.872538137383303408e-02
7.913176861014627195e-02
9.828035162228426769e-02
1.156821701206109665e-01
1.309856933591585226e-01
1.442142333213547734e-01
1.547604835215758978e-01
1.626981481273622743e-01
1.678191285978827829e-01
1.697765819796822062e-01
1.690204005431945600e-01
1.650627573236311263e-01
1.581078534430431226e-01
1.483925124663880157e-01
1.357649906183230892e-01
1.207286472526880594e-01
1.033191875034766283e-01
8.383075873144649193e-02
6.274691118089717468e-02
4.023154691495828272e-02
1.681406134275564845e-02
-7.184853031135675361e-03
-3.124762997112895402e-02
-5.501011589031261362e-02
-7.800485151648858806e-02
-9.968382008444950926e-02
-1.198808295293120052e-01
-1.379112038513351512e-01
-1.535853228533919368e-01
-1.665966712840041830e-01
-1.763958183920345535e-01
-1.832655912750198457e-01
-1.866019665314085918e-01
-1.864181095102324104e-01
-1.829046495518389381e-01
-1.757318086193835338e-01
-1.653726522037285429e-01
-1.517947192115763344e-01
-1.351648219563180153e-01
-1.160946973602659527e-01
-9.458203797562436677e-02
-7.120882403628076007e-02
-4.635279360664729120e-02
-2.042780488732939825e-02
6.016534538019813194e-03
3.259121130628089835e-02
5.870647005914678140e-02
8.404798903559818068e-02
1.079965785683101864e-01
1.302166441245164452e-01
1.503571026717858139e-01
1.678039887115174711e-01
1.826971372144962080e-01
1.943734595498446960e-01
2.026962890083274793e-01
2.077604527709167037e-01
2.090527767486572430e-01
2.069404769155467338e-01
2.012264066465165313e-01
1.918606165161678700e-01
1.794366446552797534e-01
1.636649457207592362e-01
1.450419977377646052e-01
1.238665687486517064e-01
1.003207584791142026e-01
7.503759005576166041e-02
4.823262153313361000e-02
2.045527062606954105e-02
-7.843082312383996627e-03
-3.616687918674736657e-02
-6.401202625743525332e-02
-9.094508989972019397e-02
-1.162979876049783645e-01
-1.399291769665281793e-01
-1.611151816023023708e-01
-1.795032726776619181e-01
-1.949658001938879281e-01
-2.068246011386490335e-01
-2.152312721695563980e-01
-2.198000708921675206e-01
-2.202847815391569264e-01
-2.171688477381462645e-01
-2.099473075201212513e-01
-1.990348158009053181e-01
-1.846451271940859340e-01
-1.667932342952154756e-01
-1.462021649308405113e-01
-1.229279328520138381e-01
-9.750899084693456786e-02
-7.052008568293360868e-02
-4.229206451160080066e-02
-1.349255073246702526e-02
1.546042471560715725e-02
4.393625168523458691e-02
7.154789358901711416e-02
9.770949539525036753e-02
1.219282107467257736e-01
1.439672716126115248e-01
1.631624928142745290e-01
1.794750500636384527e-01
1.924809982226100558e-01
2.018119150297112974e-01
2.077949552811173550e-01
2.098181872561477590e-01
2.081336261147088695e-01
2.028093212457095784e-01
1.936666665377525520e-01
1.813296974381345128e-01
1.656321832106948111e-01
1.469701605867461680e-01
1.258503162604101278e-01
1.023708727631996440e-01
7.720890172298107423e-02
5.066022527341716014e-02
2.326625881366975457e-02
-4.436381525752777777e-03
-3.201395894986419632e-02
-5.883468834129146341e-02
-8.455987662001232530e-02
-1.085089833438131479e-01
-1.303900808653600252e-01
-1.497292031399951040e-01
-1.659780026827917809e-01
-1.792347043807769325e-01
-1.888096506002504282e-01
-1.947195753198556201e-01
-1.969115630500647973e-01
-1.950495569949941554e-01
-1.896169140753897475e-01
-1.803489073937174503e-01
-1.675119659584871079e-01
-1.515830353406031339e-01
-1.325410476825888972e-01
-1.110607096352209111e-01
-8.739945500897766673e-02
-6.203434464985935204e-02
-3.561816672735929057e-02
-8.470878313627361322e-03
1.870109952102777529e-02
4.550782681522391737e-02
7.131522359216763141e-02
9.568097873984721113e-02
1.181733891313765938e-01
1.381696258141602018e-01
1.556437040964370466e-01
1.699340938645194365e-01
1.808991246850993329e-01
1.884494483118948349e-01
1.921449992836685716e-01
1.923430755891491206e-01
1.887174238186123398e-01
1.813703950936296216e-01
1.707172981935228817e-01
1.565822983592026763e-01
1.395371761886661233e-01
1.197562984196451907e-01
9.755589495742444939e-02
7.360019273334572620e-02
4.805802592663543926e-02
2.159839409619324080e-02
-5.369150681818091186e-03
-3.230115510674180790e-02
-5.865974517952377010e-02
-8.402285398624981250e-02
-1.077245238249230352e-01
-1.295782178758208558e-01
-1.489131691486499931e-01
-1.654201110582552148e-01
-1.788953719732810643e-01
-1.887842009041195701e-01
-1.952669181692204270e-01
-1.979217804617361964e-01
-1.966913537689219116e-01
-1.918858690779900456e-01
-1.832072514889369619e-01
-1.711279680592179553e-01
-1.557554312146306741e-01
-1.372995043481064770e-01
-1.164355454606288698e-01
-9.324241156082072046e-02
-6.837932574873886726e-02
-4.228258107210600136e-02
-1.543977195801934932e-02
1.153045826894324999e-02
3.822636788952818443e-02
6.395516733598105574e-02
8.842981162186608346e-02
1.110098083424848892e-01
1.312782024857720165e-01
1.489951588092562340e-01
1.635449795637811954e-01
1.750018559744671298e-01
1.829053772251181820e-01
1.870723088678161172e-01
1.877490194296854709e-01
1.845187295745391309e-01
1.777489380377892114e-01
1.674617382641893637e-01
1.537125448695765839e-01
1.371446763429165494e-01
1.176772755972490953e-01
9.589152400743398974e-02
7.218674419477170978e-02
4.692017749558524686e-02
2.074039491737836999e-02
-6.023644920879613757e-03
-3.268854133660804157e-02
-5.887704184825272302e-02
-8.399447797167051977e-02
-1.074967591517912713e-01
-1.290922583151106195e-01
-1.480689922866144370e-01
-1.643512305818838615e-01
-1.774138950933918379e-01
-1.868852048084336248e-01
-1.929375334816260945e-01
-1.949955539212944178e-01
-1.932891074113030072e-01
-1.877894665130348251e-01
-1.783462910241938038e-01
-1.656267085327564059e-01
-1.494055300770502359e-01
-1.301588181874011596e-01
-1.083588919565648123e-01
-8.418301759690546837e-02
-5.834301024802723834e-02
-3.114529139966226712e-02
-3.164484395200659050e-03
2.504370168599073104e-02
5.302513751690783594e-02
8.018222831230803482e-02
1.061443539643391609e-01
1.302624891861269008e-01
1.523263727250791233e-01
1.718155762377854834e-01
1.882964887961957601e-01
2.018367554528885388e-01
2.117993224449615242e-01
2.182968118191229712e-01
2.212037426460539136e-01
2.201895564457700960e-01
2.158531219555133718e-01
2.077553229862620365e-01
1.961919099533885880e-01
1.815623446017964882e-01
1.637467715024483184e-01
1.433952424394394076e-01
1.206378514259897616e-01
9.581043085037851958e-02
6.955320907224624150e-02
4.204385543932143143e-02
1.386579565386665547e-02
-1.456650539637947828e-02
-4.274850241510423643e-02
-7.027885943168804550e-02
-9.664941322881223651e-02
-1.213585319664777784e-01
-1.442122267233215405e-01
-1.645292751270880371e-01
-1.821884987465860473e-01
-1.968399612970492818e-01
-2.079929713462978502e-01
-2.159758355924354944e-01
-2.201447410296262230e-01
-2.206025514666683507e-01
-2.175289719204174799e-01
-2.105992395114992810e-01
-2.003584631183059350e-01
-1.867285383299718549e-01
-1.699258604295975084e-01
-1.505935823459543244e-01
-1.286962180898656438e-01
-1.048766222599254450e-01
-7.949979615478591777e-02
-5.299434484405429746e-02
-2.594475043375277235e-02
1.269212273914077649e-03
2.803489285376459250e-02
5.401478556161920519e-02
7.859405302732724863e-02
1.014164357217487433e-01
1.221068697731105823e-01
1.400816487739449667e-01
1.554251279928055007e-01
1.674945169006768486e-01
1.761860042472979671e-01
1.815316136762426258e-01
1.830970919872430547e-01
1.812427333442323263e-01
1.757581943013880599e-01
1.667199636619323688e-01
1.546508818626711190e-01
1.393580074111075429e-01
1.214298504038429094e-01
1.011065485986523127e-01
7.873742977134101650e-02
5.495369148948137106e-02
2.999729646819493389e-02
4.566488335352891781e-03
-2.095675069862346085e-02
-4.599037813510165051e-02
-6.996813800781009896e-02
-9.253428994317780543e-02
-1.129625294121753276e-01
-1.311305463773116964e-01
-1.464136496653910546e-01
-1.584573124737840288e-01
-1.672317174345217539e-01
-1.721995216921066163e-01
-1.735358500073814758e-01
-1.710414332813177118e-01
-1.646412984536406166e-01
-1.548221119954928948e-01
-1.413689375375548618e-01
-1.247875614937317690e-01
-1.053606211266891468e-01
-8.339008935491681873e-02
-5.953500701814562479e-02
-3.404923444045876435e-02
-7.630234336248653548e-03
1.927782480709577806e-02
4.610567677314847401e-02
7.222390978932602401e-02
9.726348645380994418e-02
1.204628521419102705e-01
1.416247084103652298e-01
1.601279247817958828e-01
1.755209625997715961e-01
1.877448493568704413e-01
1.961893961922186180e-01
2.009347032946735001e-01
2.017441984886439443e-01
1.984105681004948440e-01
1.913750788623694021e-01
1.803190726375687725e-01
1.656438857465932224e-01
1.476017772808627948e-01
1.263752092639845448e-01
1.026093944084496140e-01
7.651238986033583045e-02
4.873090345365400228e-02
1.977518918293164757e-02
-9.816202196299479710e-03
-3.935007067222830862e-02
-6.837221822833025597e-02
-9.608339707688703935e-02
-1.221370749474114392e-01
-1.458342585586150653e-01
-1.666194080035843239e-01
-1.842880545638037049e-01
-1.981397799927467340e-01
-2.081508577268413873e-01
-2.139733012441234483e-01
-2.153277341700944869e-01
-2.126084922614038253e-01
-2.054105518930884056e-01
-1.941352693547606645e-01
-1.790148163669302295e-01
-1.601929241300248108e-01
-1.383976305286437058e-01
-1.137892264389476632e-01
-8.704689071139985745e-02
-5.876783915157026555e-02
-2.942519551616233978e-02
1.943770597393201793e-04
2.964661647202622083e-02
5.815937872542949194e-02
8.529123167388741322e-02
1.104372174923382161e-01
1.330105430153478985e-01
1.528054705058935203e-01
1.691631285293394016e-01
1.820280676217121973e-01
1.910785742211921212e-01
1.959984486149173866e-01
1.971818267004298575e-01
1.941622808385963517e-01
1.872830500725083391e-01
1.767388296818263316e-01
1.625234269095354178e-01
1.453424908339983612e-01
1.252007788559217627e-01
1.026352021271978721e-01
7.822591722237157152e-02
5.221897546721412930e-02
2.535873894150855734e-02
-2.003767415662077722e-03
-2.925098190518699015e-02
-5.587630160635526089e-02
-8.142161483194182425e-02
-1.052895891374423659e-01
-1.272250375528596600e-01
-1.466022982743333258e-01
-1.632484563394766830e-01
-1.768067270514393496e-01
-1.868488808412358815e-01
-1.936490410821866126e-01
-1.966389154266250661e-01
-1.959898711852831044e-01
-1.918171030812551581e-01
-1.839080233661780639e-01
-1.728786528252937438e-01
-1.586030566472244052e-01
-1.414125564598743279e-01
-1.219050372988633724e-01
-1.001005293002650842e-01
-7.667800142624120463e-02
-5.196607848970274945e-02
-2.637174850910167789e-02
-5.137870900099872351e-04
2.530801390349149416e-02
5.054891443111189653e-02
7.485174873447969501e-02
9.772672392080657133e-02
1.188996376726391829e-01
1.379982970986029511e-01
1.545993306478987972e-01
1.688055442681293816e-01
1.800420501042132582e-01
1.883416882861730923e-01
1.936852785224691398e-01
1.957169916352468342e-01
1.948910052780847835e-01
1.909016335040648882e-01
1.838625072485779999e-01
1.742400601757351508e-01
1.617790506631672787e-01
1.470050972437810244e-01
1.300700755769891859e-01
1.111225784132188199e-01
9.076569619698826585e-02
6.904370045897723074e-02
4.641914552868354332e-02
2.324063711596577320e-02
-1.525184055263806293e-04
-2.339100594339543759e-02
-4.613665485492823848e-02
-6.791219953328986314e-02
-8.864555294406600838e-02
-1.077275922223948634e-01
-1.249655259303949495e-01
-1.401982434255331089e-01
-1.528488249098419183e-01
-1.631420903581676241e-01
-1.705766532542507541e-01
-1.749680187634998774e-01
-1.766218535241748655e-01
-1.749853447271461082e-01
-1.703780282850219929e-01
-1.627649835150756785e-01
-1.520298440484368352e-01
-1.387137987598919264e-01
-1.226123455460501610e-01
-1.041128326353662759e-01
-8.349090082693338966e-02
-6.097615038981996083e-02
-3.701525797973381771e-02
-1.185502046526121234e-02
1.388907706292441535e-02
4.005541543842583430e-02
6.597154858440368308e-02
9.113765187946420987e-02
1.153431419598716090e-01
1.376633450277706672e-01
1.580572161616813354e-01
1.758402732388302248e-01
1.903496930645023344e-01
2.017494842506111219e-01
2.090866984582847588e-01
2.123331600299757094e-01
2.112988398607630325e-01
2.054555455530938657e-01
1.952625158819839557e-01
1.802831166961810228e-01
1.607469449017577823e-01
1.369900362261132765e-01
1.091364949982858851e-01
7.780423742607230075e-02
4.335256792506331225e-02
6.568454049063976452e-03
-3.198490595909930789e-02
-7.145313003787845396e-02
-1.108912578712338837e-01
-1.497079398273805095e-01
-1.866263468761450994e-01
-2.211099502089026725e-01
-2.521761372737412188e-01
-2.787715408953532759e-01
-3.007428033700338954e-01
-3.169098294450964914e-01
-3.270356379290288995e-01
-3.308408233285393685e-01
-3.277034651098098550e-01
-3.182126967982539245e-01
-3.019477605016800403e-01
-2.793079377513170147e-01
-2.509546020269936006e-01
-2.170954918932581634e-01
-1.787904952949502801e-01
-1.366314394354828377e-01
-9.155259889370270798e-02
-4.468714598723907971e-02
3.173306549153480371e-03
5.083186417654581013e-02
9.742865926930155407e-02
1.418622117462397525e-01
1.833609444798197652e-01
2.210549535394840115e-01
2.541068458773974026e-01
2.822506477925434965e-01
3.046192869220532007e-01
3.211587011203198561e-01
3.315998624162195263e-01
3.356081133211605838e-01
3.338696307421549214e-01
3.259360454825257492e-01
3.123935955711378831e-01
2.938013448866028110e-01
2.702389094162621630e-01
2.428225207758691884e-01
2.117876349757062959e-01
1.778871765229488311e-01
1.421833014129204598e-01
1.049465614526273738e-01
6.726239771497330433e-02
2.970503455304691898e-02
-7.011895183169983281e-03
-4.214167523750478317e-02
-7.517190965862380336e-02
-1.054180119277666194e-01
-1.325787627382771783e-01
-1.560127694866861314e-01
-1.755723471293540450e-01
-1.909346286103111856e-01
-2.017490650016687814e-01
-2.084349430752199250e-01
-2.104445270869581552e-01
-2.081490627436766161e-01
-2.018119008979064599e-01
-1.913093584775895084e-01
-1.774793793567189248e-01
-1.602700249824822731e-01
-1.402055389248940687e-01
-1.181016003126812708e-01
-9.396297371323811265e-02
-6.873156856331330555e-02
-4.275076156454410414e-02
-1.657454728732912774e-02
9.080277460779495602e-03
3.393266908516390234e-02
5.726871161659996545e-02
7.881780203592725353e-02
9.805829007437277811e-02
1.146536050936383666e-01
1.284089023587419165e-01
1.388589791263447060e-01
1.462217712758554500e-01
1.500723227288121020e-01
1.504610578901492413e-01
1.476291074019303595e-01
1.413330209317536501e-01
1.321017716004181664e-01
1.199233550664330628e-01
1.050135869913465247e-01
8.804284789750367601e-02
6.893183904071234491e-02
4.832639408184474794e-02
2.654925145352055038e-02
3.946307917830238488e-03
-1.888619503887828399e-02
-4.171616642323328072e-02
-6.397653342182618719e-02
-8.537402647437397629e-02
-1.054591452399407103e-01
-1.238658735002095002e-01
-1.403673015439609317e-01
-1.544533083958341546e-01
-1.661932664957085359e-01
-1.751243835461013254e-01
-1.810938366451829706e-01
-1.842293364200944250e-01
-1.841241923539053693e-01
-1.810739117520056007e-01
-1.749829335814028219e-01
-1.658037662049210437e-01
-1.540800597436312869e-01
-1.395938349992183747e-01
-1.227673395017638142e-01
-1.039009183573467721e-01
-8.316072641450371339e-02
-6.107888983577780539e-02
-3.787518865923780731e-02
-1.400600180817385132e-02
1.014937170712348902e-02
3.416570473458380164e-02
5.763736552752085629e-02
8.021082085939312822e-02
1.013380283035957841e-01
1.209222341323195060e-01
1.383783002355509217e-01
1.534252649577505512e-01
1.659891439250265055e-01
1.755151994886711142e-01
1.821317333670524619e-01
1.855398752531417506e-01
1.855434212739525690e-01
1.825334524152371629e-01
1.761002907568954279e-01
1.665835574874778291e-01
1.541306894502949554e-01
1.388029622339790325e-01
1.211346862580462425e-01
1.012025900459394556e-01
7.950388578384198768e-02
5.644442435202312591e-02
3.240001784597765222e-02
7.947206705740283983e-03
-1.656752078493132357e-02
-4.048438415978577315e-02
-6.349608306409990077e-02
-8.501930158019908867e-02
-1.045388569064785722e-01
-1.218621597685842495e-01
-1.363316521206465182e-01
-1.478599100662563171e-01
-1.560961655350375787e-01
-1.606949459670802272e-01
-1.619425826770752308e-01
-1.593786279274804207e-01
-1.532578491597133552e-01
-1.437118294009569475e-01
-1.307597509700551552e-01
-1.149752827311855130e-01
-9.641600018678991857e-02
-7.561734951464732513e-02
-5.307394202488402435e-02
-2.913349309583762592e-02
-4.505000627299193816e-03
2.045749137755137337e-02
4.506380494227485434e-02
6.885718486662321947e-02
9.133887437133861309e-02
1.118867669214551608e-01
1.302856350713385292e-01
1.459156365554761525e-01
1.585883471499102970e-01
1.680267329969252210e-01
1.738457209675977611e-01
1.762978683080229092e-01
1.749737061462471321e-01
1.700530643989088264e-01
1.616981522367196833e-01
1.498757215542649845e-01
1.351268631612573268e-01
1.175009586579311427e-01
9.744083734651121098e-02
7.546279758632179480e-02
5.182605292395681129e-02
2.720003402387821678e-02
1.947308121047541807e-03
-2.334026699607097410e-02
-4.815311057392177019e-02
-7.203620237445571006e-02
-9.439633462010725562e-02
-1.149388153374542726e-01
-1.330848105434852269e-01
-1.485991712513798635e-01
-1.611495489816417437e-01
-1.703554224654763583e-01
-1.763882223000833860e-01
-1.788073601670413515e-01
-1.777655549867070972e-01
-1.733603649944372993e-01
-1.655165498637925503e-01
-1.547569350686442413e-01
-1.410615094587659157e-01
-1.248326137788938472e-01
-1.065774106250650666e-01
-8.645922605153261165e-02
-6.513318227232195445e-02
-4.290688781764040449e-02
-2.027900922492419100e-02
2.231201641176100425e-03
2.428812341518672702e-02
4.534550092390109144e-02
6.513608789460254012e-02
8.317877115437166680e-02
9.923960076267029917e-02
1.130387867548751646e-01
1.242146182434171880e-01
1.329074261547045221e-01
1.386834108150284128e-01
1.416293766074367411e-01
1.417866085940354681e-01
1.389841990332255084e-01
1.336407383697457707e-01
1.256140346445237532e-01
1.151572498870438860e-01
1.026592356221486535e-01
8.810748993279278463e-02
7.203359944741297149e-02
5.460339670322129912e-02
3.617537280544522865e-02
1.721117634169239824e-02
-2.089338803501497588e-03
-2.120439194785719850e-02
-3.989654783383081438e-02
-5.771611800449688578e-02
-7.434616897744708575e-02
-8.951312474759751114e-02
-1.027501234382700301e-01
-1.140720780865988049e-01
-1.229951781710370284e-01
-1.294091305713193363e-01
-1.332745700135632705e-01
-1.342760435228999016e-01
-1.326590323970480434e-01
-1.282276365552002251e-01
-1.210654159663838020e-01
-1.114905260643165308e-01
-9.942427033165877892e-02
-8.529874898038763975e-02
-6.928514214374149882e-02
-5.168917816592272230e-02
-3.298256376942270557e-02
-1.338199994647116392e-02
6.577463580983489155e-03
2.659667369291450478e-02
4.619790343391791398e-02
6.498433466251052337e-02
8.263776683600940198e-02
9.862466034538941440e-02
1.128671142797550431e-01
1.248536762771804143e-01
1.343733257726235086e-01
1.413442617572769899e-01
1.453882069677880362e-01
1.466720376549968119e-01
1.449763644713932265e-01
1.403059900699541451e-01
1.329516568812668109e-01
1.227867474001959613e-01
1.101999140745957284e-01
9.534944998356087442e-02
7.849204907736129222e-02
6.011511558171411806e-02
4.040255108935875139e-02
1.989023383743682150e-02
-1.091177420989408731e-03
-2.207952452803799148e-02
-4.262114345519137093e-02
-6.237907683256220526e-02
-8.078651129246355866e-02
-9.768407836424736201e-02
-1.125408761955935671e-01
-1.250707888616468810e-01
-1.351334472470739900e-01
-1.422965178842885148e-01
-1.466609986227294382e-01
-1.479559385567583707e-01
-1.461288216837203502e-01
-1.414364949808628591e-01
-1.336940653499827381e-01
-1.232718273674917320e-01
-1.102970968309047728e-01
-9.498968763963969164e-02
-7.786477878808484299e-02
-5.905602111268087873e-02
-3.911596537349590341e-02
-1.839115567434801424e-02
2.682525028262203182e-03
2.359884884088041257e-02
4.403953097791105109e-02
6.341554734892512757e-02
8.152077543066696408e-02
9.784359620673921398e-02
1.120388122130195618e-01
1.239619016944555063e-01
1.331418485073203872e-01
1.396381983014123862e-01
1.431655415556561395e-01
1.435988282141754946e-01
1.411901819037147121e-01
1.356806894177497447e-01
1.273935811720187938e-01
1.164335384693956088e-01
1.029199333081741163e-01
8.738087739721861480e-02
6.986365826541657276e-02
5.086780578042543466e-02
3.075799902070769365e-02
9.878068510986548478e-03
-1.124316664105606822e-02
-3.230683874271966793e-02
-5.275561756054492069e-02
-7.231357393997153715e-02
-9.050263814405426488e-02
-1.069276074980810842e-01
-1.214090812743854608e-01
-1.334322965115358750e-01
-1.430055478559668636e-01
-1.498025773700022156e-01
-1.535999393788935741e-01
-1.546619248291831172e-01
-1.526050420768870208e-01
-1.477029509225756265e-01
-1.400612615517511927e-01
-1.296160399358432525e-01
-1.169825857499937616e-01
-1.020666919740824685e-01
-8.524949709749207738e-02
-6.700197048556577606e-02
-4.742942191243215699e-02
-2.708402066940629460e-02
-6.229418226286309590e-03
1.479234780423388518e-02
3.555482683372490627e-02
5.579397792091567165e-02
7.516826330446690907e-02
9.343937064638541123e-02
1.102416416241095432e-01
1.255224231679772373e-01
1.389615661297800009e-01
1.503384136751929612e-01
1.598165173067646327e-01
1.669363097353146475e-01
1.718612719556633084e-01
1.745490590937716635e-01
1.747075612437880565e-01
1.728385789356889357e-01
1.685501406086497289e-01
1.619646004797248851e-01
1.534188771329229595e-01
1.426221331085105737e-01
1.299907528820128388e-01
1.155581997221545310e-01
9.933867578174970792e-02
8.183121507255286531e-02
6.296726850935441266e-02
4.304212437141374803e-02
2.236629399237388682e-02
1.137023047663054953e-03
-2.036726683955772388e-02
-4.179822364014962321e-02
-6.285674661299325838e-02
-8.334788263576556333e-02
-1.027567843117659502e-01
-1.209513447720744761e-01
-1.375897045456256074e-01
-1.522098183986198006e-01
-1.649546315475073910e-01
-1.752115894579291400e-01
-1.828895522078679559e-01
-1.880444185793113399e-01
-1.901963715573325442e-01
-1.896327959404271180e-01
-1.861647986772970720e-01
-1.797065877196942218e-01
-1.707573568531627062e-01
-1.590357169102093737e-01
-1.449245156399157630e-01
-1.286888639799478873e-01
-1.104552774782607827e-01
-9.072161938013273419e-02
-6.969304167049505949e-02
-4.779005928405799519e-02
-2.538644216083496552e-02
-2.882414319783088708e-03
1.933068776593427351e-02
4.090819743850115930e-02
6.132687255274438254e-02
8.048868589364144288e-02
9.783789933245956583e-02
1.130968780843368826e-01
1.262246530638440056e-01
1.366618944395016078e-01
1.445523358616288556e-01
1.496231251186799227e-01
1.516257062105917930e-01
1.510322157101173235e-01
1.473437429080888539e-01
1.408701939951604865e-01
1.317933965143604502e-01
1.200104702614782914e-01
1.060874823746725815e-01
8.998762607519572576e-02
7.204554127430617960e-02
5.272895297038127094e-02
3.215411656826050457e-02
1.084765926090203170e-02
-1.091374236217934612e-02
-3.269326267511962758e-02
-5.413249556071597635e-02
-7.484829560761230294e-02
-9.438901555793566267e-02
-1.125730228142104439e-01
-1.288435950793127560e-01
-1.430785310373671182e-01
-1.549719483146818622e-01
-1.640808948174140580e-01
-1.707104771700491685e-01
-1.742687020510308438e-01
-1.748378472431021957e-01
-1.725741688154168174e-01
-1.671299395267965004e-01
-1.590390593248677542e-01
-1.481683934661769675e-01
-1.346136915186770810e-01
-1.190249625561987518e-01
-1.012150001974006092e-01
-8.170820790962290969e-02
-6.086325555210125859e-02
-3.877752955279573088e-02
-1.611595430329698653e-02
6.986228459104959487e-03
3.020232216220197774e-02
5.304952521145295252e-02
7.533646159690010613e-02
9.676757968675070432e-02
1.169870347188518567e-01
1.357976615226659800e-01
1.530783975201940872e-01
1.684500275318480678e-01
1.819241157765433270e-01
1.933485479202942114e-01
2.024701735798347946e-01
2.095533740277656098e-01
2.142758529077293528e-01
2.166651316301951846e-01
2.170405001902213638e-01
2.150393591028431362e-01
2.110275310737774190e-01
2.050513829089067319e-01
1.970012634500078186e-01
1.874280780037507199e-01
1.761271274864248393e-01
1.633022789406612940e-01
1.493371121705032722e-01
1.341221934007797989e-01
1.180007386530858016e-01
1.011630687953352647e-01
8.363749324565455945e-02
6.579261806680414271e-02
4.773304080595697219e-02
2.954765388276014981e-02
1.157414483899582569e-02
-6.089312202908536698e-03
-2.336875614882844010e-02
-3.988456088278710676e-02
-5.565534922277499963e-02
-7.049881579458136538e-02
-8.411608064258041528e-02
-9.662993142045228634e-02
-1.076543420055236511e-01
-1.171632298848592768e-01
-1.252181396932863788e-01
-1.314281630927727207e-01
-1.360354015742131217e-01
-1.388494143672712733e-01
-1.398526059906900487e-01
-1.393072504062022876e-01
-1.369949045964282686e-01
-1.332661788992202112e-01
-1.282317317470875739e-01
-1.219712642896144672e-01
-1.149521695767576901e-01
-1.072148082361178423e-01
-9.916613714337230157e-02
-9.115278520142161556e-02
-8.335509947247110585e-02
-7.621778989605937360e-02
-6.995931267608473947e-02
-6.484354602133059198e-02
-6.113274773810375290e-02
-5.900163302388380937e-02
-5.851684026239553638e-02
-5.979458086261707495e-02
-6.282813926960573170e-02
-6.739524721711698252e-02
-7.355207344173164685e-02
-8.090347786955831566e-02
-8.913293994700266509e-02
-9.810996368490898512e-02
-1.071121850073121218e-01
-1.159991624619903794e-01
-1.242598045236930071e-01
-1.312198858661151046e-01
-1.368227373936421465e-01
-1.403785727167699560e-01
-1.415631753282643457e-01
-1.402688342810672339e-01
-1.359540077663015656e-01
-1.287113316060361501e-01
-1.184114208034703353e-01
-1.049236980211732673e-01
-8.856972697612214285e-02
-6.943651017429464112e-02
-4.775761941850191483e-02
-2.403470861506983719e-02
1.392641245169595580e-03
2.806179935202031406e-02
5.530086980109175793e-02
8.269191689668646539e-02
1.095889392889477648e-01
1.352822455593037931e-01
1.595009983889810745e-01
1.814190288888229419e-01
2.006244006463321905e-01
2.167951565547664994e-01
2.293255016608879426e-01
2.381866269079684906e-01
2.429959071313228525e-01
2.436108341899453356e-01
2.402194050967225714e-01
2.326278120423286300e-01
2.211890110125716569e-01
2.060593404615386204e-01
1.875503966330033800e-01
1.662108418854710279e-01
1.423229197729807827e-01
1.165842983944603284e-01
8.944237373111729728e-02
6.155605882003706286e-02
3.357550280579613133e-02
5.993376164765668035e-03
-2.036699479846111605e-02
-4.522523348046524061e-02
-6.781961537346380131e-02
-8.768570852421217476e-02
-1.045933480736791765e-01
-1.178921663282140320e-01
-1.276757467456826611e-01
-1.335368181417416200e-01
-1.353336192602490051e-01
-1.334583106399171992e-01
-1.275367812763427144e-01
-1.180938197048525540e-01
-1.052942928834186276e-01
-8.929615886597119800e-02
-7.095195937479326087e-02
-5.024939549889284596e-02
-2.790471256896509544e-02
-4.485999050190758730e-03
1.969263244762353704e-02
4.383248214395052411e-02
6.764969641472229345e-02
9.053533583640877014e-02
1.120475338928408893e-01
1.318456664300868830e-01
1.494480560577425565e-01
1.647516182913641991e-01
1.772826690385727877e-01
1.870899198883518300e-01
1.939733921758005630e-01
1.976796499427505571e-01
1.986914260037649094e-01
1.965586010286667906e-01
1.916046093398005579e-01
1.840911224803480351e-01
1.737188795120067630e-01
1.613354539346213423e-01
1.466755041804520543e-01
1.299072547452410076e-01
1.117461615386620144e-01
9.184537734715514379e-02
7.075525224188544682e-02
4.871430676201460308e-02
2.557497631762173373e-02
2.048997781269434881e-03
-2.200696367053961433e-02
-4.645442688870038417e-02
-7.086263138378323667e-02
-9.524057901333299325e-02
-1.194475043146172311e-01
-1.431257613090010095e-01
-1.662183116214627776e-01
-1.886390164211703413e-01
-2.099012868867868031e-01
-2.300926059704061499e-01
-2.489006983807562912e-01
-2.658465284260037587e-01
-2.812745510134826987e-01
-2.944219046493721792e-01
-3.051334222530102114e-01
-3.135736267949065237e-01
-3.189300956319340852e-01
-3.214437310118725133e-01
-3.208205229779561019e-01
-3.165487564759009165e-01
-3.091966237975231069e-01
-2.981013302679972887e-01
-2.833347220547388079e-01
-2.651935237331492501e-01
-2.434045928456739505e-01
-2.183650611700964361e-01
-1.902773973446035549e-01
-1.592894761779372059e-01
-1.259556696649718199e-01
-9.067077522925648392e-02
-5.382965898547714678e-02
-1.614830694460747673e-02
2.176702740035912909e-02
5.949963879738490169e-02
9.606252359849196121e-02
1.309802687651762387e-01
1.636651902633354527e-01
1.932139684896560516e-01
2.194631367746640860e-01
2.415907893477499957e-01
2.591862021214357270e-01
2.723652586375133744e-01
2.803339916282575617e-01
2.834319873455228844e-01
2.815495138303355516e-01
2.746909235804765870e-01
2.635603888605287937e-01
2.480676191461329561e-01
2.289658070670841095e-01
2.068932366477649332e-01
1.822023079435742265e-01
1.559516206383975145e-01
1.285723743400871144e-01
1.009018974891105758e-01
7.377093444316795701e-02
4.764878407207626121e-02
2.336765645054553198e-02
1.369936647034483701e-03
-1.781558348729486707e-02
-3.381150914759739612e-02
-4.633398941625095635e-02
-5.516553118464027905e-02
-6.040770556689175480e-02
-6.187009546068714810e-02
-5.992043353800617644e-02
-5.467176755217874329e-02
-4.641848133499845014e-02
-3.583055878273397332e-02
-2.298322800467377316e-02
-8.666220135865335128e-03
6.631514210534018849e-03
2.258358618449525165e-02
3.828252135836023723e-02
5.359239399142976673e-02
6.783885431372552177e-02
8.049157784319702080e-02
9.145382287787566511e-02
1.000685994516609945e-01
1.063200534246461215e-01
1.099404111543285101e-01
1.107044365414077414e-01
1.087556649722877522e-01
1.039078790282231268e-01
9.641601075710073965e-02
8.633918845484356286e-02
7.385070814682476170e-02
5.929241784366298673e-02
4.286200583584456880e-02
2.498078003361139943e-02
5.937900123676065345e-03
-1.385463884743901031e-02
-3.400014680980076309e-02
-5.413391735624062395e-02
-7.380970643979717360e-02
-9.273257650688754294e-02
-1.104274136953196928e-01
-1.266814997784216079e-01
-1.411228427367930138e-01
-1.534211060231807922e-01
-1.635346266576028218e-01
-1.710580731242024588e-01
-1.760163327225128527e-01
-1.782888706836698589e-01
-1.776756016436520924e-01
-1.745413637143723995e-01
-1.686123726089898134e-01
-1.601196161203744528e-01
-1.492988556088820085e-01
-1.361531956845557501e-01
-1.211334329106917851e-01
-1.043544692787626849e-01
-8.612168569886990976e-02
-6.684335540563057787e-02
-4.674038218684728463e-02
-2.621972846122067047e-02
-5.584197005256918978e-03
1.475464177473695404e-02
3.457291578963062051e-02
5.344634337065323759e-02
7.104806224963589045e-02
8.726690787119489867e-02
1.015830113786753974e-01
1.140021944742636434e-01
1.242400125057184224e-01
1.319467427873738941e-01
1.374937782949958442e-01
1.403053218908327238e-01
1.405401843043198040e-01
1.383258174271469465e-01
1.333783139932390172e-01
1.261810861152204977e-01
1.165799525610640153e-01
1.047153394729566367e-01
9.106908761439314048e-02
7.551766642246371397e-02
5.852222237459647758e-02
4.030053523216803324e-02
2.108773031894872751e-02
1.311159311369436420e-03
-1.882095827616786510e-02
-3.889428689209600831e-02
-5.868225306000052210e-02
-7.773775393553605806e-02
-9.583555553542555394e-02
-1.126866512670667841e-01
-1.277784888909350158e-01
-1.412928350068234085e-01
-1.525826772340976023e-01
-1.615301055925999485e-01
-1.682022224832540880e-01
-1.720254895699348807e-01
-1.733456805062064399e-01
-1.718693151368022032e-01
-1.673902540402401051e-01
-1.604662320773766471e-01
-1.506099839996885570e-01
-1.381527656696847628e-01
-1.233278927297157268e-01
-1.059793424206378898e-01
-8.672392151819419137e-02
-6.552886043192374110e-02
-4.265104385386220276e-02
-1.856960753222441918e-02
6.571581911131330056e-03
3.238436197244110026e-02
5.849685994909353814e-02
8.452911480673663824e-02
1.102503478981978757e-01
1.351006590823982390e-01
1.587864986661904620e-01
1.810504846619213348e-01
2.012450304355428155e-01
2.193992107108612699e-01
2.349564480526940558e-01
2.474944065120808223e-01
2.572547788927014301e-01
2.634558936057035394e-01
2.662131702058868066e-01
2.654643954135431638e-01
2.607581682325327832e-01
2.526524370193807267e-01
2.407662377694608780e-01
2.252380429356715119e-01
2.065688670136128779e-01
1.846026538901592851e-01
1.598964432825292770e-01
1.327661311008265788e-01
1.034720882242691209e-01
7.271794349214677489e-02
4.082312225070849898e-02
8.311282981207646081e-03
-2.420452581516796542e-02
-5.620330002307416528e-02
-8.723983028725856848e-02
-1.166421416381968612e-01
-1.439777399919595080e-01
-1.689147319628679922e-01
-1.907863215703715642e-01
-2.095156794970113867e-01
-2.246600307981069244e-01
-2.359333225764368158e-01
-2.435711896636990337e-01
-2.470804250474575858e-01
-2.467571449143967643e-01
-2.427523278294398956e-01
-2.349979199699260834e-01
-2.241532666514224892e-01
-2.102322067735884481e-01
-1.937043956959498825e-01
-1.752829912411379421e-01
-1.550598463203292088e-01
-1.338396745536635235e-01
-1.120428933099776869e-01
-9.012513975264874189e-02
-6.877302301921933703e-02
-4.830316700601061664e-02
-2.920721485485999747e-02
-1.191402908445193809e-02
3.304696619599312157e-03
1.621498991528991240e-02
2.654733013777960116e-02
3.427808345507193932e-02
3.943967147371865711e-02
4.190647039202267943e-02
4.205392186687648137e-02
3.991743525879189181e-02
3.575071008756155327e-02
3.012002970954037739e-02
2.302588708068911694e-02
1.512143718533009995e-02
6.824071511323262507e-03
-1.703800787182296883e-03
-9.687843074614843619e-03
-1.706013131606695654e-02
-2.335003349292302799e-02
-2.809675327198507544e-02
-3.133482139418425350e-02
-3.258295769024477373e-02
-3.184252425206440806e-02
-2.906278834741410355e-02
-2.408129705189426817e-02
-1.713390774318218623e-02
-8.224322678951512255e-03
2.437787556310633263e-03
1.459910036505784880e-02
2.803871832270921072e-02
4.240429117827410055e-02
5.739652161442582168e-02
7.264300661524564218e-02
8.783094058942156335e-02
1.025734798900122813e-01
1.165612510258054041e-01
1.294987423577940999e-01
1.410433519539660563e-01
1.510422216200013601e-01
1.592005918468275549e-01
1.654034953559224141e-01
1.695484406130874921e-01
1.714713238565261921e-01
1.712941358797908098e-01
1.689095787000155502e-01
1.644120901826344738e-01
1.579501179678647338e-01
1.495458291940274798e-01
1.394926125999125244e-01
1.278890241595883603e-01
1.149368924798086500e-01
1.009339822100616124e-01
8.604015606439407993e-02
7.053069381631404955e-02
5.466295501991397243e-02
3.866678508647294898e-02
2.276931284307183445e-02
7.260315232912053184e-03
-7.692056988142292884e-03
-2.184976324549589566e-02
-3.496402874886470058e-02
-4.699088117377342444e-02
-5.761223941068904786e-02
-6.676289507724930683e-02
-7.440815500669423210e-02
-8.028249198322956470e-02
-8.453902399416318714e-02
-8.699115955801767219e-02
-8.768038463540217542e-02
-8.679248738774891780e-02
-8.415724141465324992e-02
-8.011033248773169468e-02
-7.465790971722444103e-02
-6.796946557179199544e-02
-6.039807625881490200e-02
-5.193231403729185042e-02
-4.304731861955199412e-02
-3.387264328981026695e-02
-2.467425116651739136e-02
-1.590623024352355586e-02
-7.601107817741759032e-03
-2.396571950173953525e-04
6.002780101370230881e-03
1.094689540435123121e-02
1.419992848002393782e-02
1.584406218958667178e-02
1.556015042354697009e-02
1.330583498254855890e-02
9.127648077327576992e-03
2.903614315904579080e-03
-5.113877354036011624e-03
-1.493317916429148795e-02
-2.633190905477345023e-02
-3.903020567039072741e-02
-5.284508993081826755e-02
-6.735449278603428125e-02
-8.232274874178624469e-02
-9.732292930537553288e-02
-1.119773555932339348e-01
-1.259823153770979198e-01
-1.388633316629376557e-01
-1.504047274822398750e-01
-1.602004944665754715e-01
-1.680023419719687827e-01
-1.736415521475735968e-01
-1.768141823306178528e-01
-1.775828164523410857e-01
-1.757669706999034354e-01
-1.713873933590343013e-01
-1.646207899371556760e-01
-1.554275433499685555e-01
-1.441834164403171803e-01
-1.310234362964894927e-01
-1.161590191608438127e-01
-1.000992585911343324e-01
-8.297408152816432292e-02
-6.521280017440578280e-02
-4.721981015081333499e-02
-2.914299021647048793e-02
-1.152439412742595204e-02
5.471993254622886660e-03
2.168097276572186760e-02
3.669288439565895898e-02
5.051132628492758375e-02
6.302676226059159004e-02
7.402386179524217402e-02
8.369556214699042096e-02
9.195708064298513396e-02
9.882332247692454663e-02
1.046117310635421016e-01
1.092161128427693861e-01
1.128662420879545381e-01
1.158785939172561341e-01
1.181241478094594011e-01
1.199753373448620986e-01
1.215359536785136363e-01
1.227737282702191790e-01
1.240271222762023284e-01
1.251583375161703926e-01
1.262131783882049774e-01
1.273805408391039951e-01
1.283818487074074033e-01
1.292851379458862526e-01
1.300038281894032588e-01
1.303472669323088584e-01
1.302790338835894679e-01
1.296309566150255499e-01
1.282592114695349506e-01
1.260697971253976202e-01
1.229755596091638425e-01
1.188461205592363790e-01
1.136955370091395356e-01
1.075239276686830170e-01
1.002613349979707691e-01
9.212886191617494780e-02
8.314866093435495376e-02
7.347675935447858797e-02
6.339210200131771555e-02
5.296930826770734901e-02
4.259134056475696872e-02
3.244068818988565805e-02
2.271091237130151708e-02
1.378281519908697295e-02
5.700193733575609212e-03
-1.194257951962929276e-03
-6.838585616317782723e-03
-1.119668975217746887e-02
-1.405127835852804097e-02
-1.565190108602854124e-02
-1.589421146164560206e-02
-1.494578724267336955e-02
-1.315882960566783222e-02
-1.049660233864924130e-02
-7.448373121391016483e-03
-4.270479437644802978e-03
-1.135040959750754919e-03
1.402673211454874558e-03
3.233911240961617750e-03
4.039579480652366605e-03
3.432702649246749393e-03
1.404447678241438346e-03
-2.279952518345146339e-03
-7.793379524381513490e-03
-1.497824503022158679e-02
-2.389034778392211053e-02
-3.443833165469345481e-02
-4.627129737974268464e-02
-5.930985577108077722e-02
-7.316686184427054207e-02
-8.733979294176077990e-02
-1.017124210673444606e-01
-1.156106761821164008e-01
-1.286126849373965264e-01
-1.404494811499550633e-01
-1.504388906728970909e-01
-1.583836166294833037e-01
-1.638778339605627132e-01
-1.664927182656671667e-01
-1.661822305041315007e-01
-1.626686323234873832e-01
-1.558621737742062474e-01
-1.458298001140052591e-01
-1.326514080172082610e-01
-1.164388925161601862e-01
-9.754997559345206237e-02
-7.634050526200074349e-02
-5.308831910287537675e-02
-2.851490586250157722e-02
-2.965464059294625754e-03
2.294699567902946935e-02
4.837234357188886780e-02
7.313233765024140798e-02
9.622371663739176517e-02
1.171314768015675190e-01
1.354951651136751534e-01
1.504154597898609835e-01
1.618726950637763840e-01
1.692279521534894859e-01
1.721400863261582370e-01
1.707250786382520924e-01
1.645618346165968748e-01
1.539152213964250782e-01
1.388190750339416135e-01
1.194810277289936606e-01
9.646002883015049323e-02
6.996802806553366338e-02
4.077953507073408396e-02
9.347819634689408935e-03
-2.349996689239396835e-02
-5.699362623108287368e-02
-9.051244656081984530e-02
-1.229318726236764137e-01
-1.538392643284649530e-01
-1.822044247921621452e-01
-2.072680846513075270e-01
-2.286582743167675513e-01
-2.453772450041583064e-01
-2.573811307251142599e-01
-2.640734023907177486e-01
-2.650911395730816689e-01
-2.607309429109460064e-01
-2.505764183507765974e-01
-2.350648229903481434e-01
-2.144117358642064763e-01
-1.888360866115394998e-01
-1.592612427364358263e-01
-1.258926465952204810e-01
-8.961888132698681009e-02
-5.117505775148556424e-02
-1.128365351711169140e-02
2.909801349612062271e-02
6.929025959310020077e-02
1.083225070403173174e-01
1.455660028764619307e-01
1.801644118121140670e-01
2.114576318447648484e-01
2.389574380758315297e-01
2.619097074723782392e-01
2.802638329953824892e-01
2.934102324351317570e-01
3.011917975220701482e-01
3.037762822570460597e-01
3.007887894194417600e-01
2.927496469217363284e-01
2.796660867888739466e-01
2.617959559055085816e-01
2.400068988495037692e-01
2.142766095829556905e-01
1.855151498769069818e-01
1.542681364056673887e-01
1.211030160484283247e-01
8.696733482176066676e-02
5.231297601454765189e-02
1.803520824850934900e-02
-1.526038791086226087e-02
-4.689902869279516384e-02
-7.621313663770762359e-02
-1.027578859069369632e-01
-1.258556018564084833e-01
-1.453857775376071193e-01
-1.607725773210360587e-01
-1.718473334250168738e-01
-1.786813638697638540e-01
-1.808893155904709449e-01
-1.789252561463064994e-01
-1.726805178177134303e-01
-1.623694355039100312e-01
-1.487525962125698098e-01
-1.316705022657999047e-01
-1.119854791051806131e-01
-9.006742057399341750e-02
-6.636875199025055183e-02
-4.177559964714931684e-02
-1.650032162593731769e-02
8.604918060428755344e-03
3.306969908697142413e-02
5.641958950227544956e-02
7.796003699366244044e-02
9.749062320155524319e-02
1.143536441376759583e-01
1.284197959416090162e-01
1.393302403300163972e-01
1.467481183552081792e-01
1.508550044041315763e-01
1.512392167893561457e-01
1.481446403515959132e-01
1.415922130974964777e-01
1.315217290407789674e-01
1.185921807147485296e-01
1.026112510562788849e-01
8.408986563114184687e-02
6.343340121115315089e-02
4.084049859532423721e-02
1.699639024684518329e-02
-7.870172009028841842e-03
-3.320435281187195109e-02
-5.849893885604373622e-02
-8.338008926733320170e-02
-1.072767306813930954e-01
-1.298580632475133667e-01
-1.505725747417343552e-01
-1.691699172318913424e-01
-1.852128543216713386e-01
-1.983427489764533203e-01
-2.085076220823472992e-01
-2.152579484004977228e-01
-2.186615601534941389e-01
-2.185762791197739530e-01
-2.148706793943515603e-01
-2.079621291865823007e-01
-1.976257824940674812e-01
-1.842393594515533417e-01
-1.680928778966549464e-01
-1.493604180997489816e-01
-1.286260482165154651e-01
-1.061260955707147291e-01
-8.238450686195453176e-02
-5.790896737253881099e-02
-3.310591237342808135e-02
-8.546045268550184204e-03
1.535727536436981566e-02
3.806356649143416426e-02
5.923464526490040960e-02
7.838353881273207868e-02
9.517275357071053321e-02
1.093897448483409363e-01
1.206365703578095028e-01
1.289330831947292921e-01
1.340095068342568307e-01
1.358591976360839504e-01
1.347068520524722368e-01
1.303574934647582229e-01
1.232700501561571071e-01
1.134980811952128743e-01
1.013739601015404279e-01
8.742652131408434890e-02
7.174911042259068950e-02
5.509092138781634951e-02
3.771561566562953161e-02
2.011390970477711093e-02
2.986285004878075355e-03
-1.351759531359597588e-02
-2.861473070424214171e-02
-4.204642896592125645e-02
-5.342552484125429046e-02
-6.216210704221336592e-02
-6.830979335213016590e-02
-7.134618456375885209e-02
-7.121560016502503920e-02
-6.789863227873116358e-02
-6.116786901893256356e-02
-5.143662173264784698e-02
-3.856565755197283174e-02
-2.288946544985925868e-02
-4.756856935273390263e-03
1.559177872103423290e-02
3.755506855346957273e-02
6.083995762195137935e-02
8.481854443593217496e-02
1.089793767141844505e-01
1.328401218926220650e-01
1.557097022705884459e-01
1.772343334822459315e-01
1.967386343521199121e-01
2.138415318077627747e-01
2.281368404578726361e-01
2.391169791696159397e-01
2.467046627649085444e-01
2.504957884687692982e-01
2.504291326780171412e-01
2.464920375384481721e-01
2.385745940870009907e-01
2.270366358208962820e-01
2.118867191183502197e-01
1.934786685787290850e-01
1.722304195973831664e-01
1.484671826739594747e-01
1.227886797915672124e-01
9.564490856808982588e-02
6.761358544863185771e-02
3.930880133597891568e-02
1.127191644248728974e-02
-1.591677929835562388e-02
-4.169145886147342106e-02
-6.555408533630231738e-02
-8.710616586199429467e-02
-1.058395750342293606e-01
-1.215696865367335844e-01
-1.339791353655098438e-01
-1.428866241779677693e-01
-1.484230379600021410e-01
-1.503317316353684763e-01
-1.489726721262458753e-01
-1.445154528653187498e-01
-1.370484918346950853e-01
-1.273065860016592554e-01
-1.152954035791576293e-01
-1.017260826276106256e-01
-8.718820642105190588e-02
-7.185702609630095772e-02
-5.676410243832974434e-02
-4.203315241696742310e-02
-2.834181760953613516e-02
-1.641310288603003986e-02
-6.270686127497593354e-03
1.248170124289238458e-03
6.058497153797470780e-03
7.871393416934546750e-03
6.240752241457814264e-03
1.431762071457898244e-03
-6.886542273210505272e-03
-1.852819400459648769e-02
-3.330870669025420838e-02
-5.114861142972881858e-02
-7.144866807314187440e-02
-9.408035636014000502e-02
-1.184234475298899802e-01
-1.439970665076835132e-01
-1.702786665894957530e-01
-1.965092473566576459e-01
-2.222752061352908370e-01
-2.467721845789907498e-01
-2.694511861683839271e-01
-2.897838923817794843e-01
-3.070610326294045400e-01
-3.209743871822734462e-01
-3.310038830561370382e-01
-3.368020425498432502e-01
-3.382179702944876354e-01
-3.350342803196952879e-01
-3.272379975016495024e-01
-3.149609347802151404e-01
-2.983426685317418503e-01
-2.776710937165542958e-01
-2.534763936772326254e-01
-2.260506670134718732e-01
-1.961204412459971458e-01
-1.643776624248607376e-01
-1.313262996063651045e-01
-9.795528129997466138e-02
-6.484899863062310033e-02
-3.282484472795443864e-02
-2.743887127220290267e-03
2.491652275357525426e-02
4.926906238466477461e-02
6.989415145392596784e-02
8.616055731470195767e-02
9.779300876300833778e-02
1.045403342423203430e-01
1.060425268126086173e-01
1.027678224563122189e-01
9.426117162938396632e-02
8.122669461250198175e-02
6.422012451520497933e-02
4.312705550168161039e-02
1.972439686223226296e-02
-6.214166337861204426e-03
-3.336174088924115377e-02
-6.002005901084017658e-02
-8.651644900067662070e-02
-1.104340854102620617e-01
-1.311831818139059247e-01
-1.481102878039743942e-01
-1.588427838024039085e-01
-1.640797047965284472e-01
-1.619057612946437352e-01
-1.514460427080177585e-01
-1.331567972139566791e-01
-1.055172134963686670e-01
-6.923244282161444829e-02
-2.416546082054571443e-02
2.980411470921939809e-02
9.137860521603302644e-02
1.602800725129478465e-01
2.353350168677423859e-01
3.152345821299640249e-01
3.985835530942902771e-01
4.838260786903534338e-01
5.692102215391292575e-01
6.527765967051255558e-01
7.330832333000207868e-01
8.077811013083198155e-01
8.754519269996698938e-01
9.344410204517421548e-01
9.826621160220785356e-01
1.019770038544358215e+00
1.043859066144348091e+00
1.054285616430045813e+00
1.050994164277286202e+00
1.032970582014687722e+00
1.001241395676152557e+00
9.557642316463494936e-01
8.970933216985486069e-01
8.271065940835846675e-01
7.463353936420586976e-01
6.567455352379969469e-01
5.602510761559793551e-01
4.581981395555132508e-01
3.533027310963277046e-01
2.471997135602785889e-01
1.416543471236870744e-01
3.921602782477506821e-02
-5.881145804764642548e-02
-1.508817247012776974e-01
-2.349717102260022727e-01
-3.107395898900460196e-01
-3.768409875976113099e-01
-4.324381429708976654e-01
-4.782245911575522257e-01
-5.129386276006986378e-01
-5.375503062733715254e-01
-5.530247616295405066e-01
-5.587813601079272274e-01
-5.572972466285142090e-01
-5.487574878149272806e-01
-5.342810819505716680e-01
-5.164286076030233374e-01
-4.949285163724237435e-01
-4.722318597520374084e-01
-4.497296289687371385e-01
-4.276784079003315142e-01
-4.085153588596885932e-01
-3.922480947851716415e-01
-3.799544864079726914e-01
-3.727765054097980091e-01
-3.703943979118919927e-01
-3.736029811867536132e-01
-3.822806522214072800e-01
-3.961644659090990395e-01
-4.150154009950193235e-01
-4.383522283981575729e-01
-4.653363284922529264e-01
-4.950976668526362312e-01
-5.270310667781422653e-01
-5.595004584942365744e-01
-5.919325705571002461e-01
-6.230558820816302079e-01
-6.512017662241040838e-01
-6.761540700965698036e-01
-6.960271957192796233e-01
-7.100511006576164519e-01
-7.177723913992730687e-01
-7.175229167977130729e-01
-7.095797710934745872e-01
-6.931349409786249360e-01
-6.675751390834454568e-01
-6.336327546954070300e-01
-5.907712299168226266e-01
-5.395815434445472292e-01
-4.809259136694166159e-01
-4.149839589817627683e-01
-3.432260073572388492e-01
-2.667062887330455823e-01
-1.862402756131213977e-01
-1.038719102167551256e-01
-2.069561339844661063e-02
6.187169859446228770e-02
1.417761676122033521e-01
2.181756004661217219e-01
2.890970094515896704e-01
3.531777119389758468e-01
4.099403305016888766e-01
4.573436343746113408e-01
4.953208418963939152e-01
5.230039184992119061e-01
5.397846010763167612e-01
5.464028164247167751e-01
5.420497531422086013e-01
5.278343223620893809e-01
5.045087744876504132e-01
4.723790195003161330e-01
4.335728836749410675e-01
3.884928916457113246e-01
3.390869945044201472e-01
2.871761192468049728e-01
2.336263685762496323e-01
1.809834154746159385e-01
1.301515532511547946e-01
8.287435686524347034e-02
4.084973027094918052e-02
4.718547228367953039e-03
-2.385387687744611185e-02
-4.462857444368495408e-02
-5.672367952027634885e-02
-5.978625273001014762e-02
-5.410738128230718758e-02
-3.946113949511520502e-02
-1.687756328974998610e-02
1.339235516325665287e-02
5.030821985270783614e-02
9.229580371375512016e-02
1.388451216115811349e-01
1.878407815745450904e-01
2.382926221676804346e-01
2.887487821940091237e-01
3.371467349413359571e-01
3.829163225366167822e-01
4.241769394161858386e-01
4.598941892464041281e-01
4.893617770435207959e-01
5.112856681943054316e-01
5.255661627223280341e-01
5.316232373964853153e-01
5.293103774566177977e-01
5.189400137673787494e-01
5.006396715060983382e-01
4.751449337198518919e-01
4.430503449996967547e-01
4.053294729017817843e-01
3.629628582430637351e-01
3.169424752589069527e-01
2.686305508647137685e-01
2.189527461757485582e-01
1.691084552186961076e-01
1.202308287876530102e-01
7.317141136286053893e-02
2.884482547835176547e-02
-1.194948202606660459e-02
-4.876953831229968728e-02
-8.115579293553665252e-02
-1.086649240537376215e-01
-1.315739881218256357e-01
-1.495556259856805070e-01
-1.627303127571870789e-01
-1.720814487194033404e-01
-1.770481022729484266e-01
-1.786495412715360942e-01
-1.774828506250827331e-01
-1.733485687273095266e-01
-1.678285518518514152e-01
-1.606207738151361752e-01
-1.520235676871273256e-01
-1.436085964283897454e-01
-1.342596003954668049e-01
-1.249232781382083601e-01
-1.159016777632402295e-01
-1.062987178478884687e-01
-9.726896846585830758e-02
-8.787121759250737796e-02
-7.767408589774049688e-02
-6.735771355571529284e-02
-5.563169335083983924e-02
-4.250347843366597544e-02
-2.789053134144481305e-02
-1.087111861065181984e-02
8.302007435656122425e-03
3.001173088039976733e-02
5.463937325529499844e-02
8.198217808542551666e-02
1.119108636835939308e-01
1.446594222552555209e-01
1.795911036380530845e-01
2.160092253886780611e-01
2.536915188041035663e-01
2.924801924164341926e-01
3.322062664846967550e-01
3.708646549413359139e-01
4.061516603481898358e-01
4.379566743920726424e-01
4.677014983004781357e-01
4.958807352504095434e-01
5.188004731992652552e-01
5.311588700766574078e-01
5.327764534078553993e-01
5.292542030313267531e-01
5.247308164738004876e-01
5.138224891169995701e-01
4.850796331728064459e-01
4.358247471517049387e-01
3.788839637848799846e-01
3.292188830631976870e-01
2.823961200315912023e-01
2.128402925432677506e-01
1.022376370967776893e-01
-2.916917278774633360e-02
-1.265141893075174551e-01
-1.440752248598791141e-01
-8.730932192406548609e-02
-1.040398243360662889e-02
