BVP Signal
-1.488727331147299271e-03
4.644896938212569881e-02
8.692606732445716522e-02
1.130042756801495907e-01
1.198064475296158893e-01
1.052530420174120906e-01
7.044885122150013057e-02
1.964811059074234034e-02
-4.023800255498638512e-02
-1.005690539753697904e-01
-1.522361726541996141e-01
-1.870744794314528336e-01
-1.991933036178980820e-01
-1.859812441145636819e-01
-1.485831742847572579e-01
-9.173913261283070386e-02
-2.301223105375360678e-02
4.842354651083963235e-02
1.131730099028061542e-01
1.629240928323514304e-01
1.914819330098857519e-01
1.954471609491719719e-01
1.745233145107700778e-01
1.314710829877070997e-01
7.174224307509394216e-02
2.838456483447993062e-03
-6.655085251322914730e-02
-1.275698954609413294e-01
-1.722959437013242834e-01
-1.947948920179915500e-01
-1.919681730063764191e-01
-1.640212721079032376e-01
-1.144430766940914279e-01
-4.949227170387043850e-02
2.270465512244168593e-02
9.327035267749628211e-02
1.537181114829332396e-01
1.969532835999786013e-01
2.180235135183013484e-01
2.145719389943301914e-01
1.870033279765379031e-01
1.383987184409165572e-01
7.420587173840681450e-02
1.712160188629130442e-03
-7.069685710008677404e-02
-1.344636722553086972e-01
-1.818946422263497120e-01
-2.071821266666403205e-01
-2.072540500342510139e-01
-1.822837500735136340e-01
-1.357285784700523468e-01
-7.385272168353884670e-02
-4.810211483152249112e-03
6.252957276047321766e-02
1.197899186070095490e-01
1.601385682189865323e-01
1.790662622563901629e-01
1.748382316526523317e-01
1.486021731001829771e-01
1.041630962405471900e-01
4.746610310512612563e-02
-1.414425204395255986e-02
-7.280870426037591714e-02
-1.211049552373930638e-01
-1.529825284459814250e-01
-1.645707266647092881e-01
-1.547239168225320594e-01
-1.251803215423858417e-01
-8.027768453039849095e-02
-2.626987244813355771e-02
2.962168908203782758e-02
8.024074213960935564e-02
1.194320198487771600e-01
1.427379665403782916e-01
1.477837942061622223e-01
1.343611325863435235e-01
1.042842941352246644e-01
6.110971396241537956e-02
9.777399365824168687e-03
-4.381801643823379777e-02
-9.335128425595651258e-02
-1.327015953811889748e-01
-1.566704468778742365e-01
-1.616972913652279242e-01
-1.464443040043860167e-01
-1.121128520933553779e-01
-6.239428242376807154e-02
-3.041426751172693344e-03
5.885803552624591095e-02
1.157656214361627023e-01
1.605928262045444588e-01
1.875197621754181032e-01
1.926744087986643483e-01
1.746305411968083199e-01
1.346792625306954538e-01
7.683024229336091193e-02
7.512524016792060388e-03
-6.503742918131311113e-02
-1.316911360571770273e-01
-1.835929927048396970e-01
-2.134415581192184719e-01
-2.166675786780164481e-01
-1.922517989645215197e-01
-1.429790227293374905e-01
-7.505852047273667282e-02
2.802525765694452442e-03
8.067006692666600642e-02
1.487543287134773795e-01
1.986635764999444831e-01
2.243910317699853163e-01
2.229615355679666622e-01
1.947214939129661981e-01
1.432802896322036557e-01
7.511106037830134197e-02
-1.181044383635365680e-03
-7.588863338376816703e-02
-1.394399839708149180e-01
-1.836944082002256451e-01
-2.031058294517616991e-01
-1.955605096518713282e-01
-1.627254977544780878e-01
-1.098162132180036527e-01
-4.480413528013660329e-02
2.279023269519203643e-02
8.329005638586284288e-02
1.282051252757747672e-01
1.513512973069192080e-01
1.496512336586091618e-01
1.235662634314834973e-01
7.711277928470117171e-02
1.741454542708784081e-02
-4.622402066222464079e-02
-1.036582120245816974e-01
-1.454866461253630505e-01
-1.646146626825719661e-01
-1.574902785004866357e-01
-1.247409881836648027e-01
-7.106240192133814193e-02
-4.388412407444752805e-03
6.545863705771004515e-02
1.283445970053767871e-01
1.753340528364175643e-01
1.999086291813037819e-01
1.987555490909448108e-01
1.720724798741469219e-01
1.234062202237186101e-01
5.909723837172202454e-02
-1.256986684614834482e-02
-8.240813186122469824e-02
-1.414659310157431460e-01
-1.821551144117817544e-01
-1.992403822209829756e-01
-1.905475435770654924e-01
-1.572710901644960857e-01
-1.038233431228172687e-01
-3.724772149170366142e-02
3.371087417030604882e-02
9.974208293457717533e-02
1.521603243718817888e-01
1.840037653653027183e-01
1.909202653102801683e-01
1.717502016306929891e-01
1.287439201370375041e-01
6.737166736292934943e-02
-4.292852851034117956e-03
-7.658882676229801512e-02
-1.395844801379894917e-01
-1.845121251897294812e-01
-2.050889426733777665e-01
-1.984887079085447259e-01
-1.657774743721891209e-01
-1.117143794832389236e-01
-4.394044385651189183e-02
2.828529524688203067e-02
9.553584249185886890e-02
1.495574933569184806e-01
1.842720579603159825e-01
1.963320504337339734e-01
1.852400005610423950e-01
1.531184004352004191e-01
1.042464755363962103e-01
4.447937522709749514e-02
-1.935982801482305504e-02
-8.007459324761201369e-02
-1.306916531841293416e-01
-1.651016294801423978e-01
-1.787530747442888091e-01
-1.693357237096589363e-01
-1.373223326857382909e-01
-8.621801528719905128e-02
-2.239478202129868700e-02
4.554865915165867696e-02
1.078765719036971493e-01
1.551295412210876856e-01
1.796414313898571091e-01
1.768859019896203422e-01
1.463879281526101195e-01
9.200582599667617156e-02
2.149863284732216745e-02
-5.458159734108047889e-02
-1.245112590394989588e-01
-1.772661629810046990e-01
-2.043151029047181322e-01
-2.010111696477147880e-01
-1.673333492077311302e-01
-1.078658186577360761e-01
-3.105168995375620633e-02
5.212260703917886984e-02
1.297851111341853381e-01
1.909202264091545143e-01
2.269363538472896069e-01
2.328351092267299527e-01
2.078297582038587388e-01
1.553551268002782981e-01
8.250356828668856113e-02
-1.005596393682417489e-03
-8.416736851320488766e-02
-1.561637548518787777e-01
-2.077870351728045017e-01
-2.326439235514078108e-01
-2.279856111442945255e-01
-1.950337955477014218e-01
-1.387306145616370723e-01
-6.694197104175739210e-02
1.073709547065587744e-02
8.434419506310142367e-02
1.448434993443980245e-01
1.851818508352514048e-01
2.010218636815116477e-01
1.911254394161490122e-01
1.573871441019715212e-01
1.045333531991346210e-01
3.952649137466790474e-02
-2.926252585859440147e-02
-9.303835509367147649e-02
-1.436407888048614190e-01
-1.745820485526431987e-01
-1.819319738040130474e-01
-1.648974441337826002e-01
-1.259617840072710937e-01
-7.052567057483788426e-02
-6.098741682050878854e-03
5.881212521217474287e-02
1.159164339886480793e-01
1.582478028696496786e-01
1.809958893446558248e-01
1.819644212095366809e-01
1.616431761519454835e-01
1.229522738725845610e-01
7.075026459955924274e-02
1.119640545937622411e-02
-4.895629793003414276e-02
-1.030718478514330849e-01
-1.452905614008620228e-01
-1.710962519246973235e-01
-1.777624316246599889e-01
-1.646450966040850228e-01
-1.332764447773705230e-01
-8.721886024140687588e-02
-3.167826600533998893e-02
2.707076676975922469e-02
8.236563471114004276e-02
1.278639228826303764e-01
1.582201796027317142e-01
1.696818942257261043e-01
1.605516048930953343e-01
1.314600974326300409e-01
8.540794180502592203e-02
2.755277918585008479e-02
-3.526545885793355706e-02
-9.525589738419007468e-02
-1.446258254009258892e-01
-1.766454744182089920e-01
-1.866572938501287471e-01
-1.728284953619280140e-01
-1.364833186820821886e-01
-8.194569304698451351e-02
-1.593214544963833523e-02
5.338093860635148569e-02
1.174480037992012837e-01
1.684302051279460422e-01
2.001124612570874817e-01
2.085716491759225799e-01
1.925645610208245873e-01
1.536425653375492750e-01
9.600802342950784385e-02
2.611910426007998942e-02
-4.795139627176016328e-02
-1.173791173071145333e-01
-1.736161217215266839e-01
-2.094872116719707633e-01
-2.202130998991189692e-01
-2.041800678701056748e-01
-1.632752319613809400e-01
-1.026752714289133339e-01
-3.010591279906566289e-02
4.527509317567203484e-02
1.141412366823088553e-01
1.681842650434582365e-01
2.010722534345580348e-01
2.091080587553064141e-01
1.915737073199238749e-01
1.507700357349873177e-01
9.176539641767550437e-02
2.186571652853473713e-02
-5.017878689272620152e-02
-1.151940245753655390e-01
-1.647454715222159138e-01
-1.922973316805207111e-01
-1.941758109726999804e-01
-1.701516105792160727e-01
-1.235190640365321224e-01
-6.064485320852769368e-02
9.941208891621866606e-03
7.875929989485996874e-02
1.366942072618730908e-01
1.762045626122318853e-01
1.922602468200570180e-01
1.829109054029630088e-01
1.494582028051606448e-01
9.625088041790119675e-02
3.014267752550614521e-02
-4.033473014672395163e-02
-1.060124854023283825e-01
-1.582400807176343460e-01
-1.900290390247082184e-01
-1.970371182306731306e-01
-1.782365297022399375e-01
-1.361272881779007904e-01
-7.642019767124894059e-02
-7.221058161841681367e-03
6.213944280261415876e-02
1.224168620600033508e-01
1.656906915590717067e-01
1.863647235731559770e-01
1.818315587670003286e-01
1.527550467309574111e-01
1.029614058644809094e-01
3.896215909041578218e-02
-3.083789826539325846e-02
-9.717213061394310014e-02
-1.510888086998716517e-01
-1.851509002811419502e-01
-1.944975168398478671e-01
-1.775814742090875142e-01
-1.364249805161799334e-01
-7.632568454220606258e-02
-5.065725915717994576e-03
6.822335655153480283e-02
1.343351378621535086e-01
1.851925024832840883e-01
2.148050683162278651e-01
2.198699150613822595e-01
1.999912071266049529e-01
1.575684614996502031e-01
9.743605681992134615e-02
2.632328903439241918e-02
-4.782853399939830663e-02
-1.166722869264396056e-01
-1.723501247880762088e-01
-2.084067968964370410e-01
-2.206129289996059117e-01
-2.075689085461396854e-01
-1.709677241151434657e-01
-1.154388137848745277e-01
-4.797136896286696706e-02
2.299625887722411832e-02
8.866807197988357814e-02
1.409917198921276094e-01
1.736280870840802293e-01
1.826980918134338550e-01
1.672546796959817894e-01
1.294441681439598701e-01
7.432728764221685491e-02
9.344676710924537666e-03
-5.655791437225710094e-02
-1.140822062054458463e-01
-1.548826128059976326e-01
-1.728323594268237340e-01
-1.650177957836937992e-01
-1.322489622647310403e-01
-7.896999618797673204e-02
-1.259247671441865446e-02
5.760161632865867798e-02
1.217794341356228660e-01
1.708953191713335484e-01
1.978821722509677972e-01
1.985750103618177942e-01
1.722837444927588779e-01
1.219619158213685883e-01
5.393851463650586875e-02
-2.279966913464893594e-02
-9.774660303496959801e-02
-1.603339864946436433e-01
-2.015134087457767231e-01
-2.152005973587371446e-01
-1.993052449545122951e-01
-1.561273417701681820e-01
-9.201891867885594878e-02
-1.636088102982503900e-02
5.994893837288471639e-02
1.261990806543509258e-01
1.734391464876038347e-01
1.956693998660537503e-01
1.905070662066606357e-01
1.593093554282002111e-01
1.068115090056972472e-01
4.037515945786115945e-02
-3.103959678010723144e-02
-9.805040210908141929e-02
-1.520404460620987663e-01
-1.862258583550720770e-01
-1.964856737513783203e-01
-1.818530462749741172e-01
-1.445861675106815958e-01
-8.978288071709977780e-02
-2.458699532918723341e-02
4.286812274975476678e-02
1.045732434954152190e-01
1.536202634203811812e-01
1.849177742148517545e-01
1.956022313084725128e-01
1.851597900712935174e-01
1.553030882498792620e-01
1.096599401328068185e-01
5.333414495105192471e-02
-7.609552999030044784e-03
-6.670205898242995146e-02
-1.176481893259804790e-01
-1.549047823008815605e-01
-1.742208729123181365e-01
-1.730880223191124667e-01
-1.510508829382250229e-01
-1.098478737313479114e-01
-5.337700513861520779e-02
1.250577633114924314e-02
8.035684600228487628e-02
1.417047693764207361e-01
1.878336976469691111e-01
2.108104603447127356e-01
2.047173011145205779e-01
1.669470162994305951e-01
9.929583699386164419e-02
8.513207943122713672e-03
-9.400251997063924225e-02
-1.935177344016105749e-01
-2.741968409941561990e-01
-3.219021702730695544e-01
-3.269971160798417209e-01
-2.864920691563646038e-01
-2.049465245666056701e-01
-9.381861521197060183e-02
3.062138838977460087e-02
1.502909074774980702e-01
2.484753976251815599e-01
3.125020977390706722e-01
3.354472132534123130e-01
3.167018795391378649e-01
2.614739949902290528e-01
1.794794220458189038e-01
8.316392695529942203e-02
-1.420334832942815595e-02
-1.002930388312464616e-01
-1.651586886436511858e-01
-2.022628822115682956e-01
-2.090371176468339143e-01
-1.869529914104640089e-01
-1.411108800794079465e-01
-7.939740699325112394e-02
-1.131899643998440785e-02
5.333213698090588650e-02
1.057935643128070646e-01
1.394398556180018733e-01
1.505230866839429305e-01
1.384601616710105509e-01
1.056738583526002917e-01
5.707245390065887602e-02
-7.100801464845485356e-04
-6.019153658925630035e-02
-1.139328790623503895e-01
-1.553605799938400089e-01
-1.794550700364084816e-01
-1.832569305946459837e-01
-1.661578786111682915e-01
-1.299556527430968389e-01
-7.866163953420254873e-02
-1.806762262763028648e-02
4.489045599305468981e-02
1.029016853532773723e-01
1.490994926251963393e-01
1.778553965936482406e-01
1.854796872773231686e-01
1.707570672477917162e-01
1.352361313972533230e-01
8.319781428421541003e-02
2.126076347990671356e-02
-4.236734394474667847e-02
-9.893078349447656517e-02
-1.403484916669569538e-01
-1.604574062923881383e-01
-1.560675479123603271e-01
-1.276034547300040622e-01
-7.915708432128343297e-02
-1.790076610538143820e-02
4.703696258673395469e-02
1.060091546207448526e-01
1.503309062011526642e-01
1.735534572553292798e-01
1.723484959288015261e-01
1.469046218792123826e-01
1.008236865268504201e-01
4.057050425127389781e-02
-2.543733552791972718e-02
-8.800077394884994741e-02
-1.384507018896970476e-01
-1.699295228620411047e-01
-1.784255554237141883e-01
-1.633508912016878312e-01
-1.275404632919407144e-01
-7.668434711274849103e-02
-1.832897056506600786e-02
3.934172339267159868e-02
8.871395708007387415e-02
1.237394909060902659e-01
1.405899961292335354e-01
1.379363367443417476e-01
1.169003604722593098e-01
8.076466645380704634e-02
3.451638739352203000e-02
-1.572970865446107758e-02
-6.340366424248630728e-02
-1.022194845444194811e-01
-1.269312525484636023e-01
-1.340304560259067412e-01
-1.222864558768115700e-01
-9.302279846842900768e-02
-5.004013262704049003e-02
8.475517304368657134e-04
5.261195217798991797e-02
9.801264100270146162e-02
1.306302141588203125e-01
1.457707345998168758e-01
1.411253164189714693e-01
1.171110130222308698e-01
7.684971080502223106e-02
2.577514971138569755e-02
-2.909292390946936757e-02
-8.011410837792952433e-02
-1.201001049443533170e-01
-1.433482316808957213e-01
-1.464908294908681408e-01
-1.290272989317670926e-01
-9.343559170943752101e-02
-4.482251836553999280e-02
9.837720222191884134e-03
6.274181912370088710e-02
1.063926131981847018e-01
1.346560880744636368e-01
1.435982826328942585e-01
1.320000972090855651e-01
1.014916677886376628e-01
5.629970850272025817e-02
2.653147223916907382e-03
-5.207077276040444902e-02
-1.003576885420798259e-01
-1.356039591632210439e-01
-1.530555063487944178e-01
-1.504780520658178800e-01
-1.284247264174639969e-01
-9.004131634645817783e-02
-4.045298834534061250e-02
1.412588146366811070e-02
6.735789001726433245e-02
1.136203091038955337e-01
1.485618463941223433e-01
1.693227645168791651e-01
1.744774057120194732e-01
1.638431247389007250e-01
1.383095451736843229e-01
9.977260897701972775e-02
5.115413824081371796e-02
-3.589770601094943725e-03
-5.958585726253733117e-02
-1.113649976939728170e-01
-1.534021898563436015e-01
-1.808172210223424614e-01
-1.901132111581717576e-01
-1.797945253660971909e-01
-1.507184292634206335e-01
-1.060944246511968947e-01
-5.112456371455509352e-02
7.653769086273465305e-03
6.321673565074326095e-02
1.089635825756897214e-01
1.395474410537349552e-01
1.515050550776463334e-01
1.436120812594824936e-01
1.169565703348778574e-01
7.477227952587073290e-02
2.208149704031070470e-02
-3.482495829562504142e-02
-8.905881407381577297e-02
-1.339278688153950903e-01
-1.637776811905583552e-01
-1.747585601436224545e-01
-1.653706865951113936e-01
-1.366583886541160031e-01
-9.199183839003116647e-02
-3.647784388746860840e-02
2.385748801805537278e-02
8.292119332214820115e-02
1.352727389194459118e-01
1.766199921237682768e-01
2.040826676771988757e-01
2.162597813445249484e-01
2.131463878971218140e-01
1.959391087011630173e-01
1.667690012073828609e-01
1.284056918607182074e-01
8.397788178983417451e-02
3.674557006395173797e-02
-1.005874810128515318e-02
-5.332744644849725379e-02
-9.015551886513836766e-02
-1.179741506325572842e-01
-1.348164360164305631e-01
-1.397314988825102411e-01
-1.332533741200571109e-01
-1.177265119352133294e-01
-9.725870706516370756e-02
-7.715232947342098857e-02
-6.283714128282466560e-02
-5.852644298956158342e-02
-6.596302623715583069e-02
-8.365164887552634099e-02
-1.068694583220444194e-01
-1.285330456484479189e-01
-1.407500169828287961e-01
-1.366791856301928232e-01
-1.122344783875515173e-01
-6.721646933797531531e-02
-5.612715269186534933e-03
6.498697876679952745e-02
1.347188213612850183e-01
1.932261730847816827e-01
2.315244576305122703e-01
2.435894602534114939e-01
2.273976518982726569e-01
1.852770591409746426e-01
1.235496407917166528e-01
5.153995174198855445e-02
-1.989834251947222854e-02
-8.011327304615684097e-02
-1.203600478667795626e-01
-1.351846152450144611e-01
-1.232351800089395155e-01
-8.735193292090148720e-02
-3.392127732644001359e-02
2.836911386524398893e-02
9.010506905215048823e-02
1.427074723582479054e-01
1.796566268825723622e-01
1.971660305586979411e-01
1.942533023677860959e-01
1.723080320062781445e-01
1.343536009273816889e-01
8.423127240874717092e-02
2.591360819824684025e-02
-3.690610815690797963e-02
-1.008958114073693624e-01
-1.628978676777262102e-01
-2.196254674458358869e-01
-2.674234239236611410e-01
-3.022352665521653714e-01
-3.198468105749976975e-01
-3.164120621003503886e-01
-2.892158280929823522e-01
-2.375647562234092236e-01
-1.636130302252746249e-01
-7.285438455931589341e-02
2.598999846490682164e-02
1.218522648894161953e-01
2.029365657545053325e-01
2.588141644792680829e-01
2.825350786433386552e-01
2.722071522218993400e-01
2.315768922097107829e-01
1.694000765174119294e-01
9.772397603977986402e-02
2.949043759371638984e-02
-2.397785008300826193e-02
-5.504787724326731801e-02
-6.097694688288155668e-02
-4.403925760622894731e-02
-1.063514791856371919e-02
3.032445989823854410e-02
6.932418093008013704e-02
9.800312385227719081e-02
1.104505673319796794e-01
1.039005595354342559e-01
7.884139352925392807e-02
3.864277122802187159e-02
-1.116487032758822773e-02
-6.381657694104428402e-02
-1.123052205689002436e-01
-1.503167363255209221e-01
-1.730109286006052960e-01
-1.775756524026232408e-01
-1.635044377786962766e-01
-1.325758244823813659e-01
-8.855220384049866666e-02
-3.665718449324184558e-02
1.708431488136319398e-02
6.655706621335288897e-02
1.062420010065738551e-01
1.318110054266071474e-01
1.405689620207906665e-01
1.316983945364259001e-01
1.062944092197596335e-01
6.721129469250186617e-02
1.875676481980392829e-02
-3.373622431899608864e-02
-8.443677177501179854e-02
-1.276077474414664681e-01
-1.582028419127622376e-01
-1.723952198052508822e-01
-1.679731987641548963e-01
-1.445638733585786762e-01
-1.036729799134988861e-01
-4.855317714074142144e-02
1.606706828947512822e-02
8.435212796823371439e-02
1.497940411349182599e-01
2.057108587781197873e-01
2.458298721878711679e-01
2.649658545418697719e-01
2.597482038588725395e-01
2.292776196109745923e-01
1.755506340896511031e-01
1.035077644481892101e-01
2.062802667930507816e-02
-6.392152187621480408e-02
-1.404882049900997298e-01
-2.003178633695220090e-01
-2.368909548673565069e-01
-2.469633068663838193e-01
-2.311044286888753185e-01
-1.936124990971285209e-01
-1.417919147756459552e-01
-8.469134252021237597e-02
-3.150999086360378731e-02
1.003218405327116480e-02
3.503258496138877964e-02
4.217459449575772235e-02
3.377416796480436217e-02
1.511296524941900532e-02
-6.784074374583115574e-03
-2.466272117563583777e-02
-3.253006012332620989e-02
-2.681605106040801934e-02
-6.975215421057223697e-03
2.456838647282444388e-02
6.307037030613954487e-02
1.025149430383292259e-01
1.368035114862843904e-01
1.608284544332809762e-01
1.712364479148634766e-01
1.667795647839922513e-01
1.482613146179669883e-01
1.181776428635226139e-01
8.019691615633867121e-02
3.860872133044923604e-02
-2.179752266958129292e-03
-3.807537815382125435e-02
-6.566805912295253789e-02
-8.255221713123911398e-02
-8.760091243419110274e-02
-8.116806032671008975e-02
-6.517011056204938257e-02
-4.298427113581876347e-02
-1.910816044373181422e-02
1.434031862309614880e-03
1.388609775900262466e-02
1.463086942070657148e-02
1.965996900559763283e-03
-2.339604801051098359e-02
-5.825129891943037208e-02
-9.732472171758937973e-02
-1.341525424981614978e-01
-1.622694676877580178e-01
-1.764504318676879402e-01
-1.737297455461211948e-01
-1.539674848846095401e-01
-1.198312105476455613e-01
-7.618606130504368412e-02
-2.902284051363068773e-02
1.582192140240301637e-02
5.383115897607647360e-02
8.256150227010206066e-02
1.018142011200158237e-01
1.132262888248504185e-01
1.194451556854537189e-01
1.231420835265933933e-01
1.261357044598427346e-01
1.288533140581847869e-01
1.302729560896366823e-01
1.283679796265976836e-01
1.209331257529864256e-01
1.065454811082099384e-01
8.535110820459856917e-02
5.939586778939133505e-02
3.233661784190111632e-02
8.555257757435819066e-03
-8.092759485760603333e-03
-1.550692946082687929e-02
-1.413168852937596309e-02
-7.021766856109779020e-03
8.684577033603035900e-04
3.980496323207960430e-03
-2.322522069904742192e-03
-2.040157015370991367e-02
-4.950166525162005837e-02
-8.563850843654538525e-02
-1.222564799456673512e-01
-1.515271322595166947e-01
-1.660093344011071836e-01
-1.603103978519871964e-01
-1.323944532056057222e-01
-8.427111631006521664e-02
-2.192950700163556754e-02
4.547773725227986785e-02
1.070704395097295536e-01
1.520639018067067028e-01
1.716763984459196979e-01
1.607980432778897684e-01
1.191305951798665580e-01
5.157922386790606689e-02
-3.222739424557879290e-02
-1.192899877294669730e-01
-1.953075696096011893e-01
-2.471288564867170356e-01
-2.651166792032329522e-01
-2.449288388966078811e-01
-1.883324821176325381e-01
-1.028929612633245894e-01
-6.364887339534996968e-04
1.040018990583814196e-01
1.965191811958968415e-01
2.645452870262981482e-01
2.995653398024173963e-01
2.979628038360800923e-01
2.613163777775229790e-01
1.959785316373946484e-01
1.120260449244320222e-01
2.172871648210816797e-02
-6.225753405156614351e-02
-1.287184986514212648e-01
-1.694621205403207265e-01
-1.804137020672467173e-01
-1.620575404714909018e-01
-1.191579026420411802e-01
-5.981831457224955073e-02
5.931660905024616071e-03
6.774068635236557556e-02
1.164361254183108874e-01
1.451948696900063340e-01
1.502677131708596292e-01
1.312373109258413439e-01
9.085211625492417564e-02
3.451483515297160132e-02
-3.047629643028049173e-02
-9.583401729030738281e-02
-1.532546368154026339e-01
-1.953949236698936387e-01
-2.167889751824809697e-01
-2.146088022670703532e-01
-1.891366971423678045e-01
-1.438202881062315974e-01
-8.484433978190553116e-02
-2.025694261265764684e-02
4.121322146966921451e-02
9.145201726917734364e-02
1.241584765749910724e-01
1.357648601168437441e-01
1.259494999752927002e-01
9.767915878009225672e-02
5.678110404571268255e-02
1.109766299111103471e-02
-3.068074650916519097e-02
-6.036337440208572325e-02
-7.159746261994670569e-02
-6.097275297266424587e-02
-2.868095019432859161e-02
2.140750703370386532e-02
8.227540851291670343e-02
1.448167651789369348e-01
1.992577630157742474e-01
2.367241250877031300e-01
2.507057449462543053e-01
2.381691836430204212e-01
2.001177630536637997e-01
1.414925449764549148e-01
7.041703079564431977e-02
-3.109744234573955102e-03
-6.887546812062828039e-02
-1.181946351102978882e-01
-1.454015209044600410e-01
-1.487976772002136405e-01
-1.308719149828729000e-01
-9.777852819603682910e-02
-5.820895322829289231e-02
-2.187813780910163874e-02
2.124836847925304362e-03
6.874609925799468613e-03
-1.118956114777502897e-02
-5.157817289376787073e-02
-1.096885222811465610e-01
-1.773921212643219114e-01
-2.442222322322082917e-01
-2.990291674007683476e-01
-3.318770888092652527e-01
-3.358679192308868799e-01
-3.085409990965795046e-01
-2.525499183707520245e-01
-1.754550137130941323e-01
-8.864282793920219561e-02
-5.537360575828209619e-03
6.062621733370177068e-02
9.913594607142561799e-02
1.038948820644864934e-01
7.493241379402904023e-02
1.904472640154164509e-02
-5.064227736194726326e-02
-1.162703987429178354e-01
-1.579214851956947108e-01
-1.570734391809913699e-01
-1.003336165872350527e-01
1.722703265787561833e-02
1.898746141625502482e-01
4.007796225956070657e-01
6.237075942405372331e-01
8.267811588029498893e-01
9.777937470994233493e-01
1.050126641749695722e+00
1.028048987534193159e+00
9.101777769806380647e-01
7.101974102132571076e-01
4.545382880039303686e-01
1.774421332069415769e-01
-8.550637935020954927e-02
-3.039248159751997136e-01
-4.578160314545192122e-01
-5.403486267241701668e-01
-5.578278521227471032e-01
-5.271147758786858262e-01
-4.712704296270109339e-01
-4.144713981269885217e-01
-3.772461856127877766e-01
-3.728698366991989310e-01
-4.054149576254724163e-01
-4.695844831207593995e-01
-5.521338570268357060e-01
-6.344894378939469615e-01
-6.960912000157497559e-01
-7.179852042552044011e-01
-6.862103705626605432e-01
-5.945369830398208322e-01
-4.461310611376463342e-01
-2.537816123499343490e-01
-3.848269350685740164e-02
1.735805846107805195e-01
3.552714779899126540e-01
4.832813369027775252e-01
5.425434114284488629e-01
5.293302696279358344e-01
4.522719327360711361e-01
3.309457136876012839e-01
1.922391164924288631e-01
6.521396156700198787e-02
-2.445828277885908619e-02
-5.934565225513921405e-02
-3.342166254723721863e-02
4.706058758375242235e-02
1.651289878464226035e-01
2.967388031248754388e-01
4.157339869869298710e-01
4.990880861526432177e-01
5.313336997316002730e-01
5.072557687308951735e-01
4.322994852455401826e-01
3.206754506754201373e-01
1.917110303311702069e-01
6.542299067162637982e-02
-4.157450196353806859e-02
-1.188962739593755202e-01
-1.634317482020222201e-01
-1.785829348926668558e-01
-1.720903878468469372e-01
-1.531228645288784662e-01
-1.294169841160623946e-01
-1.051861809661112090e-01
-8.028658956807532832e-02
-5.078562694045274384e-02
-1.071783537779325002e-02
4.547583594800741480e-02
1.204807191482615281e-01
2.122554944553129985e-01
3.132663159272119913e-01
4.109970348123148653e-01
4.896017546974107404e-01
5.323003024853818488e-01
5.239954817535181775e-01
4.536398603311855293e-01
3.160421762535285950e-01
1.129797819333138165e-01
-1.463976115758001129e-01
