BVP Green Neck Signal
-6.150567128833286240e-02
-6.035275279910275875e-02
-5.917836207240634305e-02
-5.796734051230345575e-02
-5.670452952285393033e-02
-5.537477050811761420e-02
-5.396329396313811338e-02
-5.245875333580991146e-02
-5.085158270067090258e-02
-4.913433525634003374e-02
-4.730545844515583048e-02
-4.536468753504249718e-02
-4.331800318175682563e-02
-4.117773664155451041e-02
-3.895812226559995650e-02
-3.668308293799184272e-02
-3.438016128222860790e-02
-3.208101242666775571e-02
-2.982548087066498252e-02
-2.765469582773986273e-02
-2.561422746437159309e-02
-2.375294260521591122e-02
-2.211981122730360960e-02
-2.076390767295600848e-02
-1.973425973705276310e-02
-1.907623279368701741e-02
-1.882991269809274060e-02
-1.903373196170273646e-02
-1.971470983732875881e-02
-2.089372032208399593e-02
-2.258578954878935618e-02
-2.478911070311173859e-02
-2.749832588802036959e-02
-3.069525717177088928e-02
-3.434824763095412764e-02
-3.842258386643189472e-02
-4.286850397166764443e-02
-4.763043372831938377e-02
-5.264842788597297318e-02
-5.785353536398835789e-02
-6.317554077674572555e-02
-6.854199269053073973e-02
-7.387872281423862875e-02
-7.911229859299281908e-02
-8.417265524557067391e-02
-8.899071928177568203e-02
-9.350186978479088640e-02
-9.764812651386917119e-02
-1.013730352483811215e-01
-1.046295842095142370e-01
-1.073760241558824047e-01
-1.095745115956651833e-01
-1.111988224525761459e-01
-1.122252276105657476e-01
-1.126383511024043604e-01
-1.124318980394156259e-01
-1.116018456208408838e-01
-1.101559380206931504e-01
-1.081066415312461337e-01
-1.054718607793920793e-01
-1.022811171106731698e-01
-9.856606739382803295e-02
-9.436835956627095956e-02
-8.973757548902044912e-02
-8.472610657439146042e-02
-7.939797532603268260e-02
-7.382054816112426643e-02
-6.806602368612812981e-02
-6.221405737575899653e-02
-5.634522596517838738e-02
-5.054295005020931902e-02
-4.489228987106605451e-02
-3.947705605619576674e-02
-3.437707997007271449e-02
-2.967114541813499137e-02
-2.543029689512649877e-02
-2.171687890459302744e-02
-1.859027567404089587e-02
-1.609301772902929639e-02
-1.426062291306455510e-02
-1.311955288819692533e-02
-1.267622411085231326e-02
-1.293332370447849294e-02
-1.387644743705267192e-02
-1.547715494987537965e-02
-1.770254348183693260e-02
-2.050082995133851310e-02
-2.381461625657209369e-02
-2.757913700726127154e-02
-3.171786228569704880e-02
-3.615264398179360295e-02
-4.079941381214226975e-02
-4.557056893088846927e-02
-5.037852725947131183e-02
-5.513592844557062278e-02
-5.975560036168760941e-02
-6.415476137861375605e-02
-6.825573343726132336e-02
-7.198281675798415269e-02
-7.527219872761692354e-02
-7.806519355438129582e-02
-8.031047641436808715e-02
-8.197360875780405898e-02
-8.302348933096345696e-02
-8.344595543534064075e-02
-8.324122962967725470e-02
-8.241482477801945206e-02
-8.099569303449530300e-02
-7.902004480371961626e-02
-7.653579316669122112e-02
-7.361019158834126996e-02
-7.031364546431974338e-02
-6.673125261669654584e-02
-6.295719054137645376e-02
-5.908823340777179939e-02
-5.522948223911700039e-02
-5.148774470202210907e-02
-4.796812739227311606e-02
-4.477369213339271042e-02
-4.200547110386604333e-02
-3.975052526358452409e-02
-3.808966992803290708e-02
-3.709332600946696479e-02
-3.680719266370371251e-02
-3.727198846410642585e-02
-3.850315131220894554e-02
-4.049391771452197364e-02
-4.323003197755161814e-02
-4.666327407410160444e-02
-5.073455827859750522e-02
-5.536989608371498117e-02
-6.046980814257135739e-02
-6.593099007257241517e-02
-7.163490559294259652e-02
-7.745327718479484702e-02
-8.325671473575871340e-02
-8.891247640409682962e-02
-9.428729184858888890e-02
-9.925520036966031800e-02
-1.036993279123794021e-01
-1.075063573247923843e-01
-1.105857750413227897e-01
-1.128576095909722965e-01
-1.142547142390021309e-01
-1.147415217939154464e-01
-1.142886404733667038e-01
-1.128934910242176126e-01
-1.105778422225731916e-01
-1.073704726016837807e-01
-1.033322653846008438e-01
-9.853472523322331922e-02
-9.306173216946705962e-02
-8.701907602602476643e-02
-8.051573307504329702e-02
-7.367200584720953738e-02
-6.661569215955949474e-02
-5.947489992680545651e-02
-5.237838113394027023e-02
-4.545483807514448527e-02
-3.882550508305898651e-02
-3.260201538668552890e-02
-2.689268837850519733e-02
-2.178451223662632857e-02
-1.735426465810869373e-02
-1.366726744342972033e-02
-1.075961581639099662e-02
-8.661621199228280998e-03
-7.379657155720559247e-03
-6.897620484187273748e-03
-7.193365712201096884e-03
-8.216560997719078718e-03
-9.907220952265191616e-03
-1.219553435605463115e-02
-1.499368311786801466e-02
-1.821138774241899683e-02
-2.175163777239180751e-02
-2.551281411232989016e-02
-2.939447644970085913e-02
-3.330099561636606920e-02
-3.713812087635248727e-02
-4.082135651100865514e-02
-4.427917828213356888e-02
-4.744351880989179648e-02
-5.026753707375752889e-02
-5.271490846536549396e-02
-5.475825193313725581e-02
-5.639379046663572925e-02
-5.762229892079250015e-02
-5.845913189012348632e-02
-5.893379907106836846e-02
-5.907846899084920334e-02
-5.893707389787292139e-02
-5.855769862170735057e-02
-5.798990521628041850e-02
-5.728605276666996066e-02
-5.649854187548942336e-02
-5.567618148909154324e-02
-5.486523642188410876e-02
-5.410968370227554891e-02
-5.344469577876985456e-02
-5.290313806243054917e-02
-5.251174658048599758e-02
-5.228882681670762866e-02
-5.225111777062901169e-02
-5.240710824123810674e-02
-5.276105614966492691e-02
-5.331503256184726147e-02
-5.406516380309119019e-02
-5.500646854083744014e-02
-5.613187989403850553e-02
-5.743223737739676371e-02
-5.889814674267439959e-02
-6.051937599096235409e-02
-6.228538505598815028e-02
-6.418536417639675307e-02
-6.620797390707815200e-02
-6.834171928529998719e-02
-7.057380215546392443e-02
-7.289046945667475297e-02
-7.527727002127079792e-02
-7.771698325153568454e-02
-8.019163874992295271e-02
-8.268129829140694054e-02
-8.516322375554608026e-02
-8.761412958793847461e-02
-9.000771651404149143e-02
-9.231608460250492754e-02
-9.451030234507871997e-02
-9.655852347056961826e-02
-9.842831799415611982e-02
-1.000856620760619820e-01
-1.014948774989210961e-01
-1.026201098331399469e-01
-1.034248951897985824e-01
-1.038725462879013517e-01
-1.039274708937576869e-01
-1.035563094192069183e-01
-1.027263469998666023e-01
-1.014103200587262443e-01
-9.958509663087274089e-02
-9.723036560812206575e-02
-9.433738533714575158e-02
-9.090066793186832306e-02
-8.692396474686006624e-02
-8.242462744948179931e-02
-7.742292618354792988e-02
-7.195638454583773436e-02
-6.607201430437896483e-02
-5.982337843702328906e-02
-5.328324195687601794e-02
-4.652835142274741598e-02
-3.964662146969482465e-02
-3.273795290060460550e-02
-2.590416648125336979e-02
-1.925557285188129325e-02
-1.290581627652584440e-02
-6.967889526018178348e-03
-1.553392777473704134e-03
3.226908360997989000e-03
7.272364424418899242e-03
1.049025589653673068e-02
1.279311562303348665e-02
1.411576900270607865e-02
1.439948725523938072e-02
1.360181979695846560e-02
1.170510854134140105e-02
8.696648612446573889e-03
4.592035347248051014e-03
-5.770251283344282611e-04
-6.768946942424129698e-03
-1.391219554698207989e-02
-2.192885225401966509e-02
-3.072371354151734110e-02
-4.018239396797131102e-02
-5.018690092336315633e-02
-6.060191115964431996e-02
-7.128501421392322013e-02
-8.208976895362352089e-02
-9.286095873138550116e-02
-1.034422053851519196e-01
-1.136771275867704822e-01
-1.234093414413362233e-01
-1.324845862103322669e-01
-1.407583614410516104e-01
-1.480891452833103805e-01
-1.543464533902068891e-01
-1.594171969309437775e-01
-1.631924155922110653e-01
-1.655899234790391417e-01
-1.665433130725882116e-01
-1.659982939457471662e-01
-1.639388021441303134e-01
-1.603573838638830407e-01
-1.552752357877934253e-01
-1.487464319301591564e-01
-1.408326108647649788e-01
-1.316352296839636560e-01
-1.212726450379571497e-01
-1.098776461924378944e-01
-9.761562605703356932e-02
-8.465745417374245796e-02
-7.119074577636144707e-02
-5.741715531705855746e-02
-4.353967435656784513e-02
-2.976560838224459951e-02
-1.630343651599266280e-02
-3.353806464152182809e-03
8.895408443623707695e-03
2.026009654767670781e-02
3.058401562169938553e-02
3.972792173135016730e-02
4.756578044359437846e-02
5.401477198499087667e-02
5.900203157421312489e-02
6.248552713139102904e-02
6.445981391337238242e-02
6.492714933311166670e-02
6.392997950587814282e-02
6.152841591272858318e-02
5.779544839134986151e-02
5.283417818715784725e-02
4.675280117713300626e-02
3.967337982639294186e-02
3.172999833328254277e-02
2.305815414698814819e-02
1.379838576350040508e-02
4.092758432765929155e-03
-5.919357887697519749e-03
-1.610314457050265879e-02
-2.632513034963229748e-02
-3.646209973826562700e-02
-4.639731063658118770e-02
-5.601859194919514562e-02
-6.522924534081162018e-02
-7.393625160760489146e-02
-8.205802606268894350e-02
-8.952701579897891226e-02
-9.627904462679184872e-02
-1.022688378557463917e-01
-1.074597370962842857e-01
-1.118240003398783267e-01
-1.153555254742262837e-01
-1.180523937971101334e-01
-1.199307115362458764e-01
-1.210227437936916839e-01
-1.213655146881027769e-01
-1.210176654739599650e-01
-1.200448873901273777e-01
-1.185208392244920250e-01
-1.165330995105680334e-01
-1.141710703940007621e-01
-1.115291317270462601e-01
-1.087049143802684970e-01
-1.057945987488491668e-01
-1.028889467849077866e-01
-1.000772321509585394e-01
-9.743874326426987809e-02
-9.504009626845963399e-02
-9.294427096832183488e-02
-9.119218565874800952e-02
-8.981434293278720005e-02
-8.883080365961158742e-02
-8.823537076630266762e-02
-8.801680917392538939e-02
-8.814475757724375693e-02
-8.857112529781327459e-02
-8.924369821096933553e-02
-9.009172174298532565e-02
-9.103820624450043031e-02
-9.200234110309417346e-02
-9.289640915097402418e-02
-9.363234704224956961e-02
-9.412681274139322873e-02
-9.429965487838226634e-02
-9.407565354042440875e-02
-9.339779449631231689e-02
-9.221374663977623121e-02
-9.048832743235568632e-02
-8.820886320882539988e-02
-8.536785244698982811e-02
-8.198753394206227674e-02
-7.810468124330223472e-02
-7.376708585534688667e-02
-6.905119337289931936e-02
-6.403877933815414758e-02
-5.882627272955619907e-02
-5.352414749463910160e-02
-4.824431718455811369e-02
-4.310357755066496210e-02
-3.822036228681958969e-02
-3.370718093781738950e-02
-2.966543855549670997e-02
-2.619355076809428556e-02
-2.336694838848069056e-02
-2.124499212599854220e-02
-1.987716817728880925e-02
-1.927589473494704247e-02
-1.944404621928047527e-02
-2.036098067630847525e-02
-2.197412903974230169e-02
-2.422515544656257680e-02
-2.702602539199104592e-02
-3.027367969786970425e-02
-3.385832469030979064e-02
-3.765214671780414690e-02
-4.152427393325326677e-02
-4.534337994311498504e-02
-4.897768787795646339e-02
-5.229827089400557183e-02
-5.519286277176400912e-02
-5.755531430063198783e-02
-5.929382046596628347e-02
-6.034440054874757459e-02
-6.064848654412625939e-02
-6.017778546570751869e-02
-5.892590130985021074e-02
-5.689570577464653917e-02
-5.412550387300553434e-02
-5.066289727368858409e-02
-4.657224837490558933e-02
-4.194145829672349390e-02
-3.686197370863891765e-02
-3.144106799382836992e-02
-2.579430434062057048e-02
-2.003896348497844621e-02
-1.429697379457812306e-02
-8.690863472009993651e-03
-3.337985082067514153e-03
1.649612377166612132e-03
6.162818450671729564e-03
1.010881865284809361e-02
1.340096064286840777e-02
1.596276734341322417e-02
1.773819783809343215e-02
1.867496971924125643e-02
1.873959304075003413e-02
1.791263724720960210e-02
1.617985277544798511e-02
1.354729649554933107e-02
1.002652417381815625e-02
5.638042001984748530e-03
4.153601037748186342e-04
-5.606030369275087633e-03
-1.238174918955765175e-02
-1.986259398715251728e-02
-2.799767370335851796e-02
-3.673128417108023624e-02
-4.600678113460508062e-02
-5.576592937820568086e-02
-6.594880799770634627e-02
-7.649490049593232754e-02
-8.734045669409082335e-02
-9.842044995653984052e-02
-1.096662118172626044e-01
-1.210014935029537775e-01
-1.323483138484434218e-01
-1.436168479787890417e-01
-1.547081063223253172e-01
-1.655184074036157582e-01
-1.759246611199448973e-01
-1.857983013189530019e-01
-1.950002472424850752e-01
-2.033756126561963862e-01
-2.107673326527549629e-01
-2.170098622799869481e-01
-2.219328961756021623e-01
-2.253687658166692864e-01
-2.271579933003967655e-01
-2.271434728240656342e-01
-2.251904215243434870e-01
-2.211885128207250195e-01
-2.150373078724128750e-01
-2.066929042358915114e-01
-1.961343206742579004e-01
-1.833753624864699061e-01
-1.685047909736808736e-01
-1.516255709342946567e-01
-1.329111646756615528e-01
-1.125914528332048192e-01
-9.091548702546627114e-02
-6.821198800930841633e-02
-4.483269736724918020e-02
-2.115820640925952789e-02
2.386021476366038951e-03
2.536989766331450985e-02
4.735576776006367866e-02
6.790158410084304319e-02
8.657878192432813536e-02
1.030016040433656133e-01
1.167948800653518526e-01
1.276459145237479054e-01
1.353127864993729224e-01
1.395755851529444647e-01
1.403383483203523019e-01
1.375570805524799212e-01
1.312486172801390072e-01
1.215655074822574733e-01
1.086848035548435010e-01
9.288530671145145412e-02
7.453002833966035356e-02
5.400340876293360098e-02
3.177882839367841133e-02
8.356057493847456052e-03
-1.574895173430415629e-02
-3.999420471491541007e-02
-6.383834124736219306e-02
-8.677169494562925189e-02
-1.083036798819606017e-01
-1.279724783891114381e-01
-1.454098959622280862e-01
-1.602697404861585240e-01
-1.722933908918507229e-01
-1.813248100897082715e-01
-1.872330359690169976e-01
-1.900235802819869313e-01
-1.897611614763236587e-01
-1.865620871951552684e-01
-1.806617738054003830e-01
-1.723161108191937074e-01
-1.618450561318918179e-01
-1.496234009472113269e-01
-1.360333382018434345e-01
-1.214846192106836253e-01
-1.063952166039515562e-01
-9.116882241432408551e-02
-7.618533280566187893e-02
-6.181692299512694250e-02
-4.837514920958634057e-02
-3.613380602975951872e-02
-2.533899193541930966e-02
-1.614426807828060750e-02
-8.681628361369458924e-03
-3.021252943656918544e-03
8.415589389569252954e-04
2.926222383560848905e-03
3.327683775871247140e-03
2.174810818882530472e-03
-3.825782066380345459e-04
-4.144664944877279877e-03
-8.903475833693247354e-03
-1.443627649797789292e-02
-2.050726913062655282e-02
-2.688245459266901810e-02
-3.333927634072640644e-02
-3.965903085290362062e-02
-4.564127432752474595e-02
-5.111705190151953626e-02
-5.592420188278220822e-02
-5.994322338176692744e-02
-6.308211536038935141e-02
-6.526446604452074141e-02
-6.646749548043301425e-02
-6.668117431297906905e-02
-6.592684444362471863e-02
-6.426514924134414664e-02
-6.176386614712368883e-02
-5.852657688464121821e-02
-5.467351871109027428e-02
-5.033358594404200442e-02
-4.565703552727121833e-02
-4.079755093298704366e-02
-3.591179624376328317e-02
-3.115916315979891729e-02
-2.669660463007481055e-02
-2.266764509040584269e-02
-1.921123149559783583e-02
-1.645221836196580217e-02
-1.449030238683749611e-02
-1.341994946692978696e-02
-1.330367082340148249e-02
-1.418266398292036129e-02
-1.608654707985344295e-02
-1.900372500494802719e-02
-2.291249164073107941e-02
-2.776693065918755393e-02
-3.348975722955242762e-02
-3.999805911740979270e-02
-4.718050383242957529e-02
-5.491206387375076325e-02
-6.306115008736806749e-02
-7.147942368542767322e-02
-8.001581420911169085e-02
-8.851802408416710455e-02
-9.683259459783594147e-02
-1.048083811422419187e-01
-1.123072152862687467e-01
-1.191954835551747444e-01
-1.253516195300759528e-01
-1.306763232280737652e-01
-1.350747546924488118e-01
-1.384782561503776488e-01
-1.408362378292819794e-01
-1.421070529640026392e-01
-1.422819033914373976e-01
-1.413602947977281032e-01
-1.393604247496282311e-01
-1.363255402710206732e-01
-1.323034564882196451e-01
-1.273655610589453924e-01
-1.215950097140714170e-01
-1.150817766286266058e-01
-1.079339065259461994e-01
-1.002627988177581253e-01
-9.218768552068652700e-02
-8.383546199560243384e-02
-7.533381712953179932e-02
-6.681314665734804092e-02
-5.840478423459966040e-02
-5.023744451649851672e-02
-4.243482516221654122e-02
-3.511918525641866129e-02
-2.840110532130326465e-02
-2.238282845942128618e-02
-1.716077820173850244e-02
-1.280895245896616214e-02
-9.395388855866833311e-03
-6.970639701228777130e-03
-5.561018863656681799e-03
-5.187614075916086032e-03
-5.841420434626008740e-03
-7.497871567219850653e-03
-1.012110783846865286e-02
-1.364417416164511593e-02
-1.799395987754259796e-02
-2.307894030418497500e-02
-2.878896252920819590e-02
-3.501051690123029025e-02
-4.161504270061378713e-02
-4.846842769727094380e-02
-5.543553973365512866e-02
-6.237924096476579749e-02
-6.916283808906292796e-02
-7.565921632353092563e-02
-8.174833444924647918e-02
-8.731592525546720551e-02
-9.227089722758213819e-02
-9.652849850956571331e-02
-1.000213655917922134e-01
-1.027070702836468674e-01
-1.045481151911095419e-01
-1.055344227999491236e-01
-1.056705956862951795e-01
-1.049699665396222059e-01
-1.034707075363103246e-01
-1.012159403856867507e-01
-9.826094019719053274e-02
-9.467369463857237821e-02
-9.052415087136356231e-02
-8.589068072821570698e-02
-8.085487912397282262e-02
-7.549885292212324406e-02
-6.990574766550680663e-02
-6.415859218522670937e-02
-5.833680084585170927e-02
-5.251702714912077907e-02
-4.677404744724172891e-02
-4.117487699892499742e-02
-3.578435060511610255e-02
-3.066208146974622531e-02
-2.585993590556705246e-02
-2.142825741689145802e-02
-1.740885748673708794e-02
-1.383881788102511029e-02
-1.075192444199225827e-02
-8.172221006858181036e-03
-6.121651159868402026e-03
-4.614708224079194787e-03
-3.657827574733901743e-03
-3.255291931778460379e-03
-3.400104537622947176e-03
-4.080767520295548734e-03
-5.280712620554538217e-03
-6.972599835691865866e-03
-9.127207916074089877e-03
-1.170752635916952333e-02
-1.467039113520974408e-02
-1.797093731186009957e-02
-2.155745762741378274e-02
-2.537630153344839351e-02
-2.937175262545397431e-02
-3.348492328191357559e-02
-3.765659461710760270e-02
-4.182692999274165851e-02
-4.593573872633784083e-02
-4.992358110375717806e-02
-5.373337099627122082e-02
-5.730862197667678515e-02
-6.059689217724700816e-02
-6.355026299119592714e-02
-6.612252228291229383e-02
-6.827730242504713443e-02
-6.998231554343503635e-02
-7.121169522670792174e-02
-7.195371740932356153e-02
-7.219948610504131614e-02
-7.195549213402918642e-02
-7.124079748360728770e-02
-7.007969462962806984e-02
-6.851902704855630799e-02
-6.661236311160023682e-02
-6.442557786743897952e-02
-6.204409556547582638e-02
-5.955653992337774788e-02
-5.706674876101795746e-02
-5.468759572741328789e-02
-5.253381694864964202e-02
-5.072579126105099950e-02
-4.938479209239122342e-02
-4.862465906547060179e-02
-4.855063508204274236e-02
-4.926334764981826764e-02
-5.083453696037545239e-02
-5.332354406486083248e-02
-5.677013959733082787e-02
-6.116943371097754295e-02
-6.650778499704627922e-02
-7.272773783202760023e-02
-7.973481832418943815e-02
-8.742222808762807607e-02
-9.562936466496844978e-02
-1.041791460707821304e-01
-1.128741634194167509e-01
-1.214835930751357873e-01
-1.297727362208197233e-01
-1.374985600254279294e-01
-1.444129100482584582e-01
-1.502753589905594933e-01
-1.548717088271804598e-01
-1.579944973942648823e-01
-1.594762381399639217e-01
-1.591972498016580861e-01
-1.570518481869055960e-01
-1.530157229014867115e-01
-1.471006663444376084e-01
-1.393560509222471211e-01
-1.299199953023820464e-01
-1.189468007862944099e-01
-1.066512681227775039e-01
-9.330105544695006803e-02
-7.917475480075392147e-02
-6.459683735528161386e-02
-4.990612398911671577e-02
-3.544213742179876114e-02
-2.154558653463276019e-02
-8.553833994880438718e-03
3.235242067876044347e-03
1.354888408335714473e-02
2.213857028044333847e-02
2.883901648708483284e-02
3.350498815957914794e-02
3.605715510738181223e-02
3.649769060836486473e-02
3.484615495562778248e-02
3.121561076576374189e-02
2.576204727224882390e-02
1.867064938244910460e-02
1.019785627329367755e-02
6.121951260345814827e-04
-9.792137261150489491e-03
-2.069775358334928483e-02
-3.178852691617045645e-02
-4.275923938136635960e-02
-5.330851164479634419e-02
-6.316087942428150193e-02
-7.208653324505877313e-02
-7.986586874673161363e-02
-8.634569516788245802e-02
-9.141654227733037041e-02
-9.499333893848015131e-02
-9.707676089242435469e-02
-9.768817935957034571e-02
-9.689598158830087238e-02
-9.482868814617949338e-02
-9.162446192492527952e-02
-8.746664140015528166e-02
-8.256002848080450096e-02
-7.711465785451088184e-02
-7.135358136926969741e-02
-6.550113283698204281e-02
-5.976606222132328783e-02
-5.434256189175944857e-02
-4.941566268838524373e-02
-4.512379121713956664e-02
-4.158935936934796129e-02
-3.890478152333371603e-02
-3.710777176711860942e-02
-3.622623845849676921e-02
-3.623812963274329613e-02
-3.708736430760882496e-02
-3.870543773113370445e-02
-4.097946574859654550e-02
-4.378579180418384204e-02
-4.698801844627628621e-02
-5.043289408240578253e-02
-5.396667390535092590e-02
-5.744108656808684377e-02
-6.071057353369259391e-02
-6.364024638368523390e-02
-6.612340458597462667e-02
-6.805942704965650680e-02
-6.937947605439107046e-02
-7.004541332263913844e-02
-7.002851837856718942e-02
-6.934606677525995133e-02
-6.803159927854204869e-02
-6.613762023420713398e-02
-6.375242635971258010e-02
-6.096975526469463474e-02
-5.790260630156612853e-02
-5.467755177121572108e-02
-5.142201951918651259e-02
-4.826567769413194625e-02
-4.533849251183011408e-02
-4.275945311670661941e-02
-4.063252883166357937e-02
-3.905701296995712363e-02
-3.810131824192077021e-02
-3.781809691125531669e-02
-3.824541021560831644e-02
-3.938159575841664040e-02
-4.121701502649724458e-02
-4.371409225919301034e-02
-4.680735032668728590e-02
-5.042515964063185030e-02
-5.446693137859510980e-02
-5.882150279027335837e-02
-6.337045716867575895e-02
-6.798121332374265635e-02
-7.251962567715385111e-02
-7.685262219297932240e-02
-8.084791338294382290e-02
-8.437764480001178069e-02
-8.733194730334464806e-02
-8.960592496466196488e-02
-9.111352381300608094e-02
-9.179535933307102213e-02
-9.159819291025160515e-02
-9.050579683130705044e-02
-8.852149789443158889e-02
-8.566327854735462932e-02
-8.199038760185049790e-02
-7.757042256034681060e-02
-7.249647643727533119e-02
-6.688797018457923182e-02
-6.086931081154525747e-02
-5.458791301824499759e-02
-4.819988243873114808e-02
-4.186441321266465287e-02
-3.574692766995259119e-02
-3.001291341747661101e-02
-2.481787713621024655e-02
-2.030979998120999164e-02
-1.662935504861102337e-02
-1.388707567505362284e-02
-1.218504057453841799e-02
-1.160026473796566676e-02
-1.217306155662605666e-02
-1.393608867373762050e-02
-1.687761562714325259e-02
-2.096163258847742045e-02
-2.613662161902651632e-02
-3.230591341766929359e-02
-3.936360134638793723e-02
-4.717971187915508124e-02
-5.559857414799113801e-02
-6.446049859995914288e-02
-7.358825425920616226e-02
-8.279775464512154071e-02
-9.190516975296680879e-02
-1.007272414541566102e-01
-1.090817663115282860e-01
-1.168015334956301332e-01
-1.237310240235194869e-01
-1.297226109621195389e-01
-1.346620077607557642e-01
-1.384445153131735606e-01
-1.409895189009333916e-01
-1.422528934358665842e-01
-1.421977094902031336e-01
-1.408276986066314407e-01
-1.381696167562709576e-01
-1.342638743714842375e-01
-1.291920205100461905e-01
-1.230442774520773552e-01
-1.159330179223624913e-01
-1.079950700006870878e-01
-9.937134663461859307e-02
-9.022139750336184705e-02
-8.071233764928095744e-02
-7.101295456286116359e-02
-6.129562883616148511e-02
-5.173260100804587952e-02
-4.248627024008179431e-02
-3.371109842231714837e-02
-2.555543319323450718e-02
-1.814071541740486238e-02
-1.158037216463404101e-02
-5.967261012260825781e-03
-1.361991882858959446e-03
2.181228410844109067e-03
4.644895483228973776e-03
6.033018145229669671e-03
6.361833294685113882e-03
5.685715043871449048e-03
4.067288430514258424e-03
1.588783905582334677e-03
-1.645185868862614198e-03
-5.526602636734094520e-03
-9.932430679392693917e-03
-1.473331851188074137e-02
-1.979964094631992549e-02
-2.500120469714763732e-02
-3.020833429643995233e-02
-3.530144155815724549e-02
-4.016935171557450834e-02
-4.470580672962471552e-02
-4.882667804809046053e-02
-5.245460810909136767e-02
-5.552639641400425319e-02
-5.800181086103564643e-02
-5.984483200150856469e-02
-6.104204985737279182e-02
-6.159377110961331003e-02
-6.150722980225935277e-02
-6.081197377425478362e-02
-5.954254075131257262e-02
-5.774533341271097936e-02
-5.548076142763522234e-02
-5.281179647224117091e-02
-4.981397831445828761e-02
-4.656833809390697326e-02
-4.315913442616008122e-02
-3.967812116104280779e-02
-3.621819682702202836e-02
-3.287359668250311451e-02
-2.973970891540204248e-02
-2.691094997153568175e-02
-2.447675230203391616e-02
-2.252492869725874342e-02
-2.113694746194292456e-02
-2.038362280888937617e-02
-2.033327894674816227e-02
-2.103776326005474956e-02
-2.253857770199763078e-02
-2.486985732964289153e-02
-2.804093345249656505e-02
-3.205526558537179216e-02
-3.689799055680122175e-02
-4.253187652692465293e-02
-4.891481029415975512e-02
-5.597839789056464205e-02
-6.364234047297104291e-02
-7.181738389821258617e-02
-8.039269703906952447e-02
-8.925370704214238837e-02
-9.827575239486505132e-02
-1.073251738119554155e-01
-1.162675157562331474e-01
-1.249658547313147461e-01
-1.332825251963722091e-01
-1.410838335358691187e-01
-1.482429918809103908e-01
-1.546350947468068948e-01
-1.601492184336393010e-01
-1.646835235480771376e-01
-1.681427275531286736e-01
-1.704544414326863988e-01
-1.715518746477837086e-01
-1.713858865744478654e-01
-1.699296204443815073e-01
-1.671613996477336883e-01
-1.630887401575096540e-01
-1.577328630836516976e-01
-1.511275378180400863e-01
-1.433378990457210567e-01
-1.344351195682652322e-01
-1.245140218076894456e-01
-1.136912381084872470e-01
-1.020893922279899890e-01
-8.985872559062287046e-02
-7.715876423892299718e-02
-6.415929595203236080e-02
-5.104856800735758926e-02
-3.801733579689406395e-02
-2.526345906749164621e-02
-1.298957349212438023e-02
-1.396209672422543679e-03
9.324252314619106696e-03
1.898175180931609835e-02
2.740302153913470179e-02
3.443672285407452932e-02
3.993816651992628669e-02
4.380460295668688747e-02
4.595368209206220772e-02
4.632491093693216072e-02
4.491447501674517701e-02
4.172990877266052195e-02
3.682570464793400583e-02
3.030113239021955257e-02
2.226774521631160603e-02
1.289535614205613440e-02
2.374075643233206079e-03
-9.084521417885745020e-03
-2.122888877108622396e-02
-3.380184276448837399e-02
-4.652980211617221973e-02
-5.912778069390266927e-02
-7.131320717753843186e-02
-8.281372429090513854e-02
-9.336000573804650871e-02
-1.027067979875793124e-01
-1.106413605057705307e-01
-1.169601341417383922e-01
-1.215177405990732901e-01
-1.241981002742567897e-01
-1.249128252356064284e-01
-1.236478955393502388e-01
-1.204042500216534195e-01
-1.152388155978495421e-01
-1.082637213876498361e-01
-9.960472542927284456e-02
-8.945274183096937892e-02
-7.802219134599086559e-02
-6.554912940443488600e-02
-5.231131712954965179e-02
-3.859232743021637213e-02
-2.469002773901143866e-02
-1.091257055790997854e-02
2.435219688165943253e-03
1.506277767614846302e-02
2.668368678804989430e-02
3.703793272550571364e-02
4.590238772143747509e-02
5.306376232546056865e-02
5.837138411894870343e-02
6.170722900213201217e-02
6.298204541676868939e-02
6.218662991235749532e-02
5.932814318224374078e-02
5.447115000125237610e-02
4.773873650252314499e-02
3.926702460407426737e-02
2.925459095811485527e-02
1.792333214543439385e-02
5.511188819055677646e-03
-7.711893802145437793e-03
-2.147221136118302592e-02
-3.549676576190406718e-02
-4.951308455183416057e-02
-6.325673202545929741e-02
-7.649672555077581537e-02
-8.901144390655771343e-02
-1.006115400815911221e-01
-1.111543132841863041e-01
-1.205069156818793230e-01
-1.285937346262572556e-01
-1.353700481573914816e-01
-1.408106290444737785e-01
-1.449462265240681613e-01
-1.478188596537928223e-01
-1.494989546708544725e-01
-1.500868820249013913e-01
-1.496874265077144384e-01
-1.484240245533332003e-01
-1.464272955051604541e-01
-1.438269397635960345e-01
-1.407507224759713405e-01
-1.373251562891200095e-01
-1.336616071442238152e-01
-1.298597810184581314e-01
-1.260127197549716360e-01
-1.221858927075487322e-01
-1.184370150699126101e-01
-1.148080374114970326e-01
-1.113173369550630870e-01
-1.079794399261721216e-01
-1.047903836705582348e-01
-1.017358765185539804e-01
-9.879846966247385343e-02
-9.595149658990775876e-02
-9.316661680090820852e-02
-9.041721293661457437e-02
-8.767854576653946741e-02
-8.492775637562934021e-02
-8.215359517067123696e-02
-7.934949587007714134e-02
-7.651636606522163597e-02
-7.367113165419222898e-02
-7.083361067134365252e-02
-6.803652109997551656e-02
-6.532285133107203212e-02
-6.273790272231592746e-02
-6.033610930255395299e-02
-5.817445124384714589e-02
-5.630853288894262926e-02
-5.479182956598935283e-02
-5.367627687388198954e-02
-5.300015711898683340e-02
-5.279385375076958709e-02
-5.307971503296462362e-02
-5.385512958113215787e-02
-5.511192798927984360e-02
-5.682275760346033183e-02
-5.893864571162689414e-02
-6.140618051279600476e-02
-6.414971964643641222e-02
-6.708438203895342178e-02
-7.012093148733088144e-02
-7.316050778250229869e-02
-7.610329392879529309e-02
-7.885513604084207206e-02
-8.132654303992722933e-02
-8.343318097230073560e-02
-8.511419887514805327e-02
-8.631588365345069236e-02
-8.700253887212000548e-02
-8.716731538990611650e-02
-8.680863889118531351e-02
-8.595315707143981465e-02
-8.464441363439395571e-02
-8.293222558619448015e-02
-8.088614849050237976e-02
-7.857976507933893406e-02
-7.608681551561655154e-02
-7.348122343420729341e-02
-7.083410105622857389e-02
-6.819666785551854737e-02
-6.561152891103945450e-02
-6.310605557602685933e-02
-6.067255892076849760e-02
-5.829655956962082747e-02
-5.593096028865282565e-02
-5.350089123799559032e-02
-5.092376299200784134e-02
-4.808375216998470036e-02
-4.485486381520178978e-02
-4.110517521804452068e-02
-3.669294369943225387e-02
-3.147711090063057271e-02
-2.533432215095619139e-02
-1.815219410458721733e-02
-9.834104431366876009e-03
-3.363313876432669214e-04
1.037209953686332037e-02
2.227119405176541250e-02
3.527953246229151990e-02
4.930060021804735099e-02
6.415388231836008370e-02
7.962131401552671739e-02
9.545258335375836345e-02
1.113206707735718004e-01
1.268851683087693361e-01
1.417657097733256710e-01
1.555467473209779516e-01
1.678098301817483040e-01
1.781279079371194951e-01
1.860715069617019657e-01
1.912342892793233717e-01
1.932496074372599681e-01
1.917621127716427620e-01
1.865017011127369784e-01
1.772529306976240726e-01
1.638417365151108862e-01
1.462366867377061508e-01
1.244407474907073263e-01
9.856332513061208389e-02
6.884648486692485081e-02
3.556064585068385159e-02
-8.704704104919372409e-04
-3.995217924505078955e-02
-8.113946137167446504e-02
-1.237634078548240091e-01
-1.671336522155528193e-01
-2.105094232495972051e-01
-2.531040601002981227e-01
-2.941314901814892080e-01
-3.328175357284306468e-01
-3.683924482211491935e-01
-4.001342432162853235e-01
-4.274057620937725122e-01
-4.495902267817098452e-01
-4.662116817176916173e-01
-4.768876085039271406e-01
-4.812945766948079074e-01
-4.793193304123438137e-01
-4.709003456700540102e-01
-4.561155020474020327e-01
-4.352223667466129098e-01
-4.085139689334758573e-01
-3.764715799928926576e-01
-3.396667203314577832e-01
-2.987280643243539480e-01
-2.544298692242610849e-01
-2.075722128953027545e-01
-1.590116522703735880e-01
-1.096579125839022423e-01
-6.042094110193454298e-02
-1.220059394358267296e-02
3.410718233575962127e-02
7.765439925257852649e-02
1.176812567158338485e-01
1.534488760822557973e-01
1.843633760743326744e-01
2.099304144536285610e-01
2.297157517317001962e-01
2.435063631983484245e-01
2.511453194588039173e-01
2.526201119772752968e-01
2.481107714146585097e-01
2.378342341711750241e-01
2.222032326750817133e-01
2.017277185054482669e-01
1.769732192985442321e-01
1.486517321816574477e-01
1.175015104802263621e-01
8.430646748977638216e-02
4.989496071358113377e-02
1.509107880706806598e-02
-1.931581546930111193e-02
-5.254914125888474064e-02
-8.389186365540757251e-02
-1.127403247893542237e-01
-1.385151915737576900e-01
-1.607914041584729836e-01
-1.792534667626460299e-01
-1.936405425535089042e-01
-2.038986316147277378e-01
-2.100273418083682120e-01
-2.121381428488129661e-01
-2.104967637436351846e-01
-2.053940801626796264e-01
-1.972415246831464575e-01
-1.865125041348207058e-01
-1.737002361223652924e-01
-1.593513998882810923e-01
-1.440210540743351308e-01
-1.282456454610942931e-01
-1.125428889948288380e-01
-9.741423175504040910e-02
-8.326979593896761955e-02
-7.048576622189980934e-02
-5.937541635143036428e-02
-5.012801883087868865e-02
-4.290993329052492089e-02
-3.777032488423483214e-02
-3.467226168625257843e-02
-3.354799807127237937e-02
-3.421138249385623220e-02
-3.644500433033793368e-02
-3.998980157144328001e-02
-4.452729423454386548e-02
-4.973314023887901586e-02
-5.527114361779877222e-02
-6.079881411628413473e-02
-6.598789283656962545e-02
-7.055119977288527855e-02
-7.421122515245129336e-02
-7.674819599769434897e-02
-7.800242278988786526e-02
-7.783282116446627041e-02
-7.619552509817091590e-02
-7.308390445666347601e-02
-6.853406397790967608e-02
-6.266929561632234025e-02
-5.562725428038026165e-02
-4.760009667652220083e-02
-3.882139456313782322e-02
-2.953234380276587023e-02
-2.000226973271031911e-02
-1.050786611864589631e-02
-1.318643501506601423e-03
7.306489260469582747e-03
1.511381779569195144e-02
2.189072749479829133e-02
2.744727051348056640e-02
3.161528866917583808e-02
3.429094366611856043e-02
3.538418184765945024e-02
3.485339636402792068e-02
3.270910992761582453e-02
2.897374604933766057e-02
2.372942736219405685e-02
1.708192818660578954e-02
9.156739983697433083e-03
1.209845449036267562e-04
-9.851716388448762685e-03
-2.056924710986602484e-02
-3.182495708387718392e-02
-4.341133058391724586e-02
-5.511875055395606265e-02
-6.673716736074102041e-02
-7.806517589117278888e-02
-8.891457190081170081e-02
-9.910082969278886933e-02
-1.084648023577612364e-01
-1.168618307065294182e-01
-1.241593135090110767e-01
-1.302614884132334561e-01
-1.350807338022575188e-01
-1.385582870158443003e-01
-1.406674942808817663e-01
-1.413897085961896005e-01
-1.407484567139936360e-01
-1.387845988248033180e-01
-1.355565219383934039e-01
-1.311609627840162329e-01
-1.257013158692801280e-01
-1.193064502089640905e-01
-1.121259404575967178e-01
-1.043140161150068329e-01
-9.604360212183173096e-02
-8.749302069200792786e-02
-7.884140487127426489e-02
-7.026916822463334655e-02
-6.195534823069380470e-02
-5.406358241152107308e-02
-4.674840768836869415e-02
-4.015351179495336292e-02
-3.438805088993850123e-02
-2.955320129587584582e-02
-2.571867961356714277e-02
-2.291800829481957513e-02
-2.117564562708993542e-02
-2.046702411393574311e-02
-2.074670599795274545e-02
-2.195005197628228932e-02
-2.396891499601896958e-02
-2.668770093062096393e-02
-2.996632224976930256e-02
-3.364410364341464260e-02
-3.755750459378118244e-02
-4.153232197348539351e-02
-4.539126014464841402e-02
-4.896382545261411534e-02
-5.209064947515672228e-02
-5.461620755288574408e-02
-5.641543468357055474e-02
-5.738189332119819630e-02
-5.742468809538331387e-02
-5.650397708970805732e-02
-5.459176512818589289e-02
-5.169842555709310006e-02
-4.787997898142980213e-02
-4.320224214255312389e-02
-3.778260126413006403e-02
-3.176116987426966243e-02
-2.529390065765593776e-02
-1.857387070229360448e-02
-1.180015048854853033e-02
-5.183469111285310404e-03
1.055310741812462427e-03
6.697373088320975054e-03
1.153577796348722456e-02
1.536753022888081438e-02
1.800922519763181046e-02
1.931061929501225877e-02
1.912901379961955833e-02
1.737084211278867169e-02
1.397363108398875370e-02
8.894371665509860636e-03
2.155929371922327142e-03
-6.203354397977131618e-03
-1.610413163675899345e-02
-2.741660319620164293e-02
-4.000153593273247238e-02
-5.367200463003460320e-02
-6.821931704767374149e-02
-8.342309625593329059e-02
-9.903465909897823938e-02
-1.148008813064798350e-01
-1.304649246528998274e-01
-1.457666128688897000e-01
-1.604492262077968912e-01
-1.742745598928140682e-01
-1.870106122275080052e-01
-1.984449002811332630e-01
-2.083991416945833730e-01
-2.167022491333051581e-01
-2.232274734187783827e-01
-2.278771006489474504e-01
-2.305699343943724278e-01
-2.312825465393675839e-01
-2.300054824489474736e-01
-2.267646169366374642e-01
-2.216307776386582662e-01
-2.146833021922037732e-01
-2.060454858968762959e-01
-1.958614129606646992e-01
-1.842875701826769130e-01
-1.715115928477477514e-01
-1.577265096117917154e-01
-1.431360417512307914e-01
-1.279538477700452592e-01
-1.123932213850722395e-01
-9.666346091952564279e-02
-8.097241910976052393e-02
-6.551772368504149568e-02
-5.047845121287630743e-02
-3.602948871283895294e-02
-2.231799356334656509e-02
-9.472334496146844751e-03
2.389739214106401111e-03
1.318894854544950396e-02
2.285559788957664679e-02
3.134286884463510087e-02
3.863404918577385133e-02
4.471785059981907978e-02
4.961059556071922144e-02
5.334213121297847610e-02
5.594955651725708884e-02
5.748881059618805162e-02
5.801921151099723867e-02
5.760686484100007582e-02
5.632439858531752136e-02
5.424497568333284253e-02
5.144327804947913113e-02
4.799450265953903588e-02
4.397241068331701058e-02
3.944806445107617437e-02
3.449193796063990819e-02
2.917071439510076497e-02
2.354841961618230756e-02
1.768797788674295740e-02
1.164823636138195145e-02
5.487007558696806175e-03
-7.397188053922323925e-04
-6.978434195588245625e-03
-1.317611542298732091e-02
-1.928236669784492291e-02
-2.524812654841234599e-02
-3.102593796221473146e-02
-3.657269643907442441e-02
-4.184627071909140239e-02
-4.680992222133286557e-02
-5.143227050495045860e-02
-5.568393838910198207e-02
-5.954587483290552097e-02
-6.300280452912405960e-02
-6.604523938240425274e-02
-6.867494393636511263e-02
-7.089569770746495525e-02
-7.272112822384299569e-02
-7.417200434564943934e-02
-7.527165616209605115e-02
-7.605313289500362228e-02
-7.655202019795800950e-02
-7.680755242433548458e-02
-7.686410153077906371e-02
-7.676659424790960307e-02
-7.656145727082022678e-02
-7.629590352883619531e-02
-7.601594787957641208e-02
-7.576419036147241659e-02
-7.558237968898323667e-02
-7.550621033139510996e-02
-7.556515690017161224e-02
-7.578638797043624198e-02
-7.618481874069751858e-02
-7.677072482229566064e-02
-7.754761165819787361e-02
-7.850535253457208151e-02
-7.963136851694525842e-02
-8.090136393711808149e-02
-8.228225457485287275e-02
-8.373809795302138148e-02
-8.522182574817091516e-02
-8.668338860179199135e-02
-8.806986394562310583e-02
-8.932414384813433528e-02
-9.038913337006766746e-02
-9.121093415121386827e-02
-9.173738956504137732e-02
-9.192058488680190931e-02
-9.172503208169549560e-02
-9.111805230594446914e-02
-9.008073967499569124e-02
-8.860881889977575976e-02
-8.670220990688623508e-02
-8.438282334906439808e-02
-8.168117507116229303e-02
-7.863692565980731630e-02
-7.530879678307150771e-02
-7.175861374680521376e-02
-6.805902105115584078e-02
-6.429105684209966698e-02
-6.053671811300993105e-02
-5.688123271660090047e-02
-5.341062836193879310e-02
-5.020632802463038252e-02
-4.734281458858660696e-02
-4.489230548307734936e-02
-4.291057457102911976e-02
-4.144413238921781928e-02
-4.053130542517240087e-02
-4.018574221776398392e-02
-4.041573831717971271e-02
-4.121154555153612453e-02
-4.254359670901395468e-02
-4.437803659191802419e-02
-4.665952647173480378e-02
-4.932403207465234363e-02
-5.230131526030315503e-02
-5.550776131944475805e-02
-5.885778981596530290e-02
-6.226234704050258306e-02
-6.562959246623006893e-02
-6.886878131349687127e-02
-7.189450320588258725e-02
-7.462298643327726355e-02
-7.697806720670398450e-02
-7.889544650883860422e-02
-8.031360713406937579e-02
-8.118884774388797354e-02
-8.148785511895939582e-02
-8.118479554417182276e-02
-8.027714524739396063e-02
-7.876753267588192109e-02
-7.667444938203736571e-02
-7.403440373266688412e-02
-7.088774198132968829e-02
-6.729437269055661697e-02
-6.332241294622219241e-02
-5.904622925600838679e-02
-5.455414690081861889e-02
-4.993673613626293389e-02
-4.529035007426617659e-02
-4.071614025263825543e-02
-3.631516032829072704e-02
-3.218731607185845028e-02
-2.843209124420912476e-02
-2.514336412384375607e-02
-2.240596603830935507e-02
-2.030232076205540359e-02
-1.889799149000005035e-02
-1.824836582512855132e-02
-1.840090992202368658e-02
-1.937746089958009010e-02
-2.119398489010283076e-02
-2.384760258392597254e-02
-2.731330142407809025e-02
-3.156120393854273259e-02
-3.653581191629072522e-02
-4.217048495040463807e-02
-4.838971753172482959e-02
-5.509748988342880183e-02
-6.219427535151403341e-02
-6.956996905704634915e-02
-7.710538931496623005e-02
-8.468010492437755277e-02
-9.216899766134623029e-02
-9.944554542173374145e-02
-1.063855666232249864e-01
-1.128687901216302580e-01
-1.187763310414373663e-01
-1.240005940648841454e-01
-1.284410351947007645e-01
-1.320031335280922868e-01
-1.346126087842702823e-01
-1.362000118399750159e-01
-1.367128774823548887e-01
-1.361193679371722198e-01
-1.343927916441182979e-01
-1.315353947521048505e-01
-1.275624713106532082e-01
-1.225024376241858892e-01
-1.164152062453249203e-01
-1.093666297391194531e-01
-1.014466545636895090e-01
-9.276660543259759861e-02
-8.344356304885919284e-02
-7.362018919404661466e-02
-6.344737654771891167e-02
-5.308375629250974836e-02
-4.270133546997560703e-02
-3.247348201505059762e-02
-2.257393026697017413e-02
-1.317665112774932257e-02
-4.451178145797478336e-03
3.448742670991482295e-03
1.037342218663998145e-02
1.619303575021211611e-02
2.080270911690127594e-02
2.410444571220084903e-02
2.604115097833634845e-02
2.657483434584847343e-02
2.568697604396587980e-02
2.340748912109755914e-02
1.977559559578555975e-02
1.486733870190449364e-02
8.792544321012042696e-03
1.669678131875892979e-03
-6.343603798037715513e-03
-1.507657469851465815e-02
-2.434689724924038456e-02
-3.395146202405099900e-02
-4.368483834350373601e-02
-5.333959982127088606e-02
-6.270698554705858574e-02
-7.158336398427665725e-02
-7.978413891878356756e-02
-8.712971331925321861e-02
-9.346402923102303806e-02
-9.866160679260103927e-02
-1.026049360632595997e-01
-1.052242505326335814e-01
-1.064728745066168825e-01
-1.063255538012164297e-01
-1.048122253317315400e-01
-1.019735342989522286e-01
-9.788939975285090855e-02
-9.267699867059983609e-02
-8.646217719033932880e-02
-7.941048690222199391e-02
-7.170119112865919186e-02
-6.352349724161478195e-02
-5.508502493731105149e-02
-4.659518022405284565e-02
-3.826065784827296923e-02
-3.028627663658534780e-02
-2.287008136225737037e-02
-1.618426254209736487e-02
-1.039417678405782364e-02
-5.638629574712214487e-03
-2.020752011231918832e-03
3.646845156162759061e-04
1.472087471295208116e-03
1.280490635826046775e-03
-2.116949242910795559e-04
-2.954388116465513081e-03
-6.887489169405874856e-03
-1.191950570148080091e-02
-1.792815206150245866e-02
-2.478531177030565691e-02
-3.233683599888480253e-02
-4.041928117970811779e-02
-4.886582596558589758e-02
-5.750318541060397970e-02
-6.615802295734887761e-02
-7.466615236975596148e-02
-8.286993694896158114e-02
-9.061805313309390097e-02
-9.778378811582240371e-02
-1.042469865230034320e-01
-1.099067237648270190e-01
-1.146888028204849919e-01
-1.185245291473467355e-01
-1.213761526812907193e-01
-1.232219671955683549e-01
-1.240510111811314042e-01
-1.238819602595703229e-01
-1.227393478275648764e-01
-1.206647581455744800e-01
-1.177170690789400148e-01
-1.139587185692283178e-01
-1.094687874276142198e-01
-1.043325430433392487e-01
-9.864041507138018861e-02
-9.249308015688059714e-02
-8.599274772442498660e-02
-7.924616345363739989e-02
-7.236343168706985129e-02
-6.545446555455329551e-02
-5.862805817238583850e-02
-5.199260039656066618e-02
-4.565094311975437247e-02
-3.969797200708766183e-02
-3.422613880817310800e-02
-2.931126611953878414e-02
-2.502024667372189370e-02
-2.141140449090951636e-02
-1.851846517704771461e-02
-1.636995408206372293e-02
-1.497514094600621570e-02
-1.432310213236704516e-02
-1.439807349777891959e-02
-1.516016498965749165e-02
-1.656018683538366260e-02
-1.854087370508967353e-02
-2.102836033113032049e-02
-2.394630856250063583e-02
-2.721206128886206888e-02
-3.073812221171307729e-02
-3.443764856113459838e-02
-3.822714213247448145e-02
-4.202414543055146834e-02
-4.575376448525753093e-02
-4.935235624051904912e-02
-5.275902495479759674e-02
-5.593039841690340686e-02
-5.883284451345045102e-02
-6.143954791312528085e-02
-6.374389904342273039e-02
-6.574349954170959076e-02
-6.744730276650547085e-02
-6.887657133129848619e-02
-7.005457045790033921e-02
-7.101352262588730979e-02
-7.178921497843855637e-02
-7.241805032188723679e-02
-7.293772651129397377e-02
-7.338584914424095551e-02
-7.379598032481447800e-02
-7.419847951041802503e-02
-7.462170378969920637e-02
-7.508544067200867422e-02
-7.560700138740167331e-02
-7.619900751508706938e-02
-7.686686266058886940e-02
-7.761494595545108399e-02
-7.844354478934779940e-02
-7.935059314124084939e-02
-8.033447594710280137e-02
-8.139507571718468393e-02
-8.253274316005815292e-02
-8.375286172655674322e-02
-8.506645777749151371e-02
-8.648635669877380305e-02
-8.803547574469235137e-02
-8.974091235119016630e-02
-9.163362833559160481e-02
-9.375310757279006757e-02
-9.614010303302683580e-02
-9.883745650379668901e-02
-1.018897207704295427e-01
-1.053398073301716753e-01
-1.092227582951307008e-01
-1.135711494128580495e-01
-1.184059286166744829e-01
-1.237295235927745041e-01
-1.295397124290811608e-01
-1.358029587206689981e-01
-1.424670756124344073e-01
-1.494652983191094575e-01
-1.566843443625149657e-01
-1.640004008185690643e-01
-1.712558554235415476e-01
-1.782539082715206558e-01
-1.847896825613780381e-01
-1.906170809583022097e-01
-1.954723442419282753e-01
-1.990826982145639801e-01
-2.011548430482241745e-01
-2.013932011701127511e-01
-1.995124091758224139e-01
-1.952357558149383221e-01
-1.882984779823347332e-01
-1.784922606972690340e-01
-1.656265870820515518e-01
-1.495651442345996285e-01
-1.302609681545351117e-01
-1.076864677060364039e-01
-8.193461324455443562e-02
-5.317268753876597254e-02
-2.161462760154042595e-02
1.237199998614121194e-02
4.838445289900506624e-02
8.592751437960069461e-02
1.243950953092866074e-01
1.631620158392114439e-01
2.015115550442877768e-01
2.386863830210686210e-01
2.739199998263234792e-01
3.064245300125472138e-01
3.354118901003931286e-01
3.601471524689207060e-01
3.799419506955196146e-01
3.941413774235745793e-01
4.022507783251593194e-01
4.038272795860410325e-01
3.985498179490007398e-01
3.863051545990752178e-01
3.670207150280007657e-01
3.408569727038544550e-01
3.081230544324789489e-01
2.692033925107845116e-01
2.247377882720148212e-01
1.754254362189445193e-01
1.220887110069257819e-01
6.570271765402802000e-02
7.263173887715947130e-03
-5.214973956720771187e-02
-1.114170709264639680e-01
-1.694324453563851307e-01
-2.251210101514733442e-01
-2.774185544765908062e-01
-3.253745286734783249e-01
-3.681413317269164875e-01
-4.049208703055939829e-01
-4.351543088241797697e-01
-4.583623725138924465e-01
-4.742126946209170857e-01
-4.826323540935595346e-01
-4.835952868805623583e-01
-4.773195749644194574e-01
-4.641844450177046166e-01
-4.446355764819983625e-01
-4.193501117457540395e-01
-3.890601506513911012e-01
-3.545852897389247804e-01
-3.168573237082670246e-01
-2.768186733796230148e-01
-2.354377072975080143e-01
-1.936950773426847350e-01
-1.525404721800292240e-01
-1.128441796120182306e-01
-7.545781155564952603e-02
-4.110671179269102804e-02
-1.039796747460270537e-02
1.610624052285452440e-02
3.806296626498650165e-02
5.520453265616862698e-02
6.737803992756891125e-02
7.464042409760110464e-02
7.708443781008919582e-02
7.497162573436869093e-02
6.867880153002212107e-02
5.862051069728265590e-02
4.534555886303211908e-02
2.943524476464760148e-02
1.150189396564566674e-02
-7.801017829493703259e-03
-2.782096654828120075e-02
-4.793674868236703912e-02
-6.754268108383766622e-02
-8.607063881303214647e-02
-1.030518849180895591e-01
-1.180388053338216892e-01
-1.306884855968805659e-01
-1.407594004984004665e-01
-1.480408037872400773e-01
-1.524723715935899226e-01
-1.540471417973196255e-01
-1.528227431495249589e-01
-1.489790456343066394e-01
-1.427154036443295804e-01
-1.343085100152966171e-01
-1.240896971542954641e-01
-1.124014725257067304e-01
-9.962574042664468221e-02
-8.615388232340799590e-02
-7.236851093080128028e-02
-5.864020950268327564e-02
-4.533238413721383392e-02
-3.275405212310383840e-02
-2.118639032805948869e-02
-1.087941625296104386e-02
-1.997953213458983357e-03
5.310683965107219906e-03
1.096763302436321724e-02
1.496257229590828436e-02
1.730214241474236497e-02
1.807512372229905934e-02
1.740042105534365252e-02
1.542368689809230781e-02
1.234296719921743751e-02
8.363601391729084955e-03
3.707544499871033572e-03
-1.391105130030843851e-03
-6.702411387668798237e-03
-1.201456697436801418e-02
-1.712099714401806722e-02
-2.184409481697972139e-02
-2.604736172062784710e-02
-2.960410734789730575e-02
-3.244778543784419822e-02
-3.454371046793601463e-02
-3.587980824177000594e-02
-3.650780337900595696e-02
-3.649211162290886407e-02
-3.593061921150429716e-02
-3.495586464490705453e-02
-3.370492588960283253e-02
-3.233284069856656728e-02
-3.100138914622548036e-02
-2.986603410005822523e-02
-2.906937302885353319e-02
-2.875016169234230479e-02
-2.901394792309749254e-02
-2.994117600533521828e-02
-3.159872734582709619e-02
-3.399855732181168710e-02
-3.713747153593616873e-02
-4.098195016018107983e-02
-4.545395057577687054e-02
-5.046847108239066459e-02
-5.590849362125802774e-02
-6.163944704633120969e-02
-6.752342228738716923e-02
-7.341314061998495399e-02
-7.916003753093268924e-02
-8.462712828473910320e-02
-8.968982425311100570e-02
-9.422955147498301987e-02
-9.816214528571313991e-02
-1.014170445812744847e-01
-1.039426434381428149e-01
-1.057271878270066578e-01
-1.067659191260513785e-01
-1.070839844969275201e-01
-1.067299133321557292e-01
-1.057579065765415771e-01
-1.042444310614537989e-01
-1.022721212472484931e-01
-9.992540700177121593e-02
-9.729144525860333736e-02
-9.445636092921484706e-02
-9.149389835274460148e-02
-8.847077078436713093e-02
-8.544599174145615927e-02
-8.245510280162701711e-02
-7.952853991325284366e-02
-7.668004305296033385e-02
-7.390487139384128989e-02
-7.119479659872614274e-02
-6.852483670604891941e-02
-6.586318438740165759e-02
-6.317548199330239034e-02
-6.042184898038605034e-02
-5.756199385556368814e-02
-5.456074853814907311e-02
-5.138708777950051765e-02
-4.801370874729876670e-02
-4.442982541120727574e-02
-4.062957652548414983e-02
-3.661929663518173617e-02
-3.242449052669821308e-02
-2.807422504154591381e-02
-2.361688932075754754e-02
-1.911222787219563762e-02
-1.462490543486256317e-02
-1.023486368486951209e-02
-6.025197937931270342e-03
-2.082124613829394733e-03
1.504567517894780937e-03
4.645930653803774513e-03
7.260167533403548423e-03
9.268529763422510281e-03
1.059990812845044289e-02
1.120045070298380380e-02
1.101986349043290042e-02
1.002801479230491094e-02
8.211632973478245889e-03
5.564162295506942801e-03
2.108568625029838550e-03
-2.123172197150330343e-03
-7.083380079299185506e-03
-1.269882939789879900e-02
-1.889201348529977870e-02
-2.556462308649008058e-02
-3.260569553557010614e-02
-3.990023424305462474e-02
-4.732043296142764144e-02
-5.473587179367309097e-02
-6.201751748179393925e-02
-6.903797797099696376e-02
-7.567240055756552231e-02
-8.181349260400401502e-02
-8.736168779447955890e-02
-9.223074550281112893e-02
-9.636560218758610796e-02
-9.971743253851059197e-02
-1.022692444887614016e-01
-1.040315729928442817e-01
-1.050243031160345009e-01
-1.053091266665749370e-01
-1.049608841431080158e-01
-1.040720312562543326e-01
-1.027646787154189584e-01
-1.011650250417970576e-01
-9.941321250702692125e-02
-9.765816058528092869e-02
-9.604669474465959977e-02
-9.471794025183472021e-02
-9.380874030321265100e-02
-9.343471155047602950e-02
-9.368548986480665364e-02
-9.464237644754483481e-02
-9.633615115629118320e-02
-9.877462127890826449e-02
-1.019403422918349483e-01
-1.057547344437187731e-01
-1.101277415226757511e-01
-1.149245515609469553e-01
-1.199703333836184826e-01
-1.250815253432816521e-01
-1.300368817077852401e-01
-1.346030472778122489e-01
-1.385451354497442555e-01
-1.416255999301654633e-01
-1.436095026071289305e-01
-1.442957722284944622e-01
-1.435053998184174784e-01
-1.410816319851085077e-01
-1.369461753968591600e-01
-1.310400865362389422e-01
-1.233693236136916838e-01
-1.140219986926453155e-01
-1.031038572479320015e-01
-9.081702771135158336e-02
-7.740897988103570548e-02
-6.315660472814187132e-02
-4.841034265722653218e-02
-3.353306354677314249e-02
-1.890795083067142029e-02
-4.936969560304795002e-03
7.983293598812397918e-03
1.948881688183001087e-02
2.922690551469390302e-02
3.688981062019069251e-02
4.225088672863634015e-02
4.510088500195352096e-02
4.534026162503197038e-02
4.294341679092471969e-02
3.792363150713329994e-02
3.043391411294402854e-02
2.066165273660302421e-02
8.867061639545988083e-03
-4.594302396169147595e-03
-1.935276472154738581e-02
-3.497624965909492539e-02
-5.100231262065284266e-02
-6.696821445590722677e-02
-8.241097620004231294e-02
-9.686988728619905231e-02
-1.099332400932442472e-01
-1.212361745654108036e-01
-1.304365139385452177e-01
-1.373078910821894094e-01
-1.416646454510036846e-01
-1.433899830792050578e-01
-1.424957413528756545e-01
-1.390164584683677707e-01
-1.330980746044695406e-01
-1.249642147769006728e-01
-1.148645827042212991e-01
-1.031437315122155363e-01
-9.016969972324806459e-02
-7.633325659314503520e-02
-6.205595172394297310e-02
-4.775880960495612615e-02
-3.383983188283222476e-02
-2.068536850428275703e-02
-8.653719916856497663e-03
1.972725291530239011e-03
1.092786396994559900e-02
1.802502328109354540e-02
2.315604732531646032e-02
2.623572915696172764e-02
2.729235867402974441e-02
2.639535432911391949e-02
2.366002083775111536e-02
1.929037772652945210e-02
1.350413251344926430e-02
6.567079477896427264e-03
-1.220297895887866024e-03
-9.554437271647057972e-03
-1.812247657913317739e-02
-2.660970686815668923e-02
-3.472420982996055061e-02
-4.220599093347501829e-02
-4.880512309542496541e-02
-5.433972256609232582e-02
-5.866347904879871261e-02
-6.166207224986972046e-02
-6.331044559679468997e-02
-6.360169744551394388e-02
-6.258988216996769216e-02
-6.039135650058496257e-02
-5.713517250553992732e-02
-5.300987555893253017e-02
-4.822625541094503754e-02
-4.300609339401360171e-02
-3.759313408803056922e-02
-3.223277312890746038e-02
-2.715653261480744513e-02
-2.258558222348986538e-02
-1.872857017396365592e-02
-1.574282524297223457e-02
-1.377144477765333136e-02
-1.291621390267391062e-02
-1.321905252830335442e-02
-1.471014169196424581e-02
-1.735450141895732851e-02
-2.108189227803893701e-02
-2.580337440521748849e-02
-3.137632664422927709e-02
-3.764766813922995614e-02
-4.444655243745395529e-02
-5.158335803208151382e-02
-5.886854195170699439e-02
-6.611869245749904533e-02
-7.315285956098377396e-02
-7.980446072521060752e-02
-8.593674891391449300e-02
-9.141916136390007552e-02
-9.615822144215174783e-02
-1.000890755910802399e-01
-1.031582948905699626e-01
-1.053588756207131244e-01
-1.066967895468022010e-01
-1.071982663871134112e-01
-1.069199076519906089e-01
-1.059225199795339745e-01
-1.042834174170969436e-01
-1.020891592128540665e-01
-9.942666704653321808e-02
-9.638365429170678289e-02
-9.304769107200824840e-02
-8.949839864204234274e-02
-8.580671211169392520e-02
-8.204077571525422719e-02
-7.825340542694227131e-02
-7.449124099626530660e-02
-7.079539136876300542e-02
-6.719509498996412145e-02
-6.371780390561510021e-02
-6.038709247154589593e-02
-5.722343979007622761e-02
-5.424800450939070567e-02
-5.148540351250125574e-02
-4.896131206324373653e-02
-4.670637634556495943e-02
-4.475895414273647899e-02
-4.315889219327914694e-02
-4.195436416659781287e-02
-4.119837243957421430e-02
-4.094520886981942165e-02
-4.125304436351035636e-02
-4.218066290993789658e-02
-4.378251654531099130e-02
-4.610816248576304899e-02
-4.920422455099716236e-02
-5.309919066758943956e-02
-5.781394825170675655e-02
-6.335678978781779380e-02
-6.970796181050639695e-02
-7.684226964697404849e-02
-8.470708827891823556e-02
-9.322714910557866608e-02
-1.023195715724048577e-01
-1.118689311836809364e-01
-1.217500755728033179e-01
-1.318253928906475692e-01
-1.419372701303805717e-01
-1.519256435569932839e-01
-1.616236199352135694e-01
-1.708602075811338772e-01
-1.794673168906508742e-01
-1.872865442300163663e-01
-1.941620144534788317e-01
-1.999548624080259018e-01
-2.045460977715710116e-01
-2.078227800836630335e-01
-2.097067880978042698e-01
-2.101350788548909387e-01
-2.090612013202354791e-01
-2.064769438818528646e-01
-2.023811058924320228e-01
-1.968009677183536199e-01
-1.897881226077687833e-01
-1.814008280621257629e-01
-1.717260451839965618e-01
-1.608596174257337086e-01
-1.489077886264633666e-01
-1.359940809922450256e-01
-1.222445553179074551e-01
-1.077953023317562570e-01
-9.278864390624202985e-02
-7.736858807853547182e-02
-6.168456015469375026e-02
-4.588715346126549105e-02
-3.012753323452174725e-02
-1.455755573340523912e-02
6.713616528359403479e-04
1.541133914183110548e-02
2.951609185233069338e-02
4.284347460405833058e-02
5.526125236164321913e-02
6.663947521117136175e-02
7.686360120244864480e-02
8.583268948103731089e-02
9.345265898161256302e-02
9.966184773881434089e-02
1.044091313098545193e-01
1.076664737067789535e-01
1.094455454524859150e-01
1.097657407936349361e-01
1.086904671118748833e-01
1.063114287232299338e-01
1.027341407947212903e-01
9.811127315636761215e-02
9.260646807470046538e-02
8.640339678413844204e-02
7.971075771135338606e-02
7.273950666192793846e-02
6.570582700806690268e-02
5.882829730532936757e-02
5.231574039492522393e-02
4.635268264826051393e-02
4.111788289495642984e-02
3.674979907440523857e-02
3.335010371850565675e-02
3.100558870432244124e-02
2.973170051493537885e-02
2.952003891893979076e-02
3.032451618188804904e-02
3.203195644232834788e-02
3.451812476214029951e-02
3.760863267112309755e-02
4.109572721990643190e-02
4.476354124785656557e-02
4.836862900485614652e-02
5.166139097329159463e-02
5.439892425013099359e-02
5.634698009320216611e-02
5.727721691447853342e-02
5.700398282367503261e-02
5.536217667210858312e-02
5.221269022204743510e-02
4.748313892031270217e-02
4.111445235652261970e-02
3.310362735150260832e-02
2.350057722037437319e-02
1.236938677227594069e-02
-1.595037258282847037e-04
-1.393280027123581372e-02
-2.877388437285494094e-02
-4.446316444570998228e-02
-6.077501278020686765e-02
-7.746595259241473297e-02
-9.428022186215256895e-02
-1.109634054346028548e-01
-1.272671512422847151e-01
-1.429449955682704498e-01
-1.577688359359968040e-01
-1.715351123907539188e-01
-1.840472919047302647e-01
-1.951532157117764066e-01
-2.047228331104434529e-01
-2.126475279776844918e-01
-2.188756270826439643e-01
-2.233669003261012920e-01
-2.261255231646995545e-01
-2.271990054912979839e-01
-2.266461881218518881e-01
-2.245802430981271858e-01
-2.211337450701189866e-01
-2.164592000584334153e-01
-2.107471327577685460e-01
-2.041936423291635938e-01
-1.970121116091022029e-01
-1.894282302621501102e-01
-1.816669266689556195e-01
-1.739490646009874408e-01
-1.664941208808561335e-01
-1.595045169330662482e-01
-1.531590931938943412e-01
-1.476299031410552576e-01
-1.430449321853662914e-01
-1.395094323564057270e-01
-1.371075959263468869e-01
-1.358656423605626440e-01
-1.357979593084736036e-01
-1.368757405647939573e-01
-1.390265957649126360e-01
-1.421677941866870409e-01
-1.461666957095379415e-01
-1.508722111879782501e-01
-1.561179419202206042e-01
-1.617072625931176011e-01
-1.674395063601439027e-01
-1.731071256645523582e-01
-1.784975048634004635e-01
-1.834022009443451451e-01
-1.876304475289816143e-01
-1.909965168571114424e-01
-1.933384243740634001e-01
-1.945281450698648218e-01
-1.944458811866654480e-01
-1.930228914832523290e-01
-1.902177013180912646e-01
-1.860101255953655885e-01
-1.804406194280296916e-01
-1.735620883845214457e-01
-1.654669102875644393e-01
-1.562886452620989575e-01
-1.461690684511908755e-01
-1.352887400786361161e-01
-1.238430497285130383e-01
-1.120346047165578507e-01
-1.000807431861646113e-01
-8.819998760260389092e-02
-7.660171595319476001e-02
-6.548833943048384953e-02
-5.505378909943968446e-02
-4.545643819717027495e-02
-3.684458469030001820e-02
-2.933673455641295016e-02
-2.300730921639548843e-02
-1.792169939282952512e-02
-1.409331657198972798e-02
-1.150683606442873264e-02
-1.012937409935250194e-02
-9.876400421126821372e-03
-1.065276882596746105e-02
-1.233698609155067794e-02
-1.477913616114203549e-02
-1.782511729610793821e-02
-2.130300846512096086e-02
-2.503385004978210537e-02
-2.883972096211922034e-02
-3.254494216771304516e-02
-3.597516492670767285e-02
-3.897222112548810735e-02
-4.139069233732642350e-02
-4.309270929753430956e-02
-4.397245539014041360e-02
-4.393338430195328770e-02
-4.289978358173963946e-02
-4.082783882623312183e-02
-3.767970072697939682e-02
-3.344994122171970896e-02
-2.815168687877512080e-02
-2.180814602962240917e-02
-1.447317848240084470e-02
-6.207122047319817149e-03
2.914396741446410866e-03
1.279869705667100593e-02
2.335045876712810858e-02
3.446270470853809303e-02
4.602367486979582617e-02
5.792100344853969712e-02
7.004102346877738583e-02
8.227026661097391891e-02
9.450133732241772222e-02
1.066317887565780831e-01
1.185621917633512545e-01
1.302064051033468006e-01
1.414822543356272222e-01
1.523157520607582860e-01
1.626458818801343464e-01
1.724139116066353006e-01
1.815728855098865391e-01
1.900828240158614624e-01
1.979069141604068161e-01
2.050182680545341862e-01
2.113921445515861974e-01
2.170082797493610716e-01
2.218515740679381232e-01
2.259078723579386605e-01
2.291675992833532016e-01
2.316231352613248029e-01
2.332688454660132027e-01
2.341036061368851617e-01
2.341271900039090526e-01
2.333440265557074900e-01
2.317624696017799024e-01
2.293924223763823267e-01
2.262506455782034853e-01
2.223560009874508692e-01
2.177303950466540627e-01
2.124007261365871424e-01
2.063944845151218510e-01
1.997405593141798053e-01
1.924686970463969915e-01
1.846073189781637647e-01
1.761803623997239554e-01
1.672106139154510285e-01
1.577139992559017934e-01
1.476982606420051969e-01
1.371688164469010707e-01
1.261177085037261669e-01
1.145310619763020288e-01
1.023893889117213907e-01
8.965998740828995395e-02
7.630785973890830132e-02
6.229099543281502865e-02
4.756127286274585558e-02
3.207028363755303618e-02
1.576920860127992846e-02
-1.390824630793423278e-03
-1.945287851348120878e-02
-3.845015409801685879e-02
-5.841311866001765163e-02
-7.935204384005806189e-02
-1.012643865478654592e-01
-1.241378684709154578e-01
-1.479270208435223832e-01
-1.725784481668697357e-01
-1.980142341110486259e-01
-2.241262158777716229e-01
-2.507998487110277841e-01
-2.778864744610814452e-01
-3.052218165794065019e-01
-3.326311019390427726e-01
-3.599140113943431474e-01
-3.868659908090233412e-01
-4.132749904660840690e-01
-4.389222063782227679e-01
-4.635908375471214371e-01
-4.870757414398219076e-01
-5.091757547714751420e-01
-5.297074978346580920e-01
-5.485188357484829247e-01
-5.654646979110359295e-01
-5.804463849902301575e-01
-5.933956441931359516e-01
-6.042623027438104311e-01
-6.130596779702731647e-01
-6.198164396038021717e-01
-6.245985326950270755e-01
-6.275194539848849562e-01
-6.287007078534777582e-01
-6.283025188589863586e-01
-6.265034606509166659e-01
-6.234877633597269986e-01
-6.194537665459246556e-01
-6.146015131295687883e-01
-6.091207434721521707e-01
-6.031915985568382377e-01
-5.969871172690739414e-01
-5.906439602424010671e-01
-5.842863059195853026e-01
-5.780135050017992659e-01
-5.718797546962827161e-01
-5.659309445690559048e-01
-5.601690108994610284e-01
-5.545660307123665422e-01
-5.490817306097368622e-01
-5.436315489244851751e-01
-5.381200521894755617e-01
-5.324330327418631548e-01
-5.264315120706375417e-01
-5.199732449413743129e-01
-5.129030721904292989e-01
-5.050595001284371444e-01
-4.962819997495551139e-01
-4.864127031365007015e-01
-4.752947844308833547e-01
-4.627845110524364536e-01
-4.487507647033328051e-01
-4.330682412712005269e-01
-4.156414137274789256e-01
-3.963853147832524515e-01
-3.752336333947960401e-01
-3.521551873884635198e-01
-3.271253076762738465e-01
-3.001536905409842859e-01
-2.712741849967681418e-01
-2.405307149846362680e-01
-2.080046025054677616e-01
-1.737866972744064042e-01
-1.379851229803626955e-01
-1.007315777121102901e-01
-6.216130891234294270e-02
-2.242545345271099166e-02
1.831677187562253534e-02
5.990396038633515746e-02
1.021688833230248727e-01
1.449434295769375936e-01
1.880618913473168508e-01
2.313609548939213056e-01
2.746790262224097501e-01
3.178639539983605378e-01
3.607670552341280534e-01
4.032457190174258410e-01
4.451691740768021210e-01
4.864088531118567760e-01
5.268476815985106976e-01
5.663769407773284748e-01
6.048917163970087829e-01
6.423017740894447769e-01
6.785208211257646171e-01
7.134728143384609922e-01
7.470961802904074744e-01
7.793327712940817387e-01
8.101453064265202730e-01
8.395075024840131794e-01
8.674034464887699913e-01
8.938464171606090858e-01
9.188558488908166177e-01
9.424755685959056439e-01
9.647745274668177995e-01
9.858280596288948594e-01
1.005743295019447148e+00
1.024639379239622672e+00
1.042645164937869628e+00
1.059909083862587531e+00
1.076581860860103879e+00
1.092813245863339722e+00
1.108752255635491624e+00
1.124540187335874020e+00
1.140285847566933075e+00
1.156088713736732387e+00
1.172009068211517624e+00
1.188049948757099683e+00
1.204200246800453122e+00
1.220359098595400704e+00
1.236376670458221083e+00
1.252063548524509962e+00
1.267115011118853385e+00
1.281202134577156482e+00
1.293917384368012069e+00
1.304769505025222820e+00
1.313250506587743560e+00
1.318772278801731979e+00
1.320715401123733868e+00
1.318447705169253359e+00
1.311310471211993622e+00
1.298643844417165072e+00
1.279821459514558057e+00
1.254243000195593760e+00
1.221334940242758238e+00
1.180638195690735914e+00
1.131726806657564754e+00
1.074274150187929822e+00
1.008103711955690374e+00
9.330708877803888246e-01
8.492207474231455722e-01
7.567054822632022226e-01
6.557472463003538588e-01
5.467787796103042997e-01
4.302774452407034378e-01
3.068429527520435407e-01
1.772097420934575784e-01
4.213634950439238552e-02
-9.750565572168526374e-02
-2.407989018615882826e-01
-3.868072920154869698e-01
-5.345543652151718561e-01
-6.830597871414502142e-01
-8.313659074609329735e-01
-9.785333236987836525e-01
-1.123641905186826717e+00
-1.265856971042938595e+00
-1.404369276059499905e+00
-1.538437949319484188e+00
-1.667429031466973299e+00
-1.790730361946786919e+00
-1.907857200008180820e+00
-2.018399296018437816e+00
-2.121993342262078919e+00
-2.218422359471103888e+00
-2.307501552074329165e+00
-2.389138982154359159e+00
-2.463348448566961224e+00
-2.530165905944467664e+00
-2.589739785939484396e+00
-2.642265849086691265e+00
-2.687976480663873069e+00
-2.727186098496457767e+00
-2.760222545735065314e+00
-2.787451107837203512e+00
-2.809268218969179998e+00
-2.826072230228890092e+00
-2.838266081255266027e+00
-2.846253761164204477e+00
-2.850418483305903639e+00
-2.851109840675277951e+00
-2.848668080063867958e+00
-2.843366427734476787e+00
-2.835437555031058654e+00
-2.825082312463738532e+00
-2.812398296056947355e+00
-2.797459346517817469e+00
-2.780261750987603975e+00
-2.760710477742993163e+00
-2.738689865144798397e+00
-2.713974382917792472e+00
-2.686290584333890674e+00
-2.655325611001841057e+00
-2.620675141013613985e+00
-2.581919273634723844e+00
-2.538592481092622588e+00
-2.490189983595440193e+00
-2.436204127294248512e+00
-2.376119412291312294e+00
-2.309418294454659737e+00
-2.235610539458998680e+00
-2.154251656063153497e+00
-2.064910153174956520e+00
-1.967250989107273806e+00
-1.860999521688648128e+00
-1.745928000614408893e+00
-1.621966407261332899e+00
-1.489082039072444852e+00
-1.347360666141074637e+00
-1.197032319027103053e+00
-1.038358339864113633e+00
-8.717680283444890765e-01
-6.977665543362561174e-01
-5.169143749515541231e-01
-3.299047678012004825e-01
-1.374534863417698760e-01
5.967119517714931237e-02
2.606542812245462581e-01
4.646826780224670994e-01
6.709613602524541198e-01
8.787017165517764239e-01
1.087169015455626164e+00
1.295721941193844984e+00
1.503740907575150887e+00
1.710751493266639445e+00
1.916373345953497731e+00
2.120281155586333455e+00
2.322340191368335915e+00
2.522460975806854133e+00
2.720655647431666324e+00
2.917064308276250628e+00
3.111844639048735317e+00
3.305227350525734131e+00
3.497477223492163834e+00
3.688842896140639205e+00
3.879532034662108941e+00
4.069739409423196896e+00
4.259529085164747819e+00
4.448844898227529043e+00
4.637573190649542099e+00
4.825318234610716850e+00
5.011589011071573729e+00
5.195722700115006809e+00
5.376748186316130607e+00
5.553639919199816255e+00
5.725099021743800698e+00
5.889643351152343165e+00
6.045729405218417618e+00
6.191598910657464927e+00
6.325443285705888208e+00
6.445430927086816197e+00
6.549700248129517455e+00
6.636408078830998036e+00
6.703876354683192318e+00
6.750507218318074543e+00
6.774844129206856636e+00
6.775796870107187786e+00
6.752351760636446265e+00
6.703868150866096443e+00
6.630060184719438254e+00
6.530747438792869453e+00
6.406254933278205499e+00
6.257083255790824694e+00
6.083914752811600657e+00
5.887769337524098923e+00
5.669709448365906290e+00
5.430871721795875295e+00
5.172444265552434750e+00
4.895542593140100429e+00
4.600998799898790459e+00
4.289567424741377977e+00
3.961607085446919641e+00
3.616943051464837744e+00
3.255265734794746013e+00
2.875445855136250284e+00
2.475942560463058939e+00
2.054888313532175825e+00
1.609541995000906889e+00
1.136999942275324305e+00
6.339879550687131937e-01
9.686743423257276886e-02
-4.780200062387215953e-01
-1.094358160129151214e+00
-1.755833321157119542e+00
-2.465361567359632744e+00
-3.224376170860483892e+00
-4.034141851530630873e+00
-4.895923329241831823e+00
-5.810985323865585528e+00
