BVP Green Neck Signal
-1.221165553600168756e-02
-6.396986453750645729e-02
-8.496785493158356961e-02
-6.100619545496432927e-02
-5.285915355098241147e-04
7.180452671600366654e-02
1.287870330233914229e-01
1.529537490067032768e-01
1.414424026530878009e-01
1.026685303025118151e-01
4.872624525871806223e-02
-1.085065421818478919e-02
-7.036726843231859430e-02
-1.248667109625674482e-01
-1.663578886709467797e-01
-1.830747109076640566e-01
-1.630352749742525753e-01
-1.004638376883488227e-01
-1.917885853166627005e-03
1.116392323910514739e-01
2.096016739946073570e-01
2.628366780067581954e-01
2.561804189602577830e-01
1.950709686673144094e-01
1.019166808552133124e-01
4.416639818539099330e-03
-7.674670362724957118e-02
-1.338289919826547714e-01
-1.697309643849093386e-01
-1.909736077832916989e-01
-2.011127194172030452e-01
-1.979634104330386668e-01
-1.752747405295998206e-01
-1.275476970029013335e-01
-5.547707670997156781e-02
3.109274406448896133e-02
1.149505294401361594e-01
1.776004275463836934e-01
2.062809951824339239e-01
1.979684653079097079e-01
1.588275333098608244e-01
1.006698430876451222e-01
3.697011903551608580e-02
-2.021517823369226030e-02
-6.232676746000281875e-02
-8.531782300851696588e-02
-8.925826296890822242e-02
-7.671425851712777855e-02
-5.105968311287825689e-02
-1.596324422551485128e-02
2.388796755764049928e-02
6.203532953633181246e-02
9.068524225489034418e-02
1.024582889866668955e-01
9.267197784978452313e-02
6.133420255860325132e-02
1.418851829590926129e-02
-3.805629613448767434e-02
-8.299589228311364530e-02
-1.114204246262520404e-01
-1.209719763949057003e-01
-1.157834289633364461e-01
-1.021856592775174100e-01
-8.380757749336001372e-02
-5.983413771386393576e-02
-2.741531347244605815e-02
1.407992728356696928e-02
6.024774402889203351e-02
1.019502899001574203e-01
1.282347644658837216e-01
1.303472076344588115e-01
1.053237869124263176e-01
5.776827299628957413e-02
-1.253216668867363978e-03
-5.800141873897568523e-02
-1.005655838774166255e-01
-1.215770043573729114e-01
-1.181933659343493703e-01
-9.066108523746212178e-02
-4.152559239456155016e-02
2.372896700459194153e-02
9.567132007006319550e-02
1.612178832374307202e-01
2.059770085011163043e-01
2.180075502223260409e-01
1.915850212237233119e-01
1.295402477041831535e-01
4.309420656497836566e-02
-5.113678982433629561e-02
-1.359935173715767220e-01
-1.982778334338101411e-01
-2.307615813828475804e-01
-2.313097478634958404e-01
-2.008726428436210243e-01
-1.426797243693904982e-01
-6.340008981196022797e-02
2.521093192964708740e-02
1.065752877465992315e-01
1.627814803321215864e-01
1.804617558881203843e-01
1.563836441799301147e-01
9.957648144056090167e-02
2.814464421503519442e-02
-3.818890618526744885e-02
-8.587049480451908190e-02
-1.111025930530186445e-01
-1.174424894312095236e-01
-1.098915175886601842e-01
-9.022094189100872408e-02
-5.668911777367810489e-02
-7.579462954398997684e-03
5.451519209130514798e-02
1.205534015527006675e-01
1.763012113826873117e-01
2.067162694298476655e-01
2.019623076749844648e-01
1.623683904755549856e-01
9.934905288283889246e-02
3.103443824628678016e-02
-2.544126493579056125e-02
-6.078370705680105623e-02
-7.596217091604907934e-02
-7.966995289313995310e-02
-8.301910755407020115e-02
-9.422009594268788979e-02
-1.149756221603999290e-01
-1.394782521048819612e-01
-1.565929674947840466e-01
-1.549075179127891444e-01
-1.285250906919971625e-01
-8.036215583726563638e-02
-2.096611961774545729e-02
3.621977678379086074e-02
8.018376038457211696e-02
1.056333894890492675e-01
1.133775733635572769e-01
1.084018214584502454e-01
9.683730749382835068e-02
8.328866645613339226e-02
6.998374980508691168e-02
5.816069364048624679e-02
5.006601527454380973e-02
4.886189123047884192e-02
5.551392071277584661e-02
6.524368277416131567e-02
6.768846696095584536e-02
5.225380987781640119e-02
1.538835533735230694e-02
-3.577370385001756026e-02
-8.646688645706102072e-02
-1.220781957557271757e-01
-1.354510790167557654e-01
-1.293027802406128690e-01
-1.128769803651912679e-01
-9.535292155973412731e-02
-8.003151967669221156e-02
-6.273391127319284666e-02
-3.555038543330140549e-02
6.225404301251487652e-03
5.864955126049530010e-02
1.092607247502545148e-01
1.429498133312321062e-01
1.494577463075298096e-01
1.275903026648812777e-01
8.441120469454385655e-02
3.139353554072129432e-02
-1.960412358466499805e-02
-5.924190003581991659e-02
-8.244245474261170659e-02
-8.874643956870693906e-02
-8.091506579228736895e-02
-6.253677083903178002e-02
-3.654615323834327356e-02
-5.800810676409888164e-03
2.541526107101544502e-02
5.124482232262055070e-02
6.625486744978810461e-02
6.793450785138023529e-02
5.754955976257183914e-02
3.903168817361450660e-02
1.730820458859032296e-02
-2.754632339651704245e-03
-1.694762568382469914e-02
-2.250924813588147527e-02
-1.904966227080925195e-02
-8.836982696229412834e-03
4.006775517084379401e-03
1.494234278843102615e-02
2.030125310284909557e-02
1.816818796895196958e-02
9.002476829455893434e-03
-4.263362738692653628e-03
-1.735452896665685973e-02
-2.701125860664199685e-02
-3.310813234372222968e-02
-3.873804395981289561e-02
-4.803320332695303063e-02
-6.330215814192428903e-02
-8.316026756268161957e-02
-1.020705315321502465e-01
-1.110303102007710180e-01
-9.970766150495515012e-02
-6.058212599526110326e-02
5.892349603041956499e-03
8.826217821497107929e-02
1.663430701437937920e-01
2.187710710596917907e-01
2.319171784438533723e-01
2.050598233424258676e-01
1.492368912598172337e-01
8.117680227195216147e-02
1.608296774455060529e-02
-3.720620209886091323e-02
-7.692249381041364742e-02
-1.052213152508390259e-01
-1.233767642754876465e-01
-1.286704397543048106e-01
-1.154913762024948609e-01
-8.012094689727880525e-02
-2.558282612198752026e-02
3.730912442977260546e-02
9.354511860198885809e-02
1.294749717866409411e-01
1.367538344629826152e-01
1.131692408782843662e-01
6.143791693374114904e-02
-1.212078472073983663e-02
-9.813279432576810235e-02
-1.842994228274555113e-01
-2.559449379865932905e-01
-2.977667686216995402e-01
-2.973320642807431580e-01
-2.499042594099450121e-01
-1.623456651306479370e-01
-5.277604100673852217e-02
5.555685695389668555e-02
1.436841876647923510e-01
2.041879017827407106e-01
2.419478944808750309e-01
2.681834921605277255e-01
2.917477524953996926e-01
3.129108586024144656e-01
3.228506362437852384e-01
3.085195023270161374e-01
2.598179997444469147e-01
1.753171412708093568e-01
6.397950234659320612e-02
-5.741899126895198824e-02
-1.693744594679159887e-01
-2.547807357228704106e-01
-3.026079753380259141e-01
-3.100136251936247977e-01
-2.830773070504771782e-01
-2.356486586416750850e-01
-1.855018370149907059e-01
-1.481895478615515016e-01
-1.310020081064290631e-01
-1.302739664708309208e-01
-1.336926312841411890e-01
-1.262587643833243123e-01
-9.661318240473086572e-02
-4.091633317319011420e-02
3.665067714166410362e-02
1.261054846178615019e-01
2.151098708674614446e-01
2.918403980201749737e-01
3.460583562892855514e-01
3.688339159649856036e-01
3.529112751723181840e-01
2.952181196117140694e-01
2.004831711055650167e-01
8.275392731031018523e-02
-3.764359734169527016e-02
-1.406671186602375390e-01
-2.125560629720184558e-01
-2.477271214080539741e-01
-2.467369066965616198e-01
-2.135404649963759949e-01
-1.547679675683022726e-01
-8.077231566640821758e-02
-6.116240648559449419e-03
5.237645750549703438e-02
8.002918792299225370e-02
6.965677913099785346e-02
2.550766889729975950e-02
-3.670258912393223327e-02
-9.505353446906968096e-02
-1.304312994110652657e-01
-1.344908254827501259e-01
-1.113647911725146322e-01
-7.189595945197362059e-02
-2.487528634005945621e-02
2.779611721480927666e-02
8.836378708973659235e-02
1.555042432781582329e-01
2.183084885368452577e-01
2.574840110352453748e-01
2.541607749542513228e-01
2.012961855893188601e-01
1.103728221198184145e-01
8.291722578856507500e-03
-7.483217842808503883e-02
-1.201342631334352540e-01
-1.277782061360790145e-01
-1.133034923630904384e-01
-9.575541358013182902e-02
-8.630427827115717820e-02
-8.459501799959576185e-02
-8.334745242068726523e-02
-7.592437305759767996e-02
-6.110944181847736967e-02
-4.306275538456535296e-02
-2.803459864325685835e-02
-2.039789979433563605e-02
-1.985008539865735361e-02
-2.094690276635653020e-02
-1.547010949253403538e-02
3.255665771467229977e-03
3.651940022432134669e-02
7.927415037536546250e-02
1.223933934094831172e-01
1.560219130109549712e-01
1.716444055199629337e-01
1.626212433033033533e-01
1.249815374699376619e-01
5.983476361613575267e-02
-2.373053749928492884e-02
-1.082259040115395726e-01
-1.718332079566611270e-01
-1.959372358798093239e-01
-1.726128992859848332e-01
-1.083709086843089031e-01
-2.217217570628071677e-02
6.173692353589237125e-02
1.229976558248495333e-01
1.517009303982241319e-01
1.490264545841382404e-01
1.225367401443347298e-01
8.028428720611474612e-02
2.801030057499343667e-02
-2.964365576930583224e-02
-8.652078572448505811e-02
-1.340939511919762295e-01
-1.632628985226408369e-01
-1.673695105426709906e-01
-1.446418838827623898e-01
-9.928242953257969405e-02
-4.100676429424245095e-02
1.729729240984563543e-02
6.366818626345556453e-02
9.125717019459493595e-02
9.997107784502755334e-02
9.437315150528403918e-02
7.963085272021754035e-02
5.882153772709131090e-02
3.328930714405871349e-02
4.798813922474118657e-03
-2.294756735036420497e-02
-4.458826607384507035e-02
-5.462077956786583199e-02
-4.915883255716278072e-02
-2.738631478893380211e-02
7.598849947486359738e-03
4.897608795610615406e-02
8.766301724495594028e-02
1.146516698464814105e-01
1.234491454854702019e-01
1.120711543540668098e-01
8.418527309565719541e-02
4.855870878758818815e-02
1.582381376668676176e-02
-6.959443631187387999e-03
-2.097115213934411942e-02
-3.570122790940175039e-02
-6.318333399246110760e-02
-1.095025158690579731e-01
-1.689518524710389713e-01
-2.244286306137528997e-01
-2.536904150434029503e-01
-2.383495237867112870e-01
-1.722090940053098151e-01
-6.612339164693993576e-02
5.329639879803675651e-02
1.526680155058352528e-01
2.061169146695616960e-01
2.076438709365997504e-01
1.735754483922053171e-01
1.325658118319814338e-01
1.087551530777654540e-01
1.082130772563655863e-01
1.165711133937491761e-01
1.088757293598698328e-01
6.577950317253780654e-02
-1.318616253397168585e-02
-1.069689633914973487e-01
-1.828424504615513979e-01
-2.132343986966992178e-01
-1.896494475101420940e-01
-1.257343054034846530e-01
-4.864398707979857017e-02
1.511540421810043423e-02
5.115750349503977307e-02
6.109474773630010208e-02
5.883972351798517908e-02
6.227107129692746601e-02
8.378455912185332755e-02
1.232110667666669185e-01
1.664271375681957155e-01
1.912257607036614016e-01
1.780762846686930467e-01
1.198771599549234429e-01
2.523918993663377269e-02
-8.568066488782317969e-02
-1.892300615704782807e-01
-2.656565497706895873e-01
-3.034437163842851337e-01
-3.004017861816960511e-01
-2.620290046892814195e-01
-1.978712891483837832e-01
-1.175176744364820475e-01
-2.859984414253947949e-02
6.205207709100669933e-02
1.457860489360155165e-01
2.113737273768063751e-01
2.478521330801340405e-01
2.492779346156837883e-01
2.179301919101852281e-01
1.638228133254813201e-01
1.010665826900035286e-01
4.317674390898687542e-02
-7.142334558647833037e-04
-2.752328734094022789e-02
-3.923356908906207308e-02
-3.983412609674578247e-02
-3.227646736206013500e-02
-1.793402683979761908e-02
9.674490206543606002e-04
1.853493302753626837e-02
2.551171924062931723e-02
1.361135744091479007e-02
-1.897381825012169065e-02
-6.505557759635623161e-02
-1.108923860135501288e-01
-1.421307114971836760e-01
-1.498965567960868772e-01
-1.340489886340011927e-01
-1.022175478293846640e-01
-6.518852294286966997e-02
-3.109802261478616936e-02
-1.928439143184397173e-03
2.530569948606019304e-02
5.361620658454217814e-02
8.140527521735549388e-02
1.020650518430329251e-01
1.081100268763456745e-01
9.638025646668617330e-02
7.043607734129771203e-02
3.901768064698850347e-02
1.223176376279235152e-02
-2.272762480036450913e-03
-1.806958449665661479e-03
1.078141606512320223e-02
2.879821408052790632e-02
4.516589236251031259e-02
5.567806126442901432e-02
5.965527668016022689e-02
5.757913095736312548e-02
4.815374596218836845e-02
2.795407366145794686e-02
-5.650953780293259052e-03
-5.079201416599425645e-02
-9.979114754331398773e-02
-1.412741181066492213e-01
-1.642095486083997302e-01
-1.616662293357121749e-01
-1.328899290554107770e-01
-8.319794999833933502e-02
-2.179259010634576610e-02
4.151059634198227266e-02
9.871977818821671413e-02
1.437561596099385941e-01
1.707717909853145033e-01
1.731591221844261119e-01
1.452430453509108987e-01
8.608897120377498324e-02
2.738682506966337929e-03
-8.954482620926138003e-02
-1.703856510141821545e-01
-2.194268885988604201e-01
-2.219373334255508035e-01
-1.737174155161221867e-01
-8.391747432154948727e-02
2.601988036982692820e-02
1.282079813846106753e-01
1.974081996925964033e-01
2.195231925895148595e-01
1.955812527273409485e-01
1.396077131017657569e-01
7.167781649738616534e-02
9.264388465782468288e-03
-3.942469790839465971e-02
-7.672870146412415215e-02
-1.098713032889093583e-01
-1.407251198240244416e-01
-1.576172227450740870e-01
-1.365557483492537971e-01
-5.439489672038107237e-02
9.181759053795394976e-02
2.712411138886782758e-01
4.224575172701525161e-01
4.759582987892551631e-01
3.865738840335121163e-01
1.588538177176747890e-01
-1.496914055845519620e-01
-4.510801245123986503e-01
-6.636680939015481284e-01
-7.429726120125751399e-01
-6.904173693139540324e-01
-5.389823255959480530e-01
-3.294481373437945781e-01
-9.410325858573047320e-02
1.447289589067816407e-01
3.668029015510560487e-01
5.476777064841498177e-01
6.607485486777603390e-01
6.860903467783189269e-01
6.196695344600614552e-01
4.770743515621430619e-01
2.897023124118565107e-01
9.517680563905504820e-02
-7.382089273332496926e-02
-1.975215046396377183e-01
-2.706999742761559413e-01
-2.984222125763189015e-01
-2.897921068105080433e-01
-2.541209118246884335e-01
-2.010530069303780587e-01
-1.424990858866954646e-01
-9.295692842238327536e-02
-6.651043836053975589e-02
-7.144065018716062865e-02
-1.050364441521565856e-01
-1.515566961643656507e-01
-1.856110252282007489e-01
-1.812208934067161270e-01
-1.235303897943708373e-01
-1.727605240576389478e-02
1.134735461275583474e-01
2.351011426458355646e-01
3.184390888092409888e-01
3.490507792412901877e-01
3.289103689745412340e-01
2.705727925301693593e-01
1.889850051021805255e-01
9.588819423744592008e-02
-1.193820177712341321e-03
-9.635488254509198824e-02
-1.817502772014074341e-01
-2.460549241218894789e-01
-2.766873451848091414e-01
-2.649327686953313887e-01
-2.107215576278500258e-01
-1.238633627151885380e-01
-2.114840311763301062e-02
7.854609084543799635e-02
1.586019920770251335e-01
2.076028214938434591e-01
2.213501347478046277e-01
2.037995597982811546e-01
1.655056940880566541e-01
1.189019113846423725e-01
7.258839985441285780e-02
2.862956196304163731e-02
-1.499588642186927383e-02
-5.894535858043856158e-02
-9.891259604477452283e-02
-1.272508937621278924e-01
-1.389197407452372468e-01
-1.373273531415684923e-01
-1.352109674323249411e-01
-1.483871522744119043e-01
-1.846220647227621303e-01
-2.338357317621574116e-01
-2.667693567710455738e-01
-2.455474866395902789e-01
-1.425944809773128652e-01
4.157615739400223609e-02
2.716614658103878033e-01
4.862497294950350324e-01
6.183345143691243440e-01
6.191972849379380195e-01
4.769517430975880878e-01
2.234840603683722893e-01
-7.344321083024916985e-02
-3.320983635750088814e-01
-4.858443820390614953e-01
-5.069413763547778728e-01
-4.130581161008113900e-01
-2.533144455381837745e-01
-8.274645925772218524e-02
5.987857225133509653e-02
1.602428904677485055e-01
2.221603067918858088e-01
2.544469983405474034e-01
2.605844721554244070e-01
2.371663921465553548e-01
1.808086160281123511e-01
9.726984298538009222e-02
4.422224264936361685e-03
-7.520776449678591435e-02
-1.282344253338234263e-01
-1.601379311703670372e-01
-1.919984322271199584e-01
-2.441563024066034926e-01
-3.164168551772896798e-01
-3.780661550621913780e-01
-3.763486294424926437e-01
-2.620493491370637362e-01
-2.064698395204937753e-02
3.076108163723014211e-01
6.318790254281965169e-01
8.407570083006226103e-01
8.460486763136463306e-01
6.203007064122487701e-01
2.111449649428140674e-01
-2.729892667450785626e-01
-6.984212507132426806e-01
-9.484844560080524234e-01
-9.582489676389496225e-01
-7.321064083531374500e-01
-3.401987353628654343e-01
1.048075137174015042e-01
4.834773923480400470e-01
7.062321382915224266e-01
7.381879315351019821e-01
6.036989915332734435e-01
3.701931234975036067e-01
1.191523863324072813e-01
-8.342476921289822267e-02
-2.056916412798730776e-01
-2.518551034966534097e-01
-2.491222090318894467e-01
-2.281975558020586103e-01
-2.080074654956831637e-01
-1.913605270479581399e-01
-1.706789389702016713e-01
-1.372787909486897495e-01
-8.773598607618314504e-02
-2.521170664086085089e-02
4.246970825789239679e-02
1.055481141771871384e-01
1.548427773847414757e-01
1.839126531421897692e-01
1.904216277742923624e-01
1.761951643514139687e-01
1.463043345805634943e-01
1.080762297115304832e-01
7.013932680155672561e-02
4.057504062409576784e-02
2.387042221091528749e-02
1.837569919830038534e-02
1.674957122033780138e-02
9.786758427473086011e-03
-9.070209121156328977e-03
-4.180910653687128220e-02
-8.696160380580732208e-02
-1.410889055164730455e-01
-1.981636082862569814e-01
-2.476406525174381368e-01
-2.746430894890016239e-01
-2.647232665259268702e-01
-2.118735010462650947e-01
-1.251318247330476530e-01
-2.882883122816624899e-02
4.557137092267109224e-02
7.360047833633495684e-02
5.157151466836315534e-02
2.471988359032758001e-03
-3.087311037920413559e-02
-4.134176840771370751e-03
1.063730184927178662e-01
2.883777330673233386e-01
4.933355713212472793e-01
6.524594240458597705e-01
7.028888013246095134e-01
6.129842524624294908e-01
3.956601645453937111e-01
1.035616573487811581e-01
-1.917692604004479773e-01
-4.266298067953491757e-01
-5.650407558018927245e-01
-6.038412842931174529e-01
-5.639766838823391248e-01
-4.756751796133161236e-01
-3.659369456708680413e-01
-2.527801989685294348e-01
-1.459850058181908772e-01
-5.135849881373048820e-02
2.515216174639835212e-02
7.664646896958156319e-02
9.892746715510998545e-02
9.624848960766745065e-02
8.383352118468552494e-02
8.293445338574663428e-02
1.097099986372964825e-01
1.648849062567424861e-01
2.316766506757099442e-01
2.838989102726561797e-01
2.990464204595728037e-01
2.683465610244780142e-01
1.988528781226581721e-01
1.082112287510735710e-01
1.631166376537764029e-02
-6.183224595123944234e-02
-1.194958068283043934e-01
-1.574991090736765631e-01
-1.804469016885657251e-01
-1.922006953425059450e-01
-1.930464646910248494e-01
-1.798856576279692643e-01
-1.488179171494264652e-01
-9.821343202788923588e-02
-3.070290136646962320e-02
4.639439543518028564e-02
1.221492410347751328e-01
1.844776919974481788e-01
2.232627381242106301e-01
2.325640750352784003e-01
2.106042468246343835e-01
1.580504781316326157e-01
7.681938454078415801e-02
-2.884636479148906807e-02
-1.497396459609798003e-01
-2.700283907015052498e-01
-3.683864788620951347e-01
-4.216807567340034590e-01
-4.101310197126206147e-01
-3.233691362280455839e-01
-1.665477903105584412e-01
3.618517412583134585e-02
2.445535699756867520e-01
4.126205822277681512e-01
5.031720662092146190e-01
4.992144993633404471e-01
4.075126204531578367e-01
2.539528675669111002e-01
7.427017914736065707e-02
-9.577066394480086842e-02
-2.280055333906743364e-01
-3.059506977961483076e-01
-3.250620122033714976e-01
-2.902249200434315890e-01
-2.126222474509794624e-01
-1.077675363342295717e-01
5.419378750171165507e-03
1.062966952459290376e-01
1.763401464528047413e-01
2.043258759255236756e-01
1.901968591239008577e-01
1.451170208333219247e-01
8.710985654664755995e-02
3.391529429326294032e-02
-3.841967146812437159e-03
-2.592338123593837529e-02
-4.033320319520847935e-02
-5.670916028753723859e-02
-7.916519091644792783e-02
-1.033540700941624618e-01
-1.197926506320576290e-01
-1.207642440228255121e-01
-1.053701704071806078e-01
-7.916938012081919940e-02
-4.960158475008151491e-02
-2.154682401792429314e-02
3.734453821740141635e-03
2.671419635690853306e-02
4.751319549301989686e-02
6.547142501362755718e-02
7.991703352480734879e-02
9.070969274447553132e-02
9.790434020567817530e-02
1.008300578817932225e-01
9.716713331108174645e-02
8.277898860487983845e-02
5.325510526609982670e-02
7.377708622250402429e-03
-4.925768982803672980e-02
-1.036447717625946924e-01
-1.395649113500686822e-01
-1.446677850486703110e-01
-1.160011282722960696e-01
-6.075773247291718637e-02
7.432550077330889529e-03
7.384327082357038108e-02
1.268740962331266209e-01
1.598457856826648038e-01
1.703863913525246188e-01
1.584006999074716315e-01
1.243455017872109186e-01
6.941146522956610776e-02
-2.375578775390655914e-03
-8.220512935391756371e-02
-1.571088015052688192e-01
-2.133991844948160410e-01
-2.405799504402435784e-01
-2.332948769273879008e-01
-1.913110043615920408e-01
-1.194707200940899605e-01
-2.859518261761666291e-02
6.433260764374491847e-02
1.392962493306791061e-01
1.798448643605537745e-01
1.797783696101181994e-01
1.455760838534659041e-01
9.292838121676516572e-02
3.960550949366709039e-02
-1.220555825026765559e-03
-2.409995925995568611e-02
-3.027594176950509919e-02
-2.410544934570624936e-02
-9.558328443401429772e-03
1.096181617102089979e-02
3.504348129068048101e-02
5.790601882262368105e-02
7.220080875523565700e-02
7.108658903464264156e-02
5.241262404150440202e-02
2.042341607055513791e-02
-1.658147457599197516e-02
-5.076466307134532008e-02
-7.807574924080275258e-02
-9.851295794193065669e-02
-1.139733532917674846e-01
-1.254934257807447662e-01
-1.312663020803597203e-01
-1.262742265027114452e-01
-1.041906432235555763e-01
-6.135811980363271856e-02
-8.153520736655910789e-04
6.670759704341604202e-02
1.263516081614887709e-01
1.654377376995612992e-01
1.785497081910638606e-01
1.683588552795181326e-01
1.422595857165469824e-01
1.075072256227527917e-01
6.795215733622757270e-02
2.400725883484673695e-02
-2.446780433699313750e-02
-7.431925516879152316e-02
-1.171593151050367571e-01
-1.415726139210668477e-01
-1.390094145330435238e-01
-1.096326821531075218e-01
-6.362558073653230839e-02
-1.659554600812196412e-02
1.782852019616670836e-02
3.339760152853293168e-02
3.207407244961806014e-02
2.126329901570604697e-02
9.975778574094202114e-03
5.519858463617471553e-03
1.106055592411241996e-02
2.447222313538714028e-02
3.943283184552003051e-02
4.883761810560945105e-02
4.868066068775366018e-02
3.982391471380992282e-02
2.665515787720538349e-02
1.400239784237180228e-02
4.569321764171189321e-03
-1.839627976399239168e-03
-7.477403139124238693e-03
-1.501866503458982281e-02
-2.595893374553735061e-02
-3.978231058191050024e-02
-5.428983690004046680e-02
-6.663220043308833163e-02
-7.392166128044834472e-02
-7.290076364446992918e-02
-5.971458721133298536e-02
-3.138518509873595985e-02
1.113244076537409262e-02
6.082518636458623951e-02
1.060413536544348861e-01
1.352330400258749121e-01
1.418192689360869008e-01
1.259579244200870196e-01
9.284464073697491771e-02
4.975395050284142640e-02
4.008714795172419257e-03
-3.781803640238939890e-02
-7.038562845905853294e-02
-9.020936070866843182e-02
-9.604781347461646690e-02
-8.878929480049867207e-02
-7.114409557724241107e-02
-4.734522640288204437e-02
-2.248597928967527998e-02
-1.282540126396903776e-03
1.297070025849295961e-02
1.824868791731905360e-02
1.285285468905277874e-02
-4.466777522375653051e-03
-3.228010896785615813e-02
-6.379481418533934634e-02
-8.691111417693087038e-02
-8.844376006155198200e-02
-6.040593685940321561e-02
-4.432553988808441911e-03
6.806386996113504562e-02
1.394471748538690659e-01
1.911316214946099379e-01
2.091872088379584660e-01
1.893205501951771841e-01
1.392739666843443858e-01
7.622240159839609175e-02
1.915081928073177064e-02
-1.992106889661687807e-02
-4.061513946864928754e-02
-5.223695584528660618e-02
-6.689447173584160689e-02
-9.178685634328885568e-02
-1.244641167555510380e-01
-1.531974743154938534e-01
-1.625474038422476120e-01
-1.417931889611167284e-01
-9.177075372816080601e-02
-2.581296199415662740e-02
3.608534129553371550e-02
7.623512410902123781e-02
8.595292591717927644e-02
6.700217205316209845e-02
2.879686546576777639e-02
-1.562123704080869806e-02
-5.282767514045310503e-02
-7.142438576418487506e-02
-6.418379565553571087e-02
-2.980239133468256391e-02
2.636638746726975568e-02
9.291381864478830133e-02
1.542889608735221463e-01
1.941307405772394468e-01
1.999499348710415403e-01
1.679150281304741532e-01
1.051959309073671328e-01
2.769716512028794209e-02
-4.636897311607933447e-02
-1.036099902550958324e-01
-1.391657857312949831e-01
-1.552997857656825687e-01
-1.565234476259802776e-01
-1.446740215472858138e-01
-1.169507477843862442e-01
-6.828614925409573488e-02
2.708679929291734137e-03
8.737552210283892895e-02
1.648950577773723447e-01
2.078239214259854084e-01
1.940823973156437787e-01
1.190816793569737381e-01
5.005236565890792272e-04
-1.274088288307988481e-01
-2.266215090369184670e-01
-2.684866119762241432e-01
-2.419487027427050518e-01
-1.553187216747772548e-01
-3.263304424843453677e-02
9.375531394583160039e-02
1.925323641326366630e-01
2.421755095116796264e-01
2.361906680859827412e-01
1.830671000536738813e-01
1.013766745756184140e-01
1.230953523040533189e-02
-6.723272068878678731e-02
-1.280971665048032948e-01
-1.674932719564301842e-01
-1.841539964249410410e-01
-1.741941091301405786e-01
-1.319383357950175417e-01
-5.617975652740142545e-02
4.293457666312143484e-02
1.429798996999046279e-01
2.167737566855373887e-01
2.441248207397193892e-01
2.203598529883221968e-01
1.569283025726595782e-01
7.492964646571260989e-02
-4.023427812758008024e-03
-6.517493341739771795e-02
-1.036655053040673458e-01
-1.227272394283023399e-01
-1.285191625806759996e-01
-1.248746973441757363e-01
-1.114850582414547292e-01
-8.666492146936881358e-02
-5.212732372719595247e-02
-1.537397534619136356e-02
1.271091216535393149e-02
2.346301654958680288e-02
1.524923687966296161e-02
-5.564220409922234975e-03
-2.775518119805568673e-02
-4.052465028954098381e-02
-3.819974568486055044e-02
-2.206353825864496021e-02
1.689283272658140614e-03
2.669881354492043002e-02
5.058942482422450204e-02
7.514735549132491033e-02
1.021184129921218764e-01
1.281858234921282591e-01
1.438979904533276011e-01
1.382481700591503826e-01
1.059045907928620606e-01
5.188596558094350775e-02
-9.679216719777823316e-03
-6.210501413195959608e-02
-9.421239625006640195e-02
-1.052346171743766962e-01
-1.034942474969805654e-01
-9.932328513565927275e-02
-9.667531019152926508e-02
-8.954784491364253807e-02
-6.649813557807617015e-02
-2.044597917134582249e-02
4.353891804769528806e-02
1.084403768665661710e-01
1.532946656204327851e-01
1.632770582856798158e-01
1.356523041765804183e-01
7.908816298589260718e-02
8.004524965985889209e-03
-6.427098283031902615e-02
-1.298353188728027241e-01
-1.858742018426164933e-01
-2.301603344160451370e-01
-2.558652487429829425e-01
-2.504735978750691205e-01
-2.012617091527842961e-01
-1.045899763501450808e-01
2.769037996914137933e-02
1.700779285795792350e-01
2.928551089057462309e-01
3.730001287515682939e-01
4.002119337959635925e-01
3.761060013846870831e-01
3.092422746707559345e-01
2.100834848038062586e-01
8.859053752986907615e-02
-4.502691449330452345e-02
-1.777374569582857167e-01
-2.918980599295112888e-01
-3.669393576961320069e-01
-3.853097832802979128e-01
-3.401903422499322760e-01
-2.403816633028864613e-01
-1.089658899731741210e-01
2.389608551579501527e-02
1.304123884336972905e-01
1.927266629347672566e-01
2.062615688998721830e-01
1.785685238224378746e-01
1.246581577643126187e-01
6.065866664872048702e-02
-1.477604872280350798e-03
-5.559235835076546672e-02
-9.869969315512640284e-02
-1.266172008553743400e-01
-1.318632480340586610e-01
-1.062633650681880926e-01
-4.708720372066434179e-02
3.743177685712724412e-02
1.275274149622706021e-01
1.978442353541096099e-01
2.274130813125931627e-01
2.084493302918078439e-01
1.492387455853112221e-01
6.973927383193265217e-02
-7.521205174850885064e-03
-6.647620453956944175e-02
-1.022343396758405853e-01
-1.199452783028342601e-01
-1.294375851649702813e-01
-1.388216107774810915e-01
-1.497414835331700722e-01
-1.557583222571967130e-01
-1.446746985093489424e-01
-1.047829421536353584e-01
-3.286526799155850553e-02
6.060237006332759579e-02
1.531834046211991152e-01
2.190937489972126229e-01
2.398094810761899065e-01
2.106172584019045668e-01
1.403540770737417842e-01
4.608803398428175380e-02
-5.336860364947197677e-02
-1.420199259154567017e-01
-2.081396816083730672e-01
-2.430885186929550856e-01
-2.393692724943032590e-01
-1.906718029103452450e-01
-9.564192185998418583e-02
3.622565618949472044e-02
1.814011445265453493e-01
3.062628236417495597e-01
3.779141873337422131e-01
3.763751199083351096e-01
3.014454813388808274e-01
1.712256808038333522e-01
1.435444747801068073e-02
-1.394154117594754994e-01
-2.663695043609359825e-01
-3.518626740329576230e-01
-3.893767900362487544e-01
-3.775081455804960573e-01
-3.178388385596365717e-01
-2.157096156852157942e-01
-8.295982231786352967e-02
6.076003006802639661e-02
1.907868139909782157e-01
2.836735025240406660e-01
3.235839317649101265e-01
3.061358161340952955e-01
2.392451324286081760e-01
1.415710696196962326e-01
3.848438898154447896e-02
-4.466486987573993483e-02
-9.037831660620929131e-02
-9.427428829885861616e-02
-6.475891595957949942e-02
-1.770365677482726302e-02
2.992229502124038598e-02
6.384845043324101355e-02
7.359621890901001107e-02
5.333847767604152357e-02
3.986916305715378431e-03
-6.494604919443423829e-02
-1.363536364462020756e-01
-1.903276326992809353e-01
-2.109809930746292805e-01
-1.922205409334201975e-01
-1.398660088158803771e-01
-6.897255216684818058e-02
2.801474071294595206e-03
6.265939052578058110e-02
1.066430194569421980e-01
1.376205151104264168e-01
1.592070179039561661e-01
1.708506992151078985e-01
1.680570030955237104e-01
1.468793249377711996e-01
1.081294500344317649e-01
5.768638417721068390e-02
3.368382087119899462e-03
-4.830827995170816624e-02
-9.298874641343761460e-02
-1.272794932816656288e-01
-1.474111732032987176e-01
-1.491514617825666356e-01
-1.292001982282080796e-01
-8.764657824806744435e-02
-3.043612891570987578e-02
3.009317200834128736e-02
7.839163349128533409e-02
1.020514738284289541e-01
9.779137638796260579e-02
7.301202002015957926e-02
4.179460388239039648e-02
1.797156771151258575e-02
9.253723367459448443e-03
1.488911412588995141e-02
2.703688589315758617e-02
3.474901722836954560e-02
2.901249555255426549e-02
6.884089046204968157e-03
-2.731239405430525846e-02
-6.442701805528380787e-02
-9.489249266088628509e-02
-1.121405916224823829e-01
-1.133627101576130114e-01
-9.852291172488511495e-02
-6.954928938076689049e-02
-3.027395122984987558e-02
1.386066299045099655e-02
5.694809546734284911e-02
9.375318131860344018e-02
1.197809401243683097e-01
1.308210341810293331e-01
1.236601944446983070e-01
9.844454309290194549e-02
6.080132004368521415e-02
2.123811040457382338e-02
-8.574433240990725000e-03
-2.054415324183576225e-02
-1.344819832749990889e-02
6.258771316641308438e-03
2.605584666404523603e-02
3.135864695661041285e-02
1.152636404326573723e-02
-3.430685209386137580e-02
-9.524395712029616601e-02
-1.527240168031643031e-01
-1.888516308274693356e-01
-1.938303001839580264e-01
-1.680923942927000370e-01
-1.188265440031926884e-01
-5.440443440504733053e-02
1.922357951198110093e-02
9.831660504267918099e-02
1.780441230036695355e-01
2.483926964358043887e-01
2.923837540715998329e-01
2.895468829646452580e-01
2.251175559579623731e-01
1.008634352714841698e-01
-5.960649067363742171e-02
-2.159607046384288964e-01
-3.250382838528434459e-01
-3.563703702054275557e-01
-3.020126633311814301e-01
-1.775824607808732802e-01
-1.582584661733833775e-02
1.439569420338322470e-01
2.671888378776920980e-01
3.328368366010453494e-01
3.370779276385825196e-01
2.905946802688938457e-01
2.109937226049082848e-01
1.143312703379283507e-01
9.992805365581754543e-03
-9.905415330507154337e-02
-2.114591685789219688e-01
-3.208250959063450036e-01
-4.108853336336560358e-01
-4.564926663644688354e-01
-4.324477109069085334e-01
-3.272733991303599099e-01
-1.539985931784188522e-01
5.016661151016578446e-02
2.369347137688081750e-01
3.658792639961522819e-01
4.185211295164258383e-01
4.008004537473569551e-01
3.349246029295430138e-01
2.470066610015473063e-01
1.571258110014757403e-01
7.514959866130534183e-02
2.182943714168982322e-03
-6.446804704469914771e-02
-1.257080153453117299e-01
-1.772862680680835912e-01
-2.102932656685802537e-01
-2.150142237641398668e-01
-1.859353341415664607e-01
-1.255276835003049651e-01
-4.531788205308454054e-02
3.637383077118526431e-02
9.983062387881139199e-02
1.308504277189886655e-01
1.259690043799699399e-01
9.288863597541303918e-02
4.566768420692934177e-02
-2.399412675621380095e-03
-4.405185640302998473e-02
-7.897688417893848623e-02
-1.106189721099339329e-01
-1.410195185913231952e-01
-1.664254721181536445e-01
-1.762175599276259164e-01
-1.566504640302515128e-01
-9.845708541848401107e-02
-4.322776124910705439e-03
1.088754868990836761e-01
2.154280221486844227e-01
2.909427759591934337e-01
3.210765834276860242e-01
3.040932904818944293e-01
2.474809490555530123e-01
1.627260970145408825e-01
6.198390140001928950e-02
-4.271450268451791599e-02
-1.392849420983577335e-01
-2.159009848890889871e-01
-2.622023264808595600e-01
-2.712267347556417962e-01
-2.415815348377839678e-01
-1.788318698035830934e-01
-9.489397618282659208e-02
-5.166954301222421650e-03
7.535603804551858909e-02
1.351989440384304131e-01
1.678761103477321159e-01
1.721394128942705659e-01
1.515795514118410403e-01
1.133581986694737337e-01
6.566606899752959470e-02
1.475971376656826269e-02
-3.635749962824551262e-02
-8.638667694700856436e-02
-1.325563464923115442e-01
-1.685386195917122909e-01
-1.852237257193932174e-01
-1.740052974468578040e-01
-1.309176637925960618e-01
-5.980755882452952477e-02
2.702056622068123304e-02
1.116588030236816825e-01
1.764142811134165045e-01
2.099731350445440958e-01
2.104948085297995708e-01
1.841220431880957187e-01
1.406526432440306229e-01
8.961440025701762624e-02
3.845360090205969528e-02
-7.851514026535040200e-03
-4.691503665764694408e-02
-7.856860998349800285e-02
-1.030825391055615187e-01
-1.186549843114074049e-01
-1.207534395478365719e-01
-1.050409005358597658e-01
-7.204594217558255020e-02
-2.930144448737376228e-02
1.143983230181291368e-02
3.977989797875128297e-02
5.058780321486763820e-02
4.402301266270498836e-02
2.334097601317856874e-02
-6.698144861669625902e-03
-4.013213123817732653e-02
-7.011794432744435090e-02
-9.006888394130641018e-02
-9.490137069959111993e-02
-8.166280133873930758e-02
-5.004626709710371241e-02
-3.550038206981449493e-03
4.946054632635228654e-02
9.680016931813648084e-02
1.265332015385572106e-01
1.322221041521087492e-01
1.160038750136778291e-01
8.752350634508883342e-02
5.956685400493191840e-02
4.286450267258396646e-02
4.209943273202047809e-02
5.395349959731693401e-02
6.755622645614157984e-02
6.780176121302290693e-02
4.142257481714611833e-02
-1.591966921162475679e-02
-9.476574793059645840e-02
-1.724208519651794502e-01
-2.202285123051161697e-01
-2.156411960452484788e-01
-1.539421325709080524e-01
-5.310223697216601146e-02
5.233450460710996344e-02
1.263425893802732347e-01
1.473235590814489793e-01
1.156184720087046758e-01
4.918043018769381602e-02
-2.788010991075610956e-02
-9.545367161952356128e-02
-1.411499873347813738e-01
-1.587363956414184762e-01
-1.457804519039452018e-01
-1.033158194015352110e-01
-3.686321607470802175e-02
4.324016177837573804e-02
1.231324523332468640e-01
1.880403252572467043e-01
2.258363006488929570e-01
2.310313679607527149e-01
2.074839081789819906e-01
1.672710790796840541e-01
1.248462225288998612e-01
8.919818472158468070e-02
5.894739880661158116e-02
2.384091694918774595e-02
-2.792343163565756681e-02
-1.006126262603473515e-01
-1.851446178914920304e-01
-2.600798343595091544e-01
-2.998875383095246927e-01
-2.871593665034590237e-01
-2.224235839627441980e-01
-1.253824448292787941e-01
-2.599114501565670532e-02
4.960506789677250616e-02
8.980887565676749784e-02
9.927830668556841820e-02
9.237625787529717136e-02
8.379973004800601866e-02
8.177523966458562221e-02
8.617542522098198265e-02
9.107668228364908247e-02
8.977674420085406115e-02
7.951924473485920408e-02
6.313632146778215548e-02
4.644834183046227249e-02
3.331557782236850562e-02
2.236356284850088416e-02
8.245198567713720242e-03
-1.356944528854608749e-02
-4.251008441903469937e-02
-7.239423423127097634e-02
-9.445535114246624009e-02
-1.012564461158006052e-01
-8.936849917019172584e-02
-6.040224593963923472e-02
-2.057827528163243963e-02
2.127403239032567284e-02
5.698791673755022880e-02
8.205278469051398293e-02
9.637313528291692466e-02
1.023517179275889727e-01
1.020047566271189976e-01
9.531620536863200099e-02
8.047140054355032823e-02
5.495888792993540439e-02
1.662173287297218777e-02
-3.510291857161967899e-02
-9.743159557563614570e-02
-1.629540830457060219e-01
-2.203479456996027541e-01
-2.570832631424267989e-01
-2.623820584037429016e-01
-2.291623991216107104e-01
-1.556338445818722660e-01
-4.765942821242209748e-02
7.905810230577754727e-02
1.999547630933632136e-01
2.877596417003185914e-01
3.220686255160210565e-01
2.974522712404417124e-01
2.256405426074603315e-01
1.307645041284184739e-01
4.013627892192822566e-02
-2.541930066716617531e-02
-5.792498362575544679e-02
-6.284071616367802038e-02
-5.374562793762496099e-02
-4.401302671691441348e-02
-4.029848634459995416e-02
-4.144881484410140038e-02
-4.249506864320059391e-02
-3.988372945881882292e-02
-3.403230015740718595e-02
-2.834524753261949415e-02
-2.671517615266819079e-02
-3.170430739904010059e-02
-4.382694215439374152e-02
-6.125023573080554118e-02
-7.981769052115308960e-02
-9.404913965026671929e-02
-9.912605526197207362e-02
-9.258472919932565770e-02
-7.444380467096398113e-02
-4.601069478699210125e-02
-8.785207231538997782e-03
3.559499446715308490e-02
8.462530093946681042e-02
1.341038920662707412e-01
1.775939888011295043e-01
2.066133602615473630e-01
2.123200868230868676e-01
1.889297671243051480e-01
1.374253944434463970e-01
6.686464446027561015e-02
-8.456612484915733072e-03
-7.477272706560585125e-02
-1.238742647139921688e-01
-1.541867738825667689e-01
-1.678054486217675501e-01
-1.662886334515001063e-01
-1.483976533695100797e-01
-1.112084340282305378e-01
-5.388024479406566813e-02
1.818494128419304023e-02
9.176127065860444076e-02
1.488975420382134540e-01
1.739502263884784850e-01
1.606081621343072308e-01
1.143472526904252828e-01
4.877635622050262298e-02
-2.141184209187656229e-02
-8.623243993128429374e-02
-1.418161944470982816e-01
-1.874928445250461650e-01
-2.210503975575393021e-01
-2.353642619241211598e-01
-2.188145002955282359e-01
-1.601430082075536443e-01
-5.598046873639490884e-02
8.295149088440829932e-02
2.313009762006547898e-01
3.558178586188083248e-01
4.264236959155331963e-01
4.258750191806237040e-01
3.537643331259219814e-01
2.248613190517646521e-01
6.454745198406451612e-02
-9.670644554965611428e-02
-2.297739751793935470e-01
-3.138760901004261084e-01
-3.417172721146798375e-01
-3.197619484083798480e-01
-2.632365273675571493e-01
-1.889154465731529009e-01
-1.098241202707540692e-01
-3.395792604200897902e-02
3.390005359993085443e-02
8.978981618162822087e-02
1.296913863843967840e-01
1.506063035232884373e-01
1.524961782001167110e-01
1.392753141067914757e-01
1.175568312456566483e-01
9.341649196558153567e-02
6.923647603953876628e-02
4.322787996734236970e-02
1.250876653559506065e-02
-2.236522802392842957e-02
-5.513264800223269257e-02
-7.604772023940604975e-02
-7.734517107277140424e-02
-5.821873676015884569e-02
-2.604016133646527148e-02
6.807473230111446907e-03
2.854850146953622630e-02
3.314885660614652618e-02
2.248908667558209562e-02
4.440571105561065893e-03
-1.231336871619915889e-02
-2.373769993778759857e-02
-3.239894145029004885e-02
-4.410563435295340035e-02
-6.145845531391867789e-02
-7.933475434994026465e-02
-8.616332204693637198e-02
-7.052726407229527317e-02
-2.878767678287319498e-02
3.112149129120213298e-02
9.201596212826852750e-02
1.347053964361330236e-01
1.464507973289825571e-01
1.262505852068020740e-01
8.411120803535726553e-02
3.488115514183151578e-02
-9.336769152902988853e-03
-4.334551764539357199e-02
-6.742170486262377693e-02
-8.230411877085458405e-02
-8.498766652955092038e-02
-6.867596191302544062e-02
-2.712485555599422615e-02
3.909489210523428571e-02
1.179400042828999129e-01
1.860337284932036539e-01
2.152200570827267623e-01
1.840277597994464942e-01
8.886231657791943128e-02
-5.155592813680605346e-02
-2.017977922693677539e-01
-3.227269062831729651e-01
-3.850666937452536520e-01
-3.772491851782041050e-01
-3.054705534917201981e-01
-1.881537126679699301e-01
-4.863665007420263364e-02
9.097249516357765187e-02
2.132985726343258059e-01
3.061841312379194879e-01
3.610781513544339960e-01
3.717079531426616401e-01
3.353523058913584487e-01
2.564795598159708701e-01
1.494725304117984488e-01
3.683752344331246709e-02
-5.772288644078794884e-02
-1.183212431707671847e-01
-1.433129391316060042e-01
-1.454782284891310840e-01
-1.449523194883079180e-01
-1.572660368163500688e-01
-1.821700824601994451e-01
-2.004240191065161103e-01
-1.828992901079500577e-01
-1.088946918526053909e-01
1.693366019996335459e-02
1.605305795803148861e-01
2.711025961738653955e-01
3.035852718156066277e-01
2.385470371028950154e-01
9.019136357598751819e-02
-9.931021755534293061e-02
-2.749388900908912858e-01
-3.871490719734472230e-01
-4.073843857240828092e-01
-3.357090987636696111e-01
-1.976826347236905479e-01
-3.191305532711243009e-02
1.255221365456020421e-01
2.519075455547143405e-01
3.393251908746354739e-01
3.881425908529362867e-01
3.986502224303609676e-01
3.672825128265069239e-01
2.902940176294825370e-01
1.726632481609299552e-01
3.568067233464723709e-02
-8.463313163298834263e-02
-1.519754798369184756e-01
-1.513255601571779352e-01
-1.033519792159312972e-01
-5.849803819626277213e-02
-7.024406441358553577e-02
-1.624383446763162653e-01
-3.112465452472317207e-01
-4.534472065738970881e-01
-5.164782883468516106e-01
-4.535279937703345365e-01
-2.656849690855899726e-01
-1.326661111736777629e-03
2.651877682880768305e-01
4.638838796076746318e-01
5.539607127219760008e-01
5.328591230793292555e-01
4.285088230844802948e-01
2.819533311143460064e-01
1.305449203665036972e-01
-1.314949347436046231e-03
-1.029984410713972037e-01
-1.734423980456544778e-01
-2.158579961503319378e-01
-2.337232851503918407e-01
-2.290526343245091467e-01
-2.031891383841805399e-01
-1.593197128325872514e-01
-1.045930092602303241e-01
-4.956864052090802220e-02
-4.632817134019624403e-03
2.437346367135548308e-02
3.824857770414606672e-02
4.297180938160460872e-02
4.599389638408331316e-02
5.265998808390551233e-02
6.440870486886349222e-02
7.914820302658835682e-02
9.335395768345446099e-02
1.047014836034837193e-01
1.134157572048193341e-01
1.210074988835925236e-01
1.271305333254787173e-01
1.272872266542299513e-01
1.137864815532218798e-01
7.973305965268613626e-02
2.337740101897914369e-02
-4.992970530752559311e-02
-1.289590433548785664e-01
-1.998417092766609782e-01
-2.497439401084672050e-01
-2.700228168355416347e-01
-2.582263122361835861e-01
-2.181555347488675078e-01
-1.577348548521210481e-01
-8.591457602944509164e-02
-1.065951500008149692e-02
6.114748438290383559e-02
1.231976478148766735e-01
1.703841502690877918e-01
2.003743765720358561e-01
2.141184457105420047e-01
2.140825663134756640e-01
2.015673958800236198e-01
1.756606280142180287e-01
1.347578972640500194e-01
7.915709049196548164e-02
1.268175898517247442e-02
-5.729732908906744193e-02
-1.208623005141870460e-01
-1.672137807588684466e-01
-1.872002125850661669e-01
-1.763873910218317353e-01
-1.372273937440232627e-01
-7.883751808070167677e-02
-1.437165957577723856e-02
4.252847938312603882e-02
8.070759007614530800e-02
9.356378652982517974e-02
8.054026545332607090e-02
4.770223851769474221e-02
6.213790604647504226e-03
-3.174908190048289502e-02
-5.796739813794134222e-02
-7.098811881965434722e-02
-7.483286557743569489e-02
-7.441019636305395979e-02
-7.059021410139822150e-02
-5.815047622939178290e-02
-2.833641001735417303e-02
2.472088145359836731e-02
9.716710671260263277e-02
1.728909829373404539e-01
2.282218259278891714e-01
2.421702391751283934e-01
2.062626739484195448e-01
1.279177242590155694e-01
2.588491339789047996e-02
-7.831015485471327919e-02
-1.672467875839989127e-01
-2.299469380064479429e-01
-2.608396176906128128e-01
-2.581460333090652703e-01
-2.231814960966773953e-01
-1.602571912706905188e-01
-7.656681700914043376e-02
1.792030069557014327e-02
1.106431489074698321e-01
1.875830560894277133e-01
2.360502264200342315e-01
2.482863769980789836e-01
2.239168679725974387e-01
1.700094614881752231e-01
9.910223488004482606e-02
2.615115496043213250e-02
-3.517324857887103862e-02
-7.641453260489422528e-02
-9.693126803538833214e-02
-1.030554487322950658e-01
-1.034637934530235476e-01
-1.035127232857258189e-01
-1.025375125795206371e-01
-9.583047569136052268e-02
-7.918906999174094019e-02
-5.221961643803096909e-02
-1.839213217196995764e-02
1.702915398405267788e-02
4.879619436644114239e-02
7.218129429789038598e-02
8.293219629512536828e-02
7.770938702126704845e-02
5.518646594579242060e-02
1.743365379964878503e-02
-2.893658354121113330e-02
-7.273708090025479689e-02
-1.003506464578685503e-01
-1.001417348544456215e-01
-6.735421404206888563e-02
-6.730691273090101331e-03
6.871320022890461954e-02
1.418845925736884339e-01
1.964742833021073110e-01
2.207191407616075074e-01
2.095573987748099720e-01
1.650981776904716647e-01
9.515202796245282590e-02
1.013042968944740004e-02
-7.998287995800491823e-02
-1.664394772331507510e-01
-2.399884478930935094e-01
-2.889795697088606841e-01
-3.004089437350278557e-01
-2.647079556948475632e-01
-1.817852826320116855e-01
-6.436184714983822497e-02
6.403835062689504365e-02
1.761176285029598665e-01
2.498225073478771430e-01
2.752621292215781112e-01
2.564240696698416033e-01
2.070338966142618864e-01
1.427563685245880343e-01
7.398294343444544729e-02
3.363246654767075919e-03
-7.062692689041914773e-02
-1.469251104198975311e-01
-2.170149129776315078e-01
-2.655491799014416121e-01
-2.762352953253836563e-01
-2.396210870189270647e-01
-1.587300435381154284e-01
-4.982390251040411111e-02
6.225644155362140830e-02
1.524082386942820500e-01
2.036769425063950090e-01
2.119887568042926052e-01
1.854215957745950216e-01
1.393277315106400682e-01
9.053617111981331067e-02
5.318060067132397706e-02
3.648240407633722426e-02
4.352044660394481512e-02
7.063940840830756906e-02
1.082300293584260859e-01
1.433807473609423344e-01
1.635807499130328135e-01
1.599307104641623789e-01
1.288965619212539826e-01
7.252050744306018371e-02
-2.772872031886646979e-03
-8.863359107719200047e-02
-1.777396770112255331e-01
-2.655836201428636301e-01
-3.495859209173148852e-01
-4.258239456065990303e-01
-4.858823243033362771e-01
-5.168292827075210427e-01
-5.052074641707234859e-01
-4.429090682145034319e-01
-3.316163889604297199e-01
-1.837562979898670623e-01
-1.977821235206862760e-02
1.374139758905162656e-01
2.692917723923998197e-01
3.671400109208892704e-01
4.332635986035052733e-01
4.771467713367921748e-01
5.089432964545689275e-01
5.343120355692184686e-01
5.532188328791357579e-01
5.622134769415249034e-01
5.575891425600083551e-01
5.372060323244728375e-01
5.005615383063813928e-01
4.478994421766706036e-01
3.791316314016152655e-01
2.930261936391831967e-01
1.871919055795716880e-01
5.930968756252259777e-02
-9.083329298353383374e-02
-2.599553105583600754e-01
-4.416651924123433659e-01
-6.280970530153791032e-01
-8.111320827114857357e-01
-9.822619896138913287e-01
-1.131741087114318312e+00
-1.248229941184867409e+00
-1.319339368067716789e+00
-1.332758703609553175e+00
-1.277945011976791667e+00
-1.148783213086016941e+00
-9.468622522632227367e-01
-6.834364310929167408e-01
-3.777878023542713959e-01
-5.175378096869180655e-02
2.768783581210756961e-01
5.984327188773664874e-01
9.111727003332255048e-01
1.218105628026550313e+00
1.523007279895337573e+00
1.826666754327042952e+00
