BVP Signal
1.242315265719894091e-02
6.217547841013096321e-03
-1.385609696507361654e-03
-1.057791075589314955e-02
-2.155094613767508105e-02
-3.449630664238378941e-02
-4.960558307054963034e-02
-6.707036622270351467e-02
-8.708224689937615892e-02
-1.098287112416286848e-01
-1.352404415785654068e-01
-1.628439019816545485e-01
-1.921300535113844576e-01
-2.225898572282444809e-01
-2.536634343465473118e-01
-2.845822098305252901e-01
-3.145240655368716776e-01
-3.426668832886869409e-01
-3.681941372539192514e-01
-3.903571057802940336e-01
-4.084521757499267602e-01
-4.217765495759036587e-01
-4.296303720785459301e-01
-4.315101049666556499e-01
-4.272284500765385906e-01
-4.166267588338805061e-01
-3.995463826643677052e-01
-3.759327121596691690e-01
-3.461694269712569660e-01
-3.107556032380091038e-01
-2.701903176633717596e-01
-2.249918530562079466e-01
-1.759189133084499979e-01
-1.238938647503251556e-01
-6.984221272245538792e-02
-1.468942709215204090e-02
4.064155119775780811e-02
9.523195053103505892e-02
1.481633887764648438e-01
1.985174838028320732e-01
2.454377642823890593e-01
2.883354225346030919e-01
3.266939700110802480e-01
3.599969193277099411e-01
3.877522524266636683e-01
4.097843078744604073e-01
4.261377708892338245e-01
4.368618031742134145e-01
4.420076085482008699e-01
4.417822725826026087e-01
4.366559216404313215e-01
4.271240128156548188e-01
4.136820032022425764e-01
3.968462130815380018e-01
3.772255330026947906e-01
3.554545191093492207e-01
3.321677285003323821e-01
3.079921071053139947e-01
2.834529326804313687e-01
2.590030314378803933e-01
2.350936728145573973e-01
2.121745850270697620e-01
1.905692496844304529e-01
1.703830896735809564e-01
1.516998867923020633e-01
1.346034228383763409e-01
1.191270720096190283e-01
1.050746642606200376e-01
9.218472518074616318e-02
8.019577572873715088e-02
6.884058990734465144e-02
5.777259780609422801e-02
4.658738121418404265e-02
3.487920908527075703e-02
2.224287553897918990e-02
8.319446204179792304e-03
-7.168200238670152658e-03
-2.448881954370185632e-02
-4.391116746504541979e-02
-6.565231361590040393e-02
-8.968776010625711947e-02
-1.159224932045963552e-01
-1.442614907485257891e-01
-1.745940688389578943e-01
-2.065859662759320647e-01
-2.397361581492516436e-01
-2.735396275772759012e-01
-3.074905893126522738e-01
-3.410102555668922397e-01
-3.733876991230445364e-01
-4.038980752130960084e-01
-4.318165390690334449e-01
-4.564370825998612657e-01
-4.771440585183236438e-01
-4.933488824072483903e-01
-5.044629748643625344e-01
-5.099149408248506710e-01
-5.093871371947036319e-01
-5.027555469529070287e-01
-4.899010358836567991e-01
-4.707063048579477327e-01
-4.452425696831943669e-01
-4.139303932522194751e-01
-3.772282298292642944e-01
-3.355945336785707278e-01
-2.895397768078828427e-01
-2.398305603398448449e-01
-1.873121843156096977e-01
-1.328299700290267449e-01
-7.722952338288682772e-02
-2.136079936536455434e-02
3.392285220654817079e-02
8.776799143686336846e-02
1.393221679060813734e-01
1.878431518533976163e-01
2.327978470579595838e-01
2.736765111840142595e-01
3.099694018958081276e-01
3.412311077896132971e-01
3.673413661996505208e-01
3.882824031723801639e-01
4.040364832383480653e-01
4.145990129006735803e-01
4.201733080467187076e-01
4.211286989672815562e-01
4.178391456992385233e-01
4.106789430005839403e-01
4.000629411278580072e-01
3.864847843408628636e-01
3.704471739028734056e-01
3.524528110771646405e-01
3.329861413034983508e-01
3.124368894110364780e-01
2.911641543411139232e-01
2.695270196254929695e-01
2.478754673840124767e-01
2.264103426792149487e-01
2.052106767920532926e-01
1.843519344994095643e-01
1.639090516748539228e-01
1.438870292674809814e-01
1.241517273847519975e-01
1.045525468978230066e-01
8.493888867785115426e-02
6.515806059890827395e-02
4.504622190589480102e-02
2.443583458113574025e-02
3.159358187554750508e-03
-1.894445995022497886e-02
-4.193010395112584110e-02
-6.576285439113505049e-02
-9.040525270404076164e-02
-1.158192385247412415e-01
-1.418795999654737794e-01
-1.682835476703030131e-01
-1.947066791187579415e-01
-2.208245917903673416e-01
-2.462935401544892045e-01
-2.706639950231229386e-01
-2.934504477172275583e-01
-3.141673596820109826e-01
-3.323322407011461421e-01
-3.475162662452013773e-01
-3.593364738124956159e-01
-3.674113764174469221e-01
-3.713601297137700263e-01
-3.709042131584080471e-01
-3.659786456256472476e-01
-3.565451821876441385e-01
-3.425655779165560633e-01
-3.240486269978365419e-01
-3.012672611726636696e-01
-2.745865432378880588e-01
-2.443716310839882666e-01
-2.109945884033025687e-01
-1.749535914668962355e-01
-1.368570526866434156e-01
-9.731709695761735224e-02
-5.694580047241454973e-02
-1.634667759243299545e-02
2.389505910747667661e-02
6.319655386810868469e-02
1.009749509302571152e-01
1.366775744116785762e-01
1.699257698949220297e-01
2.004031243274304597e-01
2.277933031256767493e-01
2.517891014263372584e-01
2.722563543282957021e-01
2.892156051918503001e-01
3.026928463390218260e-01
3.127144117507856258e-01
3.193732535818696316e-01
3.229081995997835075e-01
3.235773949640007308e-01
3.216389848339948898e-01
3.173528977223318837e-01
3.109896224802466969e-01
3.028235206672356128e-01
2.931289597172538897e-01
2.821761185410573969e-01
2.701527360240762454e-01
2.571711633619573334e-01
2.433409772311843078e-01
2.287715066552025167e-01
2.135182556422002276e-01
1.975159813901344874e-01
1.806830010938940689e-01
1.629376319483706037e-01
1.441934512852445227e-01
1.243352090454990927e-01
1.032368168323630764e-01
8.077216672497200545e-02
5.681928245325316984e-02
3.134068505152617923e-02
4.377926173039115021e-03
-2.402440574873207502e-02
-5.382139406453281816e-02
-8.488817572483833840e-02
-1.169161361518167019e-01
-1.495709421330106703e-01
-1.825182604559587862e-01
-2.154024629170694927e-01
-2.477348872189973350e-01
-2.789755967142964477e-01
-3.085845463157538271e-01
-3.360228299729180468e-01
-3.607757610459999542e-01
-3.823518216428348770e-01
-4.002604226458317260e-01
-4.140112921254183176e-01
-4.232012633572158622e-01
-4.276323123980432239e-01
-4.271359272382598271e-01
-4.215435958682253181e-01
-4.107308711888196795e-01
-3.948561028541127116e-01
-3.741893656284787095e-01
-3.490010088932389287e-01
-3.195684441587254287e-01
-2.863253055353437437e-01
-2.498580776181741070e-01
-2.107596326075586168e-01
-1.696228792756547532e-01
-1.270521240453360012e-01
-8.367918061335802293e-02
-4.013992945574804128e-02
2.929748951461197404e-03
4.491643807264650290e-02
8.535484240641796894e-02
1.238396443949895398e-01
1.599656962863366672e-01
1.933349659220488514e-01
2.237132873455144610e-01
2.510304761898206061e-01
2.752234867592425749e-01
2.962294504164115216e-01
3.140485776761176018e-01
3.288370984070139169e-01
3.407749444031717978e-01
3.500420474586612984e-01
3.568200209505507647e-01
3.613018716948981357e-01
3.636853346175967783e-01
3.641681599392684321e-01
3.629447170877959095e-01
3.601282668786075503e-01
3.557490553392468891e-01
3.498335664049422866e-01
3.424081685537493924e-01
3.334518272596644906e-01
3.228233370461081053e-01
3.103627359927557117e-01
2.959100621792845054e-01
2.793047229977410062e-01
2.603817343057561740e-01
2.389742444352795370e-01
2.149153948653482193e-01
1.880429495546585283e-01
1.583102855239464923e-01
1.257918060179805120e-01
9.056762010425659093e-02
5.271803755202734976e-02
1.241919418180210954e-02
-2.990376295603858897e-02
-7.378576017253779540e-02
-1.187617237787327307e-01
-1.643419707083366987e-01
-2.098606887933027187e-01
-2.545753192891735406e-01
-2.977429860663826644e-01
-3.386215987797233651e-01
-3.764895714299959506e-01
-4.106472715882460434e-01
-4.403961428785502230e-01
-4.650378039042256662e-01
-4.839720236071224369e-01
-4.968600335109991661e-01
-5.034061273483133592e-01
-5.033145988515219660e-01
-4.963399545221728326e-01
-4.826061372272929528e-01
-4.624020220978833917e-01
-4.360172484143310379e-01
-4.037494928289329099e-01
-3.661154143408137940e-01
-3.238714772776463136e-01
-2.777863587104656973e-01
-2.286287840996753806e-01
-1.771997373388300989e-01
-1.243883039526361978e-01
-7.109847223215404188e-02
-1.823423046845074058e-02
3.332233411187301986e-02
8.285480875468131945e-02
1.297225547890222819e-01
1.732853247391297202e-01
2.129108815705140767e-01
2.481950546605518060e-01
2.789891238134409868e-01
3.051578781619015412e-01
3.265662402670241882e-01
3.431862493711610451e-01
3.552899030536598168e-01
3.632013059325553961e-01
3.672445626258789009e-01
3.677567602404334668e-01
3.651759778191667749e-01
3.599876108993872448e-01
3.526773258760395047e-01
3.437278672519330502e-01
3.335349728326458818e-01
3.223947022851580413e-01
3.105976444013052173e-01
2.984343011384856248e-01
2.861099397566486680e-01
2.735850772844280465e-01
2.607765720864697601e-01
2.476012825274245266e-01
2.339563279161127607e-01
2.195808954009490499e-01
2.041383807961563157e-01
1.872917010256354153e-01
1.687049195110545963e-01
1.480778381881535655e-01
1.251521377006681313e-01
9.967188291406925416e-02
7.138121167805855372e-02
4.011341811027380189e-02
5.964339324328937764e-03
-3.092210119401928026e-02
-7.040197995901187333e-02
-1.122954078014579693e-01
-1.561264702919002434e-01
-2.012737526757186202e-01
-2.471148296494101448e-01
-2.930239909317002844e-01
-3.382682310891698130e-01
-3.819859404440295592e-01
-4.233079186304888331e-01
-4.613649896377140514e-01
-4.953257833314474445e-01
-5.244731089967786808e-01
-5.481112467569865254e-01
-5.655444767353470237e-01
-5.761169496193867534e-01
-5.795104714827485903e-01
-5.755768132072502929e-01
-5.641690382547688287e-01
-5.451486056091735533e-01
-5.186645875561837205e-01
-4.852186810706922149e-01
-4.453341504314509702e-01
-3.995343088606673199e-01
-3.484414453856590210e-01
-2.929844506621557265e-01
-2.341514046885237177e-01
-1.729303874631374915e-01
-1.103116728358861931e-01
-4.730465509587628015e-02
1.507141552643569832e-02
7.579720701920461545e-02
1.338582333311856554e-01
1.884143113867995101e-01
2.388438572645129876e-01
2.845391348880376703e-01
3.248924569171989796e-01
3.594284741927717963e-01
3.880923539983399673e-01
4.109125993313582081e-01
4.279177131892780706e-01
4.391719421841718818e-01
4.450601974546534167e-01
4.461366413499722183e-01
4.429569634709086268e-01
4.360785103998762180e-01
4.261212725825268555e-01
4.137856069110856794e-01
3.997771408824359884e-01
3.848014870165175072e-01
3.695075622790955361e-01
3.543594704174358734e-01
3.397837197998977432e-01
3.262068187948348186e-01
3.140215496080653312e-01
3.033091802881320298e-01
2.939826316723068711e-01
2.859531776782008317e-01
2.791276904867892039e-01
2.732379299474056999e-01
2.677858403654450603e-01
2.622577695827790767e-01
2.561400633743459165e-01
2.489076263891845109e-01
2.399971010041030972e-01
2.288371404107122364e-01
2.148563978006199360e-01
1.975075363392968519e-01
1.764716011412394980e-01
1.515559959287977598e-01
1.225694607589995488e-01
8.932682453967366598e-02
5.189811639712615943e-02
1.069599536223297953e-02
-3.384282762333024053e-02
-8.128163016094869242e-02
-1.310849568113083841e-01
-1.823785767487811071e-01
-2.342156562756505522e-01
-2.856493616942159530e-01
-3.357296603980763905e-01
-3.834751770866617893e-01
-4.278867838182438543e-01
-4.679651502298860510e-01
-5.027154494200135604e-01
-5.313419646342699698e-01
-5.533224653884090127e-01
-5.681545712239154389e-01
-5.753359119781493725e-01
-5.745146689141860108e-01
-5.658690627013851504e-01
-5.496938991329596291e-01
-5.262839840021172888e-01
-4.959718790810868638e-01
-4.594712946825827427e-01
-4.177169319383121637e-01
-3.716462019438312447e-01
-3.221975702377875006e-01
-2.703587458115750408e-01
-2.171866376622837436e-01
-1.637433459345338793e-01
-1.110909680156570989e-01
-6.021405018716574631e-02
-1.181697711003515394e-02
3.345911099221354768e-02
7.497307389606744366e-02
1.121206943514991838e-01
1.446818986234490456e-01
1.726645934270285565e-01
1.960796850899804156e-01
2.149416708632658768e-01
2.294424334613065497e-01
2.400288965812731323e-01
2.471677507010421326e-01
2.513256863312853806e-01
2.529715607382281295e-01
2.525822636315239178e-01
2.506365456448763629e-01
2.476131574119908585e-01
2.439717653771500960e-01
2.399673548065017759e-01
2.357305803588108928e-01
2.313903453608667227e-01
2.270727033585877574e-01
2.227545825591513706e-01
2.181935308164983933e-01
2.131295355293034710e-01
2.073025840112823204e-01
2.004335929444535092e-01
1.921709293254304507e-01
1.821457107012900423e-01
1.699890546191040741e-01
1.553463370619820871e-01
1.380206251923543626e-01
1.179130201531102262e-01
9.492609842590404856e-02
6.896573602754085819e-02
4.012099745922503846e-02
8.756700090230107314e-03
-2.473955000982686059e-02
-5.998014673741403069e-02
-9.651200380871316487e-02
-1.336263978398849750e-01
-1.705522295691309087e-01
-2.065183997346624611e-01
-2.407532480204768732e-01
-2.724787138049324930e-01
-3.009126644152491648e-01
-3.252729018343668010e-01
-3.447799061931762776e-01
-3.588121737537824929e-01
-3.669916011910288600e-01
-3.689608456682702542e-01
-3.643625643488604404e-01
-3.529501452983033749e-01
-3.349206178632780917e-01
-3.105821014195181418e-01
-2.802427153427676232e-01
-2.442374844062193129e-01
-2.032181202291518940e-01
-1.580425213734907297e-01
-1.095721079809600373e-01
-5.866912388889150565e-02
-6.247551314874560946e-03
4.669707181688090292e-02
9.916203049458743868e-02
1.501446097064395580e-01
1.986958766036917012e-01
2.440880304940635792e-01
2.856500962484839201e-01
3.227110987805870135e-01
3.546278440051093273e-01
3.810946372513317471e-01
4.020306371689894021e-01
4.173590828329170055e-01
4.270059763107188489e-01
4.310824203189694281e-01
4.299981217706052017e-01
4.241898916019971599e-01
4.140945407495179031e-01
4.001755631806721558e-01
3.830090435396139581e-01
3.632007582863342465e-01
3.413564840398789491e-01
3.180724789238840167e-01
2.938256095598386075e-01
2.690113522863863960e-01
2.440236167005902512e-01
2.192543427317797666e-01
1.949544586063484963e-01
1.711420751059101741e-01
1.478135124253090460e-01
1.249650907593977955e-01
1.025491657252288469e-01
8.032770921623764993e-02
5.801117083785552186e-02
3.530999931449681217e-02
1.193656812061866072e-02
-1.237181418951535314e-02
-3.786044657510992395e-02
-6.477427340047887949e-02
-9.335652636685201622e-02
-1.237191346199998099e-01
-1.557521397044427658e-01
-1.893241750389400291e-01
-2.243038740422392263e-01
-2.604894400203338067e-01
-2.973660694266838656e-01
-3.343320358503571454e-01
-3.707856094966998084e-01
-4.061160117075502396e-01
-4.395913428904686393e-01
-4.703932659884846879e-01
-4.977015802207127027e-01
-5.206971546833506492e-01
-5.386488897770673745e-01
-5.509779595369317384e-01
-5.571206786332508765e-01
-5.565133617363288154e-01
-5.486873511341766596e-01
-5.336074257825982325e-01
-5.113618741637977472e-01
-4.820389938363757176e-01
-4.457545433590586192e-01
-4.030042029461329278e-01
-3.545610423579624859e-01
-3.012044478220704535e-01
-2.437150688934878739e-01
-1.829853823149035774e-01
-1.201058770635166084e-01
-5.618732695223099816e-02
7.659494206026601359e-03
7.035248115487918730e-02
1.309437360966290154e-01
1.885246006237882022e-01
2.421864211611128859e-01
2.910428181312630924e-01
3.345260508360494156e-01
3.723063860571222961e-01
4.040598067566224527e-01
4.294644308512540198e-01
4.484021947545226983e-01
4.611245018909428395e-01
4.679217414575024270e-01
4.690843026511853919e-01
4.649473188375918831e-01
4.560609141653393372e-01
4.430397052891824061e-01
4.264983211191745172e-01
4.070487529438173158e-01
3.852639607352494888e-01
3.616870791783234895e-01
3.368604884107090913e-01
3.113255175411465125e-01
2.855149870329931616e-01
2.596603378195406764e-01
2.339711285732624102e-01
2.086569179666399876e-01
1.838833248417374167e-01
1.595992601212018469e-01
1.356869420254335212e-01
1.120285703664377630e-01
8.850304908877326682e-02
6.493880962019327185e-02
4.112482938929429288e-02
1.684903565058015751e-02
-8.100081815715087785e-03
-3.387104760223946798e-02
-6.049270017107422071e-02
-8.798048840904126866e-02
-1.163498612029542079e-01
-1.455712992968867248e-01
-1.753876281750493815e-01
-2.054698007300664875e-01
-2.354887423411026748e-01
-2.651074821780945445e-01
-2.938638563608900744e-01
-3.211955933745089253e-01
-3.465376213489456680e-01
-3.693250665181808667e-01
-3.890171868444644021e-01
-4.051201946202807047e-01
-4.171457090421215597e-01
-4.246053493064725348e-01
-4.270608526826471518e-01
-4.243344216096918142e-01
-4.163326081850651228e-01
-4.029620076850544130e-01
-3.841452879866302794e-01
-3.600690682042131385e-01
-3.311358657006393535e-01
-2.977545380134971609e-01
-2.603346921860034691e-01
-2.193855939262352450e-01
-1.756150825657019077e-01
-1.297545290991355404e-01
-8.253530452129043127e-02
-3.468601492106881956e-02
1.307948549126813909e-02
6.005224247470741794e-02
1.055233050449537746e-01
1.487933129128714005e-01
1.893261250339214330e-01
2.267221605157059838e-01
2.605860441333226474e-01
2.905232320585785510e-01
3.162602836047074817e-01
3.377708829830561310e-01
3.550588456882253219e-01
3.681279872148062182e-01
3.770153200892469858e-01
3.819397054554800608e-01
3.831819530273918861e-01
3.810229246920029400e-01
3.757451120309700521e-01
3.676597625609667741e-01
3.571027329911371506e-01
3.444106740670878075e-01
3.299199933463861090e-01
3.139281414669792269e-01
2.966511480561987435e-01
2.782948304414355478e-01
2.590650059500871905e-01
2.391456526886679423e-01
2.185979124781739502e-01
1.974400145231195447e-01
1.756901431565158767e-01
1.533639058528409871e-01
1.304297432270058177e-01
1.068148087009192365e-01
8.244486130948036617e-02
5.724580948853600498e-02
3.116999311161091843e-02
4.226336938286834322e-03
-2.356893477140685131e-02
-5.219959775743096553e-02
-8.162311305764033409e-02
-1.116449552908442278e-01
-1.420161536960742044e-01
-1.724876680446873756e-01
-2.028047930539307875e-01
-2.326051992176699224e-01
-2.614301986482250872e-01
-2.888177002111965708e-01
-3.143056046639371992e-01
-3.374302212566632209e-01
-3.577243690117922759e-01
-3.747204039576472190e-01
-3.879506821225431334e-01
-3.969779909285962027e-01
-4.015456214414548919e-01
-4.014631627175651030e-01
-3.965403055032817869e-01
-3.865980114409829360e-01
-3.716796080883294495e-01
-3.520320533768627747e-01
-3.279098199233963506e-01
-2.995678495995803270e-01
-2.673637845554704962e-01
-2.318860058109790678e-01
-1.937543645071427290e-01
-1.535887117850098793e-01
-1.120168995906798970e-01
-6.971552145894152619e-02
-2.737952497661999551e-02
1.429610886270736916e-02
5.462228595171488010e-02
9.303059729266072164e-02
1.290656701969030151e-01
1.622764870457958364e-01
1.922124782814425004e-01
2.185330137621399604e-01
2.411505362011054920e-01
2.600129704428225663e-01
2.750682413317656616e-01
2.862970748199642479e-01
2.938854564710022821e-01
2.980986061260242348e-01
2.992019128280545281e-01
2.974625655516986988e-01
2.931861193602940396e-01
2.867148827638392738e-01
2.783926414890492973e-01
2.685630289769714851e-01
2.575275348731620451e-01
2.454882437943073370e-01
2.326329154128898846e-01
2.191493094013962639e-01
2.052011051919314655e-01
1.907971807464222680e-01
1.758851618821100082e-01
1.604125224860338816e-01
1.443240426152936351e-01
1.275047628089307494e-01
1.097811912348627406e-01
9.097738369199204200e-02
7.091749645426959070e-02
4.945725490592844942e-02
2.652869059866813650e-02
2.075135697954699765e-03
-2.396007763073426666e-02
-5.160273581192509340e-02
-8.067465630652170816e-02
-1.109149373936926253e-01
-1.420624411505058138e-01
-1.738496628128889387e-01
-2.058621021390152350e-01
-2.375379526658796259e-01
-2.683089789405672665e-01
-2.976069097275539921e-01
-3.248506154326908923e-01
-3.494271137961383333e-01
-3.707185754057639726e-01
-3.881071708494264749e-01
-4.010044396701078484e-01
-4.090212478121128536e-01
-4.118513054615820512e-01
-4.091885929685437628e-01
-4.007376434463757464e-01
-3.864568156671115418e-01
-3.665646253733696458e-01
-3.412914075744618581e-01
-3.108677794008581907e-01
-2.756412533877348192e-01
-2.362561402507235009e-01
-1.934031535450622119e-01
-1.477730068260022511e-01
-1.000678399521149897e-01
-5.106949150766260104e-02
-1.593744148584819165e-03
4.754349395355028651e-02
9.553105378470039266e-02
1.416766094311397994e-01
1.854124177915029148e-01
2.261766236650089579e-01
2.634076037936223802e-01
2.966555630964546886e-01
3.257617509248969534e-01
3.506141613137954693e-01
3.711007882979867056e-01
3.871427273661620649e-01
3.988983890493734696e-01
4.066297488622937495e-01
4.105992137367500683e-01
4.110711914312893955e-01
4.083624393666280827e-01
4.028458436526630715e-01
3.948970481826851731e-01
3.848916311804232993e-01
3.731679486303855486e-01
3.599650459439979189e-01
3.455055849701414994e-01
3.300122275577016540e-01
3.136852140619295626e-01
2.965595346423701151e-01
2.785962929252445153e-01
2.597562478362637761e-01
2.399975675572431077e-01
2.192076414602799894e-01
1.971962404543085023e-01
1.737691731237003823e-01
1.487322815379628627e-01
1.219139820485113379e-01
9.320444035775421465e-02
6.250428474398356249e-02
2.971414348547485318e-02
-5.238686319667174018e-03
-4.222481487220020036e-02
-8.102228229325880715e-02
-1.214086476344740650e-01
-1.631557578950973975e-01
-2.058723789591674902e-01
-2.489843566247071927e-01
-2.919078404431325602e-01
-3.340589360748774106e-01
-3.748180845295537855e-01
-4.134656987036224862e-01
-4.492647863270127773e-01
-4.814783551296542563e-01
-5.093861217410979858e-01
-5.323980108191278537e-01
-5.499850434980677605e-01
-5.616185928623509405e-01
-5.667777386694415886e-01
-5.651716974209676225e-01
-5.567737112326260895e-01
-5.415715467876942579e-01
-5.195531029384933275e-01
-4.908377265169955317e-01
-4.559228092126350607e-01
-4.153732901521990373e-01
-3.697541084624526020e-01
-3.196566683231673034e-01
-2.658844946273063448e-01
-2.093430611024990617e-01
-1.509384895399600857e-01
-9.157607778031062740e-02
-3.213536519743923070e-02
2.653433549541706071e-02
8.358543634845402859e-02
1.381704205263478147e-01
1.895298969405379008e-01
2.371643925933819563e-01
2.806221186370695397e-01
3.194512862237899320e-01
3.532373701436444802e-01
3.818730987938187549e-01
4.054024452538605994e-01
4.238704391383472658e-01
4.373265660694849455e-01
4.459662856345164572e-01
4.501602697169143075e-01
4.502895550428546723e-01
4.467351832400079381e-01
4.398859252686201371e-01
4.301539328153234365e-01
4.179557614222472184e-01
4.037079666315140924e-01
3.878116583143199070e-01
3.705369060722585317e-01
3.520877199267183344e-01
3.326676047210346820e-01
3.124768083719755563e-01
2.916036663086281067e-01
2.699991107284221425e-01
2.476056513636915035e-01
2.243657883597275082e-01
2.002022927984407064e-01
1.749767230480742397e-01
1.485388009932817055e-01
1.207382485187168120e-01
9.143621238363239256e-02
6.059359199603800428e-02
2.822278213792329959e-02
-5.663392830833932634e-03
-4.104837359949539688e-02
-7.778084489575173843e-02
-1.155402498697528646e-01
-1.539952871453621475e-01
-1.928146365514913363e-01
-2.316149330972200882e-01
-2.698471710189105921e-01
-3.069294650129930080e-01
-3.422799297759159254e-01
-3.753177913550525546e-01
-4.054722641063330246e-01
-4.321778421463539632e-01
-4.548690674794239053e-01
-4.729840553784840917e-01
-4.860964384853293518e-01
-4.939539529118880390e-01
-4.963157774416550039e-01
-4.929411161120904050e-01
-4.836869207032177820e-01
-4.687292855571786321e-01
-4.483093322004380044e-01
-4.226681821594612254e-01
-3.920722584408394273e-01
-3.570221109116569203e-01
-3.181450017317440926e-01
-2.760694388256633158e-01
-2.314249247274298149e-01
-1.848806578603072737e-01
-1.371580071891778108e-01
-8.898188976972676301e-02
-4.107721496090088742e-02
5.874818306490059427e-03
5.133942521035916862e-02
9.481244212159167795e-02
1.357897054110988044e-01
1.737915616215781611e-01
2.085719274464694628e-01
2.400141385018230711e-01
2.680029056612862615e-01
2.924260889928476104e-01
3.133039762825087227e-01
3.308349050163030824e-01
3.452297376587043498e-01
3.566993385254799698e-01
3.654710154334617211e-01
3.718285882740626214e-01
3.760680077400476717e-01
3.784852245241822066e-01
3.793656050627964849e-01
3.788906189247225886e-01
3.771828018629203028e-01
3.743640145376457840e-01
3.705536364845269937e-01
3.657609783804163239e-01
3.598439509321929020e-01
3.526494532077870669e-01
3.440243825150997026e-01
3.337889387253092366e-01
3.216691778418259151e-01
3.073704147422771094e-01
2.905979643042841953e-01
2.710655299566138154e-01
2.485716569731533099e-01
2.229641539478126600e-01
1.940914362852173003e-01
1.618052004237424679e-01
1.261109023355382330e-01
8.723037943847833375e-02
4.540173465403363195e-02
8.630735623467167272e-04
-4.606916678916783692e-02
-9.479511176792687621e-02
-1.446507989001940553e-01
-1.949722657122298086e-01
-2.450842062682815903e-01
-2.941930746437113053e-01
-3.414350500043686343e-01
-3.859453828776215345e-01
-4.268607943112439074e-01
-4.633909054427088337e-01
-4.948503016954685085e-01
-5.205617201858245835e-01
-5.398478994104756179e-01
-5.521286928619704160e-01
-5.571845540031501454e-01
-5.548796141542416960e-01
-5.450780046354697372e-01
-5.276798716318515936e-01
-5.029723653711605236e-01
-4.714780573765445237e-01
-4.337228492706206584e-01
-3.902359818021727267e-01
-3.417220672805159065e-01
-2.891440798103123155e-01
-2.334857157518104298e-01
-1.757306714764361733e-01
-1.168654047057998968e-01
-5.788689506715899435e-02
2.053720632617106467e-04
5.641191130923714492e-02
1.097557075639217505e-01
1.595087353318662138e-01
2.050979859691570151e-01
2.459527932300426267e-01
2.815067119148294550e-01
3.114285283065090226e-01
3.357416309658737830e-01
3.544987715952177543e-01
3.677527019300051991e-01
3.756348753552452013e-01
3.785844972075658177e-01
3.771159864972426501e-01
3.717437622345494130e-01
3.629854341114596705e-01
3.513950809205581560e-01
3.375500176186760903e-01
3.220279335095312945e-01
3.054046259172886746e-01
2.881438299138248116e-01
2.705364164425574369e-01
2.528584832747320377e-01
2.353861281816018725e-01
2.183291360665757797e-01
2.016311800868789694e-01
1.851691896974050344e-01
1.688200943529639675e-01
1.524516186601438950e-01
1.358229293091522960e-01
1.186224117764800301e-01
1.005372379777059177e-01
8.125551260303759404e-02
6.052416341023397761e-02
3.818297552280947027e-02
1.407992162169646733e-02
-1.193702561216159613e-02
-3.995416098801311822e-02
-6.978707381372409313e-02
-1.011816760151001138e-01
-1.338838794559218948e-01
-1.676220515200422811e-01
-2.019109952169806932e-01
-2.361230253125371492e-01
-2.696278611579990825e-01
-3.017948333202271627e-01
-3.319671198358087327e-01
-3.594456483796821811e-01
-3.835275042122300304e-01
-4.035097725938328050e-01
-4.187420445756592224e-01
-4.287958217800862393e-01
-4.333012216225415880e-01
-4.318883618613377218e-01
-4.242139256395044411e-01
-4.102684786198407263e-01
-3.902705237731152188e-01
-3.644429677797728084e-01
-3.330113322609116189e-01
-2.963891378748826355e-01
-2.553007520787133888e-01
-2.104996916126384288e-01
-1.627394732169145652e-01
-1.127990403361719407e-01
-6.156762256532932742e-02
-9.964343755234528199e-03
4.109167170102556721e-02
9.069353653766470957e-02
1.380932174412470292e-01
1.826536420700150543e-01
2.237400083581614352e-01
2.607199674861903071e-01
2.931500708383477094e-01
3.209065563947004485e-01
3.438965644186262050e-01
3.620272351734991623e-01
3.752745453249974328e-01
3.839208923598361745e-01
3.883339049940306986e-01
3.888812154115741659e-01
3.859354799230569899e-01
3.799367421175012249e-01
3.713732049581554562e-01
3.607341133880659356e-01
3.485077570751324849e-01
3.351034698947151780e-01
3.207938111017903937e-01
3.058377148986858862e-01
2.904941154877365150e-01
2.749692823439885969e-01
2.592288818940270412e-01
2.431699093321954275e-01
2.266893546251881886e-01
2.096761873699114487e-01
1.919081848638065635e-01
1.730818245555259538e-01
1.528917263626849987e-01
1.310329905380904769e-01
1.072434337191748854e-01
8.133662119801302048e-02
5.313389255656930654e-02
2.245658737681358041e-02
-1.081702599943966392e-02
-4.654174206700922856e-02
-8.449418319047581616e-02
-1.244509618220253078e-01
-1.661721389402873450e-01
-2.091805011981595630e-01
-2.528213507104000168e-01
-2.964357129470052143e-01
-3.393639949836111391e-01
-3.808872826843507364e-01
-4.201789708080994057e-01
-4.564010697181323239e-01
-4.887155897777027413e-01
-5.163182190256976334e-01
-5.385667269059295492e-01
-5.548675816480268530e-01
-5.646272609692597477e-01
-5.672739202979159012e-01
-5.625571839458972656e-01
-5.504726718279174813e-01
-5.310222472894938761e-01
-5.042098209115342122e-01
-4.702517171475353308e-01
-4.297590572363476635e-01
-3.833859401742247819e-01
-3.317864649574322478e-01
-2.756631785418157676e-01
-2.159579599851633169e-01
-1.536864614528730133e-01
-8.986435591927022237e-02
-2.550357676680037322e-02
3.844133391462345450e-02
1.010607600757438274e-01
1.614462852524713998e-01
2.186908239438398738e-01
2.720370906728430960e-01
3.210128729482799592e-01
3.651779079350516710e-01
4.040919327980355691e-01
4.373822788458062716e-01
4.650190391909047594e-01
4.870806920390299832e-01
5.036457578887537645e-01
5.148020688201121464e-01
5.207854133413452047e-01
5.219500575131272857e-01
5.186535918064407724e-01
5.112535047604631622e-01
5.000948013329689079e-01
4.854981605010433299e-01
4.677814550028231988e-01
4.472625575764488381e-01
4.242338661087314833e-01
3.988551675633686955e-01
3.712432356495294350e-01
3.415148216775232282e-01
3.097831456689721374e-01
2.761033067453066980e-01
2.404827968689999818e-01
2.029277057428723330e-01
1.634444270434465274e-01
1.220799992106836873e-01
7.896256747475349780e-02
3.422990568352457519e-02
-1.198021231511166296e-02
-5.949142719944207347e-02
-1.079211718476619231e-01
-1.568182769186213799e-01
-2.057315267649680868e-01
-2.542017753968934257e-01
-3.016346110141081005e-01
-3.473222893019257129e-01
-3.905535653474199176e-01
-4.306172819523286788e-01
-4.668151332850962176e-01
-4.984750773869764950e-01
-5.249282802684047677e-01
-5.455059079398130173e-01
-5.595900455283285835e-01
-5.668421663078503370e-01
-5.670190701194234295e-01
-5.598776382270547192e-01
-5.451933853127457485e-01
-5.230713617147750849e-01
-4.938990313393240017e-01
-4.580729966875477510e-01
-4.159908213456352533e-01
-3.682049663873518397e-01
-3.155921181838423073e-01
-2.590697010529632305e-01
-1.995551393125994111e-01
-1.379793497516025313e-01
-7.534926422571380789e-02
-1.269841205754396185e-02
4.893964925709690106e-02
1.085406935791937144e-01
1.652516909957773561e-01
2.183696786472020257e-01
2.671967761960345467e-01
3.110360290346084189e-01
3.493553030511507007e-01
3.819758456732046392e-01
4.087645707330552769e-01
4.295883920629853803e-01
4.443660469592522477e-01
4.533160880879258947e-01
4.567646378125578832e-01
4.550379573924955290e-01
4.484660236674465339e-01
4.374495674134447620e-01
4.224527563750188897e-01
4.039420050148299079e-01
3.823835253090578923e-01
3.582035194041702786e-01
3.317403140592621313e-01
3.033205586769695539e-01
2.732709026599426938e-01
2.418970410677502847e-01
2.093801710752145884e-01
1.758556911025829783e-01
1.414589285414401265e-01
1.063245656451039522e-01
7.057452626822630082e-02
3.431903435572197791e-02
-2.332119090070694511e-03
-3.926892551346888860e-02
-7.633342948795596161e-02
-1.132597890640403282e-01
-1.497674223424222406e-01
-1.855757474237957894e-01
-2.203836470481623233e-01
-2.537646912875069494e-01
-2.852451893094485325e-01
-3.143513633696770615e-01
-3.406097706646892265e-01
-3.635538515205656296e-01
-3.827235022401612174e-01
-3.976588685266511103e-01
-4.079004440668421161e-01
-4.130747352512015302e-01
-4.130065449403235722e-01
-4.075485260489719597e-01
-3.965533314919099661e-01
-3.799231441605364634e-01
-3.578706120672201507e-01
-3.307284145626095406e-01
-2.988294898027906155e-01
-2.625155282944681145e-01
-2.223152383752489136e-01
-1.789367377480536314e-01
-1.330953739503597799e-01
-8.550656200792139394e-02
-3.690453876667726396e-02
1.193199589643917369e-02
6.021792370771528180e-02
1.071681263934291528e-01
1.520238696613390728e-01
1.941963169355467866e-01
2.331639608390149165e-01
2.684054625170125274e-01
2.994086627067009676e-01
3.258654816361695739e-01
3.476680769369832058e-01
3.647170173281125694e-01
3.769131529370323141e-01
3.842464772572424803e-01
3.869227838501321237e-01
3.851798797711531996e-01
3.792555720757543880e-01
3.693980606587643489e-01
3.559243056852032794e-01
3.391791957718870432e-01
3.195076999673794882e-01
2.972530477630304091e-01
2.727182042192911049e-01
2.461657280030056794e-01
2.178564098311492336e-01
1.880509656362943927e-01
1.569830043058256797e-01
1.248188819519798487e-01
9.171470320617849947e-02
5.782657269984950443e-02
2.331292984481037056e-02
-1.165191282300376274e-02
-4.688703545996719679e-02
-8.221149650104003781e-02
-1.174414156634536188e-01
-1.523220448042370001e-01
-1.865258978860868666e-01
-2.197221760676280056e-01
-2.515800113457359322e-01
-2.817396142711417473e-01
-3.097676502301847101e-01
-3.352192668084491567e-01
-3.576496115915036023e-01
-3.766229845885303296e-01
-3.917676336131183379e-01
-4.027390837114465105e-01
-4.091929615658760344e-01
-4.107913276527461188e-01
-4.073580065650960202e-01
-3.988866386337785452e-01
-3.853789094990455744e-01
-3.668367224161458440e-01
-3.433679340079427433e-01
-3.153565830958274807e-01
-2.832311406716231383e-01
-2.474200777271593488e-01
-2.083750505851279522e-01
-1.667142252382866896e-01
-1.231285434415615859e-01
-7.830925231412469434e-02
-3.294681756157591401e-02
1.228879486014711198e-02
5.674962956911350220e-02
9.978881524092231281e-02
1.407596071181222430e-01
1.790877560229577892e-01
2.143927352156079214e-01
2.463260303904545312e-01
2.745391272418599149e-01
2.987142158181796958e-01
3.187601747529769658e-01
3.346873929860952890e-01
3.465067363072726891e-01
3.542329105470074513e-01
3.579858176594674091e-01
3.580008839673395893e-01
3.545194471644522172e-01
3.477828557277342636e-01
3.380398099915685184e-01
3.255591518668663475e-01
3.106131416638644449e-01
2.934740396928030015e-01
2.744061308980573211e-01
2.536131585824350498e-01
2.312710926540354206e-01
2.075557577354859573e-01
1.826417788653191265e-01
1.566694371311675993e-01
1.297404373335553918e-01
1.019544346364403276e-01
7.341109889241498321e-02
4.422218153994197931e-02
1.453337219145348080e-02
-1.550372440004393892e-02
-4.573750348152710865e-02
-7.600401298306802556e-02
-1.060429126105635333e-01
-1.355485665994338174e-01
-1.642150766130512918e-01
-1.917350261253611410e-01
-2.177555336256505325e-01
-2.418714839939076211e-01
-2.636748820169030338e-01
-2.827577570417856290e-01
-2.987368892005938248e-01
-3.113003539875890957e-01
-3.201489867270178036e-01
-3.249836227431238123e-01
-3.255306535012405522e-01
-3.217216679425574100e-01
-3.135870241474716380e-01
-3.011577118346268622e-01
-2.844700170427211794e-01
-2.637262801599493112e-01
-2.393239759713467474e-01
-2.116717391110407853e-01
-1.811782389627105139e-01
-1.482958318284096078e-01
-1.136059276924535899e-01
-7.771365157361653786e-02
-4.122412849069098661e-02
-4.735961884681338940e-03
3.120611344614898641e-02
6.608391896575138702e-02
9.937946272221787058e-02
1.305784376773644340e-01
1.592876078412651664e-01
1.852592641961298137e-01
2.082543257827422223e-01
2.280337492579814218e-01
2.444187570378654195e-01
2.574131603946916980e-01
2.670552185281318547e-01
2.733831906378560439e-01
2.764451560408208164e-01
2.763726566177572286e-01
2.733393717061923800e-01
2.675193046706562661e-01
2.590863814295737422e-01
2.482118587004865373e-01
2.350637113840162995e-01
2.198097127694463304e-01
2.026176319568993578e-01
1.836464642485477750e-01
1.630279394956797856e-01
1.408885066774998862e-01
1.173546147732233980e-01
9.255490452928152867e-02
6.663718792954179126e-02
3.975918841088643685e-02
1.207871253348621887e-02
-1.624505610045884341e-02
-4.500309707064087394e-02
-7.392371055603383367e-02
-1.027312087759646442e-01
-1.311498960623367904e-01
-1.588818006308057584e-01
-1.855579404109481412e-01
-2.107952147870182924e-01
-2.342105231432669021e-01
-2.554232708219058567e-01
-2.740754264934224249e-01
-2.898209032943465102e-01
-3.023137232548510633e-01
-3.112105137129077548e-01
-3.162670214224765353e-01
-3.173665158341919534e-01
-3.144006656597477800e-01
-3.072611573965760012e-01
-2.959100790576155715e-01
-2.805397445073747331e-01
-2.613894541007849015e-01
-2.386985081927844310e-01
-2.127234967390329856e-01
-1.838812918328890378e-01
-1.526756399795766161e-01
-1.196111460159126616e-01
-8.519269772982751565e-02
-4.993651230238838057e-02
-1.437371780782170649e-02
2.096354144270207165e-02
5.554312808325378992e-02
8.887338149831158773e-02
1.205984409867510987e-01
1.503908934743771741e-01
1.779233258869914458e-01
2.028855151778696797e-01
2.251313535226471263e-01
2.446058012574017226e-01
2.612547910717422095e-01
2.750257548506025440e-01
2.859293763721724169e-01
2.940615030264741581e-01
2.995239856486753283e-01
3.024186746883947841e-01
3.028438898285514824e-01
3.008857969066349725e-01
2.966279485870828569e-01
2.901538975343350701e-01
2.815420047619302535e-01
2.708195742438335718e-01
2.579849062758031164e-01
2.430359673787797492e-01
2.259708078625901617e-01
2.067912077333047272e-01
1.855040845231765712e-01
1.621167302026991219e-01
1.366364387834062555e-01
1.091026367402250230e-01
7.966824268349093074e-02
4.851121966267157859e-02
1.580953072723945141e-02
-1.824478341068092035e-02
-5.331703302529167132e-02
-8.898957849714816959e-02
-1.248437538893369947e-01
-1.604597728623868846e-01
-1.953651608197011225e-01
-2.290131904728680556e-01
-2.608515414755714357e-01
-2.903278940856497403e-01
-3.169085892181662256e-01
-3.401275992416192828e-01
-3.595342134426150471e-01
-3.746777211077454428e-01
-3.851257863536778903e-01
-3.906379686591442413e-01
-3.910880448576978807e-01
-3.863513076235496335e-01
-3.763062328069354256e-01
-3.609896634733660292e-01
-3.406667923638766471e-01
-3.156205821741349116e-01
-2.861339963196163350e-01
-2.525440055550072227e-01
-2.153884408230488656e-01
-1.752518186281659673e-01
-1.327186554747892266e-01
-8.837731865990594571e-02
-4.285763400567277337e-02
3.185316112497726948e-03
4.909609055995978188e-02
9.422037500473590121e-02
1.379632519380608047e-01
1.798174343466042435e-01
2.192826778346028682e-01
2.558587381747543521e-01
2.890914137272351248e-01
3.187022284910503434e-01
3.444546226477222528e-01
3.661120363787566667e-01
3.834499445709057541e-01
3.963774343834494673e-01
4.048868982278762685e-01
4.089719924299049514e-01
4.086272663465990718e-01
4.038972238576595819e-01
3.949017816630222555e-01
3.817671134761329577e-01
3.646193930151682139e-01
3.435988052643639268e-01
3.189004130905165324e-01
2.907327130874103327e-01
2.593042018488362910e-01
2.248294465576997914e-01
1.875925358140745347e-01
1.479219175277168286e-01
1.061467570836907570e-01
6.259729446830984700e-02
1.766766502005928663e-02
-2.814929060658531712e-02
-7.435227971801748603e-02
-1.204400096206310611e-01
-1.658923488854322503e-01
-2.101134442529448698e-01
-2.524884198377309596e-01
-2.924023997542479214e-01
-3.292452486933979960e-01
-3.624628497617833345e-01
-3.915376634472599315e-01
-4.159527797735461663e-01
-4.351933666184259475e-01
-4.488761488731059512e-01
-4.568258258656696658e-01
-4.588854704094456061e-01
-4.548981553177623427e-01
-4.447860862475556676e-01
-4.287978889475293487e-01
-4.072663431143529467e-01
-3.805242285326893015e-01
-3.489215075310229119e-01
-3.130177174580413557e-01
-2.735124232478079453e-01
-2.311077499531643542e-01
-1.865060793032493613e-01
-1.404271298917691979e-01
-9.361866923148873254e-02
-4.683102062622687689e-02
-8.145073798027369083e-04
4.372517450273574746e-02
8.627124770999231029e-02
1.263569169577140883e-01
1.635153872800929331e-01
1.972988874991664365e-01
2.274992248151718188e-01
2.540719981175997844e-01
2.769759822262285454e-01
2.961714334062581777e-01
3.117255662484467171e-01
3.238827024093919316e-01
3.329038032254309498e-01
3.390498300329050640e-01
3.425835916131211301e-01
3.437759228820752022e-01
3.428998378428995131e-01
3.402283505406064612e-01
3.360244917712314483e-01
3.304214329928555349e-01
3.234615078553626510e-01
3.151851848740446771e-01
3.056318305482233488e-01
2.947555852065254500e-01
2.823661459345023772e-01
2.682592209216703716e-01
2.522305183575457854e-01
2.340756638136960444e-01
2.135899144959415574e-01
1.905684249835162825e-01
1.648063498512891689e-01
1.361122384480648595e-01
1.044746703956122014e-01
7.001107059069022753e-02
3.284166125883836163e-02
-6.911398201053464696e-03
-4.896511349327414830e-02
-9.275746998098355345e-02
-1.376986058371556521e-01
-1.831986592347887299e-01
-2.286274545544618730e-01
-2.731703399199197912e-01
-3.159599267481297824e-01
-3.561288222991660923e-01
-3.928162398242458497e-01
-4.252531669824251015e-01
-4.527377893070663184e-01
-4.745698328320019921e-01
-4.900512164508692425e-01
-4.986797813536930635e-01
-5.003013054231917334e-01
-4.947973425558938043e-01
-4.820494466483283835e-01
-4.620360454398716454e-01
-4.351905446796779375e-01
-4.020798037850118467e-01
-3.632706995921403670e-01
-3.193454800453909836e-01
-2.711072105673947852e-01
-2.195243663274268897e-01
-1.655694212880143845e-01
-1.102146018748243472e-01
-5.440827406837545066e-02
9.445758200641307667e-04
5.494355573999765152e-02
1.066882736409556776e-01
1.553403779685059716e-01
2.003605880350426416e-01
2.412996256299809739e-01
2.777082305156902686e-01
3.091564355209640569e-01
3.355009897226773896e-01
3.568183561386352176e-01
3.731905920865452586e-01
3.847007493750292384e-01
3.915355816051360738e-01
3.940748688489333351e-01
3.927194425258743737e-01
3.878701340554113197e-01
3.799263985842601388e-01
3.692808813844623561e-01
3.563241252585414021e-01
3.414466724031013367e-01
3.250308572459500445e-01
3.073327779218270051e-01
2.885095742277780095e-01
2.687157353493737633e-01
2.481051080767666395e-01
2.267588616341002783e-01
2.046196535326947896e-01
1.816145893859353322e-01
1.576707748072068982e-01
1.327135601510249785e-01
1.066593804866517448e-01
7.942184727953768841e-02
5.091457087218667632e-02
2.105906187605116608e-02
-1.009736294912540189e-02
-4.240650353718048576e-02
-7.571732040819591225e-02
-1.098779488363506168e-01
-1.446349102738185843e-01
-1.795364237509425309e-01
-2.141077910095910142e-01
-2.478743137916696315e-01
-2.803427559954699833e-01
-3.109232231831866589e-01
-3.389944193360118208e-01
-3.639350318024697772e-01
-3.851303116343924859e-01
-4.020737804536391735e-01
-4.143477704872395861e-01
-4.215372377174837482e-01
-4.232282926302990411e-01
-4.191622838588846545e-01
-4.093907997006864807e-01
-3.940023244607475661e-01
-3.730853424441105126e-01
-3.467931375808510630e-01
-3.156258649150955886e-01
-2.801992609360066666e-01
-2.411291413582894450e-01
-1.990385693108357446e-01
-1.546745032277986320e-01
-1.088878540947654239e-01
-6.253275320992679465e-02
-1.646294854491692217e-02
2.852430340353184768e-02
7.174736824049693373e-02
1.125387591540243926e-01
1.502309893321591427e-01
1.842140772426761330e-01
2.141940881122598173e-01
2.399850916706681159e-01
2.614012512007072853e-01
2.782706408038193580e-01
2.906679113096551914e-01
2.988793295336754641e-01
3.031980296787747386e-01
3.039175278920592804e-01
3.013932744197693747e-01
2.961105519237934303e-01
2.885709848787527676e-01
2.792761977592701506e-01
2.687111555605266044e-01
2.572668101674984165e-01
2.453011668247353505e-01
2.331721954267913510e-01
2.212279323259802588e-01
2.096337479848842111e-01
1.983946656706003786e-01
1.875102626238225323e-01
1.769796190976878902e-01
1.667127641185591758e-01
1.564285100748192825e-01
1.458209157409904311e-01
1.345840398915855163e-01
1.224102164817350569e-01
1.089817842462599828e-01
9.397749015364700864e-02
7.707607647928639560e-02
5.796492134038169763e-02
3.649623714424571341e-02
1.267023288537788561e-02
-1.350762640178193585e-02
-4.203118797496840919e-02
-7.275750329745878098e-02
-1.052427192438882830e-01
-1.390029272577306685e-01
-1.735542187824606897e-01
-2.083798199876010226e-01
-2.427673659170824783e-01
-2.759324276777447293e-01
-3.070904633764255376e-01
-3.354601145280117214e-01
-3.603231285869497036e-01
-3.810192050257109608e-01
-3.968901935943731640e-01
-4.072786217055369695e-01
-4.116774171278846373e-01
-4.099184405340142723e-01
-4.018799392908842805e-01
-3.874401607654511803e-01
-3.665471804856073601e-01
-3.395758992054901393e-01
-3.070624424415024367e-01
-2.695432352570425460e-01
-2.275645027487020744e-01
-1.818743514084794344e-01
-1.334105076816593238e-01
-8.311804273978594393e-02
-3.194196745070194965e-02
1.918772300557861077e-02
6.937570378229143686e-02
1.177315277400982907e-01
1.633647477396606984e-01
2.054315247445632764e-01
2.433806612871174946e-01
2.767742755564005508e-01
3.051747324241023129e-01
3.281574158192900326e-01
3.455765821850931840e-01
3.575543920556811250e-01
3.642238302307252429e-01
3.657182415391790342e-01
3.622721615359959513e-01
3.543595350938215649e-01
3.424889258219505073e-01
3.271688973296651426e-01
3.089098594920741681e-01
2.882341311649937454e-01
2.656687579258557586e-01
2.417407972900504909e-01
2.169715540232926010e-01
1.917541184203817028e-01
1.663556028881296722e-01
1.410378144436819081e-01
1.160623114771979214e-01
9.161124510230678197e-02
6.767424093454388334e-02
4.421231519704482693e-02
2.118648411294854483e-02
-1.450811161192389065e-03
-2.380395944499014149e-02
-4.600046774378951930e-02
-6.816791020955559333e-02
-9.042995302059009255e-02
-1.128195767119783977e-01
-1.352786282298205078e-01
-1.577449569567421772e-01
-1.801562028366962553e-01
-2.023734285618715711e-01
-2.240674156841923059e-01
-2.448798916552754612e-01
-2.644525839267373168e-01
-2.824161629833550347e-01
-2.983259997124745322e-01
-3.117060729833609489e-01
-3.220802576327157496e-01
-3.289769190394782328e-01
-3.320329935199737292e-01
-3.309970102632027178e-01
-3.256225935302543562e-01
-3.156636544203932360e-01
-3.009951635167169570e-01
-2.818004126237396711e-01
-2.583110607258936042e-01
-2.307587668076194198e-01
-1.994131548196156345e-01
-1.648095640898803449e-01
-1.275968489617405055e-01
-8.842428996971307686e-02
-4.794256220646953004e-02
-6.837496417498478696e-03
3.416811915802830946e-02
7.434974107236172469e-02
1.129829795143600379e-01
1.494189875653010313e-01
1.832061367621325987e-01
2.139245804150214925e-01
2.411544718341664950e-01
2.645164429301758435e-01
2.839223313162217988e-01
2.994114442139859111e-01
3.110236275800444261e-01
3.188041567034536339e-01
3.229411234374195416e-01
3.237761779026397946e-01
3.216585514353306197e-01
3.169374728791005680e-01
3.099607282385449247e-01
3.010722419666913563e-01
2.906152993318992239e-01
2.789331856025276113e-01
2.663478790275415897e-01
2.530237764724115879e-01
2.390546036097915272e-01
2.245337518404748600e-01
2.095503423880162863e-01
1.940761969285295652e-01
1.779541393377432335e-01
1.610203770333234474e-01
1.431111060654042533e-01
1.240546839628596520e-01
1.036579598295207516e-01
8.172412630873360229e-02
5.805637604384420586e-02
3.247913475037373515e-02
4.978291304313101767e-03
-2.438608268382909394e-02
-5.555352499311670689e-02
-8.845738842772885024e-02
-1.228534568409690164e-01
-1.582977811566270709e-01
-1.943357752940592098e-01
-2.305127836677520470e-01
-2.663162793305830500e-01
-3.010709149387183481e-01
-3.340729178033136626e-01
-3.646185152355247983e-01
-3.920132406665298164e-01
-4.156354024595463881e-01
-4.348975593149013164e-01
-4.492124697257079968e-01
-4.579999605287129461e-01
-4.608921352676189631e-01
-4.577653214355749678e-01
-4.485093437109776149e-01
-4.330141580444110683e-01
-4.113037767133669864e-01
-3.837889729791192361e-01
-3.509498537721711942e-01
-3.132665260229895443e-01
-2.712478086660233823e-01
-2.256334647964995388e-01
-1.772745859600681206e-01
-1.270229799416351946e-01
-7.572985441640731064e-02
-2.422754733896309576e-02
2.667380893514995077e-02
7.616535488283925071e-02
1.234383001994248802e-01
1.677721457812171857e-01
2.087076218042438203e-01
2.458335413722331775e-01
2.787387175889136093e-01
3.070488182340822547e-01
3.306944746144067637e-01
3.497568838819568593e-01
3.643183071644225390e-01
3.744650407151057792e-01
3.804163512615965637e-01
3.825515617172187688e-01
3.812595056995250475e-01
3.769290145460542640e-01
3.699452079963663209e-01
3.606819428352189827e-01
3.495109474396967397e-01
3.368039501868833607e-01
3.229137908994046402e-01
3.080324852875057640e-01
2.922707335884112134e-01
2.757386072802187060e-01
2.585428511496977166e-01
2.406752075523737600e-01
2.219858215829634829e-01
2.023161204142714942e-01
1.815075278499608813e-01
1.593942852654210429e-01
1.357882784334597526e-01
1.104970561098444493e-01
8.332816705034309934e-02
5.410854138196539986e-02
2.283494271077209092e-02
-1.040793197993308827e-02
-4.553464431902938536e-02
-8.245478522041495284e-02
-1.208974927031058466e-01
-1.603646286256270315e-01
-2.003435629660920148e-01
-2.403216466941259233e-01
-2.797314683378728239e-01
-3.178307699955843502e-01
-3.538424732204201173e-01
-3.869894995655789316e-01
-4.165044738485719211e-01
-4.417075467257498556e-01
-4.619652713151535250e-01
-4.766446259390321183e-01
-4.851184728596699136e-01
-4.869842384148197478e-01
-4.821286735526522094e-01
-4.704576265144317926e-01
-4.518769778845538321e-01
-4.264235590059972658e-01
-3.945631192596437131e-01
-3.568490882883772475e-01
-3.138348957350824975e-01
-2.660994493579393882e-01
-2.144582830472748780e-01
-1.598553731413697720e-01
-1.032359712802164431e-01
-4.554477420786945396e-02
1.229581138842966714e-02
6.939275703924832617e-02
1.248550407697673337e-01
1.777916540086164621e-01
2.273917725603907536e-01
2.731140231763109494e-01
3.144735697109203865e-01
3.509855760187626794e-01
3.821955269727834725e-01
4.079389206701709014e-01
4.282124209150678928e-01
4.430144205201227425e-01
4.523463081222963145e-01
4.563362870815684813e-01
4.552835498775409939e-01
4.494993678234452950e-01
4.392950135805634426e-01
4.249944924203290508e-01
4.069657091530214377e-01
3.855860226972775417e-01
3.612327919717345237e-01
3.342779843813799556e-01
3.050404459527710221e-01
2.738088021873600897e-01
2.408713292050881360e-01
2.065155005561253865e-01
1.709929435734436343e-01
1.345058382144689868e-01
9.725275309397812817e-02
5.943225697375292826e-02
2.124532177843030389e-02
-1.709857889596755331e-02
-5.538809233106256613e-02
-9.341186580851779109e-02
-1.309525005076277449e-01
-1.677312172760185849e-01
-2.034334924251272048e-01
-2.377443580363320930e-01
-2.703482125098974898e-01
-3.008995507963738714e-01
-3.290106651557178630e-01
-3.542906624312860409e-01
-3.763486500003569990e-01
-3.948110382932914497e-01
-4.093670501144073270e-01
-4.197201568714870046e-01
-4.255738299723084150e-01
-4.266488056648884974e-01
-4.228464654553382163e-01
-4.141758685524051797e-01
-4.006475093853022473e-01
-3.822749158753795951e-01
-3.592230758334721830e-01
-3.318756799285290104e-01
-3.006334725616852666e-01
-2.658971986759733896e-01
-2.281110258012266634e-01
-1.878808767703581406e-01
-1.458503318809776239e-01
-1.026629714306941388e-01
-5.895933135217124033e-02
-1.534710850194231924e-02
2.758603488075062060e-02
6.925272233157819812e-02
1.090677255305423365e-01
1.465594664276652637e-01
1.814242804395047592e-01
2.133720247632497902e-01
2.421125567794319977e-01
2.674113161259754623e-01
2.892462205181896007e-01
3.076459526410255663e-01
3.226391951794334023e-01
3.342621042971486434e-01
3.426339689084961782e-01
3.479259849877662791e-01
3.503101392457393937e-01
3.499580353807569266e-01
3.470197712438298776e-01
3.416129321152211462e-01
3.338524003528342554e-01
3.238530583093244264e-01
3.117100871980607035e-01
2.974413798332138370e-01
2.810458787040150952e-01
2.625225262996804254e-01
2.418702194455446541e-01
2.190873309956757886e-01
1.941718989926832784e-01
1.671219560425207806e-01
1.379366517825661997e-01
1.066818118168066931e-01
7.352641108337287790e-02
3.864827443178819877e-02
2.225226711591310469e-03
-3.552032428782125884e-02
-7.418648039292152774e-02
-1.133261792986330341e-01
-1.524923586994280933e-01
-1.912298157631465434e-01
-2.289869630862885197e-01
-2.651491880269750689e-01
-2.991007890540687830e-01
-3.302266325070389863e-01
-3.579476824249139266e-01
-3.817420510835403680e-01
-4.010929093256195843e-01
-4.154834279938259822e-01
-4.244594915423202663e-01
-4.278260950243686911e-01
-4.254551426618158327e-01
-4.172185387579689375e-01
-4.030118794386983172e-01
-3.830203050135405629e-01
-3.576226928496577528e-01
-3.272014756062535668e-01
-2.921409862887517361e-01
-2.529544424573439976e-01
-2.103638832645424173e-01
-1.651104121053032225e-01
-1.179351323745824742e-01
-6.958080596716914590e-02
-2.079722701221503600e-02
2.766394683923378839e-02
7.505105792323257807e-02
1.206262744223639549e-01
1.638262326093301025e-01
2.042070177999764646e-01
2.413270398393095317e-01
2.747466609075976951e-01
3.041677971509136325e-01
3.295270976125861950e-01
3.507833071572623584e-01
3.678951706495885432e-01
3.808577928974218874e-01
3.898244990050945824e-01
3.949916401454335313e-01
3.965555683664400144e-01
3.947121446659537236e-01
3.896508295921005116e-01
3.815566001110691774e-01
3.706143408040828424e-01
3.570083306759184172e-01
3.408758104265521283e-01
3.222741830071645941e-01
3.012531047159339170e-01
2.778622318510460265e-01
2.521445857050871875e-01
2.241135562619426258e-01
1.937742649115345439e-01
1.611318326769647924e-01
1.261983310640538702e-01
8.907944078667427712e-02
4.994793313061239581e-02
8.978040989029774377e-03
-3.365472178836278333e-02
-7.766800808104934450e-02
-1.225938629441465089e-01
-1.679457724486735359e-01
-2.132372226656653325e-01
-2.579480605047087538e-01
-3.014039494890741744e-01
-3.428864053664193445e-01
-3.816769402827686619e-01
-4.170600079929824289e-01
-4.483610140035204084e-01
-4.749353917426543115e-01
-4.961392653384176787e-01
-5.113304208302604792e-01
-5.200158233961240661e-01
-5.219677524267237745e-01
-5.169858184512082788e-01
-5.048696319987271419e-01
-4.855083385668605978e-01
-4.592122786409680302e-01
-4.264155356375034511e-01
-3.875522095935285405e-01
-3.430749527789087594e-01
-2.937034962150595896e-01
-2.403579188254433285e-01
-1.839631588562702924e-01
-1.254443849014654500e-01
-6.574907666904758474e-02
-5.865336395144526982e-03
5.321442350608225624e-02
1.104977906204720473e-01
1.650449688556235306e-01
2.161702167868397861e-01
2.632643707788900889e-01
3.057182828675317765e-01
3.429438962092896115e-01
3.746672604831576825e-01
4.008554709150679018e-01
4.214817798478938116e-01
4.365207630435680164e-01
4.460856903991919364e-01
4.505483723860443379e-01
4.503088672494889311e-01
4.457672332348913136e-01
4.373317233636673240e-01
4.254512051416457497e-01
4.105871053583850516e-01
3.932008545010132194e-01
3.737456985468370352e-01
3.525487327134447235e-01
3.298380205733678627e-01
3.058389648116667248e-01
2.807762290837486630e-01
2.547904310180127974e-01
2.278617730901053573e-01
1.999524139473092821e-01
1.710245122368988790e-01
1.410357803201444660e-01
1.099213100543266902e-01
7.760901763346372828e-02
4.402681634347338502e-02
9.110800799636567526e-03
-2.707236713512578552e-02
-6.435117598073010481e-02
-1.025511541649464786e-01
-1.414969649967151577e-01
-1.809061714488622852e-01
-2.202870167134819424e-01
-2.591235099298577205e-01
-2.968996602372735438e-01
-3.330806506738525075e-01
-3.670333417429455514e-01
-3.980926009955407796e-01
-4.255932787479561608e-01
-4.488773063841017263e-01
-4.674036793017366520e-01
-4.807275524097527342e-01
-4.884069300032957139e-01
-4.900010153643616917e-01
-4.852311398696538269e-01
-4.741431265600637435e-01
-4.568214583634147008e-01
-4.333506182075296254e-01
-4.038815110217266469e-01
-3.689211828537075633e-01
-3.290955378735597736e-01
-2.850305629772548199e-01
-2.373596116017351321e-01
-1.868422524517601158e-01
-1.343441030851644236e-01
-8.073407596059156699e-02
-2.688073187313499979e-02
2.639949801774199578e-02
7.839703667313679958e-02
1.284154049733181591e-01
1.757581237985363920e-01
2.197799879016291147e-01
2.601180566147087703e-01
2.965060013206226586e-01
3.286775782610025232e-01
3.563776982112596414e-01
3.795494434557136199e-01
3.983062104596382103e-01
4.127669386453352018e-01
4.230507901574123153e-01
4.293132640632064678e-01
4.317861467560037969e-01
4.307108437198959860e-01
4.263287604389810470e-01
4.188672571063944972e-01
4.084743019252544127e-01
3.952699966662707176e-01
3.793744128161985474e-01
3.609035515852905274e-01
3.398983933181163319e-01
3.163339708043561016e-01
2.901830706772343671e-01
2.614185674359545963e-01
2.300291805163858783e-01
1.960377038594065535e-01
1.594713501836899638e-01
1.203573322079067864e-01
7.875669754265057776e-02
3.492689086243139229e-02
-1.080395768183728400e-02
-5.810762448279960246e-02
-1.066464164380607205e-01
-1.559014690630105004e-01
-2.051910235170031349e-01
-2.538275198329127402e-01
-3.011232177584162173e-01
-3.463542746869254785e-01
-3.887173150322018600e-01
-4.273983576167235121e-01
-4.615834212629673639e-01
-4.904895664231585517e-01
-5.135188999084183692e-01
-5.301418136959017424e-01
-5.398288080172554126e-01
-5.420658482633486930e-01
-5.366462036011023784e-01
-5.236457471218226578e-01
-5.031508662308422641e-01
-4.752487563208717125e-01
-4.402072013462568489e-01
-3.987015655758864852e-01
-3.514630916200128796e-01
-2.992230220889074421e-01
-2.427483794032362363e-01
-1.830252568020274695e-01
-1.211226257896164393e-01
-5.810961343492912490e-02
4.947750594196553831e-03
6.704739805171444633e-02
1.272474220390527599e-01
1.846082521499429197e-01
2.381908595192793188e-01
2.871920592877206246e-01
3.311227997831988068e-01
3.695383001942779133e-01
4.019937797095410881e-01
4.281034586828685873e-01
4.478526355242532508e-01
4.613705186826780880e-01
4.687866329024376055e-01
4.702387954431830330e-01
4.660428897284719651e-01
4.566861028123030408e-01
4.426625611217390732e-01
4.244664190755905731e-01
4.025997600169245461e-01
3.775834551634467129e-01
3.499410971194892861e-01
3.201962784893848113e-01
2.888516950548618567e-01
2.562750238783016998e-01
2.227802698976132367e-01
1.886813012714924076e-01
1.542872715143484008e-01
1.198019931950500272e-01
8.532562969008716802e-02
5.095396811005831195e-02
1.678276652510574118e-02
-1.710156864422784917e-02
-5.063533912691803307e-02
-8.375822683928862977e-02
-1.164099136976641802e-01
-1.485150257362111148e-01
-1.798982389389446324e-01
-2.103435075692050571e-01
-2.396346666089165245e-01
-2.675520661103155673e-01
-2.937949812725166865e-01
-3.179810971845994927e-01
-3.397245109533097440e-01
-3.586393430314841480e-01
-3.743483246578730439e-01
-3.864956163156597069e-01
-3.947286560704399427e-01
-3.986948819878091133e-01
-3.980702198373414213e-01
-3.927249319913671544e-01
-3.826104227818291070e-01
-3.676783676035340065e-01
-3.478886801821368113e-01
-3.234009744987313972e-01
-2.945804123954449683e-01
-2.618015638717758886e-01
-2.254391684569192478e-01
-1.859401813010321813e-01
-1.439357646649557232e-01
-1.000860266020389133e-01
-5.505107516562190995e-02
-9.490066451493195387e-03
3.594451758965000465e-02
8.060305058536609835e-02
1.238359169660483428e-01
1.649983236835341760e-01
2.035673703324227812e-01
2.391484771266694231e-01
2.713531734614620383e-01
2.997931515204583786e-01
3.241609410251580226e-01
3.443604401689700500e-01
3.603296663823328805e-01
3.720066370956853774e-01
3.793486290581282172e-01
3.824517108139598998e-01
3.814727966072595233e-01
3.765690596974611282e-01
3.678987592073905688e-01
3.556487942734214425e-01
3.400369015679036711e-01
3.212823438841780899e-01
2.996043771523331234e-01
2.752182422925355532e-01
2.483284178948153009e-01
2.191375981321106448e-01
1.878484771773545337e-01
1.546661219097804629e-01
1.198131775942168353e-01
8.352018488162271659e-02
4.601772202463050299e-02
7.538451839322668491e-03
-3.162754414088586596e-02
-7.112695024815940403e-02
-1.106031997733414318e-01
-1.496996780125374737e-01
-1.880262970156545976e-01
-2.251009767299597120e-01
-2.604259722761080864e-01
-2.935035387747437219e-01
-3.238372841169744887e-01
-3.509411210525197333e-01
-3.743337039418099810e-01
-3.935337122760814710e-01
-4.080643002275252673e-01
-4.175774475659085327e-01
-4.218702440492173578e-01
-4.207475254670978160e-01
-4.140142575797624014e-01
-4.015849595474298983e-01
-3.836828612459670662e-01
-3.605851770185487526e-01
-3.325691212083453641e-01
-2.999439063857227139e-01
-2.632694144246900403e-01
-2.232236778986889658e-01
-1.804854229105286589e-01
-1.357346857864673573e-01
-8.969096358967737492e-02
-4.311921700732532226e-02
3.213074920690978109e-03
4.853848945117389402e-02
9.214786625101367701e-02
1.335004003577203724e-01
1.720855173747877775e-01
2.073926429057090792e-01
2.389426295501410613e-01
2.665095588934890403e-01
2.899897663230264211e-01
3.092803784732007788e-01
3.242827477358996013e-01
3.350314864980544760e-01
3.417182471513802167e-01
3.445437040795187866e-01
3.437085449112916025e-01
3.394306001401971584e-01
3.319785013944826502e-01
3.216302463857967919e-01
3.086638328257886865e-01
2.933513146389062354e-01
2.759154748108111344e-01
2.565547341042559992e-01
2.354673401356901785e-01
2.128505977221079593e-01
1.888706511842518643e-01
1.636560839674505163e-01
1.373332426214835533e-01
1.100284798909718087e-01
8.187839617597075792e-02
5.305073798879150759e-02
2.371914733087987504e-02
-5.942733796307386740e-03
-3.575147670329870131e-02
-6.544017587446726569e-02
-9.469965569651683790e-02
-1.232204119038748935e-01
-1.506919493193517035e-01
-1.767694134851067744e-01
-2.010655849953436602e-01
-2.231906303483298659e-01
-2.427547269697075683e-01
-2.593917666819888224e-01
-2.728095707333471065e-01
-2.827303263022273860e-01
-2.888762205670823979e-01
-2.909909885156766185e-01
-2.890075234267068804e-01
-2.829568027579492107e-01
-2.728706353314588329e-01
-2.587849168030109115e-01
-2.408843677618935919e-01
-2.195414161477809989e-01
-1.951404847913431606e-01
-1.680660094875564559e-01
-1.387405311335729863e-01
-1.077084473251402053e-01
-7.553846304141637047e-02
-4.279928326155943430e-02
-1.005351714880536873e-02
2.219131193574908067e-02
5.345692790872930145e-02
8.326532406194547820e-02
1.111415701900497766e-01
1.367285247985507990e-01
1.598210189466303666e-01
1.802239364161687396e-01
1.977421742166821650e-01
2.122354202731050465e-01
2.237431126279015858e-01
2.323414941888394258e-01
2.381068078636858765e-01
2.411217816508886003e-01
2.415294837982731035e-01
2.395057839220798845e-01
2.352268789285014705e-01
2.288682850643163347e-01
2.205780879385155768e-01
2.104681682480228910e-01
1.986479286940794342e-01
1.852267691787062853e-01
1.702968958293512025e-01
1.538926442508339321e-01
1.360361876709966500e-01
1.167496993176885545e-01
9.605782599764241259e-02
7.400891744153996477e-02
5.066451486768507040e-02
2.608630168817872852e-02
3.376784809150656930e-04
-2.644502425277160673e-02
-5.402700171722552014e-02
-8.216647821819142439e-02
-1.106216743963853444e-01
-1.391150948226145267e-01
-1.672459040201861868e-01
-1.945866610494584314e-01
-2.207099249707994981e-01
-2.451872381945362500e-01
-2.675801076309302640e-01
-2.874443226820682096e-01
-3.043356063454732974e-01
-3.178116806816621565e-01
-3.275198584138591662e-01
-3.332312127671598345e-01
-3.347258744212278092e-01
-3.317839781739175820e-01
-3.242556013489056310e-01
-3.122386558357419517e-01
-2.958859213515799835e-01
-2.753501776135726664e-01
-2.508030458225093962e-01
-2.226077865798966604e-01
-1.912394236030487416e-01
-1.571743757732041447e-01
-1.208899843432164611e-01
-8.290726925860769647e-02
-4.380898227798474265e-02
-4.182544155755363313e-03
3.538462502402077436e-02
7.432791682845769909e-02
1.121656658644632487e-01
1.484350524019245887e-01
1.826732567107288430e-01
2.144312186806763831e-01
2.434041208749946894e-01
2.693732500824449483e-01
2.921210457087534684e-01
3.114315866530505406e-01
3.271711036195265043e-01
3.393246216435518159e-01
3.478864477089135265e-01
3.528508890032322487e-01
3.542297255335992712e-01
3.520999313081583093e-01
3.465536824488911760e-01
3.376831550777833479e-01
3.255817658585989927e-01
3.103563386091731657e-01
2.921218885165630108e-01
2.709935480981203182e-01
2.470868581071816728e-01
2.205390369697209363e-01
1.915193769399275436e-01
1.601997582947670695e-01
1.267520613921105099e-01
9.137547870683968010e-02
5.437377964370491285e-02
1.607575948312300884e-02
-2.318978649450142981e-02
-6.308398887600641380e-02
-1.031556999109654871e-01
-1.428835651745330448e-01
-1.817451563992948382e-01
-2.192176487645398075e-01
-2.547558671352274096e-01
-2.877807985187346707e-01
-3.177106112480465039e-01
-3.439634736637005030e-01
-3.659941545974888522e-01
-3.834012407696280045e-01
-3.958186387157694996e-01
-4.028802549715650438e-01
-4.042428024271521037e-01
-3.998251969623587421e-01
-3.897141409787999722e-01
-3.739990721140191154e-01
-3.527723276303572630e-01
-3.262999971550167855e-01
-2.951173571150608188e-01
-2.597828246780082284e-01
-2.208548170113778797e-01
-1.789278178509548511e-01
-1.347417497829148658e-01
-8.907319062906476903e-02
-4.269871821192602890e-02
3.611664277278020529e-03
4.916595144170210485e-02
9.332321359272241490e-02
1.354434068547998582e-01
1.748885745972749706e-01
2.111539705174424741e-01
2.439460457592778075e-01
2.729899822470430726e-01
2.980109619050003711e-01
3.187907653757246496e-01
3.353453982951464241e-01
3.477514473083873625e-01
3.560854991458148877e-01
3.604316762916475181e-01
3.609663813112437003e-01
3.579278510782599731e-01
3.515554614183054039e-01
3.420884272841303586e-01
3.297550079921774957e-01
3.147656865662024073e-01
2.973293200328274155e-01
2.776547654186761194e-01
2.559363036196526386e-01
2.323063108128992083e-01
2.068807320580997033e-01
1.797755122916492032e-01
1.511063307970522684e-01
1.209855078341593726e-01
8.952306061966322503e-02
5.682896138967977184e-02
2.301384224613817198e-02
-1.176361778891416021e-02
-4.726494974138928384e-02
-8.324415955875585915e-02
-1.194552531885199054e-01
-1.556226400930843523e-01
-1.913417316578216454e-01
-2.261728031355072499e-01
-2.596761290233866593e-01
-2.914086994742099979e-01
-3.208846085895773470e-01
-3.475878583349829576e-01
-3.710018284338036931e-01
-3.906106992483844298e-01
-4.059611138505914152e-01
-4.167058872921560742e-01
-4.225081559363357275e-01
-4.230310561463905827e-01
-4.179997595140496625e-01
-4.074169310679194300e-01
-3.913627950867396565e-01
-3.699175794384813587e-01
-3.431802294751437055e-01
-3.115022974262257605e-01
-2.754166397724705506e-01
-2.354600764055182482e-01
-1.921704243804213674e-01
-1.461690423630876978e-01
-9.822264298695204676e-02
-4.911250007217771163e-02
3.801125610707334346e-04
4.948738175238975856e-02
9.750329091851339669e-02
1.437395463558970299e-01
1.875078558567899734e-01
2.281334503089369470e-01
2.651302155914017078e-01
2.981505663210581858e-01
3.268501142383839486e-01
3.508858738660975973e-01
3.700413689106114568e-01
3.843254487352600890e-01
3.937702175199024879e-01
3.984077794443956488e-01
3.983025529682255872e-01
3.936712186069240005e-01
3.847752618142199488e-01
3.718761742347811428e-01
3.552375188238808823e-01
3.351527401445613119e-01
3.119377302180341704e-01
2.859089272999774112e-01
2.573826988846265040e-01
2.266685253502151998e-01
1.940633290538792410e-01
1.598626974552673774e-01
1.243622180139936084e-01
8.785860586230409552e-02
5.065402991285328227e-02
1.305230560384385008e-02
-2.464275128131010462e-02
-6.212546668439755670e-02
-9.906243243891954542e-02
-1.350989269577289598e-01
-1.698796824940369543e-01
-2.030493800178525543e-01
-2.342472989790136406e-01
-2.631026349686822474e-01
-2.892434798187279998e-01
-3.122979253610242978e-01
-3.319089616856027991e-01
-3.477935374831004900e-01
-3.596915083180458605e-01
-3.673427366431565311e-01
-3.704961403282074350e-01
-3.690405136552967758e-01
-3.629746133849218737e-01
-3.523001601121609205e-01
-3.370197809527991639e-01
-3.172397354730261965e-01
-2.932643748912626691e-01
-2.654203725492103594e-01
-2.340344017885715444e-01
-1.994634587466324604e-01
-1.622190596829275466e-01
-1.228618157065834438e-01
-8.195235819980067893e-02
-4.005199878891008147e-02
2.267070962934547573e-03
4.442391017700264566e-02
8.583733020973782768e-02
1.259266306091482157e-01
1.641718763696964345e-01
2.001720704421754427e-01
2.335400106107865525e-01
2.638884946597317427e-01
2.908656289031994469e-01
3.143042273584812918e-01
3.340973010879673133e-01
3.501378941312869308e-01
3.623254155251884878e-01
3.706647340931332746e-01
3.752474687840385847e-01
3.761678168147108980e-01
3.735200827156112124e-01
3.674131640554304523e-01
3.579852091874563547e-01
3.453778576204938888e-01
3.297327488633360337e-01
3.111872112086989661e-01
2.898554190256590335e-01
2.658438070931936070e-01
2.392588047210447710e-01
2.102076525808397323e-01
1.788115242037677799e-01
1.452033163725733322e-01
1.095162911755613866e-01
7.188404818887339509e-02
3.249050987187329653e-02
-8.377096425539853897e-03
-5.041885803925283405e-02
-9.333486230515097848e-02
-1.367978936022079539e-01
-1.803301842400170107e-01
-2.234023550981490969e-01
-2.654849810911634744e-01
-3.060456621316135495e-01
-3.444990234525908690e-01
-3.802140980287116445e-01
-4.125584307491507730e-01
-4.408998930823331830e-01
-4.646599651383737095e-01
-4.833728442110870605e-01
-4.965869651682170982e-01
-5.038507628775079628e-01
-5.047650778206289601e-01
-4.992274677770232039e-01
-4.872398013471781475e-01
-4.688040619430062783e-01
-4.439367278446531007e-01
-4.129220573698051400e-01
-3.762800348495993763e-01
-3.345386959937162175e-01
-2.882266055223663415e-01
-2.379683382884794085e-01
-1.845952496275082844e-01
-1.289655570717908040e-01
-7.193747815366446918e-02
-1.436621152979888905e-02
4.291059656481099882e-02
9.906162709534976907e-02
1.532555694913704247e-01
2.046699886938480040e-01
2.526526564882213277e-01
2.967045965137471430e-01
3.363323052142390135e-01
3.710428994874221398e-01
4.004685797986365925e-01
4.245175203825842791e-01
4.431347601301838246e-01
4.562653379323721725e-01
4.638884919490629533e-01
4.661876704163656071e-01
4.634217959969078593e-01
4.558499123175428491e-01
4.437334647717525726e-01
4.273817376196241136e-01
4.071480709241090401e-01
3.833874482919894522e-01
3.564548002462982756e-01
3.266931089851157211e-01
2.944183489673229959e-01
2.599427855488797290e-01
2.235786840857457713e-01
1.856357586181456298e-01
1.464080759403635357e-01
1.061837740258225748e-01
6.525097960561165866e-02
2.389956205821297530e-02
-1.754453616486462142e-02
-5.872139488836991550e-02
-9.926977082995247503e-02
-1.388283250051947082e-01
-1.770115332964481425e-01
-2.133778593982778027e-01
-2.474778596210752690e-01
-2.788620902752315667e-01
-3.070878025516746712e-01
-3.317544248474551538e-01
-3.524777678787102131e-01
-3.688736787123322869e-01
-3.805648277451183503e-01
-3.873207649879121806e-01
-3.890525410280496477e-01
-3.856769535057704701e-01
-3.771111978149206956e-01
-3.633860202672142825e-01
-3.448016414043142408e-01
-3.216973813410420324e-01
-2.944125601922190638e-01
-2.633164076395098641e-01
-2.289717320017138624e-01
-1.920184109020905416e-01
-1.530965201344734461e-01
-1.128461184761338221e-01
-7.190688354378033109e-02
-3.091811738654026698e-02
9.480893844349136401e-03
4.865108561930064912e-02
8.602535195997895734e-02
1.212115883403572791e-01
1.538437841407154227e-01
1.835559287413650598e-01
2.100146773505870978e-01
2.331039090436852756e-01
2.527961403587379863e-01
2.690641496685390877e-01
2.818846239173162793e-01
2.913254126357180951e-01
2.975462365567131950e-01
3.007108667105518052e-01
3.009830627176579565e-01
2.985223389077704681e-01
2.934776282928729385e-01
2.859962427417559461e-01
2.762254941232116234e-01
2.643028182131630932e-01
2.502981633292939989e-01
2.342532564185638155e-01
2.162097293969565959e-01
1.962089319060978942e-01
1.742853533896768781e-01
1.504664122648353697e-01
1.247792024965548308e-01
9.725091373669214612e-02
6.794987684583952969e-02
3.704952761477375844e-02
4.739845572212963987e-03
-2.878918975312672046e-02
-6.332451463350086129e-02
-9.849094499689403648e-02
-1.338438267258994507e-01
-1.689382409002941898e-01
-2.033265962768369128e-01
-2.364935782732295877e-01
-2.678524771198884658e-01
-2.968131757126684089e-01
-3.227856232724264363e-01
-3.452130330764207056e-01
-3.636257299402438914e-01
-3.775681238830357334e-01
-3.865846249239329735e-01
-3.902559276918136089e-01
-3.884246621457593251e-01
-3.810484639391600314e-01
-3.680854618223668995e-01
-3.495024395466149736e-01
-3.254950737956920914e-01
-2.965058443907089281e-01
-2.629894745689629332e-01
-2.254008141947316801e-01
-1.842695810547503310e-01
-1.403264907573837927e-01
-9.433564048359355247e-02
-4.706112741429147039e-02
7.357845079567493229e-04
4.831485804430701858e-02
9.494531445671205994e-02
1.398964203620521873e-01
1.824425850080396705e-01
2.220002584319299421e-01
2.581425381150557197e-01
2.904505942775161831e-01
3.185057224830283862e-01
3.419776415452688845e-01
3.607794573953647110e-01
3.748657900273301702e-01
3.841912594351795662e-01
3.887304663633099899e-01
3.886104825906870897e-01
3.840286427070919162e-01
3.751826561349160816e-01
3.622714468161332135e-01
3.455290023402557420e-01
3.252288619605515629e-01
3.016466811369400425e-01
2.750581195342154395e-01
2.457424251576655339e-01
2.139889734689440770e-01
1.800889138639617526e-01
1.443333957386274680e-01
1.070182700789006347e-01
6.847628413349127197e-02
2.905760199560708523e-02
-1.088750936788251966e-02
-5.100735904159936496e-02
-9.090724795596394348e-02
-1.301428563688653561e-01
-1.682671096004022815e-01
-2.048329287068303417e-01
-2.393887624582057283e-01
-2.714701161326570911e-01
-3.006101669792841657e-01
-3.263420922471868546e-01
-3.482123329858226590e-01
-3.658743948452132799e-01
-3.790335494619918588e-01
-3.873954055157207699e-01
-3.906705973081748273e-01
-3.887287042205895826e-01
-3.816268789755637436e-01
-3.694330748431574607e-01
-3.522153125062591483e-01
-3.301301516712804585e-01
-3.035969430398379743e-01
-2.730835673382082662e-01
-2.390579052926345427e-01
-2.020041705003484123e-01
-1.625422087351313105e-01
-1.213590297125679285e-01
-7.914212323207694966e-02
-3.657777121525718211e-02
5.687784650507704542e-03
4.705663549229123499e-02
8.693375727257551810e-02
1.247241698698692142e-01
1.599067230081847590e-01
1.921850162307588150e-01
2.213052607702915009e-01
2.470136678594828661e-01
2.690824185047707706e-01
2.875056034916423919e-01
3.023898489438900938e-01
3.138426607745846697e-01
3.219733933087399746e-01
3.269556880419948186e-01
3.290425647632168604e-01
3.284919520294583561e-01
3.255617672969093324e-01
3.204854006370409514e-01
3.134196565786117605e-01
3.045064331813566727e-01
2.938876285050101012e-01
2.816901713533315754e-01
2.679093449478388012e-01
2.524720692334564975e-01
2.353046816356098025e-01
2.163328519534469530e-01
1.954578624602312520e-01
1.725501927191463725e-01
1.474783496555601425e-01
1.201108562186310458e-01
9.036429305303089743e-02
5.830917023301862567e-02
2.404675316153570552e-02
-1.232169275847627699e-02
-5.066774795318351732e-02
-9.061716324719462645e-02
-1.316649758423769634e-01
-1.733050128901816866e-01
-2.150281074121721814e-01
-2.562100936463195255e-01
-2.960782221226903044e-01
-3.338498937145273349e-01
-3.687425146413879640e-01
-3.999961514738816226e-01
-4.269253305571472645e-01
-4.488598491914405630e-01
-4.651295046770401731e-01
-4.750973187707890899e-01
-4.784360159164354753e-01
-4.749869248790224985e-01
-4.645930650240787108e-01
-4.471040645369023236e-01
-4.226367528225574155e-01
-3.916611322162575903e-01
-3.546714287408198607e-01
-3.121618819288622393e-01
-2.647119547107047444e-01
-2.131884138028896369e-01
-1.585185056104373713e-01
-1.016294765383684851e-01
-4.344909899774421214e-02
1.508980485549568651e-02
7.305159838530200789e-02
1.295006144736585707e-01
1.835045947836201063e-01
2.342765372848244487e-01
2.812258530708166004e-01
3.237758862491013634e-01
3.613499901869985376e-01
3.934646546924138732e-01
4.199585195585251451e-01
4.407398280419700942e-01
4.557168233993865725e-01
4.648196294145869878e-01
4.681947586118841986e-01
4.661121866854547324e-01
4.588433298439150154e-01
4.466607559041201325e-01
4.298888194804083573e-01
4.089235155597363836e-01
3.841660930064669244e-01
3.560178001956123550e-01
3.248712463517726690e-01
2.910883793586211965e-01
2.550243479889472420e-01
2.170343010155403041e-01
1.774693340605489611e-01
1.366392400051640033e-01
9.482968904158446677e-02
5.232604889568712170e-02
9.413883274663727152e-03
-3.361193102080532041e-02
-7.644333601913874676e-02
-1.187712747701987065e-01
-1.602866898267556461e-01
-2.006627456160821055e-01
-2.395078610005257624e-01
-2.764157199884738625e-01
-3.109800065883531750e-01
-3.427931319249193920e-01
-3.714341380953165572e-01
-3.964740750784496726e-01
-4.174838854081631134e-01
-4.340360240203043896e-01
-4.457790012200141816e-01
-4.524714635785738182e-01
-4.538806805331216943e-01
-4.497739223052146240e-01
-4.399905046933361152e-01
-4.246389923324073723e-01
-4.038908358535460152e-01
-3.779174858878694421e-01
-3.469128733223083572e-01
-3.113143499770000266e-01
-2.717082063528554192e-01
-2.286828751917135694e-01
-1.828281352191775400e-01
-1.348055013370332289e-01
-8.538278019334090418e-02
-3.533637223521537973e-02
1.455732215657742738e-02
6.354693941969558058e-02
1.109771361192396361e-01
1.562155842476913303e-01
1.986299557975322594e-01
2.376070487082829197e-01
2.727472360693095066e-01
3.037846309325515359e-01
3.304554002392003920e-01
3.524981601459558633e-01
3.697900907722491692e-01
3.824184567696874426e-01
3.904880573694765600e-01
3.941036918079056095e-01
3.934030375828586612e-01
3.886531732653866755e-01
3.801530081534214567e-01
3.682014515448948089e-01
3.530972518988020892e-01
3.351373049072939869e-01
3.146173189455255814e-01
2.918329829570899259e-01
2.670794154196304837e-01
2.406174180220996828e-01
2.126545502898103956e-01
1.833937857945627803e-01
1.530380981081554403e-01
1.217828139877701887e-01
8.979237435853343330e-02
5.722342331699786788e-02
2.423260495941881310e-02
-9.020491969589733428e-03
-4.234127608507060048e-02
-7.551220202784460211e-02
-1.083153248243438477e-01
-1.405320583860832639e-01
-1.719027359191244719e-01
-2.021024653103574431e-01
-2.308005584857011072e-01
-2.576663273710655400e-01
-2.823642937262954566e-01
-3.045391238263207012e-01
-3.238303401167625939e-01
-3.398774650349339899e-01
-3.523275138333608059e-01
-3.609194390656419449e-01
-3.654538864272791621e-01
-3.657326421875016775e-01
-3.615592439766870392e-01
-3.528569918575835684e-01
-3.397437906061501200e-01
-3.223553797010412225e-01
-3.008274986209091839e-01
-2.753488989839765200e-01
-2.463338396306352651e-01
-2.142565317130299407e-01
-1.795911868698212288e-01
-1.428181404541166710e-01
-1.044953146993046200e-01
-6.523390390823952112e-02
-2.564614660027025872e-02
1.365640847147869819e-02
5.211265053496666466e-02
8.924535128308083709e-02
1.245852085200812864e-01
1.576629200502283890e-01
1.880562821647744909e-01
2.155487058716301085e-01
2.399796974302600416e-01
2.611887643739098097e-01
2.790264204277244087e-01
2.934872216959909519e-01
3.046669164728256218e-01
3.126633528677774110e-01
3.175746807618618495e-01
3.195226965699206612e-01
3.186694488653258883e-01
3.151809066436198625e-01
3.092230389003446378e-01
3.009493696548807273e-01
2.904576641500131728e-01
2.778300779451920999e-01
2.631487658468095181e-01
2.464928451326279246e-01
2.279003547464819035e-01
2.073798082545954546e-01
1.849390715646229699e-01
1.605863059367015344e-01
1.343545294517499711e-01
1.063200717712185217e-01
7.656360951447380159e-02
4.516581930089361152e-02
1.223926728040358736e-02
-2.195684057822519866e-02
-5.712117520758636796e-02
-9.295240386377959241e-02
-1.291402894433994752e-01
-1.652501146737390403e-01
-2.007556265912822935e-01
-2.351284525866000896e-01
-2.678400663572318985e-01
-2.983480157452756409e-01
-3.260850088688406756e-01
-3.504811854991096709e-01
-3.709666854072772857e-01
-3.870073968157216049e-01
-3.982379258675972644e-01
-4.043426057092654458e-01
-4.050057765535050591e-01
-3.999298358063078096e-01
-3.890782318104266668e-01
-3.726107969316317381e-01
-3.506921579655212229e-01
-3.234885238767848392e-01
-2.913208432891915001e-01
-2.547926332896183199e-01
-2.145375027842282012e-01
-1.711890606791836578e-01
-1.254075097702145591e-01
-7.798187914116599950e-02
-2.974015351872177915e-02
1.848967400421078211e-02
6.588627933847993057e-02
1.117280838087106598e-01
1.553702711527903957e-01
1.961699984454703671e-01
2.334857400865032184e-01
2.668154206675366069e-01
2.959176822423351672e-01
3.205797565560799534e-01
3.405888753539526026e-01
3.557851917830882615e-01
3.662720032856743302e-01
3.722342400081839475e-01
3.738568571649867334e-01
3.713300419821745635e-01
3.649249740961635902e-01
3.549765948919417768e-01
3.418215697045693391e-01
3.257963124436745739e-01
3.072083438410229683e-01
2.863098740682774035e-01
2.633468692949750278e-01
2.385652956906627042e-01
2.121932351063233746e-01
1.843674844330060736e-01
1.551957908984523404e-01
1.247858895095305398e-01
9.324600487881420929e-02
6.069220963643429112e-02
2.724689649489953069e-02
-6.967362312931990598e-03
-4.182751701310816195e-02
-7.715075456800635223e-02
-1.126371118675537630e-01
-1.479730139124826316e-01
-1.828448857035384623e-01
-2.169149818479451097e-01
-2.497189079131960643e-01
-2.807509284799611926e-01
-3.095052851005654082e-01
-3.354770770338347807e-01
-3.581756462346170622e-01
-3.771220671364073906e-01
-3.918377639123106215e-01
-4.018448901906171988e-01
-4.067653563928350646e-01
-4.064213268261380740e-01
-4.006589092587283796e-01
-3.893242114588086888e-01
-3.723226452345121951e-01
-3.498786467628297592e-01
-3.223234601984663605e-01
-2.899884063208801876e-01
-2.532163400223703120e-01
-2.125486287939729602e-01
-1.686939068708187550e-01
-1.223660359151674676e-01
-7.427901665150299371e-02
-2.516770783846489223e-02
2.419014950561290678e-02
7.301153930727777297e-02
1.205134454930772980e-01
1.659440431718794406e-01
2.087237838591720074e-01
2.483322710200334127e-01
2.842491615308292419e-01
3.159661300809060158e-01
3.431893372286173305e-01
3.658097999769454045e-01
3.837245861709750461e-01
3.968313545072533755e-01
4.051253510574834849e-01
4.088073163859216042e-01
4.081039932493689681e-01
4.032421244046319186e-01
3.944599089756732901e-01
3.820605188339437630e-01
3.663700028677292497e-01
3.477144354659734704e-01
3.264174207820629281e-01
3.027568216184656769e-01
2.769701779518899953e-01
2.492936486320316281e-01
2.199632216130740781e-01
1.891836690494845541e-01
1.570924312508846510e-01
1.238181863588844467e-01
8.948961251508337489e-02
5.423844664961245676e-02
1.821423975804235817e-02
-1.842702559757314340e-02
-5.552935815005932696e-02
-9.293248737336881615e-02
-1.303938855263321317e-01
-1.675968571400056617e-01
-2.042220508215474295e-01
-2.399499116769460150e-01
-2.744195818361474526e-01
-3.071789383027365150e-01
-3.377636456610055848e-01
-3.657093684951564505e-01
-3.905574812742163004e-01
-4.118835101554126354e-01
-4.292756231712362425e-01
-4.423220088368307046e-01
-4.506182530329950198e-01
-4.539076362836024225e-01
-4.520696459503383280e-01
-4.449888644762481360e-01
-4.325503738656885089e-01
-4.147524970232525088e-01
-3.918499125189026655e-01
-3.641325663393230050e-01
-3.318904044711277201e-01
-2.954450499913705563e-01
-2.553127275642921301e-01
-2.120835119285109371e-01
-1.663476192841457646e-01
-1.186967355396804091e-01
-6.975304371813861870e-02
-2.016749298172482163e-02
2.940784436494037202e-02
7.832105880129014430e-02
1.259616853612276488e-01
1.718153898428805837e-01
2.153814323990645985e-01
2.561590731827212974e-01
2.936717929312946396e-01
3.275959169789208203e-01
3.576672298865222754e-01
3.836216494068655503e-01
4.051997849424924247e-01
4.222434881659593575e-01
4.346922827483895579e-01
4.424896696679336827e-01
4.455792881792428606e-01
4.439445634032339605e-01
4.376634829228183143e-01
4.268277783950977788e-01
4.115291814771511181e-01
3.918722679104826856e-01
3.680448826079676383e-01
3.402680734809240271e-01
3.087629745811133475e-01
2.737541018887090782e-01
2.355419146959665255e-01
1.945018066714190308e-01
1.510123516137698019e-01
1.054522634093044697e-01
5.824611957232250781e-02
9.930207996523110481e-03
-3.894249831081131319e-02
-8.781902634250118855e-02
-1.361368386815253739e-01
-1.832696876574136935e-01
-2.285652889189446757e-01
-2.713712805533944339e-01
-3.110373831069834227e-01
-3.469620119300703687e-01
-3.785927248227732855e-01
-4.053792515753633086e-01
-4.267715678424043313e-01
-4.423119356858025153e-01
-4.517729938280742319e-01
-4.549627363093154964e-01
-4.516891571696179386e-01
-4.418076018002274896e-01
-4.254975396507503782e-01
-4.030741871860982206e-01
-3.748532216241249326e-01
-3.411583849592675355e-01
-3.025099291730575790e-01
-2.596309407957880788e-01
-2.132538364448031964e-01
-1.641110960390099183e-01
-1.129626717869632313e-01
-6.063880886141695403e-02
-7.980835342471098715e-03
4.416992068962585782e-02
9.499294976348571229e-02
1.438142024999481960e-01
1.900224846684437918e-01
2.330068434379138353e-01
2.721636098519615299e-01
3.070741948451677916e-01
3.375153989514410036e-01
3.632733704205982628e-01
3.841344179993455565e-01
3.999661505444803700e-01
4.108494151637306913e-01
4.168995956543238846e-01
4.182320758134625560e-01
4.149743207963719760e-01
4.073411605392071588e-01
3.955858417322951626e-01
3.799617769639926923e-01
3.607222994044843034e-01
3.381186362454204897e-01
3.123997407119059599e-01
2.838144529511013592e-01
2.526116096492390661e-01
2.190379792326773156e-01
1.833347688230840544e-01
1.457422603809886419e-01
1.065007358670243542e-01
6.585725934396324810e-02
2.410931521310077930e-02
-1.842289708770811218e-02
-6.141906845406802651e-02
-1.045566520732993387e-01
-1.474511253613189354e-01
-1.896495203217823389e-01
-2.306953333218159652e-01
-2.701320406950582509e-01
-3.074888232033692326e-01
-3.422554511757893714e-01
-3.739149615896685264e-01
-4.019503914224510366e-01
-4.258566973706339742e-01
-4.452199531453614467e-01
-4.596682849579629693e-01
-4.688300448213391092e-01
-4.723393281080018324e-01
-4.699965073298540963e-01
-4.617897797229827406e-01
-4.477174154691141439e-01
-4.277778070996687276e-01
-4.020750602582989219e-01
-3.710121053893049581e-01
-3.350443021872735461e-01
-2.946270103466963608e-01
-2.502406130194043121e-01
-2.025622129513772185e-01
-1.523619136542220809e-01
-1.004103713780395979e-01
-4.747826730138909879e-02
5.662962326519305201e-03
5.824100886279592881e-02
1.094835151179976984e-01
1.586181877633183746e-01
2.049406248153959886e-01
2.479432218816139954e-01
2.871538293005890807e-01
3.221002974110547257e-01
3.523420425934503664e-01
3.776937312297942162e-01
3.980936283846626678e-01
4.134808086630886725e-01
4.237984038257582853e-01
4.291182349688750230e-01
4.296642060033577515e-01
4.256689976451973889e-01
4.173653032537771868e-01
4.050026685119769154e-01
3.888807372217982783e-01
3.693084201337242245e-01
3.465946279982037304e-01
3.210439763884301856e-01
2.929253491313699165e-01
2.624899095969452922e-01
2.299886937655243047e-01
1.956724047667621202e-01
1.597806791549547800e-01
1.225397760476735487e-01
8.417515432309766177e-02
4.491228478959469195e-02
4.997023648350307212e-03
-3.526261809882602627e-02
-7.554682577185817260e-02
-1.155357846905840091e-01
-1.548996184875262583e-01
-1.932223201818604741e-01
-2.300441391407102576e-01
-2.649049808682601426e-01
-2.973445891147197817e-01
-3.268970647742186486e-01
-3.530895313784762624e-01
-3.754486800277748171e-01
-3.935012237647890210e-01
-4.068232418514641235e-01
-4.151452023735500152e-01
-4.182276726410804613e-01
-4.158312199640715190e-01
-4.077462525923410408e-01
-3.940260861418484750e-01
-3.748607657210393240e-01
-3.504415076612373281e-01
-3.209643399827528110e-01
-2.868016016872276808e-01
-2.485486375978778473e-01
-2.068151050958508819e-01
-1.622106734453950538e-01
-1.153813829733979501e-01
-6.708995692465946625e-02
-1.812247009879211501e-02
3.073500270445293781e-02
7.870672419397062303e-02
1.251107140757864999e-01
1.693149185578212701e-01
2.106877483837409637e-01
2.486016446493599652e-01
2.825843385772477956e-01
3.123644883889000190e-01
3.376841003869545665e-01
3.582851979321234892e-01
3.739838018840939138e-01
3.848394710840017940e-01
3.909617931095077381e-01
3.924603555382488729e-01
3.894567506855855510e-01
3.821846787625106101e-01
3.709389621367850109e-01
3.560150390585244962e-01
3.377082617729906255e-01
3.163104939491100387e-01
2.921089816736363032e-01
2.653906536481266398e-01
2.364424364741390117e-01
2.055376474442477397e-01
1.729036507295903802e-01
1.387581212487647708e-01
1.033187339202742000e-01
6.680437456142120090e-02
2.944557533000078872e-02
-8.520630992691180516e-03
-4.685714088738124339e-02
-8.532559934388246614e-02
-1.236341446622228335e-01
-1.614184611965027716e-01
-1.983090828575452824e-01
-2.339365415232904644e-01
-2.679102574180698970e-01
-2.997665101084972528e-01
-3.290257507413124061e-01
-3.552084304633413847e-01
-3.778407136127071575e-01
-3.965053709132429494e-01
-4.108175177837584680e-01
-4.203926487556553515e-01
-4.248494097472702014e-01
-4.239486456082009469e-01
-4.176481959380484166e-01
-4.059203771870390498e-01
-3.887375105487306803e-01
-3.661590118627273682e-01
-3.385539042721317227e-01
-3.063599774670251463e-01
-2.700150211374046094e-01
-2.299745224844640390e-01
-1.868746508351798730e-01
-1.414572560684648206e-01
-9.446551902949282264e-02
-4.664231754531661389e-02
1.283920485827816371e-03
4.860524794348763944e-02
9.461527308421624483e-02
1.386076057937237205e-01
1.799371413888528615e-01
2.181823290640388935e-01
2.529725771800122036e-01
2.839372940975858350e-01
3.107285242817809934e-01
3.332365096257496884e-01
3.514940955991178173e-01
3.655360530464937252e-01
3.753989499073636660e-01
3.812100508001653454e-01
3.832281470049452299e-01
3.817223482008249569e-01
3.769617640294270489e-01
3.692118075738985428e-01
3.587240547875628072e-01
3.457468445703623106e-01
3.305285158222696085e-01
3.133086716185962683e-01
2.942321403073589470e-01
2.733856775794928362e-01
2.508552003688911958e-01
2.267259509199016643e-01
2.010470802153148939e-01
1.738141858880880020e-01
1.450185270666342618e-01
1.146513629255097033e-01
8.272353675167737341e-02
4.932112159325824363e-02
1.454825183135988187e-02
-2.149093815281322151e-02
-5.867805118023328159e-02
-9.673511226986863942e-02
-1.352840748265975446e-01
-1.739453492154755532e-01
-2.123378487347150623e-01
-2.499954691317808342e-01
-2.863230207849095654e-01
-3.207145187163505939e-01
-3.525639779492353298e-01
-3.812741145411441268e-01
-4.062819452483965588e-01
-4.270329379577281204e-01
-4.429725605558095247e-01
-4.535657797205235875e-01
-4.585026155249011248e-01
-4.576175182010836506e-01
-4.507473109874481354e-01
-4.377321827474784377e-01
-4.186155737952779177e-01
-3.937567220436236637e-01
-3.635421195588264265e-01
-3.283582584072743393e-01
-2.886562762665054183e-01
-2.451488404603888727e-01
-1.986147459028154150e-01
-1.498327875113270868e-01
-9.958232622597613937e-02
-4.864946451187995846e-02
2.175267853458132117e-03
5.210126372206225209e-02
1.003398190678196078e-01
1.462246659297660734e-01
1.892842136564301669e-01
2.290642042913835219e-01
2.651103798780802823e-01
2.970378328843649163e-01
3.247495827497477450e-01
3.482233610498873810e-01
3.674368994981983549e-01
3.823796495878034607e-01
3.931851522732912052e-01
4.000837764887085757e-01
4.033076879493266986e-01
4.030889576427734711e-01
3.996531520401819249e-01
3.932152529498262883e-01
3.839892702768221144e-01
3.721892139262773513e-01
3.580039450065007900e-01
3.415151712187177169e-01
3.227760668628656959e-01
3.018398059889130791e-01
2.787562484592965850e-01
2.535331789659788226e-01
2.261494514740745032e-01
1.965833508129998797e-01
1.648138817039458970e-01
1.308729143787721039e-01
9.488036653656115038e-02
5.696449137421721876e-02
1.725354208853918658e-02
-2.407646407925975729e-02
-6.664065121703544037e-02
-1.099970710922083955e-01
-1.537037741051585082e-01
-1.973081325774394545e-01
-2.402174854609332444e-01
-2.817406551613984567e-01
-3.211844125983086551e-01
-3.578557478622546584e-01
-3.910789007407350915e-01
-4.202075170147480110e-01
-4.445981119091966249e-01
-4.636072006490600250e-01
-4.766541637030240475e-01
-4.834405020485573190e-01
-4.837468237516717173e-01
-4.773537408545432403e-01
-4.640672448714359133e-01
-4.440372575983456693e-01
-4.176612564604113564e-01
-3.853421678060529043e-01
-3.474848689004441105e-01
-3.046591733103605204e-01
-2.577227068194125059e-01
-2.075620354236301091e-01
-1.550637251189051491e-01
-1.011240273595350736e-01
-4.668380334451144309e-02
7.303250706764075062e-03
5.988343741678209264e-02
1.101177780243774162e-01
1.572734851155944413e-01
2.007696088936071765e-01
2.400287273564228330e-01
2.744755537684424596e-01
3.037291851747787597e-01
3.277559518830056584e-01
3.465581535398079005e-01
3.601380897918320390e-01
3.685604166540159543e-01
3.721845658160626291e-01
3.714569890492115389e-01
3.668241508385839955e-01
3.587359367451091186e-01
3.476917949991516488e-01
3.342285120166759715e-01
3.188837887496947521e-01
3.021945275724156610e-01
2.846191473086320811e-01
2.664725379792236559e-01
2.480542765635015967e-01
2.296639400408288512e-01
2.115535363226903054e-01
1.937442629238180780e-01
1.761874110795103587e-01
1.588342566500044462e-01
1.416288850794520937e-01
1.244076077072925335e-01
1.069236768562499273e-01
8.892820282886673700e-02
7.017255918116391267e-02
5.043612800916499883e-02
2.955073372498138659e-02
7.353961935250577509e-03
-1.631660175332819152e-02
-4.158128059989479874e-02
-6.835076335691703253e-02
-9.647060204689578145e-02
-1.257863282691175089e-01
-1.561319472906211869e-01
-1.871626480807495607e-01
-2.183926456806836169e-01
-2.493323316730619021e-01
-2.794917829682291854e-01
-3.083447253449931313e-01
-3.352951941510498024e-01
-3.597393431517044160e-01
-3.810733261121914683e-01
-3.987217244861576138e-01
-4.122544578387754566e-01
-4.212877703945153707e-01
-4.254379262293952468e-01
-4.243362576147977627e-01
-4.178561593052788625e-01
-4.060662374989267853e-01
-3.890406602504482003e-01
-3.668546967240442491e-01
-3.397221694150555082e-01
-3.081289014048154140e-01
-2.725923768149742799e-01
-2.336300797671710949e-01
-1.917833341053365448e-01
-1.477185852755185103e-01
-1.021431859343795434e-01
-5.576451190588671558e-02
-9.285847725888807247e-03
3.665761142637968817e-02
8.148683864814820765e-02
1.246244863880980880e-01
1.654939217201447654e-01
2.036167954560235138e-01
2.387123493112035533e-01
2.705234922013433074e-01
2.987931330421944587e-01
3.233010002172032049e-01
3.440252176875517875e-01
3.610104364458786019e-01
3.743013559334883444e-01
3.839470275087680240e-01
3.900715720388677199e-01
3.928624534114096289e-01
3.925091209034001771e-01
3.892009952815209672e-01
3.831231957131229215e-01
3.744519844335423286e-01
3.633625322344908870e-01
3.500300099076549820e-01
3.346201771317689477e-01
3.172467278489401465e-01
2.980054507995451019e-01
2.769921183333665660e-01
2.543013783948389062e-01
2.300077653564085445e-01
2.041684540499337785e-01
1.768400494549746682e-01
1.480792616655617344e-01
1.179602692329755342e-01
8.659409010172280929e-02
5.409641188287639402e-02
2.058292218741863966e-02
-1.381375929175976403e-02
-4.886482637236866378e-02
-8.430755225524239060e-02
-1.198791718512559890e-01
-1.553127004896345809e-01
-1.902628380142262210e-01
-2.243151485876848650e-01
-2.570528217021889050e-01
-2.880589945435648724e-01
-3.169071882176561772e-01
-3.431501508967786940e-01
-3.663379227593309695e-01
-3.860205439836649211e-01
-4.017690069931647567e-01
-4.132765309136378074e-01
-4.202805324865376280e-01
-4.225184889753843542e-01
-4.197378532046168731e-01
-4.118782833883783967e-01
-3.990529854015433808e-01
-3.813813969328606057e-01
-3.589835093064013827e-01
-3.320924421023193629e-01
-3.011916667032909500e-01
-2.667982129316742723e-01
-2.294291106099198563e-01
-1.896214333436235244e-01
-1.480323398586676220e-01
-1.053635098936539782e-01
-6.231669610516729629e-02
-1.959019208718953964e-02
2.218693702235075005e-02
6.244955991601540413e-02
1.006349433218794165e-01
1.361808049099244300e-01
1.686278093983002435e-01
1.977500275269855334e-01
2.233536957056162509e-01
2.452450503437507145e-01
2.632692822778655573e-01
2.775112919818967239e-01
2.881470895074399463e-01
2.953528611980907881e-01
2.993087932423409425e-01
3.002782723072886517e-01
2.986032737982931007e-01
2.946288496771864995e-01
2.886999633778338792e-01
2.811388705301109958e-01
2.722150757179359060e-01
2.621906109046102662e-01
2.513275080534637107e-01
2.398648970615117060e-01
2.278971404079738194e-01
2.154621963735765533e-01
2.025978956911776430e-01
1.893380397571678420e-01
1.756292649867007283e-01
1.613339981672420875e-01
1.463112280408766230e-01
1.304199550152607412e-01
1.135225624869646982e-01
9.548948678495813858e-02
7.619233668315872343e-02
5.550272095548042239e-02
3.331416971415790407e-02
9.662571162926014701e-03
-1.535933470859168759e-02
-4.165865910130939209e-02
-6.913615203253842267e-02
-9.754936017373039281e-02
-1.265143302901980960e-01
-1.556410886670775984e-01
-1.845395355735540699e-01
-2.127779701989624961e-01
-2.398232081559390494e-01
-2.651268816454830368e-01
-2.881406228686671511e-01
-3.083292000020022572e-01
-3.252450310351552298e-01
-3.384764091004395237e-01
-3.476117350983488063e-01
-3.522476007457804315e-01
-3.521726158757796377e-01
-3.473694466447088680e-01
-3.378293576810665333e-01
-3.235439177899882002e-01
-3.046198809503724014e-01
-2.814519835065524833e-01
-2.544792325231234331e-01
-2.241406350646093504e-01
-1.908961167887815169e-01
-1.553490375116376998e-01
-1.181629208748070092e-01
-8.000149635148140481e-02
-4.152620616564084433e-02
-3.342615413122557166e-03
3.400146757699801237e-02
6.996089778143843585e-02
1.039907318206596543e-01
1.356343618691054353e-01
1.646615525953680215e-01
1.908778203600980938e-01
2.140886815240252150e-01
2.341297108134844929e-01
2.510483083911885238e-01
2.649829204458159504e-01
2.760723454694549162e-01
2.844574598602161442e-01
2.903320784811422861e-01
2.939459823148461437e-01
2.955516363680470437e-01
2.954014427652112973e-01
2.937156302380589668e-01
2.906299104349777673e-01
2.862662834068975815e-01
2.807467492047579505e-01
2.741736197482225745e-01
2.665065889336892813e-01
2.576425422838365953e-01
2.474780921494506292e-01
2.359079677667036690e-01
2.227768280304537885e-01
2.078751912958158032e-01
1.909908772046670644e-01
1.719117624589556192e-01
1.504601896226563373e-01
1.265513202738612342e-01
1.001157828668021166e-01
7.108420585578248407e-02
3.941760670639188335e-02
5.303316991248030465e-03
-3.096921996529461429e-02
-6.911006448987122575e-02
-1.088232209137753870e-01
-1.496445050971512147e-01
-1.909237252481723601e-01
-2.320010584100909989e-01
-2.722166446067023626e-01
-3.108839009758185279e-01
-3.472424590326785854e-01
-3.805193228877153944e-01
-4.099414966512630043e-01
-4.347600469750242391e-01
-4.544103013944902347e-01
-4.684127560454357520e-01
-4.762883673515837524e-01
-4.775673928586871009e-01
-4.720501234092261411e-01
-4.598423068660711932e-01
-4.410661107204388864e-01
-4.158438581201154838e-01
-3.844340500428378160e-01
-3.474807327447323457e-01
-3.056957091608469845e-01
-2.597907822263407773e-01
-2.104971180799569963e-01
-1.586983725629734776e-01
-1.053504005000727162e-01
-5.140948848886922606e-02
2.171260696356258624e-03
5.453545698091583072e-02
1.049386080537358379e-01
1.526424627040203763e-01
1.969088764467551989e-01
2.371147153551383391e-01
2.729707534176891714e-01
3.042480203709433395e-01
3.307175459514238858e-01
3.521869777342153673e-01
3.687605873406935020e-01
3.806864943807912738e-01
3.882137662404594458e-01
3.915941714191892853e-01
3.911654052902900913e-01
3.873668536813078545e-01
3.806437843151456724e-01
3.714414444908037405e-01
3.601774517909916984e-01
3.471871570958807718e-01
3.327906688427457738e-01
3.173080954688252131e-01
3.010381675542327384e-01
2.841014555128650310e-01
2.665300429820518513e-01
2.483553738502388697e-01
2.296061072867179309e-01
2.102180406255966805e-01
1.900145596000457626e-01
1.688123104769103655e-01
1.464279440387665776e-01
1.226859544891130138e-01
9.743478845487718587e-02
7.052744878961081376e-02
4.181693834678701371e-02
1.117776123537117527e-02
-2.133119184698228921e-02
-5.555724556288621496e-02
-9.134698330490154117e-02
-1.285422666221373023e-01
-1.668197322406184957e-01
-2.056514277648676670e-01
-2.444966932220054567e-01
-2.828148506242422755e-01
-3.200239467480558986e-01
-3.554127380150591264e-01
-3.882447334316907472e-01
-4.177834420044836961e-01
-4.433057212027355920e-01
-4.642062449817836445e-01
-4.799410505320027553e-01
-4.899667034523087494e-01
-4.937459568237017038e-01
-4.909689923483750995e-01
-4.816140614816086796e-01
-4.656779441927221264e-01
-4.431574604341084189e-01
-4.141743434071036845e-01
-3.792517033229931833e-01
-3.389931086709156993e-01
-2.940021279400997223e-01
-2.449046374776586710e-01
-1.925292054609482051e-01
-1.378124947511720766e-01
-8.169217907351167263e-02
-2.510476412056728002e-02
3.105839214753858268e-02
8.596443057153760336e-02
1.387843865430027357e-01
1.886893157906430751e-01
2.349405836148594773e-01
2.770972548416523740e-01
3.147796489718661661e-01
3.476080855062329000e-01
3.752352471361035668e-01
3.976165996960443483e-01
4.148729318311714653e-01
4.271267061808601273e-01
4.345032004655240421e-01
4.372422512411471285e-01
4.357355442630246323e-01
4.303852245915844588e-01
4.215934361406930009e-01
4.097546877349687033e-01
3.952376662147878417e-01
3.784056049638435670e-01
3.596217373658696648e-01
3.392345791700152602e-01
3.174508308303040094e-01
2.943979198095195149e-01
2.702024068629205189e-01
2.449890241300726190e-01
2.188040615860116223e-01
1.915874384994466495e-01
1.632714968833529623e-01
1.337885794869199119e-01
1.030789253656522186e-01
7.111017409710504444e-02
3.785590467048846608e-02
3.289696075104625583e-03
-3.259786463400030088e-02
-6.964735955734668860e-02
-1.076027603282734280e-01
-1.462069010314106521e-01
-1.851997720873931330e-01
-2.241926114771902734e-01
-2.626180358196671394e-01
-2.998955079855123440e-01
-3.354444900826288878e-01
-3.686698713474380051e-01
-3.989246532956330360e-01
-4.255502939936388063e-01
-4.478882515078703164e-01
-4.652985713702925685e-01
-4.773314246706893971e-01
-4.836483486743402560e-01
-4.839122894228017335e-01
-4.777910863052031720e-01
-4.651867446841403408e-01
-4.463336425854796397e-01
-4.214914510751889276e-01
-3.909198436359020978e-01
-3.549742165826413887e-01
-3.143597031465971692e-01
-2.698612885670070849e-01
-2.222639580829893768e-01
-1.723598658920950655e-01
-1.210167478078741921e-01
-6.914765450844365113e-02
-1.766625111579939872e-02
3.251630500112354105e-02
8.061587453912039125e-02
1.260327814760620058e-01
1.681818503603664250e-01
2.064779066500943283e-01
2.404321735687056927e-01
2.699172986634552629e-01
2.948906180764483409e-01
3.153094679498679720e-01
3.311527369931159259e-01
3.426335857624969172e-01
3.501089317227439324e-01
3.539377772783733889e-01
3.544794717469476608e-01
3.521119905142133244e-01
3.472409866092734387e-01
3.402743597852470048e-01
3.316200097049411544e-01
3.216426422510499372e-01
3.105407714690870957e-01
2.984729470187459377e-01
2.855977185596856871e-01
2.720583738130839535e-01
2.578271131343712330e-01
2.427686923723764434e-01
2.267462039726667322e-01
2.096222318553066788e-01
1.912303713563055507e-01
1.713601399848654061e-01
1.497973617490869491e-01
1.263278606602026288e-01
1.007776362767611456e-01
7.313132240474175261e-02
4.341270106210179391e-02
1.164555426686265244e-02
-2.212590524600713260e-02
-5.762119378214754228e-02
-9.440797968535252771e-02
-1.320514266494519640e-01
-1.701149501550884569e-01
-2.080559777642567998e-01
-2.451670229574547943e-01
-2.807263388381471825e-01
-3.140121785098794471e-01
-3.443169903850887281e-01
-3.709907443319365727e-01
-3.933979780437201756e-01
-4.109032292148244725e-01
-4.228934803936806874e-01
-4.290235684879182276e-01
-4.291244896941516229e-01
-4.230303304421197952e-01
-4.105785456305828252e-01
-3.918241702810140725e-01
-3.671686992870483168e-01
-3.370445336775753642e-01
-3.018840744815512456e-01
-2.621815259251644159e-01
-2.186881007358154327e-01
-1.722218089569482191e-01
-1.236006607717712868e-01
-7.364210560840028785e-02
-2.315668489227495908e-02
2.704970879115925486e-02
7.617126944158936208e-02
1.234039020973843881e-01
1.680614881627739143e-01
2.096501679142540042e-01
2.476937690814515203e-01
2.817161193938808594e-01
3.113036360619941822e-01
3.363098485418724581e-01
3.566595294848346476e-01
3.722774522143191822e-01
3.830998713797736377e-01
3.892090967832617099e-01
3.907880091526707567e-01
3.880214748158256621e-01
3.810946999115959466e-01
3.702179514318573728e-01
3.556432958927266408e-01
3.376267645183904653e-01
3.164243885330834116e-01
2.922893375168145180e-01
2.654622475814093496e-01
2.361803244341705854e-01
2.046807736957900747e-01
1.712017064590135584e-01
1.359931325101093047e-01
9.931344460276103625e-02
6.142121066874689506e-02
2.257547371178458828e-02
-1.692716802234528473e-02
-5.672600156593110565e-02
-9.645404582940142468e-02
-1.357443197230724097e-01
-1.742124447896369333e-01
-2.113958415307617411e-01
-2.468099673763342328e-01
-2.799702786068966054e-01
-3.103931683792475194e-01
-3.376077521653569335e-01
-3.611523158358169172e-01
-3.805653478013879543e-01
-3.953863955077739911e-01
-4.052449487969870257e-01
-4.099276756219253914e-01
-4.092370781017037329e-01
-4.029756583554421900e-01
-3.910100313757526869e-01
-3.735025865978447990e-01
-3.507009499946761588e-01
-3.228527554853405368e-01
-2.902215104963951631e-01
-2.532935572470622065e-01
-2.127195655621584303e-01
-1.691540360127070097e-01
-1.232519525557221884e-01
-7.571251181542187902e-02
-2.731400459844618434e-02
2.115706987006776840e-02
6.891421236511990900e-02
1.152011594851777287e-01
1.594048137163621148e-01
2.009544090833569330e-01
2.392791859679698208e-01
2.738237296121002196e-01
3.042554034157870513e-01
3.304096401959729645e-01
3.521260027785376723e-01
3.692451946051772405e-01
3.817205657370258409e-01
3.897117747140083632e-01
3.934005315037559236e-01
3.929685460739166802e-01
3.886114358357640186e-01
3.805924087867844641e-01
3.691951770783556963e-01
3.547034574792596318e-01
3.373974393448976317e-01
3.175043278869122965e-01
2.952104366416810066e-01
2.707010212231301116e-01
2.441610282838962420e-01
2.157423663316301310e-01
1.855349929819818944e-01
1.536220476592491113e-01
1.200866697876644962e-01
8.502091757668028826e-02
4.856134180315799242e-02
1.085833985439782490e-02
-2.793768645007446011e-02
-6.766841980869117701e-02
-1.080524779515634193e-01
-1.487113198626767163e-01
-1.892637611998539970e-01
-2.293280522247308773e-01
-2.684567846375797706e-01
-3.060764866912655258e-01
-3.415994038052086457e-01
-3.744377813987546100e-01
-4.040089437235943048e-01
-4.297562233978281521e-01
-4.511312560677727124e-01
-4.675856810036244093e-01
-4.785829691222085458e-01
-4.837770781754096028e-01
-4.829758018247188867e-01
-4.759913300993607876e-01
-4.626371730177605279e-01
-4.428938441060006337e-01
-4.170701964478694679e-01
-3.855133706876834321e-01
-3.485705074698409733e-01
-3.066423872061510014e-01
-2.604117785752833591e-01
-2.106537896657875719e-01
-1.581435817300251845e-01
-1.036592244714269473e-01
-4.802729939464300823e-02
7.885536995732467247e-03
6.321142643544921946e-02
1.170831041026276359e-01
1.687153871015004969e-01
2.174883571115900083e-01
2.628019262974762849e-01
3.040560068236064506e-01
3.407045939426450731e-01
3.724935808229150047e-01
3.992668961240422032e-01
4.208685409735823391e-01
4.371533905614589655e-01
4.481643187206244550e-01
4.541030552532189790e-01
4.551763236030368365e-01
4.515910985731201865e-01
4.435925048294615536e-01
4.315043345733039493e-01
4.156600914070314179e-01
3.963932789330680828e-01
3.740293598295706401e-01
3.488492379011922662e-01
3.211184691855741291e-01
2.911025954780716019e-01
2.590647540116683412e-01
2.252249702031251521e-01
1.897660081338062299e-01
1.528694052258547376e-01
1.147167892881193474e-01
7.550490213507829451e-02
3.546240750212025644e-02
-5.177977416942425304e-03
-4.618353542841181769e-02
-8.730176477970097437e-02
-1.281675867247671075e-01
-1.683761593779264099e-01
-2.075225954028044606e-01
-2.451987502938029473e-01
-2.809358858980475215e-01
-3.142116974352660574e-01
-3.445020350574823920e-01
-3.712829369170854155e-01
-3.940652274934154375e-01
-4.124349909196028396e-01
-4.259881394511438879e-01
-4.343205853435791464e-01
-4.370717331173733511e-01
-4.341351253256618969e-01
-4.254963455110453152e-01
-4.111411047210256076e-01
-3.910677190005741322e-01
-3.655179459716544899e-01
-3.349536635909099447e-01
-2.998446757313563138e-01
-2.606612163956735784e-01
-2.179620083536024100e-01
-1.725018953491813112e-01
-1.250620558637261515e-01
-7.642366837842148874e-02
-2.736448862776372226e-02
2.135826806430557445e-02
6.899501350670844690e-02
1.147961721353976672e-01
1.580204645339254310e-01
1.980930453804993774e-01
2.345929912016949948e-01
2.671051674295435996e-01
2.952149569511607341e-01
3.186267172047331231e-01
3.373149593406431501e-01
3.512914886858021779e-01
3.605681105671637021e-01
3.651870013843713791e-01
3.653775421637428522e-01
3.614403777251496974e-01
3.536762921721444686e-01
3.423871963408543495e-01
3.278984952120993501e-01
3.105578169253171428e-01
2.907136619088719343e-01
2.687144037163691213e-01
2.448756275815127115e-01
2.194366342422042759e-01
1.926258995452956313e-01
1.646718993376947715e-01
1.357917836206055107e-01
1.061309894282143063e-01
7.580696980871826085e-02
4.493711393133192900e-02
1.363954167472902768e-02
-1.795178082871173864e-02
-4.968755689415083054e-02
-8.141786230281278236e-02
-1.129926307996388379e-01
-1.442202794700653268e-01
-1.748102471999545826e-01
-2.044575377873283639e-01
-2.328571550301233861e-01
-2.596932094533694890e-01
-2.845789505138289766e-01
-3.070992851535567780e-01
-3.268390454686962432e-01
-3.433854008728531859e-01
-3.563782709911034186e-01
-3.655097716153683507e-01
-3.704742450422102706e-01
-3.709663073612943229e-01
-3.667717181812948368e-01
-3.578989181040523881e-01
-3.443897206727259963e-01
-3.262859394305164251e-01
-3.036680885671598773e-01
-2.768753514138202476e-01
-2.463529473319838736e-01
-2.125464168820601074e-01
-1.759055440993471109e-01
-1.369798478014498944e-01
-9.641978224091163341e-02
-5.488028528624955271e-02
-1.301622436574056962e-02
2.854444440518488779e-02
6.924115141549996855e-02
1.085237037202385485e-01
1.458419083743208999e-01
1.806750746191768120e-01
2.127051473122886227e-01
2.416991973274780214e-01
2.674245890779188839e-01
2.896545062353194089e-01
3.083046662523566406e-01
3.234383226136743339e-01
3.351255488859603560e-01
3.434364859977281359e-01
3.484710636385499605e-01
3.504056675442944746e-01
3.494287787238352649e-01
3.457288781860495819e-01
3.394887189736295330e-01
3.308506190229789645e-01
3.199394901234013933e-01
3.068801762050790138e-01
2.917956130228864242e-01
2.747599931690315467e-01
2.557959057293461846e-01
2.349234589623030445e-01
2.121627646352272079e-01
1.875357479295968188e-01
1.610691051260747519e-01
1.327903078410845317e-01
1.027268276909716338e-01
7.092101702327607837e-02
3.752320828654642781e-02
2.731360089904544264e-03
-3.325636033934947777e-02
-7.023753723115383485e-02
-1.078964847642350788e-01
-1.457948667030936063e-01
-1.834882184731753130e-01
-2.205320195830676733e-01
-2.564476086630483875e-01
-2.906642372322443824e-01
-3.225957862617325200e-01
-3.516561367226834212e-01
-3.772697473990709316e-01
-3.989399894004651559e-01
-4.162058925122737452e-01
-4.286066610289083201e-01
-4.356881735069422223e-01
-4.371821777548792198e-01
-4.330262732294418715e-01
-4.231687431962605772e-01
-4.075580357344644189e-01
-3.862629576872542159e-01
-3.596851631484868639e-01
-3.282833632789440848e-01
-2.925162692393524777e-01
-2.528691658069864845e-01
-2.100311831116024319e-01
-1.647858141317235237e-01
-1.179170651305776474e-01
-7.020815266384403119e-02
-2.241930190253199270e-02
2.471530615279363477e-02
7.046289374250883086e-02
1.140907816446808526e-01
1.549535840554563115e-01
1.926534474456585710e-01
2.268360923550612473e-01
2.571472393233663611e-01
2.832682403349513489e-01
3.051615468502198447e-01
3.229229017255857426e-01
3.366488498839071974e-01
3.464395720330720740e-01
3.525060066143763660e-01
3.551874211367960776e-01
3.548302570657308475e-01
3.517809444718444922e-01
3.463734657044267307e-01
3.389056069397383686e-01
3.296686117350869361e-01
3.189537236478029447e-01
3.070334760151527953e-01
2.940285710221433035e-01
2.799859701064258410e-01
2.649521459635597043e-01
2.489708013117417906e-01
2.319972638975972279e-01
2.138821259239198080e-01
1.944699078818554194e-01
1.736051343680203862e-01
1.511379673167633220e-01
1.269353802180652191e-01
1.008674665534036174e-01
7.280431980432788830e-02
4.263626706620171625e-02
1.042256027603816193e-02
-2.369352368419830324e-02
-5.956809698348697335e-02
-9.705253763486110241e-02
-1.358398831220570813e-01
-1.754312244171746249e-01
-2.153161189936894093e-01
-2.549840981663172856e-01
-2.938785043911195105e-01
-3.313014037098132025e-01
-3.665279444265234776e-01
-3.988332748452728671e-01
-4.275017866410488754e-01
-4.518972814598158916e-01
-4.714240112868623989e-01
-4.854865495740137149e-01
-4.934953177799282775e-01
-4.950659921797373464e-01
-4.900687653292388202e-01
-4.783896732185103362e-01
-4.599148079029329872e-01
-4.346610929950514013e-01
-4.030559205647673005e-01
-3.656069690519789805e-01
-3.228219168964890362e-01
-2.752384414411011004e-01
-2.236594759566343238e-01
-1.690263135005362627e-01
-1.122814448364003043e-01
-5.436743349778076773e-02
3.770473902000632052e-03
6.118362743633577738e-02
1.169231578043413711e-01
1.700402225966684555e-01
2.196717461941037897e-01
2.652306827805082645e-01
3.061854087488331544e-01
3.420043004921511365e-01
3.721951515394273935e-01
3.966245570315947155e-01
4.153507418863411349e-01
4.284337321577089686e-01
4.359382385911888536e-01
4.381106256216623640e-01
4.354329643481362755e-01
4.284030516228708452e-01
4.175186878343613017e-01
4.032937516946084600e-01
3.862952079080747003e-01
3.671009619826801629e-01
3.462889194262946946e-01
3.244206782962750779e-01
3.019049872727065931e-01
2.790670148653087712e-01
2.562310791474685656e-01
2.337177243876542299e-01
2.116934199749443135e-01
1.901201164609228056e-01
1.689456474326627156e-01
1.481178397726791163e-01
1.275386314998015469e-01
1.069545146651550149e-01
8.607909853199496863e-02
6.462599236353294696e-02
4.231375254276836806e-02
1.890869292023488260e-02
-5.796137665630272939e-03
-3.200739669791868858e-02
-5.992829282077971609e-02
-8.961359535482613103e-02
-1.209164970634339920e-01
-1.536758015125824772e-01
-1.877303049260519163e-01
-2.228374226717743101e-01
-2.584717206098464670e-01
-2.940463536437601944e-01
-3.289744766769298057e-01
-3.626589514562783556e-01
-3.944002736441006851e-01
-4.234402760580960878e-01
-4.490200976338736272e-01
-4.703832139760664166e-01
-4.868792602969556071e-01
-4.980053598862203001e-01
-5.032695195460986648e-01
-5.021797518254388359e-01
-4.943584006333364700e-01
-4.798355511078928881e-01
-4.587321458433394339e-01
-4.311691274339594648e-01
-3.973034771155236067e-01
-3.576614992604648102e-01
-3.129861449675003238e-01
-2.640231180029694036e-01
-2.115204000578527754e-01
-1.563353634090998145e-01
-9.948087027916030500e-02
-4.198163959188616623e-02
1.513761065020968744e-02
7.089063065015355214e-02
1.244319467034542548e-01
1.749482792947583132e-01
2.216263489085639193e-01
2.636838033172705931e-01
3.006649737665896271e-01
3.323103389806607577e-01
3.583630487055702307e-01
3.785706812037514801e-01
3.929059283890750098e-01
4.016688744068570571e-01
4.051853915159449038e-01
4.037813524673492527e-01
3.978388225240711007e-01
3.879508904804652158e-01
3.747601721413555409e-01
3.589092833115978265e-01
3.410372163162214143e-01
3.217435014083349087e-01
3.016034184987634315e-01
2.811918943317617270e-01
2.610813035860429787e-01
2.417064909195321132e-01
2.232976429283644038e-01
2.060682999710052865e-01
1.902320022720518367e-01
1.759296189285646239e-01
1.630219577419436128e-01
1.513023706251575007e-01
1.405642094911383477e-01
1.305891641711807161e-01
1.210279383633969807e-01
1.114488562285038675e-01
1.014189614359374270e-01
9.050598073858318049e-02
7.831672838500924883e-02
6.451753765380652261e-02
4.877973907806065768e-02
3.077466319427313302e-02
1.023784163590513163e-02
-1.284128345321772224e-02
-3.841050763673603541e-02
-6.641762647835774969e-02
-9.678856031957674966e-02
-1.291957583164806134e-01
-1.631485322662945547e-01
-1.981534925873992825e-01
-2.337157880382385033e-01
-2.692516052167305829e-01
-3.040385084523397063e-01
-3.373420517394842832e-01
-3.684277890726776472e-01
-3.965808581211102135e-01
-4.211658810375568107e-01
-4.415676427482261857e-01
-4.571709281816678239e-01
-4.673818094086142905e-01
-4.718608993033052146e-01
-4.704364551122062754e-01
-4.629396861174873701e-01
-4.492049436717477917e-01
-4.292703535725517772e-01
-4.034989876899461869e-01
-3.722829610323358795e-01
-3.360143886080430020e-01
-2.951493601717670723e-01
-2.504104355585354269e-01
-2.025895431610196251e-01
-1.524786115354403448e-01
-1.008718970269479598e-01
-4.859238958975112266e-02
3.517556352780726314e-03
5.461522437804204599e-02
1.038594637887906014e-01
1.505175293171444606e-01
1.940335936383073834e-01
2.338681367717824755e-01
2.694816387371907207e-01
3.004103555889082178e-01
3.265144561225157838e-01
3.477406417026635554e-01
3.640356145717852931e-01
3.753644957658559544e-01
3.819271871620932846e-01
3.840854881749876104e-01
3.822044061118622382e-01
3.766496705586741545e-01
3.678405069212519196e-01
3.562854971771834967e-01
3.425017149350741974e-01
3.270062338035590876e-01
3.102925213513867408e-01
2.927504872967905403e-01
2.747416518368109295e-01
2.566275344139171133e-01
2.387558057002963086e-01
2.212917795774455576e-01
2.042721106192789127e-01
1.877307553875440238e-01
1.717005013013044312e-01
1.561213042383791383e-01
1.407744059148321736e-01
1.254255022608092018e-01
1.098402892064996306e-01
9.378119965832047711e-02
7.699597542621292035e-02
5.922822561442742106e-02
4.022155910218755404e-02
1.972976282974142626e-02
-2.354877589695880680e-03
-2.604010249154220524e-02
-5.133143660439326572e-02
-7.823292506212425890e-02
-1.066223786157903253e-01
-1.361566854770857593e-01
-1.664704365015485243e-01
-1.971982225446324843e-01
-2.279390465979753699e-01
-2.581274656874548157e-01
-2.871505704044156060e-01
-3.143954467694874966e-01
-3.392516975685771485e-01
-3.611443302232065222e-01
-3.795244982099454933e-01
-3.938439665466615391e-01
-4.035559259006674671e-01
-4.082445799644580653e-01
-4.077288518135966378e-01
-4.018520688757036829e-01
-3.904575585784076930e-01
-3.734634697390335489e-01
-3.511428058314163825e-01
-3.238736627909489241e-01
-2.920341527699110151e-01
-2.560169398423957077e-01
-2.164264015128229135e-01
-1.740268644575344026e-01
-1.295865986264431724e-01
-8.387395292255944712e-02
-3.766511179699472134e-02
8.249368639534820913e-03
5.307739333036856633e-02
9.602686721884295951e-02
1.363537253247131542e-01
1.735477112487957829e-01
2.071696098729439162e-01
2.367802224557859214e-01
2.619586771045035456e-01
2.825599736928782191e-01
2.986523246632084572e-01
3.103094761113431299e-01
3.176062791643119443e-01
3.207363494210122568e-01
3.201163303285111672e-01
3.161874560561194758e-01
3.093909607731416544e-01
3.001719273677325717e-01
2.889946699845479805e-01
2.763294973152999878e-01
2.626467200101786359e-01
2.484074131076529635e-01
2.339287503825042136e-01
2.194141356063717962e-01
2.050638676627845047e-01
1.910773158672329775e-01
1.775453310222397940e-01
1.643501014398018878e-01
1.513501314823209043e-01
1.384039255121622958e-01
1.253492159164479869e-01
1.119171887870564763e-01
9.780496176689346122e-02
8.270963735606517986e-02
6.633280563200361080e-02
4.844846458896290287e-02
2.888917123204270965e-02
7.489161177140823966e-03
-1.591644964291782927e-02
-4.138055796717332591e-02
-6.873555911875905977e-02
-9.778808967780050487e-02
-1.283447862245028492e-01
-1.601671082771718435e-01
-1.927786258412641507e-01
-2.256248864511419816e-01
-2.581513919794218292e-01
-2.897997922946108362e-01
-3.199473441148548702e-01
-3.479180344867682795e-01
-3.730342482590304209e-01
-3.946188906749620307e-01
-4.120672561430220870e-01
-4.249206054702880930e-01
-4.327377455291392394e-01
-4.350774831919410612e-01
-4.315608832905657444e-01
-4.221455838765377777e-01
-4.069024416384672271e-01
-3.859023982068912062e-01
-3.592321146007591004e-01
-3.272506344225956099e-01
-2.905474857892187401e-01
-2.497194632435792983e-01
-2.053638518969691518e-01
-1.581528356587629247e-01
-1.089132758017128388e-01
-5.849116210808658067e-02
-7.732484360290392544e-03
4.253547272529289991e-02
9.158925012074137229e-02
1.387412066438251657e-01
1.833037348034433078e-01
2.246019841569269759e-01
2.621903521291427674e-01
2.958216538620496161e-01
3.252552551674297021e-01
3.502513086392770036e-01
3.707023465346676039e-01
3.867809168014099130e-01
3.986951864149912428e-01
4.066533223508579376e-01
4.108856119581185684e-01
4.117484194650282703e-01
4.096427104155346832e-01
4.049695019740258140e-01
3.981263629033211515e-01
3.894465615025536342e-01
3.792064422702103865e-01
3.676803835062673054e-01
3.551423065684600200e-01
3.417810334549341578e-01
3.276009976129075074e-01
3.125825112016759055e-01
2.967058863805762670e-01
