BVP Signal
-1.456243625415651333e-02
-3.145295261475847259e-03
1.762210617197096374e-02
3.919708502205375422e-02
5.592716613852494190e-02
6.835243741794314043e-02
8.055296899123140508e-02
9.372756059220849201e-02
1.058760946267323366e-01
1.148059583166917419e-01
1.201304435887522448e-01
1.236294284269872645e-01
1.256601953540831818e-01
1.254058062758828807e-01
1.220885334869132310e-01
1.155095049308649813e-01
1.066120391939664458e-01
9.558934915036015889e-02
8.225504081917456300e-02
6.657204770156655016e-02
4.875306257298700485e-02
2.932625962601220770e-02
8.704253731628419644e-03
-1.287409573796682860e-02
-3.509582918546999553e-02
-5.735466750021606108e-02
-7.937559310460062800e-02
-1.005240574674952231e-01
-1.203806984540261443e-01
-1.385848054103870353e-01
-1.544325428994253180e-01
-1.679601171380518676e-01
-1.784111561773410737e-01
-1.856536189693206162e-01
-1.895208326622062067e-01
-1.895629911606225848e-01
-1.861783734937784152e-01
-1.789188758107337351e-01
-1.680791679751444390e-01
-1.538332627073456527e-01
-1.362597363091747615e-01
-1.159890639578755600e-01
-9.313066002892378403e-02
-6.829058945543364789e-02
-4.192139820330109679e-02
-1.458088460405571052e-02
1.318088635307357315e-02
4.077064587608802970e-02
6.761463525295413612e-02
9.321951150746768389e-02
1.168737796228669634e-01
1.384227471707569490e-01
1.570952514951170775e-01
1.726935963281720499e-01
1.849243878344556946e-01
1.932989880400246274e-01
1.981603936459530590e-01
1.989096770974728146e-01
1.958488292365604955e-01
1.889957960441460694e-01
1.783114669180293488e-01
1.644655894986014610e-01
1.472787185952882938e-01
1.274003894343568311e-01
1.051225838576881344e-01
8.085277527212803017e-02
5.525738578111000221e-02
2.864398532436590594e-02
1.689472912661027504e-03
-2.517624305251209282e-02
-5.130012906499203940e-02
-7.632861587392772429e-02
-9.960570625017817203e-02
-1.207509783254290120e-01
-1.393839946728844259e-01
-1.549195789789673539e-01
-1.674789285569886765e-01
-1.763691209656655934e-01
-1.816955281715902371e-01
-1.833076843095537978e-01
-1.809786269187306229e-01
-1.752510877013294666e-01
-1.657345557821267024e-01
-1.529756565384965961e-01
-1.371266223204066215e-01
-1.184278497644717931e-01
-9.757706356868789399e-02
-7.466431870084550004e-02
-5.040204411301230092e-02
-2.515430725172497495e-02
5.045379191659787876e-04
2.607441281013211237e-02
5.105002372966634810e-02
7.490865809709028322e-02
9.726284675885693565e-02
1.174885174293828771e-01
1.355164212163649240e-01
1.506719930096694360e-01
1.628550749884855042e-01
1.718226869339823937e-01
1.771845173329875678e-01
1.792949804094045030e-01
1.776235333260922089e-01
1.725080345704239071e-01
1.639442117166066137e-01
1.519580586901079500e-01
1.371294167491307059e-01
1.193437630642713576e-01
9.921223265933841462e-02
7.698359643640147187e-02
5.311825129055789546e-02
2.815094135839961431e-02
2.480939619835087484e-03
-2.327918006638343695e-02
-4.872000400274281717e-02
-7.313479129954858493e-02
-9.627852847503137745e-02
-1.174056537946455148e-01
-1.361886519154074660e-01
-1.522514666066547839e-01
-1.649794270998978241e-01
-1.745484063624082038e-01
-1.802399891705135371e-01
-1.821911732466587885e-01
-1.802687860228849859e-01
-1.742743259441636439e-01
-1.647528035094609211e-01
-1.513912154977560820e-01
-1.347532797861392129e-01
-1.150400055396031684e-01
-9.258503842660151251e-02
-6.805321579312240132e-02
-4.169786479826078501e-02
-1.423532433845843548e-02
1.389914374954182019e-02
4.200940188471763426e-02
6.964943080391308716e-02
9.613117472653895379e-02
1.209538866360211351e-01
1.436693576860930688e-01
1.635662457193289843e-01
1.806489124527081436e-01
1.941254837667318878e-01
2.039627330866112254e-01
2.099123045308237123e-01
2.115870981764157444e-01
2.094390459943961114e-01
2.029450015123948625e-01
1.925503236982447630e-01
1.783221630609397867e-01
1.603778830456916715e-01
1.393982185322806822e-01
1.153861041043145186e-01
8.904836390443539307e-02
6.075474882726970838e-02
3.107668091719500980e-02
6.142779585527752273e-04
-3.007868516543377169e-02
-6.036669394973998015e-02
-8.971656638308828091e-02
-1.173705531130154467e-01
-1.430732881398666945e-01
-1.659696137315989362e-01
-1.858058058702349302e-01
-2.021204804854774273e-01
-2.143540405196953935e-01
-2.227179076102235589e-01
-2.264847390421373119e-01
-2.259348642374404970e-01
-2.209112528413683108e-01
-2.113638004118247316e-01
-1.978878868829964388e-01
-1.802667118973721450e-01
-1.592102255833076629e-01
-1.349570601977316542e-01
-1.080178821965407099e-01
-7.909185538793359060e-02
-4.858806504266544035e-02
-1.730210243085755772e-02
1.425285213942552309e-02
4.526193589247984317e-02
7.527999561200332534e-02
1.034848701304816876e-01
1.294099055416863542e-01
1.525313573957450541e-01
1.721486641236558146e-01
1.883088841973372118e-01
2.001825465505536750e-01
2.078813426268030229e-01
2.111222287090039895e-01
2.096633085403697416e-01
2.040274224256970192e-01
1.937630001226082754e-01
1.795110795236599943e-01
1.613522097482496809e-01
1.396054904651087558e-01
1.150244414607513171e-01
8.772634357319261666e-02
5.857413631478929766e-02
2.797001778067551361e-02
-3.383481242703559322e-03
-3.483726966011853332e-02
-6.579253694583522827e-02
-9.557156570183969468e-02
-1.236347239169096196e-01
-1.492646495126000450e-01
-1.721887507674261519e-01
-1.916549740740249863e-01
-2.074916565153850923e-01
-2.192816035207879322e-01
-2.266776937991769325e-01
-2.298972428825336589e-01
-2.284458510881100524e-01
-2.227535179419967704e-01
-2.127484280393230620e-01
-1.986482564278250762e-01
-1.810735725723911227e-01
-1.600386083964630834e-01
-1.363761058156009731e-01
-1.104035269379475825e-01
-8.275709735125419408e-02
-5.418900869960356637e-02
-2.513855370195186567e-02
3.585651111024129589e-03
3.145692568950220203e-02
5.784794925094979140e-02
8.220631870301303712e-02
1.040234297233757627e-01
1.229446121958385763e-01
1.385221801789611740e-01
1.505808117601823426e-01
1.589855052338891850e-01
1.635365926179224161e-01
1.645213792659218077e-01
1.617876296385026558e-01
1.557797928758994088e-01
1.467726111218626006e-01
1.350160494070684614e-01
1.212653930166717187e-01
1.056764921301875659e-01
8.907552181416952819e-02
7.191846689393661951e-02
5.471188742485576240e-02
3.822797545331885205e-02
2.274016616865297963e-02
8.948578641649412857e-03
-2.830849809226550218e-03
-1.222167838118960043e-02
-1.890169950949580763e-02
-2.273837603837094989e-02
-2.360710459077122042e-02
-2.155214723322820131e-02
-1.662629220407226688e-02
-9.140804616646111547e-03
7.668467400579331850e-04
1.257022666923066773e-02
2.591726767688996499e-02
4.034591669650580692e-02
5.516233651290605028e-02
7.008203943116529666e-02
8.429076772675195284e-02
9.745794816741534805e-02
1.090332287870520167e-01
1.184680802272333050e-01
1.256169908414516978e-01
1.299030843521835898e-01
1.313864082501151886e-01
1.297760585401837308e-01
1.250695329523002775e-01
1.174505204404894809e-01
1.068486615019934582e-01
9.379391511017425020e-02
7.833680944727607065e-02
6.095851399891874522e-02
4.207961050175368367e-02
2.196353894750878444e-02
1.298352945947961468e-03
-1.971486036161082533e-02
-4.056148941243786776e-02
-6.084401338052239372e-02
-8.033355506016157110e-02
-9.860961819647365290e-02
-1.155002154853567720e-01
-1.308647388459661109e-01
-1.444729826570091136e-01
-1.563004206911138005e-01
-1.663736134959292179e-01
-1.745133163863161474e-01
-1.809902940901498558e-01
-1.856757648923677562e-01
-1.886175480775294233e-01
-1.901516354340442860e-01
-1.899572569752650542e-01
-1.884525347301351794e-01
-1.855086046826140145e-01
-1.810513143840332684e-01
-1.754859058148715567e-01
-1.683770717879096712e-01
-1.600295549364562087e-01
-1.503644568001183401e-01
-1.391897442227974513e-01
-1.268489846023430623e-01
-1.130493529851524515e-01
-9.791740925857772559e-02
-8.159123442217208755e-02
-6.395852695031117863e-02
-4.528741492232557508e-02
-2.570773529972758542e-02
-5.237726111584739552e-03
1.567885892942372239e-02
3.690592438820794463e-02
5.825920380244828389e-02
7.913585893457286691e-02
9.957817835907500914e-02
1.189462148230162053e-01
1.368968744872546828e-01
1.533851219548525435e-01
1.675822912091744499e-01
1.796309643012056201e-01
1.889514514138918022e-01
1.952359069532811908e-01
1.986389544846129951e-01
1.985162450839760284e-01
1.951813999883352801e-01
1.883755916255074325e-01
1.781029362115670311e-01
1.647138093508513368e-01
1.480956584102766649e-01
1.287279135126039864e-01
1.068022948231330815e-01
8.274673519340078331e-02
5.700027747339618533e-02
3.007359886532745552e-02
2.463439687933444144e-03
-2.526705254779987309e-02
-5.242806369977581760e-02
-7.869158781831187000e-02
-1.031620385886223845e-01
-1.255865689102302341e-01
-1.453084213724257223e-01
-1.617507642966579118e-01
-1.749073147540558537e-01
-1.839554908473144401e-01
-1.891061924176384856e-01
-1.899469881341020461e-01
-1.863684938464242880e-01
-1.787579364688063333e-01
-1.667786472108755413e-01
-1.510890113455253259e-01
-1.317163855197848177e-01
-1.091052718428811574e-01
-8.387434047837255546e-02
-5.630816484356230417e-02
-2.721239065266958801e-02
2.993836184326831296e-03
3.354879027426110882e-02
6.391777492547690009e-02
9.337579283794700258e-02
1.213829377164880596e-01
1.473575844884889019e-01
1.706182731055037038e-01
1.909858871088833121e-01
2.076611616794767912e-01
2.206434401622564545e-01
2.294652128432471683e-01
2.338554807688004722e-01
2.340699969901925970e-01
2.296104387331328045e-01
2.210055332685133545e-01
2.081183082463861633e-01
1.912020521817582308e-01
1.708204240986220812e-01
1.470085719401974522e-01
1.205558110956674589e-01
9.173610699895662357e-02
6.118722401112848541e-02
2.952704710133793875e-02
-2.689976921989502279e-03
-3.479916748571360019e-02
-6.621359160389003740e-02
-9.623461341838518424e-02
-1.244530592236272604e-01
-1.500632865685967432e-01
-1.728451505460867899e-01
-1.921530151696143607e-01
-2.075909831719699450e-01
-2.191278327613882526e-01
-2.261189852922868559e-01
-2.289052777102846825e-01
-2.270893823073505402e-01
-2.208100366544786808e-01
-2.104178764749623509e-01
-1.957741099488026770e-01
-1.776292356883042434e-01
-1.560262715810413758e-01
-1.315983064320296048e-01
-1.048974134333840597e-01
-7.636564277752448671e-02
-4.679983235896558597e-02
-1.664721795844360808e-02
1.327538643561309607e-02
4.249248103437971297e-02
7.021991636459976038e-02
9.600680817364259934e-02
1.192413493433185367e-01
1.393446551026633617e-01
1.561465484423693872e-01
1.689441599098027436e-01
1.778527619249204161e-01
1.824117741192928799e-01
1.825930777916363601e-01
1.785991099172603569e-01
1.701912374183217058e-01
1.579893761576924016e-01
1.419165235645310219e-01
1.225324980009974835e-01
1.002959191200139127e-01
7.557191289843293025e-02
4.917766950931842795e-02
2.145383598790891883e-02
-6.718158822855360354e-03
-3.486074376913460976e-02
-6.219400478141740019e-02
-8.811101404482912791e-02
-1.120504630197276114e-01
-1.332646894363462564e-01
-1.515146598605136563e-01
-1.660453675237605897e-01
-1.767773341279982868e-01
-1.832674470309815506e-01
-1.853143294393398699e-01
-1.830644618762600206e-01
-1.762330161391282846e-01
-1.653139619174960051e-01
-1.502598455326434601e-01
-1.315354908924688537e-01
-1.096040237643611942e-01
-8.482720398685529573e-02
-5.799406952143631999e-02
-2.949265723945490580e-02
-1.920935320035843663e-04
2.938858611589188069e-02
5.844118540744761003e-02
8.633462480735056011e-02
1.124598006549881318e-01
1.360358527079466306e-01
1.567809763159246916e-01
1.738900201511472676e-01
1.872477506780587941e-01
1.963549685333312311e-01
2.009528884571941398e-01
2.011474378820646280e-01
1.965778355920678455e-01
1.877053712527630425e-01
1.744122155845440614e-01
1.571037318581580688e-01
1.362160731142417203e-01
1.120392562171753648e-01
8.535872324763746355e-02
5.652094441864090324e-02
2.637939204415042788e-02
-4.523749858993911244e-03
-3.538823234760395120e-02
-6.553573416377840577e-02
-9.432023686961847619e-02
-1.209098786558397143e-01
-1.449479600458942752e-01
-1.655554762427430548e-01
-1.825525094343652122e-01
-1.953398521734111826e-01
-2.035816203031331484e-01
-2.073176548910454220e-01
-2.060791994714567532e-01
-2.003125247229064487e-01
-1.897991212240045245e-01
-1.748993761181820705e-01
-1.560429465312346831e-01
-1.334287887875246492e-01
-1.078919830022886245e-01
-7.970968755361976243e-02
-4.973177897250941754e-02
-1.853338019289552108e-02
1.314217962519576705e-02
4.454995617853591688e-02
7.507785201104116846e-02
1.038687803332114801e-01
1.305288502938255768e-01
1.541745175152940128e-01
1.745721110852399838e-01
1.910914620562483290e-01
2.033277273559039866e-01
2.112731012388025242e-01
2.143542136648673713e-01
2.129680755974660833e-01
2.067763796297496792e-01
1.960226314011569160e-01
1.810760205694449676e-01
1.619548516056666110e-01
1.394635697534960528e-01
1.137259169363012135e-01
8.548891768246966172e-02
5.530850643541617567e-02
2.378024890851711259e-02
-8.307049742606972820e-03
-4.041430406571099032e-02
-7.168493401890062289e-02
-1.016395066194961949e-01
-1.294105887967705315e-01
-1.546213925595617267e-01
-1.765766676350954134e-01
-1.947589164957689023e-01
-2.089883116088322446e-01
-2.185912127445133191e-01
-2.237896607150718364e-01
-2.241016902240570707e-01
-2.196390389037616298e-01
-2.106103645540989278e-01
-1.969243117369194052e-01
-1.792873141681368410e-01
-1.577064148808254296e-01
-1.328854482536194204e-01
-1.053145152827567321e-01
-7.555648118337811303e-02
-4.443130043261886430e-02
-1.244133500876319631e-02
1.948526381273309183e-02
5.083075673993261989e-02
8.068371595779458283e-02
1.085382061664698083e-01
1.336702113898933508e-01
1.554341737090267350e-01
1.735418452763076158e-01
1.872585753460408176e-01
1.966427593391564810e-01
2.011561514555251784e-01
2.008117629295455009e-01
1.956756376897240690e-01
1.856516718930795729e-01
1.713082511876582170e-01
1.526173985197701588e-01
1.302920125587072320e-01
1.046916173416939794e-01
7.649466675303778773e-02
4.645922830325637659e-02
1.512473125990044555e-02
-1.643065036794641443e-02
-4.776777537408581631e-02
-7.773767440717148369e-02
-1.058185315956503836e-01
-1.311832464706751966e-01
-1.529583396644580151e-01
-1.709002382201894044e-01
-1.840160862514232387e-01
-1.923402988825183013e-01
-1.952530918940983962e-01
-1.925979357459126629e-01
-1.845191528480412124e-01
-1.707872323005561743e-01
-1.520196506331595865e-01
-1.282254834937938404e-01
-1.001080347502095458e-01
-6.817550774309424910e-02
-3.316835289292885403e-02
4.031348182105563838e-03
4.271808054863709264e-02
8.168572791779196707e-02
1.203288069510054098e-01
1.572994985970447290e-01
1.919736315906649671e-01
2.233135766238975861e-01
2.502992268434648393e-01
2.726097642258791254e-01
2.890342172421310751e-01
2.996409249600398561e-01
3.036533759129219634e-01
3.008519375061170509e-01
2.914702967308439030e-01
2.751148216633413357e-01
2.526132804990725012e-01
2.239195176056937298e-01
1.897652119985161201e-01
1.509150878222440817e-01
1.079957309753516032e-01
6.220398996119783086e-02
1.428147825142154353e-02
-3.453104404675583217e-02
-8.328942895121177470e-02
-1.307562568935753677e-01
-1.760446781238521885e-01
-2.180280361575757664e-01
-2.557478146004011910e-01
-2.885844333966324227e-01
-3.154454738837286776e-01
-3.363197427594420974e-01
-3.502959653088324465e-01
-3.573201235314544810e-01
-3.574300252609071138e-01
-3.502824192813634996e-01
-3.368010978033431635e-01
-3.167140821353950919e-01
-2.909068824879200710e-01
-2.600155975787972196e-01
-2.245450923145188293e-01
-1.858349013058280264e-01
-1.442899019362316460e-01
-1.011744394077825626e-01
-5.732556666452910676e-02
-1.370451200420889741e-02
2.870630430479802556e-02
6.911142031135267261e-02
1.066261146334719079e-01
1.406619003371195054e-01
1.703630833142860679e-01
1.956280238554423123e-01
2.156540394127173244e-01
2.303993043192165135e-01
2.397473540955822879e-01
2.433424250161916880e-01
2.419400441855055206e-01
2.350326561005116610e-01
2.233676958281040348e-01
2.072363222669663663e-01
1.868746402969137521e-01
1.634137912958582572e-01
1.367970370114925949e-01
1.081183089701650835e-01
7.784387777445557488e-02
4.663825195928816836e-02
1.540242894247649715e-02
-1.548158049242197992e-02
-4.510818804346293509e-02
-7.308863623708004853e-02
-9.863819611341184679e-02
-1.214964821057027827e-01
-1.410343644927439799e-01
-1.569077162761911004e-01
-1.689891189086921708e-01
-1.767130900675836225e-01
-1.805209429955116907e-01
-1.798532884825333467e-01
-1.750099011889499623e-01
-1.661821272793010396e-01
-1.532613589614607863e-01
-1.371129774048283623e-01
-1.175321558141657896e-01
-9.524871053310954294e-02
-7.067311268576605132e-02
-4.418045597262770796e-02
-1.660166424948809893e-02
1.181048601464100567e-02
4.027611992219465309e-02
6.836584015712560136e-02
9.540501115083599437e-02
1.209905096668343893e-01
1.445312337668361313e-01
1.655475185049713194e-01
1.837826431718692921e-01
1.985690123970813292e-01
2.100757174749000034e-01
2.176583941851869264e-01
2.213154856905508727e-01
2.210677577221888401e-01
2.165598772888200074e-01
2.083997982424403705e-01
1.962202616433449953e-01
1.804618129109845093e-01
1.614222843059909263e-01
1.392402764392836056e-01
1.146598442205116752e-01
8.781768621155720822e-02
5.938618971364867383e-02
2.984519091063703167e-02
-2.133200263871593005e-04
-3.024013225614421985e-02
-5.961274925084944498e-02
-8.774467022396029159e-02
-1.141592574741600308e-01
-1.381024054075428165e-01
-1.594699256397414944e-01
-1.774504753173100080e-01
-1.918571561287354954e-01
-2.024370842938397197e-01
-2.086884931153851763e-01
-2.110214327871494655e-01
-2.088570169876008964e-01
-2.025534836167783848e-01
-1.922136291833234922e-01
-1.778822236388928613e-01
-1.603087716935124030e-01
-1.394388323768439297e-01
-1.160331276581459681e-01
-9.048886577005543774e-02
-6.337707102726951314e-02
-3.541507094071569967e-02
-7.063542484348688671e-03
2.090268357553688033e-02
4.802319248626082948e-02
7.352319217996196310e-02
9.709314425969267637e-02
1.180312852836734039e-01
1.359584630385462511e-01
1.505982147626852008e-01
1.613882620592882455e-01
1.685817922244069456e-01
1.715988631304108947e-01
1.706488376451482658e-01
1.657638916837171350e-01
1.568773413776999859e-01
1.446598990146998331e-01
1.289304216387654467e-01
1.103695332030106835e-01
8.927878884720139019e-02
6.610636077754852846e-02
4.158620315076742846e-02
1.600679088248685433e-02
-9.834441618817905961e-03
-3.553361407686789208e-02
-6.036931942262087347e-02
-8.391680982390840871e-02
-1.055830226836411839e-01
-1.248575491778541602e-01
-1.414466472539957775e-01
-1.547354228706905310e-01
-1.648132215682434898e-01
-1.711103649377534175e-01
-1.736557011789112148e-01
-1.724253670698267515e-01
-1.672396397657169298e-01
-1.586350607397625234e-01
-1.463861380375613419e-01
-1.310259154741115761e-01
-1.128118626064176788e-01
-9.209554596860511366e-02
-6.954311911594046602e-02
-4.540644720622324937e-02
-2.041513123096655447e-02
5.039780197474443696e-03
3.025607506442070521e-02
5.482544225889372791e-02
7.812903329664201701e-02
9.963502858428677222e-02
1.190251913246215265e-01
1.355903358697187755e-01
1.494049041566905822e-01
1.597729023225551992e-01
1.666239618408476009e-01
1.698665265806938440e-01
1.691201907806654248e-01
1.648991725657886209e-01
1.567670375887177392e-01
1.451361143901767070e-01
1.301880594559368665e-01
1.120560750244503911e-01
9.143423653639540238e-02
6.837992087961847210e-02
4.358115828067220254e-02
1.742182160708935501e-02
-9.499385167724475748e-03
-3.665117562203677737e-02
-6.347738112924711240e-02
-8.935286497752714663e-02
-1.138681302961739306e-01
-1.362350257582251589e-01
-1.563651312127120607e-01
-1.734572582321875500e-01
-1.872686323542804288e-01
-1.975817799612994974e-01
-2.037949949877546629e-01
-2.063491105947036774e-01
-2.045835287700320526e-01
-1.987710384706857236e-01
-1.890254069726298725e-01
-1.752046343789055716e-01
-1.581075927252169055e-01
-1.375214317476206594e-01
-1.140957719328389575e-01
-8.824652449880229788e-02
-6.031672404552165800e-02
-3.110117405096640697e-02
-9.096393294218407810e-04
2.957440277841305587e-02
5.981556738284526942e-02
8.920287020751582752e-02
1.173117291960684705e-01
1.434770281486783539e-01
1.673328217007128971e-01
1.884488429637568019e-01
2.062639091452637130e-01
2.208961962264219814e-01
2.316302493949260466e-01
2.385893053295812249e-01
2.416090187683948010e-01
2.404395622273773903e-01
2.356573402443861709e-01
2.268119644570869009e-01
2.144481010091060513e-01
1.987234906755087627e-01
1.798020612782698091e-01
1.584489748778106222e-01
1.346727917264939345e-01
1.091790998003334123e-01
8.238249907584693776e-02
5.475740257009709122e-02
2.692643511531600531e-02
-6.682756916469578812e-04
-2.749834729915989762e-02
-5.306499583877544168e-02
-7.684570087365499846e-02
-9.862080005188150755e-02
-1.177498310440590612e-01
-1.341465700634476010e-01
-1.474421706462430426e-01
-1.573564425485076690e-01
-1.641534060711472287e-01
-1.673148623462090701e-01
-1.672539692938229683e-01
-1.638731363055657420e-01
-1.572894796731114098e-01
-1.480881119585617522e-01
-1.360960252127647319e-01
-1.220173028420546979e-01
-1.059982550151599145e-01
-8.848294313055948823e-02
-7.003114996378179136e-02
-5.084146872596900790e-02
-3.154734760905264501e-02
-1.238479259111963104e-02
6.094156068524037018e-03
2.366821509292665882e-02
3.988907263475555132e-02
5.447422673712520869e-02
6.723803282372858847e-02
7.773559396994034199e-02
8.615703677012645501e-02
9.198904664685844668e-02
9.534987022478519370e-02
9.615629152297862359e-02
9.421143085617417201e-02
8.994666669275817872e-02
8.300331266484639592e-02
7.377374857073908110e-02
6.229398307342099567e-02
4.870576900651342467e-02
3.344588043680125911e-02
1.653155998604077803e-02
-1.534476273554102876e-03
-2.057233751280514167e-02
-4.008317787400655918e-02
-5.979024831299817322e-02
-7.921988003134497469e-02
-9.791918443401809169e-02
-1.156054037950271784e-01
-1.315786308605850774e-01
-1.458202317651262347e-01
-1.576047028793449989e-01
-1.667099793562420162e-01
-1.729211346752750067e-01
-1.756776567323322102e-01
-1.752672333375595859e-01
-1.711371439112247539e-01
-1.634415778619884296e-01
-1.522416566703234664e-01
-1.374520198995864972e-01
-1.196057683106995229e-01
-9.868781580216139104e-02
-7.519868237332549832e-02
-4.953429939298099882e-02
-2.215919026738708691e-02
6.370988330306788169e-03
3.548887439251000725e-02
6.461040363721289037e-02
9.317146743283001575e-02
1.204197310446579183e-01
1.460698261187236557e-01
1.692610135929435156e-01
1.896779704009823320e-01
2.068627892144078995e-01
2.202022401518538564e-01
2.298549994150671794e-01
2.350988285578384795e-01
2.361050790193384430e-01
2.327383931322237753e-01
2.248666146132488886e-01
2.130381627398311717e-01
1.970225784284533876e-01
1.774306477985776176e-01
1.545126982972748197e-01
1.286972091330321477e-01
1.006685156099020734e-01
7.080021019279332528e-02
3.984740507230048051e-02
8.335587193043576121e-03
-2.296815669431195861e-02
-5.357249452110326299e-02
-8.268444186887362324e-02
-1.098017814171065309e-01
-1.343658770814121217e-01
-1.556855675801099848e-01
-1.737127822778324338e-01
-1.876384197841553803e-01
-1.975088758434739022e-01
-2.030009266852678407e-01
-2.038885875069047782e-01
-2.006049966304422061e-01
-1.927358772748602456e-01
-1.808898763308629531e-01
-1.651218638692611429e-01
-1.458042431332328137e-01
-1.236269292253540930e-01
-9.875729375659891840e-02
-7.206371696030566820e-02
-4.391260112724568176e-02
-1.507652872049768111e-02
1.386615492168609409e-02
4.228568559278443606e-02
6.949809279207555535e-02
9.504051189892097351e-02
1.181405781493685136e-01
1.386242686979212158e-01
1.557373549251465927e-01
1.693126887389215796e-01
1.790273018336192012e-01
1.844933953931914561e-01
1.860043684013028553e-01
1.830677678708109712e-01
1.760917370744122801e-01
1.650503098044687200e-01
1.501305034363768776e-01
1.319256810087667264e-01
1.104682120842192111e-01
8.652502984613175130e-02
6.039294135211030479e-02
3.274976031445582525e-02
4.193604553017704628e-03
-2.471287412641573478e-02
-5.322819977034223826e-02
-8.086860968937881200e-02
-1.068028842143234208e-01
-1.307304862641117671e-01
-1.518452970784364142e-01
-1.698164538864454787e-01
-1.842329071414247899e-01
-1.945462206109869197e-01
-2.009275769024502500e-01
-2.027618112410378426e-01
-2.003147155210493746e-01
-1.934880484064711026e-01
-1.823080731061737514e-01
-1.673518074663956079e-01
-1.485252778465915857e-01
-1.265535139027274270e-01
-1.017161207047623528e-01
-7.458656834515997591e-02
-4.584494274899639926e-02
-1.595662048121153712e-02
1.429931248582903824e-02
4.441806492039744592e-02
7.360421081737388016e-02
1.014497701035549371e-01
1.271775423817918249e-01
1.503847705372583776e-01
1.705962029324626372e-01
1.872055995562519337e-01
2.002866797117114628e-01
2.091208441892874470e-01
2.138791519091663984e-01
2.143241364758216583e-01
2.103175378287294728e-01
2.023516793458168816e-01
1.900940386881367627e-01
1.741774952155083767e-01
1.546984217228838110e-01
1.320339998179707042e-01
1.068380059252213576e-01
7.932676758249755655e-02
5.027456965816547163e-02
2.008314090219213977e-02
-1.053441480070311381e-02
-4.105779668213329486e-02
-7.080169805742995981e-02
-9.921029254419960752e-02
-1.257303730170774292e-01
-1.496499101152092281e-01
-1.707967876785651540e-01
-1.883445625643928034e-01
-2.022186346137417046e-01
-2.119730470212045637e-01
-2.172707158715270759e-01
-2.183680769050405091e-01
-2.147439225140074792e-01
-2.068690184858124614e-01
-1.946525551299443380e-01
-1.783481688974387358e-01
-1.585363400818533830e-01
-1.353007192273905646e-01
-1.094511932110452113e-01
-8.131387617758867314e-02
-5.162515311424303865e-02
-2.100582827736677261e-02
9.903281007387715329e-03
4.036382208855693321e-02
6.981309023201406894e-02
9.742744441193815219e-02
1.228707632536714667e-01
1.453067117858287127e-01
1.644643853771557973e-01
1.798502280963310551e-01
1.910063397331946411e-01
1.980553458348741358e-01
2.004174978438356680e-01
1.984374331888602294e-01
1.919378452461648343e-01
1.810744548156041356e-01
1.663494841218181308e-01
1.477363907031848667e-01
1.260130946548175535e-01
1.013919894348025430e-01
7.456304055813663123e-02
4.613675757328507265e-02
1.664882031588157951e-02
-1.309210952880986156e-02
-4.260018866553598460e-02
-7.100574015148052032e-02
-9.790655439976736485e-02
-1.224858877359834286e-01
-1.443230162433567776e-01
-1.629163953709260593e-01
-1.776716880478444449e-01
-1.886079792873682770e-01
-1.950643094881539807e-01
-1.972300862589423387e-01
-1.948623162329098935e-01
-1.879571121555086433e-01
-1.769505914844729522e-01
-1.616939890149799997e-01
-1.428845263880026417e-01
-1.206744811205847645e-01
-9.564776299437763307e-02
-6.842798979251291103e-02
-3.945608577512010190e-02
-9.558881717807506118e-03
2.079494146535222632e-02
5.075352613962078041e-02
7.983630899645580148e-02
1.072517683895271995e-01
1.324867496079845386e-01
1.549995299672172200e-01
1.741250464856413105e-01
1.897695763098620758e-01
2.012079486076154000e-01
2.085037774929992815e-01
2.113170218907330644e-01
2.095154561099035473e-01
2.034282365197954967e-01
1.927780592180841635e-01
1.781646445342131013e-01
1.596308318258337078e-01
1.376481180247576264e-01
1.128019733730963731e-01
8.541975637221166373e-02
5.632733987611408810e-02
2.594793640074110480e-02
-4.888292454699613709e-03
-3.562831695999581216e-02
-6.550678065528754701e-02
-9.390506511216485663e-02
-1.202281261219315112e-01
-1.437371360841381285e-01
-1.641945491631831289e-01
-1.808127871124301511e-01
-1.935208666547649226e-01
-2.018677164928947831e-01
-2.056210104043232623e-01
-2.049909450328621652e-01
-1.996023801036638512e-01
-1.899887923486645591e-01
-1.760864779549506653e-01
-1.583082537994941752e-01
-1.372039312729408100e-01
-1.130077357730853993e-01
-8.657424668862975792e-02
-5.824556067813882465e-02
-2.884627235744025020e-02
1.041726970506924588e-03
3.072657847234645453e-02
5.950515964647459105e-02
8.683378769374597295e-02
1.119359787531577083e-01
1.345147219749693868e-01
1.538055339871620131e-01
1.696319472893687008e-01
1.815351375537815615e-01
1.891978213743635562e-01
1.927461726038083578e-01
1.917421111289703273e-01
1.866083590158091887e-01
1.771950188606476739e-01
1.637966193689593675e-01
1.468714311112186144e-01
1.265297152975687622e-01
1.035516907855358743e-01
7.816848463697473326e-02
5.112384617821148780e-02
2.296444753880400730e-02
-5.706876901809657815e-03
-3.416147805888632843e-02
-6.189832474698855891e-02
-8.811275755735308024e-02
-1.124421945804683076e-01
-1.341083689226908737e-01
-1.528091119855356228e-01
-1.680355346922432769e-01
-1.793514488315736122e-01
-1.867651280275000325e-01
-1.897530909800510812e-01
-1.886014665183248784e-01
-1.830808960726566514e-01
-1.733687274496593378e-01
-1.598476673823396310e-01
-1.425479885483237064e-01
-1.221934027698888675e-01
-9.896930915142737595e-02
-7.357247292151355977e-02
-4.655409330966305687e-02
-1.848025600803129137e-02
9.888656145194164859e-03
3.805892620496999224e-02
6.520480874415553185e-02
9.091596383355424194e-02
1.144103859838404152e-01
1.353170533839708201e-01
1.531093750549353538e-01
1.672889458957879383e-01
1.778115959631299536e-01
1.841038414783347510e-01
1.863823578935811243e-01
1.843633849497303134e-01
1.781347706081547744e-01
1.680270818867590499e-01
1.539708611325564247e-01
1.366344101919383103e-01
1.161150584926161078e-01
9.302351795022953396e-02
6.787272732240995365e-02
4.112900737067603368e-02
1.354006770307128460e-02
-1.446430029167502726e-02
-4.207916196977996848e-02
-6.888074634216462266e-02
-9.410369950603701683e-02
-1.173183789833454893e-01
-1.379736315620763709e-01
-1.554888854778007090e-01
-1.697434251245665549e-01
-1.800659159687540423e-01
-1.865657409224011354e-01
-1.888535568135239484e-01
-1.868755309951386778e-01
-1.808754880532612574e-01
-1.706359465067991410e-01
-1.567467616779157913e-01
-1.391985568687403307e-01
-1.184986382959626605e-01
-9.513430461279334671e-02
-6.947288349365245141e-02
-4.227190291465164618e-02
-1.392273717045194870e-02
1.477230474718191355e-02
4.333818803925227475e-02
7.100863196304237068e-02
9.726738749269371598e-02
1.215204176166263389e-01
1.430966689587787610e-01
1.617841429167826417e-01
1.768163250679723464e-01
1.881952548730126129e-01
1.954290748464489746e-01
1.983313367394727578e-01
1.970640352908758497e-01
1.912616830042266902e-01
1.814483320284621115e-01
1.674948369272108717e-01
1.498019181570639791e-01
1.288306177320209522e-01
1.048155361011496034e-01
7.853612359913939023e-02
5.030787622851704000e-02
2.091280496616354512e-02
-9.116288024654292665e-03
-3.906054150350232734e-02
-6.829299939668165287e-02
-9.620457193889091208e-02
-1.220469777191906247e-01
-1.454895204010645537e-01
-1.657059780724742248e-01
-1.825638099108507217e-01
-1.954751029743644619e-01
-2.041321970890241366e-01
-2.085889737622848572e-01
-2.083510499215417422e-01
-2.038690972509511479e-01
-1.948861838925093348e-01
-1.817053960071326191e-01
-1.647444021720497476e-01
-1.440953121147534322e-01
-1.205566254312103319e-01
-9.432945363275449524e-02
-6.615617849456879862e-02
-3.659254991401390822e-02
-6.254493791468002106e-03
2.414552023037012940e-02
5.405702501992505626e-02
8.270066745379191231e-02
1.096739514472337140e-01
1.341571195770654701e-01
1.559023050609964489e-01
1.742781130364514375e-01
1.888708940067895248e-01
1.996265897374672194e-01
2.059280836285368732e-01
2.081149124516249727e-01
2.057754717796593247e-01
1.990634000560804473e-01
1.882868770326683316e-01
1.733322653027267457e-01
1.549450822373624193e-01
1.331349747332671862e-01
1.085379759794967702e-01
8.166912327012845751e-02
5.297827603632637716e-02
2.323872046398099689e-02
-7.108682281159281469e-03
-3.726412118471291585e-02
-6.675486531681024127e-02
-9.478166270408069916e-02
-1.209377230999493791e-01
-1.445576202762389739e-01
-1.650818897289084708e-01
-1.823237849080054096e-01
-1.955284829814182279e-01
-2.048812973612991750e-01
-2.098233996389469169e-01
-2.103203317968919128e-01
-2.065860663740076153e-01
-1.982755247705533241e-01
-1.860923236334973696e-01
-1.698581881053397580e-01
-1.500677217678657305e-01
-1.272395881485541280e-01
-1.015811943138694440e-01
-7.395677157838077831e-02
-4.463980171395776075e-02
-1.437451403260667226e-02
1.628269104385179911e-02
4.670623674917148693e-02
7.632454823865492122e-02
1.045562391766857169e-01
1.307971578952439873e-01
1.547291788896812958e-01
1.756105519002159610e-01
1.934453594465734283e-01
2.075974578945459226e-01
2.178744557031384310e-01
2.243221797560830399e-01
2.263935353683145801e-01
2.246363984026944760e-01
2.186178026211624548e-01
2.086041866709841264e-01
1.949569638441384090e-01
1.775431403219934201e-01
1.571733406777131303e-01
1.338113054591673345e-01
1.080354504528530657e-01
8.036806658815812132e-02
5.115042185860507740e-02
2.109019629305941557e-02
-9.404241923353595656e-03
-3.970427163444728569e-02
-6.932364304309956982e-02
-9.759028939814651249e-02
-1.241981599566732153e-01
-1.484508333738824293e-01
-1.699545091879887670e-01
-1.884495821517820913e-01
-2.032505301293915378e-01
-2.145852995642720251e-01
-2.217925139639456977e-01
-2.249163049786921942e-01
-2.240416058510872888e-01
-2.188182641529649308e-01
-2.099138773157036009e-01
-1.970230895534130222e-01
-1.806313337778511774e-01
-1.611253847000885808e-01
-1.386674133068218351e-01
-1.140503816689420191e-01
-8.745609366921981709e-02
-5.958248768117532790e-02
-3.091687738597653778e-02
-2.043990170914167237e-03
2.650125031928929342e-02
5.415415249055982594e-02
8.033926906963997916e-02
1.046989918404818420e-01
1.265104959507063753e-01
1.457340340954811908e-01
1.616806606119996492e-01
1.741593551247795357e-01
1.830755072767738245e-01
1.879080265186694465e-01
1.890973680427870951e-01
1.861396852823922754e-01
1.793180442088605497e-01
1.688158352149976005e-01
1.545826668449381547e-01
1.373250590636581892e-01
1.169786191159816607e-01
9.420243441530007367e-02
6.937907368570411792e-02
4.300033042252496274e-02
1.572764666726575444e-02
-1.200654270289190639e-02
-3.944251817735197618e-02
-6.617359495036070904e-02
-9.138117898726012822e-02
-1.147606594118474321e-01
-1.356042226483426816e-01
-1.534198865471076423e-01
-1.680040071315219152e-01
-1.786349702222794211e-01
-1.855427997837887366e-01
-1.881362370400318507e-01
-1.864605963084869922e-01
-1.806604657606118991e-01
-1.704994522377556443e-01
-1.566568374007674680e-01
-1.389804101879712483e-01
-1.180406991866561062e-01
-9.427318488822916676e-02
-6.804433000659659836e-02
-4.013370264487375882e-02
-1.089749199389028478e-02
1.887648486731599573e-02
4.869813142982068466e-02
7.779904961332921587e-02
1.057215727628677548e-01
1.317845852968659581e-01
1.553961227866700878e-01
1.762652007255226527e-01
1.935984975753057835e-01
2.075004804157758453e-01
2.172817816399821300e-01
2.228315208727580377e-01
2.241904638228775504e-01
2.209084465269529618e-01
2.135917670312095229e-01
2.018646802982161370e-01
1.861341986930106218e-01
1.667530351666577371e-01
1.438251820723843721e-01
1.181594455719784387e-01
8.989532006453127000e-02
5.975303262330722287e-02
2.825803789105735264e-02
-3.972241032592083165e-03
-3.630344241529881444e-02
-6.810842319731026662e-02
-9.870419194203487734e-02
-1.276013294253663943e-01
-1.539691568891045637e-01
-1.776392573907113470e-01
-1.977834317610827064e-01
-2.141096617390839674e-01
-2.263811919152788343e-01
-2.339961964028794972e-01
-2.373430865812211632e-01
-2.358185469197180417e-01
-2.297107812804745075e-01
-2.191596520550035399e-01
-2.041382345723465885e-01
-1.854228784033954414e-01
-1.629550508285497745e-01
-1.374945631911062005e-01
-1.094939027186785929e-01
-7.952755913938297505e-02
-4.838327550528304100e-02
-1.656341454067852825e-02
1.508448308526581794e-02
4.602842500617887467e-02
7.541654662095435835e-02
1.028427700852039967e-01
1.275335224336207329e-01
1.490083500400880001e-01
1.669190550204359691e-01
1.806238977223572073e-01
1.902854705133315560e-01
1.952820008557931697e-01
1.957702778151771961e-01
1.917338516950258809e-01
1.831216046955893573e-01
1.705506494894656333e-01
1.538891409666260923e-01
1.338758582524900431e-01
1.108044667276785744e-01
8.528743969923680002e-02
5.806007422439268817e-02
2.956174631172941991e-02
7.552207200610672189e-04
-2.792984060977110605e-02
-5.551475981943314320e-02
-8.153840077095304839e-02
-1.052359595053544844e-01
-1.259218612875000476e-01
-1.432881601688749673e-01
-1.565286708557875606e-01
-1.657147078074348578e-01
-1.702149488131831090e-01
-1.700054729102879469e-01
-1.651072406275198579e-01
-1.553690280164828352e-01
-1.413707855065325925e-01
-1.230204974340696200e-01
-1.009919889876964016e-01
-7.565524591285710532e-02
-4.764295325658851610e-02
-1.771951465841253848e-02
1.357446887426699833e-02
4.523691332756435424e-02
7.676103715714321929e-02
1.070601050162270640e-01
1.356559375119393285e-01
1.616659085499591586e-01
1.843395941262490900e-01
2.033586565934664692e-01
2.177788591532289764e-01
2.277382662610815678e-01
2.325021986036999999e-01
2.320043872232502580e-01
2.263374496053479623e-01
2.152024841510020714e-01
1.993198178174903912e-01
1.785063288544939675e-01
1.534033027005361205e-01
1.245008442062127685e-01
9.227981514905456151e-02
5.765836981715913301e-02
2.111777449232027370e-02
-1.637887120013947762e-02
-5.417263246268097521e-02
-9.128654427130496185e-02
-1.271129555988039783e-01
-1.607292560707263007e-01
-1.914111070739039078e-01
-2.186454287633627369e-01
-2.414917243564328464e-01
-2.599981826622629888e-01
-2.732499099730889558e-01
-2.811833509727606484e-01
-2.836807564556430572e-01
-2.803408095877144568e-01
-2.718670433746255277e-01
-2.578119622366040198e-01
-2.388281938865234322e-01
-2.152550117629984106e-01
-1.874358283847340767e-01
-1.563720243570854151e-01
-1.223066010746965138e-01
-8.625450548226430703e-02
-4.883881187632729132e-02
-1.094047754733770694e-02
2.667369438373584645e-02
6.320459364583222439e-02
9.783916089121336146e-02
1.299826341473740432e-01
1.587073092104827055e-01
1.838833906910936622e-01
2.045647170353112609e-01
2.205885280643839486e-01
2.316648198059667041e-01
2.373171472697938045e-01
2.381004848260870332e-01
2.333907453191071124e-01
2.237644944315179130e-01
2.093407675859889072e-01
1.903393005347481792e-01
1.676861860935303650e-01
1.413722361957222007e-01
1.124133889930793301e-01
8.123720090167903252e-02
4.864505071584628026e-02
1.544063891581717862e-02
-1.778460463460007634e-02
-5.009205498380728261e-02
-8.099044979496125563e-02
-1.094992979074012607e-01
-1.353599072640770951e-01
-1.576938893984624612e-01
-1.761103748672260272e-01
-1.903302003076500770e-01
-1.996790314511083797e-01
-2.045878498725282324e-01
-2.043435205253566478e-01
-1.992841475102250237e-01
-1.895037712043565470e-01
-1.749477399710947512e-01
-1.565171118774439374e-01
-1.340137571254301774e-01
-1.082972167072977221e-01
-7.978425353885515436e-02
-4.902754620292937293e-02
-1.691747197126935998e-02
1.615004630924798956e-02
4.926815401659284666e-02
8.192528605921695073e-02
1.132580816634663479e-01
1.428640236723815460e-01
1.699480285782993261e-01
1.940166418971315254e-01
2.147230373090234790e-01
2.312866244204995758e-01
2.439962878125832568e-01
2.520082195602112440e-01
2.554429629617284148e-01
2.542753420952509336e-01
2.481158847788880739e-01
2.377848677820625922e-01
2.227564632835644376e-01
2.036461737090669022e-01
1.807645230959337157e-01
1.542420241183263818e-01
1.250284417513670698e-01
9.316687893403718945e-02
5.943830582377163108e-02
2.438316610314505972e-02
-1.142256361776172735e-02
-4.732338220811072027e-02
-8.268241601371462135e-02
-1.169169842900976697e-01
-1.494388930960068307e-01
-1.794744424363485247e-01
-2.069220438859859512e-01
-2.307945641786228186e-01
-2.509627757948365012e-01
-2.670081632034062569e-01
-2.783076171742092653e-01
-2.853398416577700991e-01
-2.872105677742911034e-01
-2.843184507605295286e-01
-2.766039338441937945e-01
-2.639065316910649273e-01
-2.470877050312941525e-01
-2.257774247924581867e-01
-2.007532448934223335e-01
-1.723631492583153069e-01
-1.410050770577894186e-01
-1.075563426255615740e-01
-7.234659549705119153e-02
-3.618828410916252736e-02
3.120257271703730240e-04
3.639222142514969560e-02
7.154684881627704218e-02
1.049150292182537969e-01
1.360337768711386008e-01
1.643064106800102564e-01
1.889880287532740011e-01
2.101609194061722918e-01
2.268430613809986063e-01
2.391499905972820361e-01
2.467419946508757622e-01
2.492632153855436350e-01
2.473224424787112408e-01
2.402674994129641028e-01
2.287548518710801337e-01
2.128244742573084936e-01
1.926964745885123009e-01
1.692161124627913071e-01
1.423552588933372498e-01
1.130338258964904141e-01
8.163801683212165705e-02
4.888038177954451974e-02
1.547224275115489586e-02
-1.798991084162967005e-02
-5.072096582515798341e-02
-8.217162586589935036e-02
-1.114744714769855122e-01
-1.383584930768889942e-01
-1.619211963809809030e-01
-1.818759981944234050e-01
-1.977882284389136935e-01
-2.090836749727532085e-01
-2.160575786226112127e-01
-2.179868606415815702e-01
-2.152398772294238094e-01
-2.077320364485429338e-01
-1.954968960407860445e-01
-1.792658666993503236e-01
-1.588720547811212358e-01
-1.351736223666763770e-01
-1.084792954820480437e-01
-7.941081527294210907e-02
-4.877697550276050009e-02
-1.701656177626834077e-02
1.495953731075784499e-02
4.663390867957301067e-02
7.714728193619868613e-02
1.060250787651751958e-01
1.324994996076762077e-01
1.560772500833242649e-01
1.763168452395278973e-01
1.925825852183874753e-01
2.049616380482839895e-01
2.127719670680048303e-01
2.161735886396006223e-01
2.150190059882687299e-01
2.092110508975115191e-01
1.993266615609100567e-01
1.851097888110622702e-01
1.672628324861483995e-01
1.459923803869991321e-01
1.217643507178294005e-01
9.533133887002462337e-02
6.697815328298509230e-02
3.756579047718031084e-02
7.543543116182466202e-03
-2.231985653824239413e-02
-5.148466105334911780e-02
-7.928048689743126543e-02
-1.051382249670929775e-01
-1.285898086053595957e-01
-1.489647482885045893e-01
-1.662014207617473760e-01
-1.795873426733938794e-01
-1.891293746470211479e-01
-1.945678976772687307e-01
-1.956687443012147254e-01
-1.928576281123362823e-01
-1.857392851265318445e-01
-1.748709450006592503e-01
-1.603141852185712146e-01
-1.423771815471212010e-01
-1.217194956075490775e-01
-9.845515457806874871e-02
-7.337819665701300620e-02
-4.681614661761096530e-02
-1.945600319140378121e-02
8.173916293501504171e-03
3.550380702952776746e-02
6.191078399268595822e-02
8.696832988692854149e-02
1.099349343847484950e-01
1.306719534585097375e-01
1.484146241359665941e-01
1.629934704379356891e-01
1.740751462311717901e-01
1.812011104429107899e-01
1.846584760577462125e-01
1.838560247689199345e-01
1.791299114896127698e-01
1.703986724900717342e-01
1.577123720988591882e-01
1.416267713849219401e-01
1.220486565062439410e-01
9.965732699693960472e-02
7.469533732236988133e-02
4.773661152293739995e-02
1.935350034309646361e-02
-9.946003446090811995e-03
-3.944415436415915632e-02
-6.865253680668481628e-02
-9.671898749631091530e-02
-1.233156699184743688e-01
-1.475616278771881840e-01
-1.690495288856052603e-01
-1.872893561071246049e-01
-2.015854071653884749e-01
-2.120398576860862694e-01
-2.178723201137440224e-01
-2.192269100734369480e-01
-2.159056700569063625e-01
-2.077638950263003548e-01
-1.953353005340325022e-01
-1.783814219208078311e-01
-1.575675281246577686e-01
-1.331333553885085119e-01
-1.055820513226066043e-01
-7.563940257732203187e-02
-4.374052939960916542e-02
-1.073119585461378145e-02
2.282657260204225269e-02
5.606383934041302142e-02
8.844564116175424040e-02
1.191073444842368351e-01
1.474958882584760933e-01
1.730221225267740692e-01
1.949325490162997498e-01
2.131772191719790710e-01
2.269082076823050187e-01
2.361790760779187703e-01
2.406595679947220179e-01
2.401032290364406019e-01
2.349723214307997410e-01
2.248425235174444925e-01
2.103515576798108688e-01
1.915721977254945529e-01
1.688742149117015146e-01
1.429954341368895321e-01
1.141249976457934662e-01
8.315498566756548970e-02
5.052082747797315837e-02
1.700331589997438470e-02
-1.674631165091736498e-02
-5.002781525793042333e-02
-8.214958374986554290e-02
-1.125126416869101503e-01
-1.403289231695956374e-01
-1.653422631697788192e-01
-1.866884860733570017e-01
-2.042283153805477536e-01
-2.174791511128866262e-01
-2.260518026210564524e-01
-2.302052700390705975e-01
-2.293461281847303246e-01
-2.239671948502583443e-01
-2.139370216987627193e-01
-1.994696110448028192e-01
-1.812069176181211050e-01
-1.591202836171911050e-01
-1.340855300795029681e-01
-1.063739945808085952e-01
-7.668451614076915446e-02
-4.570480388283018613e-02
-1.396303909215517586e-02
1.773767528960348491e-02
4.888021071726862676e-02
7.864939298854300986e-02
1.066625548695738779e-01
1.321167230279045590e-01
1.546806715167738377e-01
1.738471462585066685e-01
1.890899136109213119e-01
2.004909604451827199e-01
2.073711431536068295e-01
2.100024788242679241e-01
2.081138637552439330e-01
2.017173692340042401e-01
1.912703471503883201e-01
1.765583277359401015e-01
1.582928593370906412e-01
1.365638139482078517e-01
1.119280687904308236e-01
8.497618429939773899e-02
5.609800872652598303e-02
2.610335335859449712e-02
-4.576755635765067387e-03
-3.507989790320827084e-02
-6.495315107921420528e-02
-9.336420537303954936e-02
-1.197813560440462721e-01
-1.436316651150508217e-01
-1.641652011504963760e-01
-1.812826180610024318e-01
-1.941443552821404128e-01
-2.027680154782514066e-01
-2.067565766387135517e-01
-2.058853950270598809e-01
-2.004837860817855200e-01
-1.901883380981860272e-01
-1.755900058283089149e-01
-1.567188789959316209e-01
-1.340366611831270149e-01
-1.081620605347774766e-01
-7.943691423125069651e-02
-4.873992280259929755e-02
-1.653100679976257648e-02
1.626961363632545288e-02
4.908173920890707143e-02
8.103922853651995828e-02
1.114556050768585882e-01
1.397010701197834992e-01
1.648987208104071289e-01
1.868473059429702765e-01
2.046245371721796547e-01
2.181318338608194685e-01
2.269168778254025964e-01
2.306144009783550608e-01
2.295388477919487746e-01
2.231822574697097106e-01
2.121021880938557813e-01
1.962593657179156348e-01
1.759717648469259488e-01
1.519231132527010253e-01
1.242560793683425702e-01
9.388764699113300027e-02
6.121201746233395635e-02
2.703253302385733026e-02
-7.944670566247813426e-03
-4.301862037034487329e-02
-7.741123227839852294e-02
-1.104858739510466981e-01
-1.413937592260275933e-01
-1.697729275673622862e-01
-1.947148017040499779e-01
-2.160067751319867391e-01
-2.330718329969548863e-01
-2.454484583035386747e-01
-2.533144374290017264e-01
-2.559774769137191930e-01
-2.539118271865180576e-01
-2.468664934310735859e-01
-2.349679962963882041e-01
-2.188525483147568118e-01
-1.983379336100992985e-01
-1.743315009741608634e-01
-1.470088055442933528e-01
-1.169647368235272322e-01
-8.496881071627565563e-02
-5.138939612356963060e-02
-1.707977607011923471e-02
1.745458268422417358e-02
5.148594268769290938e-02
8.449093440683563827e-02
1.157340651155142064e-01
1.448438518370783745e-01
1.711936956487909445e-01
1.942607531715045965e-01
2.139826342981175911e-01
2.295560364022962707e-01
2.412326602931894604e-01
2.484935341402162989e-01
2.512153293915974084e-01
2.497689711118518674e-01
2.436027583233566496e-01
2.334279608614024948e-01
2.190310779091871329e-01
2.007139512636615941e-01
1.790865266233012953e-01
1.540969886922538001e-01
1.265873004679714531e-01
9.676574584020357361e-02
6.524329934441375212e-02
3.262671386735321866e-02
-5.736572324476219009e-04
-3.372412063371044155e-02
-6.624084589912443422e-02
-9.744307731294707398e-02
-1.269491463345514548e-01
-1.538982929887606210e-01
-1.781171702451069261e-01
-1.988950736616310888e-01
-2.157945587731784631e-01
-2.288143649121924528e-01
-2.371700502525475596e-01
-2.412381201135413433e-01
-2.405318644823392360e-01
-2.351061141338903482e-01
-2.253564612549515400e-01
-2.109889786954511903e-01
-1.927910096071748514e-01
-1.707468920591774242e-01
-1.454208673670393248e-01
-1.174316106004145988e-01
-8.712638147072661321e-02
-5.535213881493372678e-02
-2.255618061681748110e-02
1.045162903214270564e-02
4.312696265168367016e-02
7.467457733962920563e-02
1.045881344261392898e-01
1.321941133613201702e-01
1.568411668987608754e-01
1.783103041383300724e-01
1.957708506808670812e-01
2.092917033953464734e-01
2.183000988216924898e-01
2.226358932384830402e-01
2.224866995910076695e-01
2.174144222806696503e-01
2.080252091343174903e-01
1.941243475172949318e-01
1.761479029031882970e-01
1.545870730929726766e-01
1.296385946683407953e-01
1.021602056544487491e-01
7.243801105560371267e-02
4.131757007672626214e-02
9.355485676877078882e-03
-2.269782513642702726e-02
-5.414483787958325467e-02
-8.436073022388416998e-02
-1.125035304918124979e-01
-1.382294094909808924e-01
-1.606233554598899826e-01
-1.795014230892207352e-01
-1.942365027513622278e-01
-2.044353499657041440e-01
-2.101561967250133445e-01
-2.108209811394291533e-01
-2.068695452908376753e-01
-1.980219003256838417e-01
-1.845617611908764166e-01
-1.669296756054809427e-01
-1.452092483866420092e-01
-1.202406954606615175e-01
-9.224362455359794155e-02
-6.203963127883094231e-02
-3.021197646066817177e-02
2.532223719512435856e-03
3.540173327288171495e-02
6.779675551335319350e-02
9.878640179148903688e-02
1.279602448768822343e-01
1.543522526861590971e-01
1.776393007700186044e-01
1.971515509359699769e-01
2.123297584074658739e-01
2.231513046165694014e-01
2.288893117500351293e-01
2.298568363131160974e-01
2.256625988144331241e-01
2.164079295953664217e-01
2.024763514649717266e-01
1.837644411036934433e-01
1.610644574193000333e-01
1.344879158691178467e-01
1.047515763499538566e-01
7.247298847931213372e-02
3.824648573746861069e-02
2.946500674169544309e-03
-3.283328127158426091e-02
-6.812720434172397921e-02
-1.023751576267649122e-01
-1.345837937313602573e-01
-1.642547745949325400e-01
-1.906044193918894347e-01
-2.129434589801501021e-01
-2.310655901227441911e-01
-2.441175870687032345e-01
-2.522736426457777847e-01
-2.549845518661781885e-01
-2.522376310043272785e-01
-2.443158179117663753e-01
-2.309758179231066189e-01
-2.130041955559573985e-01
-1.903826047709314961e-01
-1.637911326397602507e-01
-1.338589541973073671e-01
-1.010669617372556006e-01
-6.638955932885592937e-02
-3.033113644363601147e-02
6.123654648861248662e-03
4.234592309385147579e-02
7.741308877016120360e-02
1.107021193591993247e-01
1.414561965531715426e-01
1.689282958047545469e-01
1.928126024598192378e-01
2.122293164337617499e-01
2.272330114567587822e-01
2.371782251296913335e-01
2.419412311580015906e-01
2.416635650766226773e-01
2.359454486497132297e-01
2.254722933468267243e-01
2.100113590680617870e-01
1.901174940968588523e-01
1.662838274094068369e-01
1.387906920684114365e-01
1.085952128996486854e-01
7.599551757660136242e-02
4.194498647814560999e-02
7.042091352777054419e-03
-2.788608692978058329e-02
-6.209254270630121253e-02
-9.488637291313586908e-02
-1.253963967974996152e-01
-1.532134048750282418e-01
-1.773854412370675648e-01
-1.977573205875193252e-01
-2.136034888072664839e-01
-2.245911034451456012e-01
-2.307222558368817178e-01
-2.314288759672690210e-01
-2.272444499139080754e-01
-2.178049096913595717e-01
-2.035018618731286311e-01
-1.847652059625765342e-01
-1.617129632996949784e-01
-1.352934520257701445e-01
-1.056916985598481129e-01
-7.380600489941993581e-02
-4.025851744426835188e-02
-5.768193157750609035e-03
2.882041232130977404e-02
6.289226492280072800e-02
9.553620082088357113e-02
1.262799182363786576e-01
1.541937284283768639e-01
1.789886666870533771e-01
1.999388358010986688e-01
2.165898465632057901e-01
2.288528500743868821e-01
2.360512806873360236e-01
2.385807123008621133e-01
2.359533198796948672e-01
2.283759290663447961e-01
2.161627038663934131e-01
1.992116125089821721e-01
1.783716044563185832e-01
1.536302951613970069e-01
1.257269852978855351e-01
9.521667510282859348e-02
6.262044423399978910e-02
2.880579730885650391e-02
-5.735585829428915816e-03
-4.010628174258165646e-02
-7.376007389935060332e-02
-1.058045147000230835e-01
-1.357730696173496676e-01
-1.628909756996176905e-01
-1.865540389220359252e-01
-2.064723904723583248e-01
-2.218424149561274428e-01
-2.328270963215322009e-01
-2.387663015939310851e-01
-2.396759269120138092e-01
-2.356721403678868898e-01
-2.264823055957395637e-01
-2.128305875127143587e-01
-1.945317586315243874e-01
-1.722392594578249503e-01
-1.464292139280169436e-01
-1.175161247192512415e-01
-8.642516933111629718e-02
-5.354059547242831507e-02
-1.981506404469390858e-02
1.416157771110518326e-02
4.752692059399102331e-02
7.963459385110430166e-02
1.097558297629540047e-01
1.371556480769907105e-01
1.614358461850074200e-01
1.817731865724350748e-01
1.981302337763700683e-01
2.098293055342460578e-01
2.167526963283313290e-01
2.188826253950848510e-01
2.158883726622652655e-01
2.083468483846749320e-01
1.959843525845715861e-01
1.793708341605378953e-01
1.588608415555000097e-01
1.347983027245391596e-01
1.080688680564801107e-01
7.893984636932245558e-02
4.837434705099893928e-02
1.690773519829927990e-02
-1.463031015465430379e-02
-4.551014738262921383e-02
-7.508190845944207048e-02
-1.025075029765949441e-01
-1.273648327655220180e-01
-1.488061854564848852e-01
-1.666559609440550760e-01
-1.802598490691904309e-01
-1.893727008090517749e-01
-1.939343032848055148e-01
-1.935619470598881064e-01
-1.887422604133259241e-01
-1.791919279317104596e-01
-1.653958832633799780e-01
-1.476934693306359292e-01
-1.263701767189262526e-01
-1.022910907474304798e-01
-7.567978608295969356e-02
-4.745238534142834363e-02
-1.812287366380434250e-02
1.154674532128902031e-02
4.084097636503808415e-02
6.918736843527201197e-02
9.577611428207349897e-02
1.202425864209082929e-01
1.417699617839245363e-01
1.602116215419054912e-01
1.749485715190411961e-01
1.856962004494137342e-01
1.924290557641948340e-01
1.946624320052464108e-01
1.928642886845536863e-01
1.866508099583029101e-01
1.763455553045659707e-01
1.622362251876390271e-01
1.443658338555260379e-01
1.235126580171094779e-01
9.970841835512816997e-02
7.366424740846488906e-02
4.582346682749993683e-02
1.673366333687972829e-02
-1.293761102850954359e-02
-4.270980502890558972e-02
-7.184022066245404625e-02
-9.991353295934334022e-02
-1.261033477708329020e-01
-1.501708425971523819e-01
-1.713627959918739285e-01
-1.892506670552739911e-01
-2.036243688115268458e-01
-2.137632431658701426e-01
-2.199724806734753568e-01
-2.215964807962884919e-01
-2.187394291893550724e-01
-2.115242421938139938e-01
-1.997180321441042461e-01
-1.840433499434368514e-01
-1.643126711367158266e-01
-1.411339986473999775e-01
-1.149433391931329318e-01
-8.614114515515119974e-02
-5.552274278513105732e-02
-2.349607602096950854e-02
9.129947169937729923e-03
4.180771383545839326e-02
7.370298542133216224e-02
1.043592726958843531e-01
1.329693478214025171e-01
1.589525142859681550e-01
1.819255725743045560e-01
2.010513715927989553e-01
2.164645604332535167e-01
2.273537405806891065e-01
2.336797300566813562e-01
2.354098722676795097e-01
2.321241310222645071e-01
2.244934083428637150e-01
2.120877682631220340e-01
1.954385776419209075e-01
1.748726538797021057e-01
1.505920125697427503e-01
1.234788275860142781e-01
9.369234829463950198e-02
6.207653529693796246e-02
2.916573544551318703e-02
-4.314960654414459751e-03
-3.770008523660908079e-02
-7.030916446135133946e-02
-1.014059492262770479e-01
-1.304974601802299516e-01
-1.566982046940592621e-01
-1.798926817575172143e-01
-1.992076877809791924e-01
-2.143961778725911871e-01
-2.252478545463690862e-01
-2.311685123086368865e-01
-2.326673415171394699e-01
-2.291126037300598717e-01
-2.208897570864716831e-01
-2.081810747216216173e-01
-1.909886911843261537e-01
-1.702028783652696220e-01
-1.457436298362011495e-01
-1.184376668705650337e-01
-8.875892423720094238e-02
-5.729355359544069382e-02
-2.485048262030994243e-02
8.076534185207297212e-03
4.065227800916634826e-02
7.236649301545880486e-02
1.023563368582494915e-01
1.303127796471531263e-01
1.554159844385596401e-01
1.772396946009109353e-01
1.954780778453741319e-01
2.094119332794129873e-01
2.193580321993290339e-01
2.245558804584823487e-01
2.251737553404393744e-01
2.212219733788568510e-01
2.124732118307834372e-01
1.996660878088943880e-01
1.824748373695947723e-01
1.615670167963755566e-01
1.372474066674426452e-01
1.099238258337918023e-01
8.037712407011107785e-02
4.892358553773092089e-02
1.642920891953859874e-02
-1.662810452354532287e-02
-4.934916343048170728e-02
-8.126929291746168293e-02
-1.115327663280714088e-01
-1.394666674056816991e-01
-1.646247337303666791e-01
-1.860443093534298042e-01
-2.037889602944510936e-01
-2.168992962814031977e-01
-2.252452268222689957e-01
-2.286543615440591870e-01
-2.266421777662970261e-01
-2.197949766163820873e-01
-2.076078093523260615e-01
-1.906214830877961397e-01
-1.690763782981685726e-01
-1.432971804243223235e-01
-1.141325410807732393e-01
-8.185672116528733278e-02
-4.745251473932979303e-02
-1.147563363726078478e-02
2.506871785439007683e-02
6.150513797828494056e-02
9.691175894712067418e-02
1.303803315181619182e-01
1.613472544960348198e-01
1.886728931814709020e-01
2.122423203427843408e-01
2.310000507771565181e-01
2.446324621442854119e-01
2.529007892172731031e-01
2.551712463843888168e-01
2.519958312176094339e-01
2.427713079386054351e-01
2.279864957760749655e-01
2.078852956719112743e-01
1.826972472982870688e-01
1.533884620969294676e-01
1.201376771141322020e-01
8.399371764925833705e-02
4.557530062442566310e-02
5.844929553734279359e-03
-3.431876488283081006e-02
-7.405913746444947598e-02
-1.123508741787773157e-01
-1.485300821763514412e-01
-1.814497968496237013e-01
-2.108146859584404398e-01
-2.355623627782148510e-01
-2.552859702657769292e-01
-2.696424126342462091e-01
-2.779362958718748500e-01
-2.806503590725885067e-01
-2.770750846542225365e-01
-2.676636146284142037e-01
-2.525781228342220408e-01
-2.319288353277788872e-01
-2.067347635485324298e-01
-1.769824111050586346e-01
-1.437251816573133778e-01
-1.075310201787745557e-01
-6.920790416595251626e-02
-2.975406637428656964e-02
1.018150770788051052e-02
4.955049588792359572e-02
8.769400194121945713e-02
1.235783040370501684e-01
1.567729819238148359e-01
1.863167527167734483e-01
2.117429542731353864e-01
2.326278628025764128e-01
2.482488408741400643e-01
2.589491345947823042e-01
2.639143894035637095e-01
2.634755971811133524e-01
2.576097308702572919e-01
2.462334285581065929e-01
2.302383478767780212e-01
2.093242033446188199e-01
1.844050776036815220e-01
1.558294840999722708e-01
1.241596425319272112e-01
9.035617410379867542e-02
5.476874737017009553e-02
1.841746571933406545e-02
-1.814728315540699299e-02
-5.400042115498121520e-02
-8.857267277493269253e-02
-1.210251331659267238e-01
-1.507210399580983240e-01
-1.771528550189055695e-01
-1.994818184079471535e-01
-2.177769277858382924e-01
-2.311281800703628153e-01
-2.395818040668138416e-01
-2.429207353694433635e-01
-2.408191305960943329e-01
-2.339405163377973884e-01
-2.217836323243442265e-01
-2.050568653709453626e-01
-1.839579208520984999e-01
-1.588475090684575985e-01
-1.306570350302559691e-01
-9.955114576258404513e-02
-6.654048809208845672e-02
-3.213456839316182478e-02
2.819438226716019721e-03
3.759495904029211411e-02
7.147632951554594438e-02
1.036755079875113644e-01
1.336477984750593095e-01
1.605154113487598788e-01
1.841219232058159128e-01
2.035920181109620586e-01
2.187568527395001849e-01
2.293128083621795432e-01
2.347972628988846122e-01
2.356794210988460980e-01
2.313651567473893611e-01
2.223642808377082059e-01
2.087480540156541609e-01
1.906808593418209685e-01
1.689934913439790909e-01
1.436563878062909194e-01
1.155750543485926374e-01
8.514859799208271407e-02
5.306582968693335234e-02
2.009634994645354694e-02
-1.321816280563623686e-02
-4.603927698405594487e-02
-7.783161122199772075e-02
-1.077361756830959444e-01
-1.354137455326105688e-01
-1.600262203613320999e-01
-1.812169453725014368e-01
-1.985697052309632893e-01
-2.114914460516506556e-01
-2.202232048677535969e-01
-2.240604789895165316e-01
-2.232996163882939866e-01
-2.178482545110804747e-01
-2.076838529580872228e-01
-1.934920502712484391e-01
-1.750674180156521209e-01
-1.532014498870557517e-01
-1.281680662171801877e-01
-1.005260359735651865e-01
-7.104468039074010588e-02
-4.011779391120590121e-02
-8.618467136443874743e-03
2.296457841617444151e-02
5.378458666565527624e-02
8.338717745623761002e-02
1.109913263041680809e-01
1.360865837398030631e-01
1.582178664291437609e-01
1.766797835835398622e-01
1.915408924695156667e-01
2.020281820519150007e-01
2.082277525566658682e-01
2.099261929050734721e-01
2.069071669102038880e-01
1.996882849740082011e-01
1.878975865605457263e-01
1.721549167660944013e-01
1.525872599124489248e-01
1.295894250450685958e-01
1.038580319876173386e-01
7.563822878284456874e-02
4.578567820937071153e-02
1.472672627374937981e-02
-1.669913711622586505e-02
-4.794391545496036466e-02
-7.824021266424720233e-02
-1.069053229960802570e-01
-1.334111282871223714e-01
-1.568893267539660796e-01
-1.772083093838142387e-01
-1.934835107176655633e-01
-2.055628881305565925e-01
-2.131111809118828859e-01
-2.157105833071596146e-01
-2.137414164825626461e-01
-2.067068139981932673e-01
-1.950990704594202374e-01
-1.789900234690030567e-01
-1.586644333018006059e-01
-1.348428619358767733e-01
-1.076983709381400256e-01
-7.812025280713991160e-02
-4.655589895819069179e-02
-1.383768583728042789e-02
1.935968480281000798e-02
5.230007496555039159e-02
8.418598553717121513e-02
1.144452443966386262e-01
1.421581364076850984e-01
1.670682529265049010e-01
1.882760266605315036e-01
2.055140016481344922e-01
2.183874388718378690e-01
2.263780693959249746e-01
2.297867604300990740e-01
2.280118021447397059e-01
2.214568192309522288e-01
2.100992420772137548e-01
1.940797264145852352e-01
1.740966103742883075e-01
1.501428552625846680e-01
1.230737174452218863e-01
9.324979063878970076e-02
6.138214264346013999e-02
2.821160766871848649e-02
-5.672968871968019078e-03
-3.941417465955256161e-02
-7.243633618430539434e-02
-1.038358943884052921e-01
-1.332000459085973254e-01
-1.596451818739173800e-01
-1.827653135486934921e-01
-2.020538592246010623e-01
-2.168951738785796501e-01
-2.274199445426205723e-01
-2.329094138216003251e-01
-2.336343470984971749e-01
-2.294185345871093962e-01
-2.202585413300744421e-01
-2.067692682580342667e-01
-1.887615149614297883e-01
-1.670435272817959449e-01
-1.418542744638777442e-01
-1.137859782934257519e-01
-8.361654573607148200e-02
-5.175772672387160545e-02
-1.911827858494268007e-02
1.378586527949363094e-02
4.610425091478159709e-02
7.730489602911788660e-02
1.066122585629460939e-01
1.335009343610411292e-01
1.574437839080446433e-01
1.777823365348546458e-01
1.944903576652224908e-01
2.068219888044660060e-01
2.148910463909620705e-01
2.184008393891019306e-01
2.172034636772848526e-01
2.117565756244105535e-01
2.016993379491984206e-01
1.876975563211259745e-01
1.698059800141108466e-01
1.484410509692252189e-01
1.242886489095701291e-01
9.754248396581510772e-02
6.907019380899349914e-02
3.924529978072047176e-02
8.834373117405314169e-03
-2.158888382588430854e-02
-5.137234941655488552e-02
-7.987443362450508122e-02
-1.065794795246687299e-01
-1.307512012303805315e-01
-1.521930200803330857e-01
-1.701247997409190416e-01
-1.844353427995373829e-01
-1.947191534076559982e-01
-2.006422509843283630e-01
-2.024627575845007743e-01
-1.996835136571272762e-01
-1.927688393770597419e-01
-1.816330697053429311e-01
-1.665250931523311051e-01
-1.480168801878387896e-01
-1.261654825792588586e-01
-1.017727161978018435e-01
-7.511974075927602135e-02
-4.692006805433968086e-02
-1.776622010397300305e-02
1.175649723545367509e-02
4.091392963613711686e-02
6.920339680245485292e-02
9.581079508458378857e-02
1.204158586417981569e-01
1.422164924458263480e-01
1.609116968245837831e-01
1.760378973442624506e-01
1.871068274559459788e-01
1.942184766955034614e-01
1.967910266479742099e-01
1.951051358289266902e-01
1.889838904670146924e-01
1.785366461414419903e-01
1.642248351796869732e-01
1.460181753645513059e-01
1.246391118763980066e-01
1.003042951452719211e-01
7.368570155020866264e-02
4.537393758334691551e-02
1.592633757421125715e-02
-1.385885148107179193e-02
-4.347320344263214120e-02
-7.202759980709939891e-02
-9.910252730845757474e-02
-1.238527634079692741e-01
-1.458263282925752191e-01
-1.644997128174602030e-01
-1.792578248221580739e-01
-1.900815791165903212e-01
-1.963198921173569533e-01
-1.981280087936074519e-01
-1.952711185180269482e-01
-1.877695639246965142e-01
-1.760324868594078662e-01
-1.599823778451545386e-01
-1.403168992236325796e-01
-1.172319535480937647e-01
-9.138572162423835854e-02
-6.340159374873477471e-02
-3.381806916633178783e-02
-3.494050518172968356e-03
2.705667230263562525e-02
5.691184567843455416e-02
8.558119210278450351e-02
1.122260539107485522e-01
1.363128990683533937e-01
1.573033708168529166e-01
1.745379275999758284e-01
1.879347027716769536e-01
1.968280979729706281e-01
2.013129929644192906e-01
2.011206466246879265e-01
1.962202227211703454e-01
1.869829834538329627e-01
1.732746666684787662e-01
1.557665404753608429e-01
1.346009793583238245e-01
1.103818979198722128e-01
8.373540601236736935e-02
5.511765782440954109e-02
2.540474931986493046e-02
-4.927676564510624635e-03
-3.499096218541630776e-02
-6.424090910859697745e-02
-9.189924462973873831e-02
-1.173785384061808712e-01
-1.401338854439847792e-01
-1.595036788476080769e-01
-1.753290285192163345e-01
-1.869532546198595102e-01
-1.944159726491070384e-01
-1.974050849652572992e-01
-1.958582396578932849e-01
-1.900893504597120642e-01
-1.799172174930938062e-01
-1.659779434207631910e-01
-1.483456131145392543e-01
-1.275652547734979492e-01
-1.042260000221279653e-01
-7.868620768585900260e-02
-5.179161286634779982e-02
-2.392822087097888628e-02
4.090408854073371292e-03
3.175328514154170112e-02
5.838604651503644105e-02
8.342060233440065642e-02
1.063772489418106648e-01
1.266221084340587999e-01
1.439912106722588958e-01
1.578426441750065967e-01
1.681683412657145882e-01
1.746184349713242046e-01
1.770425292594092759e-01
1.756646650879756522e-01
1.701837930635463625e-01
1.611078181544729482e-01
1.483711736396821079e-01
1.323574797908053102e-01
1.135260856755267445e-01
9.207466770488206831e-02
6.873613795657934622e-02
4.377142668850417251e-02
1.790484310715667604e-02
-8.408758470157318143e-03
-3.454541434792399168e-02
-5.992121551982643179e-02
-8.405833958349592794e-02
-1.062425349707466216e-01
-1.262456670928915892e-01
-1.433182667403559707e-01
-1.573137513127197962e-01
-1.677804905997914986e-01
-1.743743536365701674e-01
-1.772157853571869335e-01
-1.758305719077574159e-01
-1.705882602689284822e-01
-1.613253178781982600e-01
-1.482591653973195922e-01
-1.318166281182155952e-01
-1.120744610518072948e-01
-8.973491937625110992e-02
-6.503670423426421987e-02
-3.865669779363056779e-02
-1.111595623217009887e-02
1.698185472779889515e-02
4.497334186578860749e-02
7.233303185500056243e-02
9.828182417018505035e-02
1.224850842821791908e-01
1.441284121895585191e-01
1.629517154923175448e-01
1.784217082065860382e-01
1.900748795930821966e-01
1.979511261792682442e-01
2.014544253484542025e-01
2.008751068558596309e-01
1.959519243483931472e-01
1.867795305295023578e-01
1.737525217479493067e-01
1.568012155948649289e-01
1.366088290945990380e-01
1.133229136022583239e-01
8.753996861429125254e-02
5.980485565252791069e-02
3.061549005164143633e-02
6.884454084775670779e-04
-2.947564252180823186e-02
-5.908648333753452331e-02
-8.771016919145585566e-02
-1.145222039884365439e-01
-1.391361426186014383e-01
-1.609246056655510571e-01
-1.793129250517247475e-01
-1.941754436434947051e-01
-2.047864622007104507e-01
-2.112888991101061209e-01
-2.132422491293103350e-01
-2.106086667811355451e-01
-2.036305927692905193e-01
-1.920874549537761045e-01
-1.765977394435680470e-01
-1.571566418742740279e-01
-1.343236688320817995e-01
-1.086032034300652427e-01
-8.043290625227594859e-02
-5.061337325609749360e-02
-1.960329320101661388e-02
1.170800620080503229e-02
4.279716057495330794e-02
7.279181188920824663e-02
1.011204787323818355e-01
1.271031182324474929e-01
1.500066865416737061e-01
1.695639621092181470e-01
1.849652139301118658e-01
1.961898981360982452e-01
2.027206311981736286e-01
2.044165011788980912e-01
2.014211314485076509e-01
1.934661207517295312e-01
1.811224618582835122e-01
1.643324278398881066e-01
1.436638369717030406e-01
1.196039088853201315e-01
9.259345568494048440e-02
6.350394874731046801e-02
3.276654543086787719e-02
1.359799604130185191e-03
-3.015652954579262079e-02
-6.088521140114760977e-02
-9.013859377247965265e-02
-1.172560347066901321e-01
-1.414042704937246153e-01
-1.622790337600995836e-01
-1.790496320833843968e-01
-1.916132231367378980e-01
-1.994687313451351807e-01
-2.024113117009955498e-01
-2.005774944335696752e-01
-1.936820049262689136e-01
-1.822744457230338067e-01
-1.663001024982245779e-01
-1.462989663343018387e-01
-1.227700850876567717e-01
-9.612891354788344334e-02
-6.725534181075965012e-02
-3.656240013208886253e-02
-5.013572121497361644e-03
2.682765066444610380e-02
5.809088857390143357e-02
8.808502842188901949e-02
1.161658453839308908e-01
1.414990949573078638e-01
1.637792444180214135e-01
1.821611631262459730e-01
1.965326496627547159e-01
2.063599804856292852e-01
2.113900366660786678e-01
2.117310100522684646e-01
2.070111786731306802e-01
1.977438884033576871e-01
1.837868063617267844e-01
1.655906568831282122e-01
1.436118322914747003e-01
1.181535851927122405e-01
9.006308860455684850e-02
5.968359787988258836e-02
2.791952627188421659e-02
-4.660658896373574139e-03
-3.722718006996356133e-02
-6.906563020569460309e-02
-9.950448052991703318e-02
-1.276794426976860242e-01
-1.532104646186299990e-01
-1.751801999014956923e-01
-1.934115822915805083e-01
-2.072579868808570591e-01
-2.163772313446347684e-01
-2.207977583370605568e-01
-2.200154525171790498e-01
-2.145108450257432187e-01
-2.040183719382930305e-01
-1.889119978648776677e-01
-1.696273187438523677e-01
-1.463430940537380209e-01
-1.199377020716495268e-01
-9.066686700973698720e-02
-5.940198309785137826e-02
-2.674150703353477682e-02
6.564384406783026898e-03
3.973943344477438855e-02
7.214881300076797510e-02
1.029135355040440014e-01
1.316050469871720419e-01
1.573014174041858226e-01
1.797635677039514934e-01
1.982973010053558915e-01
2.124815396132761491e-01
2.222772171119941076e-01
2.270502773409877051e-01
2.272202994160149037e-01
2.223659078879397788e-01
2.127211756655014718e-01
1.986398483104004353e-01
1.800767721479270556e-01
1.578748013883444767e-01
1.320908809844096865e-01
1.034731533618351018e-01
7.258680659944966029e-02
3.999665870128063516e-02
6.530315023410226960e-03
-2.728263677235602536e-02
-6.056357597752022592e-02
-9.280304348949319770e-02
-1.230966022963480566e-01
-1.510520847883979056e-01
-1.759082282451468193e-01
-1.971027118757345820e-01
-2.144306584825164397e-01
-2.271015630286091769e-01
-2.353671203773372023e-01
-2.386162972250868708e-01
-2.368967576762759930e-01
-2.304198098789424221e-01
-2.189151696682906933e-01
-2.031584452625252446e-01
-1.830044524598594402e-01
-1.590864292811091096e-01
-1.319285501544738559e-01
-1.019159830389343158e-01
-6.994698948010150130e-02
-3.641709842328313962e-02
-2.211608384883597539e-03
3.209939636850964173e-02
6.567696337343052748e-02
9.796434431475387061e-02
1.282182167805284989e-01
1.557560197784765565e-01
1.802351264198524539e-01
2.007838209036545973e-01
2.174554788503788028e-01
2.295124902004354039e-01
2.368127152006829217e-01
2.393814487640715805e-01
2.367517024051058461e-01
2.295379884850964336e-01
2.173710774287476166e-01
2.007260622003808059e-01
1.799697807576486341e-01
1.553001741474664410e-01
1.275844464967356706e-01
9.703206518880830300e-02
6.452349421804932927e-02
3.059971827013432955e-02
-3.939984670151872037e-03
-3.839291697565686001e-02
-7.204669684186057466e-02
-1.040383763666189454e-01
-1.339037764656826612e-01
-1.606384752483621114e-01
-1.840478517984445173e-01
-2.032784419878913007e-01
-2.179356615257925789e-01
-2.278696058053809592e-01
-2.324214526053166585e-01
-2.320207756683415057e-01
-2.261481691800471261e-01
-2.151272419759640009e-01
-1.992243487986603001e-01
-1.785244135830670320e-01
-1.538882505645789711e-01
-1.254358181963159680e-01
-9.408024672964518387e-02
-6.037672442893210478e-02
-2.513665886698787655e-02
1.079381461069223169e-02
4.671680195360639054e-02
8.160664898894615105e-02
1.149260290656924921e-01
1.455726200128577008e-01
1.731824779535771075e-01
1.968639051079222879e-01
2.160406897181116337e-01
2.305009865014343573e-01
2.394513936333869109e-01
2.432336558040563146e-01
2.412467633044848569e-01
2.336899968799788785e-01
2.208123099380537857e-01
2.025555661810718999e-01
1.798117557673132305e-01
1.525934158339099511e-01
1.217737894724401082e-01
8.794938551160130791e-02
5.181741701525849342e-02
1.435395913262194068e-02
-2.382156032745708085e-02
-6.164419716146507522e-02
-9.847950012313144708e-02
-1.332656492720399877e-01
-1.654823088365415806e-01
-1.942335105202678269e-01
-2.188617822948697444e-01
-2.390438688900907716e-01
-2.539287951404920474e-01
-2.637685649732763871e-01
-2.678572541971806498e-01
-2.663111049385582518e-01
-2.593046906899251214e-01
-2.466233766730614452e-01
-2.291803316787291434e-01
-2.067992699453238270e-01
-1.802808435606309267e-01
-1.502017209514671658e-01
-1.170344510545296701e-01
-8.185490198551165220e-02
-4.506595283817604880e-02
-7.672709979902769817e-03
2.966300699405366448e-02
6.608547397341524299e-02
1.009525920405144328e-01
1.335034706524432790e-01
1.630913921799334032e-01
1.893037119910123689e-01
2.113441611320404645e-01
2.293370302068084010e-01
2.425046394930129301e-01
2.508667717648757067e-01
2.544151816175878045e-01
2.527540855718701795e-01
2.466599271928994197e-01
2.356491912836173874e-01
2.203319500434353095e-01
2.010439687109266682e-01
1.779222682609971629e-01
1.519569865091345562e-01
1.231595900784224207e-01
9.239221357404203694e-02
6.015734915404924443e-02
2.705300970133614480e-02
-6.200760909021191258e-03
-3.907410432711463932e-02
-7.085046713583967315e-02
-1.010653111057600029e-01
-1.289074526168122459e-01
-1.542358016774430518e-01
-1.762113280548817662e-01
-1.945667927271347297e-01
-2.090637822742040242e-01
-2.190380538818689771e-01
-2.249693334860540239e-01
-2.261021149953603704e-01
-2.227334771383193968e-01
-2.149667832258262412e-01
-2.026103556182443921e-01
-1.865385373345758713e-01
-1.664577082601333691e-01
-1.430969450077965166e-01
-1.168606857241030472e-01
-8.813468118254411121e-02
-5.777214935273602969e-02
-2.608434168384689972e-02
6.110264672741998193e-03
3.830736457991180954e-02
6.972441308553631312e-02
9.993907011595362655e-02
1.281877950317044101e-01
1.539423428822485340e-01
1.768406911566406114e-01
1.960651665220712048e-01
2.118138906320070625e-01
2.232267708634017578e-01
2.302973690905724125e-01
2.329678028914063947e-01
2.307616456544213102e-01
2.243886194703471337e-01
2.132972530256069255e-01
1.979965342712415866e-01
1.787615689269943520e-01
1.556879487781964166e-01
1.296647069659973006e-01
1.007295253784959849e-01
6.967729210896045355e-02
3.701364924702703341e-02
3.380358904798402842e-03
-3.054847426637606611e-02
-6.413484922787821008e-02
-9.665826489823808876e-02
-1.275879609378108015e-01
-1.560389897174307150e-01
-1.818503477791880429e-01
-2.040872157870379788e-01
-2.224577686453399483e-01
-2.366519997377765361e-01
-2.460032937459032676e-01
-2.509450822387332414e-01
-2.507286856243708950e-01
-2.456675757121210280e-01
-2.358354183628950107e-01
-2.211551632711656890e-01
-2.024590151920090952e-01
-1.795779923057835847e-01
-1.533061447301466984e-01
-1.240731771531141669e-01
-9.244921869065478304e-02
-5.926419326340665039e-02
-2.501315777050212852e-02
9.418815497423932426e-03
4.345798652206603330e-02
7.618735114806951536e-02
1.071870822626428132e-01
1.355637062027994222e-01
1.607997400692459111e-01
1.824566174581362943e-01
1.997689664082201166e-01
2.129241881941929537e-01
2.211007771911397968e-01
2.244320330001095543e-01
2.228157966777572496e-01
2.160710065221608245e-01
2.048780122813454729e-01
1.889263253418555222e-01
1.689592361041523938e-01
1.452463795521385936e-01
1.183295774690334007e-01
8.902420149801915095e-02
5.771109341343247379e-02
2.538821498538654242e-02
-7.452335579759772344e-03
-3.980021646885459341e-02
-7.112352360440604704e-02
-1.005553317455604723e-01
-1.273498492218227973e-01
-1.510674603976923658e-01
-1.707672135721324258e-01
-1.864824569503782947e-01
-1.973543878905184568e-01
-2.032938212301052538e-01
-2.041758333243975931e-01
-1.996653661992456308e-01
-1.903540553884608966e-01
-1.758984197653948867e-01
-1.569344124597555346e-01
-1.337417431738667783e-01
-1.068071248705539933e-01
-7.696390135574024405e-02
-4.459758452064886691e-02
-1.073403817469698214e-02
2.409330235353869532e-02
5.882383331471138788e-02
9.284445397934576460e-02
1.252435493630401631e-01
1.551629441629437389e-01
1.821138346363950777e-01
2.050325742466907464e-01
2.238699550335978561e-01
2.376880070917523069e-01
2.462674061411409543e-01
2.494479662385645780e-01
2.467469362465839477e-01
2.387294081750724883e-01
2.249635641944315312e-01
2.060044574463728573e-01
1.821504940700676700e-01
1.537764486498394145e-01
1.217950856444363072e-01
8.654816746320431742e-02
4.907443133782837807e-02
1.002013279400067874e-02
-2.958854540479771700e-02
-6.896098236820855099e-02
-1.071523924693827401e-01
-1.432292056084386034e-01
-1.765247753098496686e-01
-2.059567723158972630e-01
-2.313066363453183394e-01
-2.515559586272024806e-01
-2.664459746099603343e-01
-2.756660327445379366e-01
-2.787157430093333277e-01
-2.761151319649650659e-01
-2.673377058289156949e-01
-2.529856841138010681e-01
-2.332782287161423440e-01
-2.085684137863319521e-01
-1.798435714502087945e-01
-1.473158845442492648e-01
-1.120989534920226460e-01
-7.478909297418295798e-02
-3.634120226022685696e-02
2.355500459664938012e-03
4.052413288174355060e-02
7.719470524076152418e-02
1.117387537895345728e-01
1.431660240980679455e-01
1.711741331582645742e-01
1.948517813887447048e-01
2.139087928009369977e-01
2.279889900493244914e-01
2.365941176847764504e-01
2.401305071585524420e-01
2.380000515436937469e-01
2.307171846080261490e-01
2.183261953204017614e-01
2.010532308831616266e-01
1.797481274709659127e-01
1.544036591852576690e-01
1.260382987102659502e-01
9.503952108486923844e-02
6.222219793039740487e-02
2.842039433911316970e-02
-5.789848714189457790e-03
-3.941869686449545052e-02
-7.193819281129223975e-02
-1.023712814693375772e-01
-1.303166053010129943e-01
-1.549280737937930308e-01
-1.757460363338010922e-01
-1.923806529678303290e-01
-2.042108679892875867e-01
-2.114580280319994232e-01
-2.134810989856625318e-01
-2.105770991028027561e-01
-2.027140227092890101e-01
-1.899624436935912764e-01
-1.730347164936291426e-01
-1.518567643638068509e-01
-1.273062365827015985e-01
-9.972804741388079097e-02
-6.983627150579882481e-02
-3.843762703026720046e-02
-6.052810685161218174e-03
2.635104008164031869e-02
5.825373003561243324e-02
8.870388706469398143e-02
1.172402953977720319e-01
1.430534046567372986e-01
1.656083945476374275e-01
1.844961433110374194e-01
1.990453388256012701e-01
2.093649411106301428e-01
2.148012544114571709e-01
2.155120096221282977e-01
2.114067490614564004e-01
2.024428203376848201e-01
1.892079253584921794e-01
1.715594809509012331e-01
1.502372846959766084e-01
1.255176743183625820e-01
9.800541356828111617e-02
6.844443932245318496e-02
3.729445462366172415e-02
5.474657783118008769e-03
-2.650201967749768461e-02
-5.770699126121167644e-02
-8.762748942620035564e-02
-1.154418307656640275e-01
-1.405473603343313227e-01
-1.624594872079192232e-01
-1.804377678075572145e-01
-1.944700238132650305e-01
-2.038312423069122969e-01
-2.085704764598491912e-01
-2.084994786554030255e-01
-2.034883560796792168e-01
-1.940336844360598945e-01
-1.799210613446659002e-01
-1.618321636808225938e-01
-1.399817383133792337e-01
-1.149303183745404022e-01
-8.740679038034913917e-02
-5.782388566179599149e-02
-2.711545345297074194e-02
4.230443023987312534e-03
3.528010517248078570e-02
6.548394136510396479e-02
9.404340168374955566e-02
1.202939549201584857e-01
1.437508067883807583e-01
1.636263126012549862e-01
1.798477812605455417e-01
1.916733046556933773e-01
1.990643709845701381e-01
2.017964862657398439e-01
1.996547647019519534e-01
1.930643579464695891e-01
1.817442784591774274e-01
1.662889994025493201e-01
1.468490156135160707e-01
1.238983662151403597e-01
9.811652208375008788e-02
6.984593677181037685e-02
3.998608763004883604e-02
8.988807965075703080e-03
-2.223101820379915286e-02
-5.310610737917539903e-02
-8.283974084896686407e-02
-1.107136456003651181e-01
-1.362095058613891907e-01
-1.584621294534359903e-01
-1.773263336267342227e-01
-1.919824431313213176e-01
-2.022913708380184306e-01
-2.079603451253451141e-01
-2.086532545375961722e-01
-2.047430165399686253e-01
-1.958493188788937578e-01
-1.824993788560624330e-01
-1.648053072460710922e-01
-1.431505551246678165e-01
-1.182305917753805613e-01
-9.032263354132960553e-02
-6.032363249939123873e-02
-2.869407334386041286e-02
3.678441924017236166e-03
3.617419180339104257e-02
6.800426579877959232e-02
9.841715215578224207e-02
1.268589985613110815e-01
1.524210626332184182e-01
1.749269674242407702e-01
1.934807614980133539e-01
2.079020789555945659e-01
2.178368238301489623e-01
2.228184620342599787e-01
2.232299198687149322e-01
2.185018672015729413e-01
2.091164478869724785e-01
1.950936800616222822e-01
1.766124155697335885e-01
1.544211409693027615e-01
1.285385795676920462e-01
9.983763573795437218e-02
6.870493767218495418e-02
3.584113492887414792e-02
1.977296933338659746e-03
-3.228947101019374877e-02
-6.616462559611829830e-02
-9.907060584037022388e-02
-1.301473689974104730e-01
-1.590608464984950010e-01
-1.849079276127911786e-01
-2.073941474778199234e-01
-2.260210821434424089e-01
-2.401813580293022943e-01
-2.501263370460748425e-01
-2.550496645159562314e-01
-2.553081322547297582e-01
-2.507141252614554228e-01
-2.411661056183910801e-01
-2.273925697543827951e-01
-2.090255017820478456e-01
-1.868767085300800657e-01
-1.611517164116352818e-01
-1.322471217602903537e-01
-1.010197923665579756e-01
-6.768200203077744115e-02
-3.307886000509101254e-02
2.279797388673981962e-03
3.772296325715746024e-02
7.266372759070055531e-02
1.064034400050031248e-01
1.384719385192904051e-01
1.682529320214620761e-01
1.951047111772520881e-01
2.189488326971477106e-01
2.388784918159864712e-01
2.549896389613834913e-01
2.667831633556586035e-01
2.739046792461106161e-01
2.767738333858525968e-01
2.746479959908126323e-01
2.681162918401269746e-01
2.569914331561532483e-01
2.413521694428580611e-01
2.219156078016967792e-01
1.984418724666885403e-01
1.717568580107226017e-01
1.420923462477981514e-01
1.099483332323271945e-01
7.605881159319456686e-02
4.082822477614082846e-02
4.989517654764887011e-03
-3.086073278912669637e-02
-6.600103412768316968e-02
-9.995385357080677213e-02
-1.318404320466284863e-01
-1.613281917079052996e-01
-1.877008602026466189e-01
-2.103631632239109928e-01
-2.292903925197179449e-01
-2.435639680153160458e-01
-2.534303726863044726e-01
-2.583915081569552741e-01
-2.583102954362182513e-01
-2.536401461281649894e-01
-2.438859186503883336e-01
-2.298044051386577691e-01
-2.113469484362142659e-01
-1.889391584786217770e-01
-1.633060894626737758e-01
-1.346016922357560208e-01
-1.037568971753161096e-01
-7.116113869467514952e-02
-3.759882907396368962e-02
-3.710480892688583152e-03
2.981370580280796531e-02
6.231245649254273100e-02
9.317704782415613118e-02
1.216544483679300737e-01
1.474921553501283844e-01
1.698190401180787457e-01
1.885496061617388530e-01
2.031424982483656105e-01
2.132375428060757083e-01
2.190573714953985285e-01
2.199665748209832794e-01
2.164726257264060205e-01
2.083339509539290091e-01
1.957545095357978715e-01
1.792918404226708506e-01
1.588537064393854559e-01
1.352913642230707536e-01
1.087700937031091941e-01
7.997882237878767286e-02
4.954316520007129299e-02
1.797474895830495495e-02
-1.391769552995907044e-02
-4.563266251478056978e-02
-7.630480599264201358e-02
-1.055200602344359695e-01
-1.324107198702868526e-01
-1.565767741240992050e-01
-1.774308020951676779e-01
-1.943547185194125504e-01
-2.073383895040574743e-01
-2.156217811758954772e-01
-2.194087402393281594e-01
-2.183520211479968443e-01
-2.124200243293550838e-01
-2.020256202708509974e-01
-1.869505108621642708e-01
-1.679165344867367959e-01
-1.450267518504840814e-01
-1.188809888156852068e-01
-9.011618749221407543e-02
-5.918932883425648966e-02
-2.697456906037727989e-02
6.024944390576290887e-03
3.888814016101801996e-02
7.108646688483506726e-02
1.017361827031257049e-01
1.302700501328976079e-01
1.560542801073004915e-01
1.783387337480066281e-01
1.969732745398597995e-01
2.111244322782957483e-01
2.208270709961205336e-01
2.256466641330923673e-01
2.254098711503584318e-01
2.204106274127376752e-01
2.103197604313352675e-01
1.957572489068147570e-01
1.767197562045536297e-01
1.537223891828283506e-01
1.273493922520793076e-01
9.797464427584724744e-02
6.648914726744092896e-02
3.334221245644952702e-02
-5.113679257702646863e-04
-3.449036587253483110e-02
-6.769267566566680716e-02
-9.941882279176067483e-02
-1.289881093360323583e-01
-1.555093081926675058e-01
-1.787117007636443156e-01
-1.976484661407513777e-01
-2.122030181144521632e-01
-2.218371363063392221e-01
-2.262260230738984967e-01
-2.255810527148209010e-01
-2.194434968917524376e-01
-2.083781628915426787e-01
-1.923008464818331265e-01
-1.716548947602205555e-01
-1.470435472453630599e-01
-1.187548226692983350e-01
-8.774307552820059808e-02
-5.442456690195922320e-02
-1.976807144764719526e-02
1.556469356925692382e-02
5.070759817496071908e-02
8.485277086636151822e-02
1.173224070429873256e-01
1.471639855005700270e-01
1.740347701588626783e-01
1.969635112610290950e-01
2.157450725030587435e-01
2.298019806272869336e-01
2.387086931173624527e-01
2.426293517814156198e-01
2.409862481686277924e-01
2.342842847201924150e-01
2.223348727292197569e-01
2.054424789363109016e-01
1.841859183642632070e-01
1.586615154254354676e-01
1.298042907362692289e-01
9.791136485373699849e-02
6.383524269594700873e-02
2.827454780524558953e-02
-8.056061158972255276e-03
-4.428914913370431139e-02
-7.977507471565753461e-02
-1.135711025178032796e-01
-1.452056441173583679e-01
-1.737126458640927129e-01
-1.987520455976509726e-01
-2.196378496805341529e-01
-2.358377331948039446e-01
-2.473449929443536921e-01
-2.534416309724012439e-01
-2.545014993549142845e-01
-2.501504124976701160e-01
-2.405474475894007202e-01
-2.261566751478736315e-01
-2.068763730873304230e-01
-1.836013731888459788e-01
-1.564592148895201651e-01
-1.262060923796478051e-01
-9.353419331867680875e-02
-5.899389971976082281e-02
-2.352256709683085700e-02
1.232477963109415708e-02
4.761049175204662420e-02
8.177465913182160873e-02
1.139165379246612209e-01
1.435499701283538543e-01
1.699723247305227058e-01
1.925577682438266991e-01
2.111456584716407403e-01
2.249453437057940541e-01
2.341553705276506192e-01
2.382586397770059539e-01
2.372530517416005236e-01
2.314231225828676519e-01
2.204824793294106466e-01
2.051913891132200463e-01
1.854618131253505942e-01
1.619122718974109199e-01
1.351120919460422898e-01
1.054252628704513278e-01
7.378900029641627389e-02
4.059135362130087549e-02
6.765206270981885539e-03
-2.710593333947514116e-02
-6.019204287058863012e-02
-9.183011511583683006e-02
-1.213457287332994350e-01
-1.479626299262003786e-01
-1.713517068949380606e-01
-1.906624826766303848e-01
-2.058267374239330372e-01
-2.162447082773597540e-01
-2.217172686841145102e-01
-2.223377161106542821e-01
-2.177212023691115494e-01
-2.084438970999862584e-01
-1.943263180540206470e-01
-1.758855629061593095e-01
-1.536097092841187672e-01
-1.278081098296720008e-01
-9.942017958597618166e-02
-6.878530921984232771e-02
-3.686543246415906888e-02
-4.287471623764860240e-03
2.814334483451974567e-02
5.962871667488547911e-02
8.953375808649802203e-02
1.170044787626636773e-01
1.416275663569930288e-01
1.625985247471973816e-01
1.797029378289400070e-01
1.923948953564716680e-01
2.004224093295883247e-01
2.038101238086270361e-01
2.022232713110877766e-01
1.961383660457668987e-01
1.853949396759714263e-01
1.704730603082895979e-01
1.517944292302915721e-01
1.296589157225683520e-01
1.049421642026804324e-01
7.792462348099474245e-02
4.952274472984465048e-02
2.029306155586246829e-02
-9.028902578368941390e-03
-3.767597116848052374e-02
-6.510735754619412230e-02
-9.049741662949198351e-02
-1.134765463377239159e-01
-1.332950639126059544e-01
-1.497269429881609992e-01
-1.622771816152702440e-01
-1.706649199634941994e-01
-1.749155157137199101e-01
-1.746698085535088041e-01
-1.703585090668467417e-01
-1.617975218147582050e-01
-1.493769013403708490e-01
-1.334892207199486480e-01
-1.143333023766919254e-01
-9.271997426580838586e-02
-6.885230127589905824e-02
-4.352787942551331057e-02
-1.724882624840035072e-02
9.369240856083871360e-03
3.563955874061655593e-02
6.110751236595322877e-02
8.503458558521292954e-02
1.071254273478661478e-01
1.266719254561246566e-01
1.435115946102527296e-01
1.571663541395002806e-01
1.673175843952068864e-01
1.740291230132736677e-01
1.768026667769097560e-01
1.760441455442431358e-01
1.714447959371623864e-01
1.631812968366446182e-01
1.516010256455186944e-01
1.365937726652101114e-01
1.188588471157745463e-01
9.838938735850272232e-02
7.570625435776784373e-02
5.125909511764512039e-02
2.538047882955307699e-02
-1.302376763963289386e-03
-2.843520531166392196e-02
-5.539540636772855020e-02
-8.180482744748558688e-02
-1.069856373835831043e-01
-1.306625289745140250e-01
-1.522158055988253600e-01
-1.711814837995960514e-01
-1.874001648026080991e-01
-2.001270580142321398e-01
-2.095625182130695374e-01
-2.150996005140634049e-01
-2.166474989889060621e-01
-2.143633828502092276e-01
-2.077995913716760568e-01
-1.975654783306178552e-01
-1.833940616203457163e-01
-1.656327543550752956e-01
-1.447282286147278385e-01
-1.207699863844146487e-01
-9.451101853613724790e-02
-6.618621638451223366e-02
-3.641989562386734741e-02
-5.757468512708682762e-03
2.521366627146284789e-02
5.596412946553087908e-02
8.585476182888830687e-02
1.142994981058110815e-01
1.409068037793791417e-01
1.648713916211347330e-01
1.861541606240267044e-01
2.039893761554254226e-01
2.181199471829390613e-01
2.284742335724893048e-01
2.343996835625865027e-01
2.363717872098178852e-01
2.338275197022942620e-01
2.269701257964475416e-01
2.160648257261555960e-01
2.009172023047016697e-01
1.823039623125849440e-01
1.601219175349242185e-01
1.349593166553658408e-01
1.073046534833126398e-01
7.753219880390066487e-02
4.638079490818228234e-02
1.428142201828529190e-02
-1.804290280479008135e-02
-5.007494027803538472e-02
-8.102594214547728657e-02
-1.105198137997631669e-01
-1.377683117844567817e-01
-1.622537278230291591e-01
-1.836556583413703481e-01
-2.011553244774429983e-01
-2.149310359705680629e-01
-2.242168867160045098e-01
-2.289852930947388343e-01
-2.292787888803377583e-01
-2.246753751328334769e-01
-2.158605738795355833e-01
-2.024718178088618925e-01
-1.850267490535827397e-01
-1.639231721636286998e-01
-1.393566158228322915e-01
-1.122105316726840218e-01
-8.269091164475950162e-02
-5.162003069869251781e-02
-1.954765038504972796e-02
1.282343165522523837e-02
4.484858725921521405e-02
7.587961289831454681e-02
1.052047944550887904e-01
1.324053804686079749e-01
1.566349860439144592e-01
1.778102839428010729e-01
1.951647988376706555e-01
2.084505355785772063e-01
2.175730638992178223e-01
2.219560997210421882e-01
2.221026917040540005e-01
2.174868864735510221e-01
2.084360960175773436e-01
1.952015096612612632e-01
1.777550944820551204e-01
1.569225162438201981e-01
1.326713919015869714e-01
1.057449448038260131e-01
7.661411389603611788e-02
4.582656412262954559e-02
1.413142423611461057e-02
-1.797463720915822363e-02
-4.968048253966496353e-02
-8.050476093663228028e-02
-1.095752945062165307e-01
-1.365670607984385554e-01
-1.606818104000624914e-01
-1.814299873672088337e-01
-1.985410716681588472e-01
-2.112580695267651798e-01
-2.198348659818844253e-01
-2.235836229340332770e-01
-2.225988575808622860e-01
-2.169678081643295064e-01
-2.064662247932428918e-01
-1.918169187861300529e-01
-1.728229855938187565e-01
-1.501471568602715245e-01
-1.242092254065301771e-01
-9.546288692234999873e-02
-6.474553268260320460e-02
-3.246633851398340875e-02
4.703281973097994673e-04
3.352571132775164497e-02
6.579919675687653791e-02
9.677300465021501652e-02
1.256480251776393997e-01
1.517520796964655083e-01
1.747101436185616308e-01
1.936515389376260166e-01
2.086537474895883149e-01
2.189447202216358301e-01
2.244445987198332160e-01
2.251353047956899667e-01
2.206365961857290892e-01
2.115889875084215332e-01
1.976465536548602242e-01
1.793754607815269964e-01
1.571275598818893671e-01
1.312176202502174094e-01
1.025310436802971958e-01
7.133332150396184956e-02
3.855466280004300056e-02
4.750114599673782578e-03
-2.922835015326716301e-02
-6.269861214498129165e-02
-9.491274043170848385e-02
-1.250624729852968520e-01
-1.526722934659445197e-01
-1.768046385990390545e-01
-1.973540150627744461e-01
-2.134853506386603650e-01
-2.249606228729251201e-01
-2.316546570125036231e-01
-2.330488555235468440e-01
-2.297112027509136678e-01
-2.211609402862362295e-01
-2.078735820033508763e-01
-1.901602411143768490e-01
-1.681769969079303095e-01
-1.428836428842413520e-01
-1.143788567130551853e-01
-8.357678195294282464e-02
-5.104833843394369214e-02
-1.749209844897389732e-02
1.627100088163641045e-02
4.965241034867998171e-02
8.182402981077815940e-02
1.122750937981687180e-01
1.401584866403017549e-01
1.652496108329604141e-01
1.867675929063997708e-01
2.044088486439756824e-01
2.179718064484139350e-01
2.268605569069780947e-01
2.315523386672094786e-01
2.314079536743818000e-01
2.267581894265122133e-01
2.177682663950644693e-01
2.043197555221375472e-01
1.873172036584820899e-01
1.665210566821425930e-01
1.426777116743657148e-01
1.162153632273681680e-01
8.750336352899393266e-02
5.741318352803886221e-02
2.621415941908722402e-02
-5.316596962875619337e-03
-3.667478946580662869e-02
-6.718291464713904704e-02
-9.640892679347526362e-02
-1.236729653487744218e-01
-1.485280264949785656e-01
-1.705989469620807497e-01
-1.891997758335698387e-01
-2.045216729554251989e-01
-2.157670964432997773e-01
-2.230109257724780247e-01
-2.261677597932809092e-01
-2.248467283036286180e-01
-2.197654720830891639e-01
-2.103724553900717664e-01
-1.972158119428580325e-01
-1.805419889708072545e-01
-1.604205167319868452e-01
-1.377594418214972138e-01
-1.124982966812771712e-01
-8.538552268031245063e-02
-5.688151960655915551e-02
-2.745832288483320005e-02
2.212557518530194889e-03
3.169028539249976739e-02
6.038668764295829217e-02
8.783952017599197526e-02
1.134066913819138933e-01
1.369511548950795854e-01
1.577328830070456600e-01
1.755830248117628001e-01
1.902230834294218464e-01
2.011252392450871285e-01
2.087097498052875033e-01
2.122544458951415303e-01
2.120565210593564898e-01
2.081075509622035413e-01
2.002187745588063505e-01
1.891358523006892722e-01
1.744701881653289710e-01
1.568357041760782833e-01
1.364827230221753451e-01
1.136566804037701106e-01
8.908963707974372481e-02
6.292197159341071655e-02
3.582858135647687403e-02
8.228847945621856064e-03
-1.928481219165942631e-02
-4.628697971389601068e-02
-7.215884201118136221e-02
-9.644442764225440168e-02
-1.187254938363838525e-01
-1.383402519654387541e-01
-1.553349842109671974e-01
-1.689259489475797293e-01
-1.790920742877098182e-01
-1.856171396058455825e-01
-1.881202613141076396e-01
-1.870969441462482230e-01
-1.820092580778002456e-01
-1.733085675437770201e-01
-1.610918650337077040e-01
-1.454791702206642834e-01
-1.271824451610409912e-01
-1.061790830022860677e-01
-8.319318280527489284e-02
-5.857008845763526927e-02
-3.287997061752773176e-02
-6.695145531369378622e-03
1.950470165156359403e-02
4.507514658084080250e-02
6.961986677612463925e-02
9.240404569264504264e-02
1.132779937721682950e-01
1.315126521249606606e-01
1.468477873361704877e-01
1.590304661314290158e-01
1.675146286884605651e-01
1.726225272964994062e-01
1.737322043217441325e-01
1.710758520103227154e-01
1.646549967417009763e-01
1.543822627702591821e-01
1.408777839505953033e-01
1.239488561191409155e-01
1.042125496355963687e-01
8.193676202821030541e-02
5.756585208922150587e-02
3.172592111662002334e-02
4.783885604622645227e-03
-2.253848630162308408e-02
-4.981596402584420602e-02
-7.626374536523855552e-02
-1.015463271766731401e-01
-1.249029135357394571e-01
-1.458580764801031271e-01
-1.640435807920932187e-01
-1.787273501400186981e-01
-1.900482013553611293e-01
-1.972525100750273375e-01
-2.003713533336818897e-01
-1.993140748459447664e-01
-1.937951562467521982e-01
-1.843949365314137001e-01
-1.707796940797250418e-01
-1.534945817416159819e-01
-1.328048933696565070e-01
-1.090281569624432789e-01
-8.290605359004209196e-02
-5.470348515962591973e-02
-2.519282286427759754e-02
5.136664011477040659e-03
3.553916961148018139e-02
6.550832700960934618e-02
9.431685721654808896e-02
1.213861290327892528e-01
1.462531873180513975e-01
1.681304592873767989e-01
1.870210199454017952e-01
2.020846185560494779e-01
2.132399260810399766e-01
2.202635111796376610e-01
2.227080255355129157e-01
2.210758536622370873e-01
2.148034844985677594e-01
2.043372887501682666e-01
1.897812723835229365e-01
1.712388777036616405e-01
1.494517485171701632e-01
1.244120857928477375e-01
9.687407761303917786e-02
6.723292289456092585e-02
3.611193569555443128e-02
4.145194704523069706e-03
-2.807467377571042089e-02
-5.983700993349466701e-02
-9.060716535424674645e-02
-1.195215847084000332e-01
-1.463440109383788990e-01
-1.701425926286465051e-01
-1.906005885811087319e-01
-2.072910848898449898e-01
-2.195448244107823244e-01
-2.276541920510993244e-01
-2.308193891626180994e-01
-2.293094174714265243e-01
-2.230369150796525091e-01
-2.118927164418246134e-01
-1.965906512758547886e-01
-1.768829705782447581e-01
-1.535277848521023336e-01
-1.268414521109444970e-01
-9.734733877439730176e-02
-6.584705596795370486e-02
-3.276636943935880286e-02
1.021101802882909415e-03
3.495763328861667407e-02
6.816325792037020159e-02
1.001568196198576038e-01
1.300716240711556893e-01
1.573750689627543553e-01
1.815562885389963022e-01
2.018355176950053786e-01
2.183030427771192328e-01
2.300845785889064077e-01
2.372653978338026826e-01
2.396271507402334966e-01
2.368743918845616359e-01
2.296243280465941616e-01
2.174114226001458705e-01
2.008949011032423460e-01
1.802469011032056811e-01
1.557887559505115038e-01
1.283625213310146396e-01
9.812747410589364727e-02
6.598574020034972398e-02
3.241956432552356437e-02
-1.804784929929262316e-03
-3.602525631124690181e-02
-6.953920475668286250e-02
-1.016513120693633421e-01
-1.317910374327876666e-01
-1.591322055064571250e-01
-1.835087507902407600e-01
-2.040166095190893425e-01
-2.205157936179750755e-01
-2.326180403146050901e-01
-2.398482785703034414e-01
-2.426221364190818686e-01
-2.402761974859200234e-01
-2.333032816926280673e-01
-2.216889989358120372e-01
-2.055386313803358178e-01
-1.856527594226565769e-01
-1.619210751946910665e-01
-1.352192491738084534e-01
-1.059052655462163900e-01
-7.458691760274067939e-02
-4.204816385154427905e-02
-8.758336680069339630e-03
2.447706896102606888e-02
5.711541817715296704e-02
8.836878258892470750e-02
1.178590678593644248e-01
1.447754965655036474e-01
1.687814320549408942e-01
1.894011868849077851e-01
2.060424216675307840e-01
2.188955395348090582e-01
2.271774745308912935e-01
2.311588079787082750e-01
2.306255298908425622e-01
2.254367177905174935e-01
2.162248557349378819e-01
2.025824886922971135e-01
1.852287608896939497e-01
1.642907025664891718e-01
1.401295263410015646e-01
1.135034331452226125e-01
8.457386398427954588e-02
5.416346486198903021e-02
2.269037518159684741e-02
-9.141446008987714339e-03
-4.078946979302061626e-02
-7.157939041547439762e-02
-1.009536115085136049e-01
-1.283758539766031437e-01
-1.531142002345119435e-01
-1.750709130092792665e-01
-1.933701031879596632e-01
-2.079658784527727566e-01
-2.184491820299002685e-01
-2.244098733203833684e-01
-2.262289102173315192e-01
-2.232644327792081551e-01
-2.160064522971219536e-01
-2.043790782066469414e-01
-1.885131385275487792e-01
-1.690884809422857349e-01
-1.460320711911307079e-01
-1.201467211605096175e-01
-9.173581935098756857e-02
-6.142899512389750349e-02
-2.987959047955075081e-02
2.369181318905859771e-03
3.458135935941614170e-02
6.621860449206815047e-02
9.644731626985766915e-02
1.249491874550246323e-01
1.508247552820316528e-01
1.737513416206764028e-01
1.932077325625064512e-01
2.085584810496913244e-01
2.199578860496749222e-01
2.265924642899956043e-01
2.287066509062945785e-01
2.260469230620196779e-01
2.185038373096902797e-01
2.066283185222402841e-01
1.901163978595070692e-01
1.696816389456592966e-01
1.454826651509429913e-01
1.180272492944558771e-01
8.801780790337124238e-02
5.584478864073591509e-02
2.237157949238250537e-02
-1.188037801808552313e-02
-4.600986866018894061e-02
-7.948652911378990826e-02
-1.114055735754567872e-01
-1.411754641924814757e-01
-1.681666408991685790e-01
-1.915451700631321252e-01
-2.112292413789340628e-01
-2.262754725889956631e-01
-2.366946200097888864e-01
-2.420922981995838053e-01
-2.421603215832473233e-01
-2.373463068263901299e-01
-2.271735552846748940e-01
-2.122894254297546246e-01
-1.927560558494013920e-01
-1.689649972399767386e-01
-1.416869236913696484e-01
-1.111482763543573393e-01
-7.830485976128188919e-02
-4.363396579075095455e-02
-8.005013919696449265e-03
2.789216937847787889e-02
6.327104990927802375e-02
9.738040010412489511e-02
1.295827198665694957e-01
1.589994694430408861e-01
1.853797388238093702e-01
2.077824250439164189e-01
2.260534140658973790e-01
2.397002787990167028e-01
2.482785270093838537e-01
2.520846519900504235e-01
2.504765434942960445e-01
2.439619447007822517e-01
2.324123268350616611e-01
2.160246775527440988e-01
1.954770714857738678e-01
1.707340425139692586e-01
1.427027380927841649e-01
1.116833735471821076e-01
7.841240065875394738e-02
4.362606320823956413e-02
7.921373195579596571e-03
-2.783814800749961210e-02
-6.304580571619582130e-02
-9.679180834364393970e-02
-1.286204011126664271e-01
-1.575960968248822924e-01
-1.833277188946504654e-01
-2.051903104612584072e-01
-2.225711258365889456e-01
-2.355203839369861551e-01
-2.432480534670796724e-01
-2.460539877597384961e-01
-2.436199779051188563e-01
-2.359619026630654093e-01
-2.236372365488503156e-01
-2.064087257863395919e-01
-1.851422474763692316e-01
-1.599939681141686332e-01
-1.315967302512729975e-01
-1.007476092325885336e-01
-6.785080290275732895e-02
-3.388875120812223640e-02
6.164835276536995146e-04
3.478139492258550125e-02
6.799816421511170605e-02
9.948118927236895837e-02
1.286686245953472807e-01
1.549716487210581195e-01
1.777380844490223655e-01
1.968768100767123996e-01
2.116256667815919479e-01
2.221303248483132153e-01
2.280121829804427347e-01
2.291448905529513413e-01
2.259682433284841696e-01
2.180627324787870192e-01
2.061545759001887079e-01
1.901997127415334665e-01
1.705829008014768666e-01
1.480016769658853426e-01
1.225154250054590332e-01
9.501551049119433268e-02
6.577563598023361546e-02
3.545816504698789950e-02
4.666562878589408658e-03
-2.609867249231406783e-02
-5.620963995715833050e-02
-8.517627650198267286e-02
-1.123510658151500863e-01
-1.374636500195576261e-01
-1.597664877183140875e-01
-1.791406395849036159e-01
-1.950606470019911054e-01
-2.071538922775054137e-01
-2.155628387922748912e-01
-2.196229278962469333e-01
-2.197456911074936736e-01
-2.156138863499721670e-01
-2.072973547692600615e-01
-1.952845698853015177e-01
-1.793287705315989577e-01
-1.601826361587943004e-01
-1.379148856577394611e-01
-1.130206709822252353e-01
-8.612137535845189318e-02
-5.752406588301146872e-02
-2.797531123315113999e-02
2.092723703808210822e-03
3.198966682079411317e-02
6.125351520172195308e-02
8.917373269091544152e-02
1.153651995195980884e-01
1.392440883825323827e-01
1.602552620836867336e-01
1.783141040724447457e-01
1.926476663573555292e-01
2.034086063997923022e-01
2.101295954782918529e-01
2.126452636136644814e-01
2.112685177257409841e-01
2.055175980508509304e-01
1.959936136375573790e-01
1.825458167591869629e-01
1.654684994994564395e-01
1.453086820518548483e-01
1.221010683493766735e-01
9.661311621972176744e-02
6.908572351660693944e-02
4.015076688121721471e-02
1.034896647881061726e-02
-1.976259668274514547e-02
-4.958588952890913282e-02
-7.857508963929918377e-02
-1.060340521989624057e-01
-1.316551472986359772e-01
-1.546064574444565021e-01
-1.747257399553403812e-01
-1.914095832308838341e-01
-2.042286356980872186e-01
-2.132528078526603754e-01
-2.177867233720240936e-01
-2.181981752483134196e-01
-2.141341571262059262e-01
-2.056664855501150746e-01
-1.932363043253054191e-01
-1.766469140499792312e-01
-1.566501957900641451e-01
-1.333345794563241815e-01
-1.072579715299021574e-01
-7.903828308258130375e-02
-4.907330205379858284e-02
-1.814112474087103272e-02
1.327708395422774745e-02
4.442109921936887584e-02
7.479937498241526206e-02
1.036350818241036364e-01
1.305145778059557116e-01
1.548059873751007898e-01
1.759349981350595005e-01
1.937734746914759332e-01
2.075518138837943449e-01
2.174273365337045516e-01
2.229126259285815759e-01
2.239019339827653665e-01
2.206825513659848026e-01
2.128559550210821771e-01
2.010748585312913672e-01
1.852176717314206189e-01
1.656938365651504097e-01
1.430685354823798550e-01
1.174956122343296383e-01
8.981280181694384357e-02
6.032400700584580888e-02
2.975007592722378469e-02
-1.323645560129232956e-03
-3.227149865910949877e-02
-6.247451793523503549e-02
-9.134150885470690429e-02
-1.182001450229260425e-01
-1.427266241259420865e-01
-1.641307243636522806e-01
-1.823350222529942222e-01
-1.967473862816335461e-01
-2.070835963323979234e-01
-2.134660396196958465e-01
-2.153106207634729041e-01
-2.131525194606230800e-01
-2.066764906789787526e-01
-1.961080870370393026e-01
-1.819782132554883525e-01
-1.641343001172129168e-01
-1.434641945007333885e-01
-1.200384927062579377e-01
-9.442227975544997820e-02
-6.728223530006288700e-02
-3.889024687695624705e-02
-1.001908728967770834e-02
1.895707877047286827e-02
4.746131622001847905e-02
7.503847780997516259e-02
1.011483816271055297e-01
1.255269699095559743e-01
1.476622519665504729e-01
1.672165217404761595e-01
1.841456659743933855e-01
1.978143097148666318e-01
2.085501870714572270e-01
2.158523504995733533e-01
2.196709478447891606e-01
2.203322410258782560e-01
2.172638261026370865e-01
2.111602098501231817e-01
2.016715993917131411e-01
1.889581678355077288e-01
1.735359563220511825e-01
1.550848389466837618e-01
1.343332109288709331e-01
1.112412568172469751e-01
8.610549673176658148e-02
5.945292655482393995e-02
3.140254132629889672e-02
2.461887218809702405e-03
-2.699144779067427780e-02
-5.656971205956592974e-02
-8.586057895718479660e-02
-1.142613832432325394e-01
-1.416096345642028353e-01
-1.671808290198777969e-01
-1.905883574462624575e-01
-2.116404256315471688e-01
-2.294682665702540425e-01
-2.442947353944162625e-01
-2.553443353156683027e-01
-2.624165480851923249e-01
-2.656397601426836452e-01
-2.643004824372191530e-01
-2.589762832232265222e-01
-2.492251395818428916e-01
-2.352078732844367637e-01
-2.173866912687448250e-01
-1.955810048355181574e-01
-1.705625840394379700e-01
-1.424569552073788326e-01
-1.117816120760340981e-01
-7.918015641897052648e-02
-4.509902241940719203e-02
-1.020391454583521873e-02
2.486777007193430311e-02
5.947893574667294236e-02
9.307835696446754847e-02
1.248275918464176459e-01
1.544825414792724561e-01
1.811870774473587631e-01
2.045248745841014015e-01
2.242790512708869588e-01
2.396339906748732596e-01
2.509141304652108273e-01
2.574119795899753038e-01
2.591754710631170022e-01
2.564021092670722979e-01
2.486836523722135150e-01
2.367957010092146819e-01
2.204669257274578520e-01
2.002255662577545614e-01
1.765767370821799409e-01
1.497062053636807888e-01
1.205060135444913222e-01
8.923993195949866952e-02
5.669134367533593122e-02
2.343570686248531987e-02
-9.841279255159970929e-03
-4.253297040468248524e-02
-7.397419552683993926e-02
-1.034900111732982575e-01
-1.306968067731674454e-01
-1.547407880066163921e-01
-1.755810521121694556e-01
-1.924639743762939781e-01
-2.051506741655988453e-01
-2.136220270805554988e-01
-2.172725345719580536e-01
-2.166515400156575066e-01
-2.112715096829360650e-01
-2.014600438334676891e-01
-1.875644690101986589e-01
-1.695252582178827239e-01
-1.482249431686887275e-01
-1.236627192899196204e-01
-9.658606788332091408e-02
-6.752610017023902289e-02
-3.699408143597732179e-02
-5.778365706604393637e-03
2.565574470928455586e-02
5.649539733846964396e-02
8.629735455756781803e-02
1.142288409230916013e-01
1.399715086523672936e-01
1.628284029622784068e-01
1.822971999448828040e-01
1.982351583741710499e-01
2.098818844865618649e-01
2.175232597193660355e-01
2.205665173644422161e-01
2.190406264385870161e-01
2.131647931311377864e-01
2.026128424819207963e-01
1.881204909082084820e-01
1.694943874580212562e-01
1.472721877326955697e-01
1.219393997586447620e-01
9.377287959023439257e-02
6.360874220460244199e-02
3.177565369277690621e-02
-9.299216247862229778e-04
-3.395952806589686013e-02
-6.654849006950047663e-02
-9.814755270265851372e-02
-1.280379840468209851e-01
-1.555465105152045724e-01
-1.803088880844415098e-01
-2.014469165107062587e-01
-2.189713701650209954e-01
-2.321269210445450759e-01
-2.407141161866952761e-01
-2.447468702278259300e-01
-2.436871882646898801e-01
-2.381320043179776524e-01
-2.276799954334933485e-01
-2.127291543923589268e-01
-1.936898027755880047e-01
-1.706386752548233465e-01
-1.444820433431522333e-01
-1.153719079216063703e-01
-8.410004957653241520e-02
-5.127056396494011903e-02
-1.751466805756203560e-02
1.641917230780429171e-02
4.991635260630226945e-02
8.221590334571951542e-02
1.128304719501089792e-01
1.409074231672128863e-01
1.662501880810706989e-01
1.880761130448441731e-01
2.060450866803709702e-01
2.200113187203290299e-01
2.293039979591697530e-01
2.343686580259062846e-01
2.345936991044350051e-01
2.302089164809328903e-01
2.214433687006171492e-01
2.081013767958987959e-01
1.910314957242232881e-01
1.700542104166026247e-01
1.458416258852346381e-01
1.188692949775322916e-01
8.950356106244039545e-02
5.858382196331457514e-02
2.645698061976253790e-02
-6.075115215900206422e-03
-3.850111617679408127e-02
-7.004417638727211681e-02
-1.002605332998853793e-01
-1.284120195304934153e-01
-1.539306972654042038e-01
-1.764968853229045287e-01
-1.952735865901604750e-01
-2.104255309386271477e-01
-2.211657188041664668e-01
-2.274320617040435089e-01
-2.292645647675910503e-01
-2.261657384908681845e-01
-2.188558629575581005e-01
-2.068827914241559984e-01
-1.907281160424842970e-01
-1.707947524708659515e-01
-1.471537788327115237e-01
-1.207507626163284442e-01
-9.167456785724104051e-02
-6.070663484955407529e-02
-2.841975956178344198e-02
4.608549663734251567e-03
3.766691220421558572e-02
7.018605369388397630e-02
1.014760282249435042e-01
1.310681751128490724e-01
1.581667100938478066e-01
1.826316609738740104e-01
2.036754637851453942e-01
2.210208936555600467e-01
2.345035327048277662e-01
2.434680478250095814e-01
2.483895216020001184e-01
2.486036074018338482e-01
2.443507128457071964e-01
2.358206234894857367e-01
2.227810884826573190e-01
2.060791126461323786e-01
1.854702651872029429e-01
1.615848499170980390e-01
1.348822945988327748e-01
1.056584949633497805e-01
7.474842009625787265e-02
4.246148479025846356e-02
9.532058096224149679e-03
-2.348582908249302603e-02
-5.589753595692351085e-02
-8.723860514597486793e-02
-1.167660824476170617e-01
-1.439803480325014262e-01
-1.684564869851559454e-01
-1.894386636030193638e-01
-2.070363825378739864e-01
-2.204232291703019930e-01
-2.295908145039593506e-01
-2.344333446080335559e-01
-2.345242035163072059e-01
-2.305037428743055283e-01
-2.218653775558516728e-01
-2.091270290384104058e-01
-1.925469417709266828e-01
-1.722539777278782047e-01
-1.491174821199852119e-01
-1.231832989257373168e-01
-9.525785517050122664e-02
-6.581459950865675701e-02
-3.547041181788079811e-02
-4.888385103279713206e-03
2.538095010610064151e-02
5.463782527894878172e-02
8.244707188801791986e-02
1.080059742999561756e-01
1.311888574869350954e-01
1.512058052550520060e-01
1.677927672592374186e-01
1.807561420130738838e-01
1.894730042876848763e-01
1.944049377273642243e-01
1.948741987155764299e-01
1.911602162679262307e-01
1.833840573062115453e-01
1.713788093419634784e-01
1.559651461347622003e-01
1.368826867265853231e-01
1.148173001046548514e-01
9.014548420297208153e-02
6.323288861050002652e-02
3.488212617264174753e-02
5.375338247678662640e-03
-2.450638619994238709e-02
-5.429410511564203290e-02
-8.325668050778389784e-02
-1.109646528496015527e-01
-1.367267992475200700e-01
-1.600212742181592596e-01
-1.805016458360060305e-01
-1.974265575916041016e-01
-2.109300923682910778e-01
-2.202670958531220968e-01
-2.254249821622540395e-01
-2.263631505677339284e-01
-2.227111689357670343e-01
-2.151036281631959479e-01
-2.031367616776846852e-01
-1.873154294301171419e-01
-1.679415773037684634e-01
-1.452064119015987753e-01
-1.199266829609610951e-01
-9.225093304426978946e-02
-6.293742073610042453e-02
-3.248409819394881826e-02
-1.538906766659575709e-03
2.931568037943599325e-02
5.944784210719156192e-02
8.823787349983303052e-02
1.152243503493885213e-01
1.396320286488768603e-01
1.613907734679686234e-01
1.796811853324019048e-01
1.943300734331096513e-01
2.051004417984977346e-01
2.114796769406610544e-01
2.139082513519092732e-01
2.117711854771244795e-01
2.054287477110854354e-01
1.949463880502773083e-01
1.803599086458365086e-01
1.623736877180697036e-01
1.409078798446952163e-01
1.167072746058877009e-01
9.010279911904151007e-02
6.173090085492694001e-02
3.220590793625799364e-02
2.082840963879117879e-03
-2.783640996659730860e-02
-5.711243755705819325e-02
-8.475840516782184864e-02
-1.105761519859722597e-01
-1.336116701127441075e-01
-1.534001987437401127e-01
-1.696428696038880801e-01
-1.814745912240072201e-01
-1.892818799842252986e-01
-1.921900059086532053e-01
-1.903435537694369017e-01
-1.837976972172272738e-01
-1.722488083612336851e-01
-1.565620590564327230e-01
-1.363854485510103132e-01
-1.124361224646772683e-01
-8.514147231778412817e-02
-5.489528008339483733e-02
-2.265281123923568174e-02
1.126469108819350140e-02
4.593541380096777260e-02
8.077068678806931246e-02
1.149243669488155817e-01
1.478205641796526137e-01
1.786686465860887196e-01
2.068250704272562857e-01
2.318388039924936805e-01
2.528643477655574401e-01
2.699837627850314448e-01
2.823462192914618640e-01
2.899035515862991019e-01
2.925589688492760132e-01
2.898805703628051234e-01
2.825504525086781626e-01
2.700757405916611731e-01
2.530005585006440683e-01
2.316332203096855835e-01
2.061420052513938117e-01
1.774634580997878075e-01
1.457101420733000197e-01
1.117145797057217393e-01
7.607057983843823479e-02
3.943279885308204058e-02
2.542936870218781564e-03
-3.391679909135980608e-02
-6.926712529584611033e-02
-1.028631130876176414e-01
-1.339166039389629859e-01
-1.622183494841240581e-01
-1.868318405238638125e-01
-2.075974736192518488e-01
-2.240785481142348878e-01
-2.357821434864780241e-01
-2.431095154407474368e-01
-2.453242594968724766e-01
-2.429001077367720640e-01
-2.357724331388582062e-01
-2.240298433871845685e-01
-2.084542185903450751e-01
-1.888649604323324738e-01
-1.661552093422398180e-01
-1.406029203819345597e-01
-1.128679760761830408e-01
-8.367440254382341180e-02
-5.347794910063718987e-02
-2.315707703619729330e-02
6.867169611126655582e-03
3.564750751020984154e-02
6.293155576553299824e-02
8.783561933198491545e-02
1.099134328941744343e-01
1.288478014177805164e-01
1.438026173413895492e-01
1.551643488300626927e-01
1.620036616845705879e-01
1.644958241631808704e-01
1.625965908037017016e-01
1.559066748456015006e-01
1.452986189148273155e-01
1.301846720256971679e-01
1.112549249748155944e-01
8.877453653788158761e-02
6.290939095166159234e-02
3.465675205310425611e-02
4.007645407781978975e-03
-2.814832023438107456e-02
-6.132371532051728025e-02
-9.489867927624295874e-02
-1.281336928024749966e-01
-1.604889646638341105e-01
-1.912548619821627938e-01
-2.199135091572745893e-01
-2.457134749205369673e-01
-2.684323389477079047e-01
-2.872984942433696176e-01
-3.020833288730155886e-01
-3.124842586684764001e-01
-3.180231392128387569e-01
-3.190467355287669449e-01
-3.150118686212390884e-01
-3.062638767420775565e-01
-2.928999173947204326e-01
-2.749889884389880024e-01
-2.532589963375855291e-01
-2.277341703574951026e-01
-1.991398231646890338e-01
-1.679653440195298941e-01
-1.347849692273861422e-01
-1.003367095139058307e-01
-6.522076795182840669e-02
-3.012919875385655644e-02
4.265076438892734245e-03
3.722873948372118491e-02
6.837105030832013597e-02
9.682297279102325405e-02
1.223254584274693357e-01
1.442914200971348038e-01
1.622741499061133297e-01
1.763621858674362386e-01
1.858613993207676174e-01
1.911129121780357210e-01
1.918065066449470280e-01
1.881053894560404949e-01
1.804799994176848887e-01
1.686718403575013792e-01
1.535711554112406674e-01
1.352538183108755732e-01
1.142900165663176537e-01
9.153030043194920751e-02
6.714994324138956472e-02
4.222412019042920406e-02
1.715046284996546433e-02
-7.401997897797940595e-03
-3.053834343646144589e-02
-5.173798090944714545e-02
-7.021948023004931372e-02
-8.559569240691899950e-02
-9.748188747697383860e-02
-1.052811211567892258e-01
-1.083857188825056994e-01
-1.067459057890616236e-01
-1.003850022805288233e-01
-8.931996368386307950e-02
-7.328197676353198631e-02
-5.246090429648830877e-02
-3.000173747037138128e-02
-1.076393862295432768e-02
