BVP Green Neck Signal
1.621553847900911519e-02
1.813234028002219320e-02
1.840934725551782170e-02
1.830414647581057180e-02
1.876516978700203814e-02
1.961047927668752369e-02
2.011626471202442382e-02
1.994898669861506699e-02
1.942183249715016477e-02
1.893066091972724768e-02
1.845603479822335857e-02
1.773453232573838495e-02
1.664755884391972557e-02
1.535452903354730253e-02
1.404887254698658841e-02
1.274567750495738533e-02
1.136927183704128895e-02
9.907142930822294968e-03
8.449657146458787113e-03
7.085367592809135515e-03
5.829945578467869531e-03
4.676867588698729872e-03
3.636456139111676755e-03
2.743318945970742509e-03
2.020091506212654160e-03
1.460571042755975761e-03
1.062539053131795336e-03
8.307685242718290328e-04
7.405248053518834889e-04
7.942709388348394295e-04
9.646344700073132550e-04
1.231159787905502026e-03
1.585064676009923131e-03
1.986240343716576262e-03
2.433299713201088343e-03
2.891841669723567432e-03
3.345116948347815616e-03
3.784019699292336721e-03
4.177733316917843845e-03
4.529340995580884849e-03
4.816427509229627077e-03
5.033145290819761655e-03
5.176228402605308199e-03
5.233553878108098550e-03
5.206735504910622522e-03
5.094769167906023147e-03
4.892052155329165361e-03
4.605881718203053490e-03
4.241059504289277152e-03
3.793137666547547436e-03
3.289138904231143565e-03
2.717210907040337221e-03
2.104891050761337201e-03
1.473700421253772846e-03
8.208513101863532113e-04
2.019544545061183541e-04
-3.926061924237091161e-04
-9.144879136260318855e-04
-1.328207706053679583e-03
-1.627662143495943632e-03
-1.750625876599698656e-03
-1.696010000433120953e-03
-1.423434408160455418e-03
-9.035564892691744579e-04
-1.342356338085246709e-04
9.055301202467568727e-04
2.219317992598180897e-03
3.791064065665943408e-03
5.613882117268125492e-03
7.663219493869098155e-03
9.881533154013678183e-03
1.226440408554819311e-02
1.471881848293347256e-02
1.719690633194024404e-02
1.964862040242993518e-02
2.195544535371285119e-02
2.411514183636923742e-02
2.599680452455921734e-02
2.754845840970138529e-02
2.872889506556080760e-02
2.942962710895451195e-02
2.967625577438600531e-02
2.937735980614251605e-02
2.852916177126244360e-02
2.713915679460237110e-02
2.518342225942648074e-02
2.272573934998033118e-02
1.977315891749310828e-02
1.638889918038505950e-02
1.263547936911657565e-02
8.593390558729508202e-03
4.335774806534496879e-03
-3.286145239538365570e-05
-4.418572318598453126e-03
-8.737333356322037753e-03
-1.284937344989245042e-02
-1.672135066647478102e-02
-2.020272270006179260e-02
-2.323068774965177802e-02
-2.574493587893582000e-02
-2.762127730177351206e-02
-2.889891715363492389e-02
-2.945123066090018712e-02
-2.929243055804412951e-02
-2.841913409471700722e-02
-2.678596938392308405e-02
-2.450043028139443566e-02
-2.151731924372428731e-02
-1.792904128150437509e-02
-1.379586325800249633e-02
-9.169900368443107547e-03
-4.182931800631866336e-03
1.109998608229013223e-03
6.585991645484316412e-03
1.214524850886959315e-02
1.767157193079966007e-02
2.307265168739004030e-02
2.822086201582308176e-02
3.303275768005278085e-02
3.741384264327538012e-02
4.124911873780733734e-02
4.453588422158549776e-02
4.713500489002258459e-02
4.905366342468598512e-02
5.024533040086721913e-02
5.065564530666363113e-02
5.037465368415205286e-02
4.931268319806430406e-02
4.756442007607021571e-02
4.514504380128699090e-02
4.208084535984175228e-02
3.850371796546338266e-02
3.440693762555604301e-02
2.991957366473547986e-02
2.510360224260461265e-02
2.004775085751829208e-02
1.485781275734630869e-02
9.612888545433170839e-03
4.413463223863474914e-03
-6.565134757751884056e-04
-5.483952581523552673e-03
-1.003279287036449099e-02
-1.416563163356022656e-02
-1.785131218790327740e-02
-2.101053511195121598e-02
-2.355196034418347018e-02
-2.551548028779565894e-02
-2.676219052419730529e-02
-2.734107474981041161e-02
-2.720744312080599150e-02
-2.633706266856530517e-02
-2.482591038430741540e-02
-2.260337752650696391e-02
-1.978400588930471354e-02
-1.638302484968507181e-02
-1.246736241279189708e-02
-8.151953821344877504e-03
-3.476260460969688749e-03
1.422114470595153488e-03
6.472154225239615949e-03
1.153918328131124660e-02
1.654094632066423209e-02
2.134764782128920069e-02
2.586155730279592752e-02
2.999653173317956903e-02
3.361612936052166961e-02
3.671672857748725649e-02
3.914861078124363958e-02
4.090583041147494853e-02
4.193903903870190714e-02
4.218029850389812957e-02
4.171438032701225984e-02
4.044867304861642088e-02
3.847443344883606786e-02
3.580611777526859080e-02
3.247458818569622097e-02
2.861131867391429259e-02
2.422027294468279135e-02
1.943977275242716671e-02
1.433611815544231192e-02
9.015716266743224738e-03
3.589684689984946886e-03
-1.848997860469791567e-03
-7.184766585999243470e-03
-1.232960691189272442e-02
-1.715426181927391658e-02
-2.161334053862075735e-02
-2.556693183932165145e-02
-2.897082585920656220e-02
-3.174765904759920682e-02
-3.380552693213956239e-02
-3.517368988398723861e-02
-3.573374806770355377e-02
-3.552966576195558390e-02
-3.452993959571785260e-02
-3.273127386136606004e-02
-3.022089181288898155e-02
-2.697190916342669456e-02
-2.310057310368424099e-02
-1.864653541952378257e-02
-1.370968157919670583e-02
-8.400204840084322944e-03
-2.810390557832388204e-03
2.920860801615630595e-03
8.691961595216447095e-03
1.434385422211246347e-02
1.979390485119688486e-02
2.487523260298108579e-02
2.950010424022470740e-02
3.355842828498874220e-02
3.692328979802770444e-02
3.959006192988290956e-02
4.141410174018264612e-02
4.241937759240888006e-02
4.255227973979228834e-02
4.179912003710559848e-02
4.024417894005042490e-02
3.784700748838180223e-02
3.473998513598335752e-02
3.095087604958557392e-02
2.659091359624000256e-02
2.178287861953665319e-02
1.660635517832604463e-02
1.122810154773237236e-02
5.728590673367480249e-03
2.828222424701024376e-04
-5.027831083540664804e-03
-1.005026146901600095e-02
-1.467754986934227332e-02
-1.882794876773334625e-02
-2.234954763995376445e-02
-2.525321183126332317e-02
-2.738351398639183101e-02
-2.874477628644541219e-02
-2.929282230101077841e-02
-2.896182521326380946e-02
-2.784715115565824725e-02
-2.585743444054426979e-02
-2.309663045669555978e-02
-1.957855293458278523e-02
-1.534646885151741066e-02
-1.053367851359679128e-02
-5.159408976586304756e-03
6.263208394659677478e-04
6.747484941854030305e-03
1.307056271550143152e-02
1.948172044960655089e-02
2.584840419610415913e-02
3.204507118947114847e-02
3.795702564443213800e-02
4.342001726421455821e-02
4.839100628395470727e-02
5.268013928154467729e-02
5.624927763553393134e-02
5.899880404219706720e-02
6.081425096405732034e-02
6.175279529029152614e-02
6.166184270419639707e-02
6.061859010477443216e-02
5.859715669940226968e-02
5.559254377660789725e-02
5.174825043184617945e-02
4.702632957304876682e-02
4.158627164115889091e-02
3.549596377801901570e-02
2.885675985414005301e-02
2.183320964175364254e-02
1.451542019330101171e-02
7.060144614404630439e-03
-4.019003179393867975e-04
-7.723590318193499123e-03
-1.479929166917524908e-02
-2.145629557075158858e-02
-2.762433339500932825e-02
-3.316414675960199093e-02
-3.795795979382216717e-02
-4.200512158197104023e-02
-4.512409259223527230e-02
-4.736685805964843676e-02
-4.863664072050236792e-02
-4.889794854346356245e-02
-4.824942713157777396e-02
-4.657366750943699174e-02
-4.402130979186439502e-02
-4.057246194296267733e-02
-3.628715995853164233e-02
-3.131920433791042513e-02
-2.566258348846501766e-02
-1.950269105949932816e-02
-1.290651788615984272e-02
-6.002006243955551774e-03
1.060543888525680711e-03
8.176083880671130427e-03
1.520114895387361317e-02
2.200759373186589318e-02
2.846203268966816108e-02
3.447523399872316069e-02
3.988865100123569624e-02
4.466520100435541346e-02
4.867544355862025995e-02
5.185348565163677703e-02
5.420758552562988247e-02
5.561126472383907948e-02
5.615397413342975569e-02
5.576510402317890608e-02
5.448518022622389489e-02
5.241091654894292073e-02
4.950837975653293865e-02
4.595087138358118495e-02
4.175041638013768375e-02
3.703230264505751046e-02
3.192836479922033649e-02
2.650122388490655859e-02
2.092249485311046750e-02
1.526711219812688577e-02
9.677161859018739917e-03
4.253753153116417857e-03
-8.886051468507778425e-04
-5.660312370594044844e-03
-9.966374728021695079e-03
-1.372008483443886220e-02
-1.689145162592949403e-02
-1.937650812137112905e-02
-2.120127359543609244e-02
-2.229370494791261051e-02
-2.266345218755823343e-02
-2.235283455761131674e-02
-2.132176038153384134e-02
-1.969014708478205103e-02
-1.743899710824399832e-02
-1.467025807766119197e-02
-1.146671148032694931e-02
-7.873909515431046918e-03
-4.041136475703615248e-03
-4.861597501584768999e-06
4.088633457011128097e-03
8.169139503669004682e-03
1.212732528682741728e-02
1.586301055995512077e-02
1.931233979635430323e-02
2.235192205872797364e-02
2.497271192332546630e-02
2.705275509456078059e-02
2.859227050202107004e-02
2.954047484499764883e-02
2.984665657428701990e-02
2.957805560519449067e-02
2.865109841607394944e-02
2.716107902284631975e-02
2.509707121090862247e-02
2.248747512385050953e-02
1.944398041769418092e-02
1.594706725117741447e-02
1.212805858859207150e-02
8.016824775874488440e-03
3.689531576960076303e-03
-7.545203119837017372e-04
-5.269468662129878946e-03
-9.757013099864091099e-03
-1.415731323184489174e-02
-1.838277762006456165e-02
-2.238666788863775611e-02
-2.606972883280403788e-02
-2.940310473465582511e-02
-3.231180116737684266e-02
-3.472247520229174156e-02
-3.665068980574066188e-02
-3.797549421366159389e-02
-3.873738573543703684e-02
-3.887408937574185486e-02
-3.834756362868662477e-02
-3.722658740280802847e-02
-3.542065849090968860e-02
-3.301799308326675009e-02
-3.000674070454098855e-02
-2.640017340957428668e-02
-2.230293893187172000e-02
-1.770411463946850589e-02
-1.270861563937809163e-02
-7.380090103245342571e-03
-1.780832450135254146e-03
3.973790573187228198e-03
9.804553518042376931e-03
1.562779953248719447e-02
2.131813998801975266e-02
2.679889883206223664e-02
3.197949646458980721e-02
3.673582629900157270e-02
4.104476316609157599e-02
4.477221320943308019e-02
4.788273642137178682e-02
5.034276544697566247e-02
5.205917030909672227e-02
5.308851599602576465e-02
5.334823225280795056e-02
5.288413729161972610e-02
5.172646141983394674e-02
4.987097927926324031e-02
4.743373905963346043e-02
4.441478601650563490e-02
4.093412519733063970e-02
3.705963218432758999e-02
3.288057970542852815e-02
2.851736172082229570e-02
2.404065651947081758e-02
1.959056110740863346e-02
1.523087311474664168e-02
1.109659853112602602e-02
7.253499608903717435e-03
3.800935604877487585e-03
8.283582203755576051e-04
-1.636512116171225974e-03
-3.487068355398240636e-03
-4.745053380984202464e-03
-5.335463895672414199e-03
-5.273364048803147290e-03
-4.578003556430967035e-03
-3.237112731396918179e-03
-1.351898082505323569e-03
1.088927619341246641e-03
3.959816208284725955e-03
7.211833477142592756e-03
1.074605471230158024e-02
1.443286616457842980e-02
1.822072966799905339e-02
2.192736811984996245e-02
2.551351229136169727e-02
2.881692818595439631e-02
3.174791389722756568e-02
3.423400063435425023e-02
3.612334879970954815e-02
3.742329768393558298e-02
3.799739296738220001e-02
3.784250432302431466e-02
3.692457299084783012e-02
3.519681815481285475e-02
3.272468960027037632e-02
2.947960692007805389e-02
2.554296811916120444e-02
2.096078819413254093e-02
1.581134179758189248e-02
1.019552083344143004e-02
4.219990786163030361e-03
-1.999138790613892193e-03
-8.336724700710836794e-03
-1.463553060880344592e-02
-2.080281015835916750e-02
-2.664178733591720735e-02
-3.207103073079108080e-02
-3.693402607961480955e-02
-4.108572944096951923e-02
-4.448752664774772297e-02
-4.695537013714876778e-02
-4.849959853304966484e-02
-4.901217935882992011e-02
-4.845336978218407753e-02
-4.686815127326653119e-02
-4.419404225659392255e-02
-4.054494444551424298e-02
-3.592883261982544874e-02
-3.044787717218554526e-02
-2.421946397851025209e-02
-1.734799324294729328e-02
-9.998815810748726274e-03
-2.303914615082609633e-03
5.543992591738549844e-03
1.341051597064017546e-02
2.107631107255012945e-02
2.841907789387559946e-02
3.524552381538371276e-02
4.138754059182689349e-02
4.676642871895603237e-02
5.117016455162256422e-02
5.460210661780764974e-02
5.690592848752122623e-02
5.804658619634651961e-02
5.804556166437762482e-02
5.681518789602679753e-02
5.449863048031165780e-02
5.105096238858728569e-02
4.660118622209371425e-02
4.125922304531883661e-02
3.510477075711788270e-02
2.835539881817301586e-02
2.109095802594588426e-02
1.353976889118103585e-02
5.843696163114904182e-03
-1.802683723322785585e-03
-9.214934777082996187e-03
-1.624078873421727631e-02
-2.267836595792070004e-02
-2.842531442381991333e-02
-3.329234275293653511e-02
-3.722183734996376697e-02
-4.008128229202156945e-02
-4.181304287880269199e-02
-4.240640736078149509e-02
-4.179676887518106454e-02
-4.008319754312635735e-02
-3.723451661805563667e-02
-3.337752784207136114e-02
-2.859931789623732998e-02
-2.300569825762329920e-02
-1.679889600059837271e-02
-1.006969941656913475e-02
-3.060298668106287666e-03
4.093927548282785302e-03
1.118081541109635507e-02
1.801178933148547129e-02
2.443479240334477803e-02
3.024010076093252772e-02
3.532825991317552206e-02
3.951998327102022174e-02
4.275580232372557660e-02
4.492532609436049318e-02
4.598575941822641983e-02
4.593614675718415280e-02
4.474966064859223908e-02
4.253104363362785606e-02
3.928225302159776833e-02
3.515576000707142101e-02
3.024194256592223004e-02
2.468496552570439637e-02
1.867967212821666431e-02
1.233249569941393536e-02
5.894308011329397502e-03
-5.251295239894326200e-04
-6.699022385242683029e-03
-1.247592174864835257e-02
-1.771641042779445105e-02
-2.222391781637751695e-02
-2.595156889922224999e-02
-2.871847530123180017e-02
-3.051728747597088828e-02
-3.125738173708138279e-02
-3.090411346523740457e-02
-2.951071551213982694e-02
-2.703235639341229971e-02
-2.361135374635721026e-02
-1.925431180848610757e-02
-1.409280999925694583e-02
-8.254953536428903671e-03
-1.842131561615295392e-03
4.941822257368220714e-03
1.199783641444102274e-02
1.912036606458938220e-02
2.617806652255020086e-02
3.298967283356422225e-02
3.941682212283009051e-02
4.531974046604194534e-02
5.054455737356209483e-02
5.503098679179549424e-02
5.861409916638251477e-02
6.130470044962094134e-02
6.298822605384332696e-02
6.364125848603112423e-02
6.330513266021949026e-02
6.190310545524368990e-02
5.958444506719552669e-02
5.630814462956257316e-02
5.217465459698718971e-02
4.730015342132893458e-02
4.171625298523995440e-02
3.561878793059276849e-02
2.905527686011389124e-02
2.217679649220845317e-02
1.511410972310531231e-02
7.980649849931150883e-03
9.107565979156809211e-04
-5.974099364521044501e-03
-1.255548879511533128e-02
-1.873829891361258881e-02
-2.437647990440128601e-02
-2.945422568650578679e-02
-3.381293810349679518e-02
-3.741726145135853415e-02
-4.022948317702460669e-02
-4.213109150330432429e-02
-4.321757280846596355e-02
-4.335444460380225712e-02
-4.260360474728307895e-02
-4.098970851489328049e-02
-3.848194513278969248e-02
-3.524002164141317589e-02
-3.122017249299247413e-02
-2.656308785569260270e-02
-2.134781648386525552e-02
-1.565870408268514591e-02
-9.655949175726215306e-03
-3.414595210977444152e-03
2.898857724504758614e-03
9.180422507032329899e-03
1.526768124070707056e-02
2.106484081500680644e-02
2.642013181131242991e-02
3.122098459444828944e-02
3.538927508067282041e-02
3.877995849883197205e-02
4.140678825894943821e-02
4.313364648379811039e-02
4.396961359439999217e-02
4.390403428239653127e-02
4.290206865703388023e-02
4.108020400206229689e-02
3.839570288981103419e-02
3.498468091741718800e-02
3.090326774180138583e-02
2.625397764478749549e-02
2.119349626194355976e-02
1.579047098413104491e-02
1.024313705078043826e-02
4.635243222006111240e-03
-8.454744132573464507e-04
-6.086106773860099246e-03
-1.095178342516262004e-02
-1.528384505541867042e-02
-1.902524154629785594e-02
-2.200569308602308427e-02
-2.421946380823490272e-02
-2.554837105631966795e-02
-2.595891043627406372e-02
-2.546208910592207345e-02
-2.400185297521906583e-02
-2.168683194905064726e-02
-1.849002668670291991e-02
-1.452186348059435195e-02
-9.863174920909108245e-03
-4.606893482383641637e-03
1.085731588735121787e-03
7.128415326608699212e-03
1.333162092772185829e-02
1.959164721961777558e-02
2.571491538130878107e-02
3.159209353917566410e-02
3.706729460498708884e-02
4.198430444370896547e-02
4.628699030449704571e-02
4.977985153309402028e-02
5.248774744988127933e-02
5.426237072437322534e-02
5.506621075998818088e-02
5.493286114650692414e-02
5.374999356843534332e-02
5.167493730446785088e-02
4.863006290660375208e-02
4.470144788261640884e-02
3.999749256345599274e-02
3.452106997493418344e-02
2.847694030651338332e-02
2.188620302402374818e-02
1.489428882732459283e-02
7.633051041712500713e-03
2.038858428459102562e-04
-7.246489555503432371e-03
-1.460133265848701997e-02
-2.173463113737795702e-02
-2.853729926602467312e-02
-3.485314875050482541e-02
-4.065218939296190437e-02
-4.575493389613376899e-02
-5.010660379841411216e-02
-5.364690458677750379e-02
-5.622860060823795664e-02
-5.793651930814106704e-02
-5.860061657676487318e-02
-5.826012096870757800e-02
-5.692343142211627599e-02
-5.452766416478021377e-02
-5.123438218495458829e-02
-4.697363841973892229e-02
-4.187241118298760945e-02
-3.601804349883794276e-02
-2.947661881643418372e-02
-2.242805107288864397e-02
-1.495090440169450502e-02
-7.212036360696891420e-03
6.444373736155190394e-04
8.454223273730864657e-03
1.608879600753323341e-02
2.335983727520925604e-02
3.014672320822110729e-02
3.630972320514914975e-02
4.169047749961653920e-02
4.627321215839839963e-02
4.986995991447813747e-02
5.249099420647613395e-02
5.406890776066694548e-02
5.456351566698093569e-02
5.408426672302241861e-02
5.254778433529785908e-02
5.011238205066427531e-02
4.680322960130692267e-02
4.273430884368828453e-02
3.807773782655137634e-02
3.288427573426785239e-02
2.738518903078143718e-02
2.165841389849036680e-02
1.591143471528196768e-02
1.027688280160978483e-02
4.892685643710879655e-03
-5.708003571712211982e-05
-4.505512610076597459e-03
-8.263500091463576308e-03
-1.131634335125743934e-02
-1.352466824104303633e-02
-1.484602029910925963e-02
-1.527273781604858785e-02
-1.473218520549205920e-02
-1.333755221313385683e-02
-1.102571060699312350e-02
-7.911569165325201686e-03
-4.054165580248855240e-03
4.698974652339186001e-04
5.484864504287551706e-03
1.094519449380681325e-02
1.664863617844535015e-02
2.250512668989752482e-02
2.833372050750981169e-02
3.400117395244642987e-02
3.937983539841189567e-02
4.429439567320963417e-02
4.868345694246663941e-02
5.235603237626074158e-02
5.530651313599231622e-02
5.739464248449276107e-02
5.856283830390147244e-02
5.882502054037101746e-02
5.806847667321746870e-02
5.642402893126693963e-02
5.381021590857325287e-02
5.029957442565761994e-02
4.598280013567093705e-02
4.086291672113419315e-02
3.513112900417615647e-02
2.880624139958102084e-02
2.202746979849484754e-02
1.492384245482611393e-02
7.597573214764630385e-03
1.917620878410953439e-04
-7.170290429844614934e-03
-1.437037406512789092e-02
-2.128838368502591200e-02
-2.777089874108765524e-02
-3.379442505552236742e-02
-3.916334951895589223e-02
-4.383982996422391282e-02
-4.774669205138776934e-02
-5.073904425619075315e-02
-5.291802623629536517e-02
-5.408412527275166526e-02
-5.429603299177340747e-02
-5.354303737523580242e-02
-5.175134259786852431e-02
-4.910275230455551226e-02
-4.548277942828959225e-02
-4.102722199831818767e-02
-3.580301665479673073e-02
-2.984876936261202443e-02
-2.335538355826876147e-02
-1.635431961129873990e-02
-9.005459103573389829e-03
-1.433253275838331127e-03
6.223227986713396331e-03
1.384428857564739060e-02
2.126215501225136098e-02
2.836593658285322186e-02
3.502682642013337649e-02
4.107132224525240211e-02
4.650869813586962914e-02
5.111143438358457802e-02
5.487653670232982284e-02
5.772913494872138063e-02
5.954479828054804608e-02
6.046351165622787516e-02
6.029631572453656579e-02
5.915586552768394707e-02
5.704859677141347479e-02
5.395258150186088564e-02
5.007663295074046145e-02
4.534239526296818951e-02
3.992919697539554225e-02
3.391373260910128529e-02
2.738080428579488246e-02
2.051977426112498726e-02
1.338774719684199255e-02
6.156455950624316158e-03
-1.059740123221954329e-03
-8.109725336488515790e-03
-1.489302578740121785e-02
-2.124917085747056109e-02
-2.708260334325516758e-02
-3.228588661823147965e-02
-3.671566047590511805e-02
-4.038959404777606871e-02
-4.312728298065005711e-02
-4.494986504879675687e-02
-4.580302026493703743e-02
-4.562892111783845017e-02
-4.454724053410095974e-02
-4.245481889922499141e-02
-3.948418706422637120e-02
-3.566209100808098026e-02
-3.105608681969062798e-02
-2.583285006418133481e-02
-2.002399719760884073e-02
-1.381673768704800090e-02
-7.307350998091836393e-03
-6.597667050472358699e-04
5.991502260155106771e-03
1.250041762987687960e-02
1.871807919334240317e-02
2.453240320563022936e-02
2.977287235485587963e-02
3.440742479810970922e-02
3.826086783968110638e-02
4.130384377322227768e-02
4.347021788798920150e-02
4.467866787244380300e-02
4.501537412035363367e-02
4.437013495080148473e-02
4.284961508836067356e-02
4.046094747839178163e-02
3.725617244993125604e-02
3.338442987733366424e-02
2.885276526788669443e-02
2.384435128678201454e-02
1.842082711376970619e-02
1.274233004429302027e-02
6.929071237222101526e-03
1.100142274975378538e-03
-4.579523275134673131e-03
-1.003546768322062521e-02
-1.506953310952378194e-02
-1.965919188819248431e-02
-2.362396500272359243e-02
-2.689145092517669991e-02
-2.941350866123755223e-02
-3.103464331021498976e-02
-3.184353310178619084e-02
-3.167805783490348220e-02
-3.058523114262998513e-02
-2.857344403050144158e-02
-2.559481965710206156e-02
-2.181514893852349105e-02
-1.717147788114620557e-02
-1.180718067272412339e-02
-5.800372165306803655e-03
7.684804094498197402e-04
7.719602021205565837e-03
1.497913445089027115e-02
2.237279687934801489e-02
2.977275710055411750e-02
3.701230178140819255e-02
4.397166115432143280e-02
5.047645461908185222e-02
5.640933111423240831e-02
6.165133841099425943e-02
6.604248584872234040e-02
6.958522297829389247e-02
7.210111804369932764e-02
7.359989857451484929e-02
7.403946936473286555e-02
7.335478027828383485e-02
7.168127110919601808e-02
6.892700629831209624e-02
6.522749160528301671e-02
6.064168002888911668e-02
5.521909043180565912e-02
4.916509805357989482e-02
4.250277209006176476e-02
3.541355644528362129e-02
2.802560539494745526e-02
2.045098969386004856e-02
1.286698339854373124e-02
5.381152737887256662e-03
-1.882266018105459467e-03
-8.781192715691849698e-03
-1.521922153798320118e-02
-2.111876744975355047e-02
-2.634654897776751367e-02
-3.089922314707151466e-02
-3.466630003173885172e-02
-3.762493055463576874e-02
-3.980689527193796012e-02
-4.111229278107061264e-02
-4.165392722336275916e-02
-4.137627709168108237e-02
-4.034672294443586438e-02
-3.866283815857372158e-02
-3.630154463583661062e-02
-3.343405231865431010e-02
-3.006413118820798827e-02
-2.632676104931390079e-02
-2.232171354850715286e-02
-1.811362832254535121e-02
-1.385466489373189322e-02
-9.591963212265058186e-03
-5.473812850067104156e-03
-1.549404015823753651e-03
2.063120571806686954e-03
5.293798922562995349e-03
8.083881080589565629e-03
1.033770400953121053e-02
1.207391326932415188e-02
1.318717311971719444e-02
1.371185217855764790e-02
1.360963108007590822e-02
1.288818411038513377e-02
1.161019952910174666e-02
9.750761077860617410e-03
7.425062248278454721e-03
4.632274463021238999e-03
1.496932482838527270e-03
-1.924357385473235600e-03
-5.542955573811131874e-03
-9.219157545780207880e-03
-1.292450342001639010e-02
-1.645186801148112998e-02
-1.980193148226836591e-02
-2.279549277707395433e-02
-2.533196579839700271e-02
-2.738404953531012667e-02
-2.873418961603401919e-02
-2.946664199563430245e-02
-2.938683457706506644e-02
-2.847789392625741864e-02
-2.675412462934386240e-02
-2.407302571495050295e-02
-2.059083180159155396e-02
-1.619649155108203453e-02
-1.096355386742832796e-02
-4.976564775688596849e-03
1.771107168104065453e-03
9.103637894223826424e-03
1.697667990136081037e-02
2.526675200562145118e-02
3.382615510971744704e-02
4.252271947273091740e-02
5.123658828374603319e-02
5.976314744481971142e-02
6.799805677259804226e-02
7.577433101288906514e-02
8.287856709478076678e-02
8.930724472254442103e-02
9.476575772446994839e-02
9.923090363027860239e-02
1.025803149404232589e-01
1.046147306911554553e-01
1.054619428870470776e-01
1.048591675019843877e-01
1.028896866177934077e-01
9.953557017985156796e-02
9.470430403802890251e-02
8.861909607619916640e-02
8.117142362522415666e-02
7.252900639799676752e-02
6.281136562241261545e-02
5.207968685378704804e-02
4.058604735827145427e-02
2.844005748335886805e-02
1.583222504738496239e-02
3.005233977872750172e-03
-9.857992551913174334e-03
-2.255310691693397998e-02
-3.479563977347979731e-02
-4.646180043491637129e-02
-5.726328729440841731e-02
-6.701024070832946322e-02
-7.561884017388498247e-02
-8.277644336463538255e-02
-8.851272464198609025e-02
-9.261206916113645660e-02
-9.501756587203681603e-02
-9.580531425857730099e-02
-9.480416712297003168e-02
-9.222484894676143130e-02
-8.801761609823409438e-02
-8.232782924012461978e-02
-7.536218270532335506e-02
-6.717602197805030984e-02
-5.808667765617090556e-02
-4.821519050197961564e-02
-3.784529578274010986e-02
-2.721052562399680838e-02
-1.653710135753102065e-02
-6.091330900801976249e-03
3.923782654665726802e-03
1.325267052693516502e-02
2.176017768457613744e-02
2.920091489966332443e-02
3.550756148997558093e-02
4.051265710834495160e-02
4.414637246874681537e-02
4.643531147183196234e-02
4.725760812022085366e-02
4.678341782044460190e-02
4.495092032517655073e-02
4.192196968113483940e-02
3.784473867300316291e-02
3.277313181178372059e-02
2.701734528221439585e-02
2.061429521313756438e-02
1.387068956807417999e-02
6.944988185897421618e-03
1.700027062270965950e-05
-6.631145103291818423e-03
-1.292288316395242068e-02
-1.856230100026367430e-02
-2.348629966960954010e-02
-2.749680688127927389e-02
-3.047662702547156502e-02
-3.237924648104927028e-02
-3.305521706015209643e-02
-3.257998077432067846e-02
-3.084639783892411877e-02
-2.794092010080674940e-02
-2.389639433437019608e-02
-1.876171559624830593e-02
-1.271667804559722253e-02
-5.802767934407687851e-03
1.761598723880280874e-03
9.861115563191517885e-03
1.830204995887165995e-02
2.689231994127265143e-02
3.546592960359058744e-02
4.380988915933774208e-02
5.177361900044614995e-02
5.914131870753707582e-02
6.580778782603768917e-02
7.157269607420582713e-02
7.635204861713344726e-02
8.003308985046300728e-02
8.250010290476736396e-02
8.378800147171264201e-02
8.376902248044415522e-02
8.253063778707750431e-02
8.005624283546632081e-02
7.638504385945750486e-02
7.166805861255746979e-02
6.591307846178154350e-02
5.931722055015599404e-02
5.196882400525414114e-02
4.402363191764432221e-02
3.566327791404037134e-02
2.702253958410434989e-02
1.828741363178874521e-02
9.614952773917146908e-03
1.182251510352258332e-03
-6.886904959740830327e-03
-1.439439318183308170e-02
-2.126837864280212501e-02
-2.734054118480728005e-02
-3.250859323348661428e-02
-3.675334454214573832e-02
-3.990246177991658982e-02
-4.203614441925188766e-02
-4.303514217606586173e-02
-4.292848548829499705e-02
-4.179724874822120934e-02
-3.957408831469804572e-02
-3.645686037615595426e-02
-3.241884258904018101e-02
-2.761563284246625408e-02
-2.218395918606992298e-02
-1.619230956907256880e-02
-9.869083163950635035e-03
-3.282058962744590670e-03
3.355120960430291351e-03
9.919732504506577689e-03
1.624981827809153165e-02
2.219254247672244884e-02
2.763631203945573350e-02
3.241510166333767123e-02
3.648837409524829239e-02
3.969564549948206844e-02
4.203335723075413838e-02
4.341864452351386350e-02
4.381451009877828512e-02
4.328792393093372493e-02
4.176402042228222200e-02
3.938385488620960162e-02
3.613841017920531307e-02
3.212600547050820793e-02
2.748671275337241302e-02
2.225599266978330396e-02
1.664015422013250325e-02
1.070099819035131780e-02
4.604435535171505674e-03
-1.506118314360207870e-03
-7.524487526337238393e-03
-1.328550867272910649e-02
-1.869722707230922140e-02
-2.362469186764470583e-02
-2.798488323585380730e-02
-3.167450132331524337e-02
-3.464423273934209846e-02
-3.682361250083086152e-02
-3.818220511521944888e-02
-3.872405703537717264e-02
-3.841497752309656205e-02
-3.733049067166469004e-02
-3.546072010890861242e-02
-3.289360048572437939e-02
-2.970374487788767989e-02
-2.595186146994077001e-02
-2.178246068145905587e-02
-1.725261500339106066e-02
-1.251569229533748898e-02
-7.665628280797548259e-03
-2.826020084558835029e-03
1.880823848550722960e-03
6.363485725006955834e-03
1.049395991633999756e-02
1.421558427851106823e-02
1.741202145973986398e-02
2.005504483492092857e-02
2.206768274566823021e-02
2.342166744827227018e-02
2.412282977127382447e-02
2.412813741535728765e-02
2.351413102276059264e-02
2.225323788365672281e-02
2.043459061321971013e-02
1.810653060471004508e-02
1.532512593280534532e-02
1.221965769911953839e-02
8.815530936944955889e-03
5.275600019886351327e-03
1.644525017232089867e-03
-1.946229936200537074e-03
-5.389225203975255181e-03
-8.627280404067773356e-03
-1.149638891739104829e-02
-1.399144704286610710e-02
-1.596233746503781387e-02
-1.737497339903124743e-02
-1.817571959630568182e-02
-1.826758441991463075e-02
-1.769870704951066048e-02
-1.637242312243373382e-02
-1.434364386358665325e-02
-1.160692938689892803e-02
-8.174566310295693083e-03
-4.144499995576009059e-03
4.706855636994007261e-04
5.549413585825671395e-03
1.102145551973898567e-02
1.677521930810439710e-02
2.269057412839283611e-02
2.864866440260170621e-02
3.452165856627093660e-02
4.018494059736602703e-02
4.549707651572412054e-02
5.036865438874654072e-02
5.464614448004432440e-02
5.827176863024481623e-02
6.113410880252922314e-02
6.315598468562075296e-02
6.433151037583101362e-02
6.456916438958044957e-02
6.392536555885927618e-02
6.236841628927987380e-02
5.993736441233466633e-02
5.671786532444086232e-02
5.273088487966094001e-02
4.811647061007941900e-02
4.293702584554943968e-02
3.731641252309895324e-02
3.138266236053299102e-02
2.524507086935639036e-02
1.904035438027576466e-02
1.288917134260372452e-02
6.915251168272111386e-03
1.223376389430205942e-03
-4.056395716700653652e-03
-8.871330375699537640e-03
-1.309536275330893534e-02
-1.668391810117858878e-02
-1.959550327809765624e-02
-2.174809852737414478e-02
-2.320070370271696408e-02
-2.386742728648270223e-02
-2.381439496364232133e-02
-2.306391648734149730e-02
-2.162233901036748548e-02
-1.962654726462948612e-02
-1.705604638063787717e-02
-1.406145423363673597e-02
-1.069895796931812429e-02
-7.060761274213431075e-03
-3.290257512225075280e-03
5.713749780477204304e-04
4.356564023016714672e-03
8.018011132682681050e-03
1.142366187394690258e-02
1.449517368952106880e-02
1.716456093730604412e-02
1.932384878896614352e-02
2.096960227351737233e-02
2.199908172255515479e-02
2.243344482608503748e-02
2.222573473670531874e-02
2.137355747764786013e-02
1.992341008676587130e-02
1.785687486293307050e-02
1.527359437316814367e-02
1.218074625050422771e-02
8.674917029175173433e-03
4.827262011812398848e-03
7.167030631902446616e-04
-3.538918644447382016e-03
-7.876458833392087355e-03
-1.215226711750399397e-02
-1.631011646386048772e-02
-2.020951876599238334e-02
-2.377842748304299578e-02
-2.692838034695800922e-02
-2.953880784561479719e-02
-3.160002843694745961e-02
-3.297861728414151067e-02
-3.368295569308229348e-02
-3.364917866993259038e-02
-3.283624958006853972e-02
-3.129186289752051986e-02
-2.896180228483996935e-02
-2.592866980444685429e-02
-2.220199971053985269e-02
-1.784026061027670085e-02
-1.293685534983043950e-02
-7.556554296517096515e-03
-1.813098828769559891e-03
4.192940565879420614e-03
1.033519803484301940e-02
1.651112099283156068e-02
2.255977152058742663e-02
2.840254563175834829e-02
3.388153796167778925e-02
3.887602997703990676e-02
4.332475692890459112e-02
4.704882812428955174e-02
5.006202286386769035e-02
5.221989255961251297e-02
5.348319616463667603e-02
5.386993921845744521e-02
5.327436742420248172e-02
5.181587991506926560e-02
4.943196613331472811e-02
4.619613071599553561e-02
4.220347424339342124e-02
3.747086899703832436e-02
3.217317358256733401e-02
2.635355619670549238e-02
2.015984429462866490e-02
1.371546931097079175e-02
7.141737333375352929e-03
5.788688130654818728e-04
-5.851659942948479222e-03
-1.200812655528139469e-02
-1.780130077453833531e-02
-2.306829425077526474e-02
-2.777730060547236104e-02
-3.178303512128523300e-02
-3.502093315882965491e-02
-3.747739417673448536e-02
-3.901882441383611178e-02
-3.974152714816368143e-02
-3.953460966561596346e-02
-3.843764796444164994e-02
-3.651991057577052419e-02
-3.372512803709137863e-02
-3.023858652559192547e-02
-2.602472770589355291e-02
-2.120063073211120655e-02
-1.589361167895046376e-02
-1.013189045380861325e-02
-4.112493130724432198e-03
2.116789938836742720e-03
8.426021879558744099e-03
1.467800477532720839e-02
2.079268674305934789e-02
2.664620401554806256e-02
3.213714959673826671e-02
3.719417631134177421e-02
4.172871106078158976e-02
4.565957030190413019e-02
4.899481459866384531e-02
5.162897313901072122e-02
5.358671271055979318e-02
5.486822332637266569e-02
5.542254440966205148e-02
5.538637469237604749e-02
5.468454018098539010e-02
5.341164783360288076e-02
5.164739747899937949e-02
4.936295136818707324e-02
4.674803672039355706e-02
4.376053805565096461e-02
4.049053461738900961e-02
3.704068902409672626e-02
3.337976749031686813e-02
2.964435171975643088e-02
2.581890439169565524e-02
2.192795555072821895e-02
1.804180649255898022e-02
1.413411257966695408e-02
1.023039571208281956e-02
6.361267741011365426e-03
2.495622247748381997e-03
-1.331312320893100580e-03
-5.092825895972967302e-03
-8.843049105014752498e-03
-1.247302707842163488e-02
-1.600822966826965024e-02
-1.941044430078993702e-02
-2.257349404875492321e-02
-2.555614325064782186e-02
-2.818637807124747471e-02
-3.045160673856020864e-02
-3.229209274233960092e-02
-3.358022061027426258e-02
-3.434229366415845336e-02
-3.443508986379123504e-02
-3.385407271126095879e-02
-3.255751798404257075e-02
-3.051851807922225171e-02
-2.776541011926668065e-02
-2.429815847554761196e-02
-2.020047829951327964e-02
-1.551090773774792611e-02
-1.037656740477499104e-02
-4.875090990625230609e-03
8.269747296252259738e-04
6.555895779157174495e-03
1.219273664890735756e-02
1.749938611143440209e-02
2.237295986091679054e-02
2.660304299134438888e-02
3.004925283962994742e-02
3.259703223328324490e-02
3.411974822235822741e-02
3.457554307638457253e-02
3.388901813679710134e-02
3.210300833512050311e-02
2.919768058953988929e-02
2.530945209450353311e-02
2.051096325641441412e-02
1.494192706958953620e-02
8.855551424883301853e-03
2.331856244599524002e-03
-4.272605096413028235e-03
-1.081965485936451504e-02
-1.704580010083910774e-02
-2.263300202368434544e-02
-2.748936171242860257e-02
-3.126130596241296494e-02
-3.386583760759814127e-02
-3.511193807853430632e-02
-3.483726701045117280e-02
-3.304573845059289444e-02
-2.963623309447327089e-02
-2.467374270247882709e-02
-1.820344955721668254e-02
-1.035091945548626685e-02
-1.255623703867538889e-03
8.830146753116514119e-03
1.971869979313482790e-02
3.111285646588213619e-02
4.266782116027220684e-02
5.418445372752761502e-02
6.518598840240509562e-02
7.551558470485333907e-02
8.477785921120062351e-02
9.264685036037695332e-02
9.901590711461692729e-02
1.034607890198483982e-01
1.060292024056156412e-01
1.064496614488611020e-01
1.046480867354132593e-01
1.007225511077539937e-01
9.453511336605431581e-02
8.638025221533829345e-02
7.625396396431369239e-02
6.438516631229503073e-02
5.105558876306252880e-02
3.645703129703886658e-02
2.098441147375573745e-02
4.889604573372450733e-03
-1.145921903291940297e-02
-2.773896624241068212e-02
-4.357441618836541131e-02
-5.871065917244889382e-02
-7.277136421899121910e-02
-8.549818984230286856e-02
-9.668783062669664141e-02
-1.059952816413928245e-01
-1.134711592547434922e-01
-1.187738893239679849e-01
-1.219144836222712525e-01
-1.228922657141225117e-01
-1.215440167610936650e-01
-1.182129083293466942e-01
-1.127105760021316488e-01
-1.053009411971600889e-01
-9.616687953770464148e-02
-8.535921488500505805e-02
-7.334568610723753157e-02
-6.014061291048281715e-02
-4.610294653967005052e-02
-3.151262144268811988e-02
-1.656232725909107667e-02
-1.628980663513445067e-03
1.309535963534562419e-02
2.735169724974887903e-02
4.086938823754141664e-02
5.343872491447483608e-02
6.492810889538783159e-02
7.505964512781235221e-02
8.380773074388256361e-02
9.100322553745650300e-02
9.653722627486910346e-02
1.005581213280837410e-01
1.028234437071796070e-01
1.035526250492996708e-01
1.027212272625710049e-01
1.003690443709865793e-01
9.682929265690884413e-02
9.197789707084183530e-02
8.616276041594121693e-02
7.947629809649599253e-02
7.205944462601900080e-02
6.425815024031435174e-02
5.607522069944959747e-02
4.781085262519772089e-02
3.960127970482776177e-02
3.158707410815018990e-02
2.397419915709757612e-02
1.684476168360985598e-02
1.031589006922739755e-02
4.499603656813164210e-03
-5.501563124348041525e-04
-4.825078726661984931e-03
-8.224911308801617638e-03
-1.084329105473079424e-02
-1.262017825737627580e-02
-1.361201515635196077e-02
-1.395755408547889875e-02
-1.358134131116630824e-02
-1.271093006605908057e-02
-1.132674803862190535e-02
-9.558388272788431728e-03
-7.582604720583230838e-03
-5.364667928344770027e-03
-3.143271848787995183e-03
-9.102181299318517008e-04
1.199518883048439170e-03
3.071413939264788610e-03
4.711320798668547707e-03
5.971975702691561215e-03
6.876412829165353714e-03
7.347180761293312275e-03
7.373393975417840904e-03
6.959922900757732622e-03
6.086904003582010309e-03
4.797376224188474106e-03
3.099435698762554106e-03
1.055357595901747908e-03
-1.306538264050124097e-03
-3.912442874521364529e-03
-6.715364092573699283e-03
-9.632947650347237212e-03
-1.259725839293060132e-02
-1.554636601448253566e-02
-1.837858954465611955e-02
-2.106412086722185550e-02
-2.348317817934386306e-02
-2.561719280409096786e-02
-2.738193477119637773e-02
-2.870523488170360557e-02
-2.958933728811117755e-02
-2.992504836091302092e-02
-2.975806646113729817e-02
-2.901704786261381439e-02
-2.768778443226229888e-02
-2.581211302504469660e-02
-2.333788778328071620e-02
-2.035410002861353859e-02
-1.684985784800588707e-02
-1.286758427835022270e-02
-8.488822581763123820e-03
-3.746183773508902047e-03
1.269354696752373127e-03
6.478059180552949749e-03
1.181012087029106178e-02
1.716175372422792944e-02
2.242768286885245613e-02
2.756351332347629565e-02
3.241474018621946784e-02
3.693224598702775363e-02
4.102688749631444587e-02
4.457215578045024829e-02
4.760455991136843673e-02
4.995361919091489966e-02
5.163226303945683132e-02
5.260369199970610365e-02
5.278423515336273103e-02
5.228816259356785373e-02
5.100039248413730519e-02
4.900371884076878959e-02
4.632769903429192343e-02
4.297285146057959471e-02
3.908280875452107422e-02
3.464441839597914852e-02
2.977525467178093743e-02
2.455225212191670947e-02
1.905941451265800307e-02
1.340148292810356551e-02
7.672820379468118721e-03
1.972697773557316112e-03
-3.606749220982003769e-03
-8.931600790569305809e-03
-1.397851387854722599e-02
-1.857886006983148694e-02
-2.269154084944021571e-02
-2.623832647131038934e-02
-2.909234304992567785e-02
-3.131213625629921532e-02
-3.272662592730885001e-02
-3.337236841707734436e-02
-3.321293920014434936e-02
-3.219682995681209109e-02
-3.043514635002983124e-02
-2.784286258336509876e-02
-2.453068560014587743e-02
-2.052456373392225197e-02
-1.589457792754293136e-02
-1.076103419891635826e-02
-5.181879907024179201e-03
6.903355699421943881e-04
6.770887030993363864e-03
1.288197276272682809e-02
1.894129819007288329e-02
2.476843892677383155e-02
3.023266255257819196e-02
3.523259359091302639e-02
3.956989263026682718e-02
4.324320907619334797e-02
4.605087804905693555e-02
4.795820412212292716e-02
4.891150588124000553e-02
4.880952650493101258e-02
4.774561320452114233e-02
4.561858904454388353e-02
4.252454117935855482e-02
3.849784152821970895e-02
3.360442445410315865e-02
2.799346384467912494e-02
2.172821295015597148e-02
1.499516251990776552e-02
7.901568294171205931e-03
6.536889141249193486e-04
-6.623708117124837459e-03
-1.373407642075960208e-02
-2.050077650642144825e-02
-2.680495563175411614e-02
-3.240903362145013122e-02
-3.728891340144136618e-02
-4.121855742620365165e-02
-4.413268416910926667e-02
-4.597004128511329030e-02
-4.658887514919660133e-02
-4.609205757254799390e-02
-4.434329446860101748e-02
-4.143234446673734611e-02
-3.739692943474875325e-02
-3.226723231188283886e-02
-2.623331242807587158e-02
-1.932200777393491831e-02
-1.173580698283167162e-02
-3.601849267654882482e-03
4.897383219551259062e-03
1.357650372919972162e-02
2.226041744787355878e-02
3.074596084410260305e-02
3.887709689238508931e-02
4.642488270100456754e-02
5.330661981955133605e-02
5.929243706663700486e-02
6.429633125661622650e-02
6.821171617475534077e-02
7.089148646016162070e-02
7.240449344387961395e-02
7.258486364167936189e-02
7.151848574078421839e-02
6.920284778195978648e-02
6.565070948046859700e-02
6.105353409519430341e-02
5.538909935782954791e-02
4.887218109255447862e-02
4.160386966633466271e-02
3.373924244995424315e-02
2.549534150988661679e-02
1.699117790642835565e-02
8.450229136887721718e-03
2.219464447622901404e-05
-8.093907638292319184e-03
-1.576604904393965473e-02
-2.280729613814178047e-02
-2.910916058144886673e-02
-3.454556691975853300e-02
-3.898774741051495157e-02
-4.244795382908349984e-02
-4.476833113914001350e-02
-4.601106722520222764e-02
-4.612479378934949276e-02
-4.511760386911985166e-02
-4.312667381464799915e-02
-4.009503532256611380e-02
-3.621788611463253038e-02
-3.152894298898722275e-02
-2.616202940710142880e-02
-2.029978872236162454e-02
-1.400208636221601799e-02
-7.493564326814157635e-03
-8.651447893717684537e-04
5.698899766846303797e-03
1.206304829728331585e-02
1.809283646542474144e-02
2.364620364628891580e-02
2.862626115385401640e-02
3.289685868651337497e-02
3.643232970611656740e-02
3.910293482809659021e-02
4.091614616036156477e-02
4.182139320897957507e-02
4.180214669092943702e-02
4.094730145633034696e-02
3.920360001409153861e-02
3.671498558255236605e-02
3.349916834539153065e-02
2.966232500466044891e-02
2.534931734586943694e-02
2.060502873452672856e-02
1.562329150689671306e-02
1.046853805925597111e-02
5.305801761103525437e-03
2.475963357995341133e-04
-4.596590591090234275e-03
-9.090195428985436282e-03
-1.316789827396089990e-02
-1.669245231477912636e-02
-1.964763599329974464e-02
-2.191890550075991165e-02
-2.349085256581187262e-02
-2.433494610096719260e-02
-2.439962077646244329e-02
-2.376845127441855332e-02
-2.237346067852810302e-02
-2.031113035740159459e-02
-1.760271444459110546e-02
-1.429041301270201139e-02
-1.050780598053874595e-02
-6.261511456360392171e-03
-1.695725519958443846e-03
3.127704191667306406e-03
8.105048005600743941e-03
1.312364773529584028e-02
1.810445318532130990e-02
2.293556416213429414e-02
2.754107919233545615e-02
3.180723499832057571e-02
3.570043041340244944e-02
3.909960562743623746e-02
4.198007054890118273e-02
4.428427707489595438e-02
4.593246264246713534e-02
4.698756175441492350e-02
4.733084185774540792e-02
4.702932955528289077e-02
4.606777043675239214e-02
4.442096232129096739e-02
4.221937410176050676e-02
3.938951691304103803e-02
3.604908823028643572e-02
3.223215949385591084e-02
2.796483007680075974e-02
2.338605446418334788e-02
1.849497699780756899e-02
1.339930777827754577e-02
8.171845349907998907e-03
2.872533808289675673e-03
-2.408170690246171260e-03
-7.593205372989142617e-03
-1.262968588043019216e-02
-1.742464955475939506e-02
-2.190368327657311875e-02
-2.604991807223989639e-02
-2.972899923553558657e-02
-3.295406692465746579e-02
-3.563551542058769617e-02
-3.770776707785980508e-02
-3.921961680094735586e-02
-4.003048241746674785e-02
-4.020719680933781265e-02
-3.969489199754411973e-02
-3.846780544404983931e-02
-3.661684869185177771e-02
-3.406279839046202906e-02
-3.090593307381514152e-02
-2.715781919710895734e-02
-2.285904348166477654e-02
-1.811788218342878787e-02
-1.296537406965848210e-02
-7.510685791898538514e-03
-1.841824569682569933e-03
3.939527565946772912e-03
9.736602526458358262e-03
1.541887135476540174e-02
2.090760331208565970e-02
2.607293514746408802e-02
3.080712588723608439e-02
3.506257993834362846e-02
3.868547473842344486e-02
4.167396535120594658e-02
4.392171443791331037e-02
4.539049277894858375e-02
4.610632004211901586e-02
4.598367072991434851e-02
4.511488604501259769e-02
4.346749491518790004e-02
4.111233610191202675e-02
3.813423590073022895e-02
3.456255727841142655e-02
3.054765421253974669e-02
2.613461746721947726e-02
2.147568338814869263e-02
1.666352239148030309e-02
1.181969134326715624e-02
7.077632174974471044e-03
2.521472746744596143e-03
-1.693656228667117340e-03
-5.522097525842993397e-03
-8.821487083442890870e-03
-1.154408249943335296e-02
-1.361863988104342060e-02
-1.496899176625346786e-02
-1.562113306093784043e-02
-1.549114782137888877e-02
-1.464050762949353768e-02
-1.305045500201876957e-02
-1.076636957528045307e-02
-7.869380533787582316e-03
-4.383345199237412455e-03
-4.450430648973349029e-04
3.902066071325008441e-03
8.510396920860379202e-03
1.329315897318578826e-02
1.812572714069251439e-02
2.287114017939772398e-02
2.745004334934407486e-02
3.168465543152857583e-02
3.553851730002459408e-02
3.884675625980527763e-02
4.154695371316986102e-02
4.357257180837906946e-02
4.480236236769523372e-02
4.528126078135639304e-02
4.488874406983499321e-02
4.367059830223007227e-02
4.161909053772210043e-02
3.872638282783887054e-02
3.510544259903394804e-02
3.074433317438257998e-02
2.576897439298851678e-02
2.024610254187905051e-02
1.427765463536715719e-02
7.990772447171530860e-03
1.492720672605050980e-03
-5.083340373939111874e-03
-1.161738814422279970e-02
-1.795414228025469724e-02
-2.401402908399432115e-02
-2.961483593175638293e-02
-3.469040104071512143e-02
-3.911426349077521541e-02
-4.275666454954146073e-02
-4.562572608453455136e-02
-4.754604296481190068e-02
-4.855977271478360835e-02
-4.859101626958389764e-02
-4.760174302497690441e-02
-4.569160225736745851e-02
-4.277448737820076230e-02
-3.898944764744766839e-02
-3.435157823587303011e-02
-2.893331924906203736e-02
-2.288940294634113706e-02
-1.626269743618845298e-02
-9.226823767385074204e-03
-1.888149247366298876e-03
5.611097749515059178e-03
1.312496366505173581e-02
2.050670751929953989e-02
2.763436471338038408e-02
3.435525008633350669e-02
4.053830084329703570e-02
4.611192485782079908e-02
5.090319588250975802e-02
5.490995243896269751e-02
5.800235988184004876e-02
6.013678115974784716e-02
6.134873574296505899e-02
6.152449147700880111e-02
6.078959271396194852e-02
5.909039397186270637e-02
5.649500012809574589e-02
5.312234015095156775e-02
4.896344597378368690e-02
4.420865359133214351e-02
3.889094562794422755e-02
3.314993550486677876e-02
2.712161387207127905e-02
2.089159970816048539e-02
1.461904904936471052e-02
8.396819073504546010e-03
2.362592465198127580e-03
-3.394358675587647554e-03
-8.741718198081116498e-03
-1.362107982822938906e-02
-1.792052849989914445e-02
-2.156720746478416051e-02
-2.454452932620832320e-02
-2.673599910680314259e-02
-2.819692352570422542e-02
-2.884042020457125780e-02
-2.869141715044527460e-02
-2.779658621196879828e-02
-2.611647573389998603e-02
-2.378579798923702651e-02
-2.078192480396305261e-02
-1.722428612986284455e-02
-1.319147923521039878e-02
-8.751959678194601300e-03
-4.056182989116702796e-03
8.436313166210115955e-04
5.778786315999453332e-03
1.068237911603369707e-02
1.540357126201036958e-02
1.984515292117659813e-02
2.391115736954950097e-02
2.745718659028507230e-02
3.046709661805365246e-02
3.278322222900583588e-02
3.440717969890447897e-02
3.525865468941226377e-02
3.528763129515459507e-02
3.454492911328049115e-02
3.295333021213107255e-02
3.061336749592701370e-02
2.751322779234219307e-02
2.372512507730258069e-02
1.934657426366009556e-02
1.442787400644654841e-02
9.117390708329316598e-03
3.484611784511302580e-03
-2.310232791538402268e-03
-8.172421710991473187e-03
-1.394435945835999571e-02
-1.950724216945089878e-02
-2.474354974189882719e-02
-2.948449729152829643e-02
-3.369042310486076303e-02
-3.717381170437784876e-02
-3.990987336149681708e-02
-4.179594825162120247e-02
-4.273999897307901447e-02
-4.278670063999546330e-02
-4.181424133846976809e-02
-3.990999133198357141e-02
-3.704658803755486729e-02
-3.325423163512919444e-02
-2.865193213732023306e-02
-2.324647564084346071e-02
-1.719717911781750916e-02
-1.057795046565368838e-02
-3.521544107884646245e-03
3.824821398640031091e-03
1.132891470358526539e-02
1.884015530121813109e-02
2.620829232579219986e-02
3.327530454865036680e-02
3.993059070443426978e-02
4.598773875389269850e-02
5.138933098241058040e-02
5.597767630730041133e-02
5.966537522101742624e-02
6.243194143724537654e-02
6.413771704671637763e-02
6.485860856617391146e-02
6.450382722586869844e-02
6.311245266910732454e-02
6.076178389851775996e-02
5.742941336477652703e-02
5.329000491122394545e-02
4.835648475540883784e-02
4.277483520218227503e-02
3.667505545542557033e-02
3.015527636757973917e-02
2.339728610577504128e-02
1.650240273239864108e-02
9.643250797587127332e-03
2.934400888899793385e-03
-3.462575236854539308e-03
-9.451842401543224248e-03
-1.489451570676854353e-02
-1.968188446187020893e-02
-2.376483440620531795e-02
-2.700045624961687832e-02
-2.942247548331973148e-02
-3.091585204300529091e-02
-3.149132071275706490e-02
-3.117890387221089118e-02
-2.992583793104155662e-02
-2.787599839274189015e-02
-2.498918410523184516e-02
-2.139457593747206079e-02
-1.718039125522830349e-02
-1.241186997436714498e-02
-7.273050346294759015e-03
-1.812797910516948836e-03
3.781646309268934733e-03
9.412667884644791011e-03
1.493324468830858204e-02
2.020930169042400165e-02
2.513846623094717625e-02
2.956872786551514518e-02
3.344771492225165344e-02
3.663019807069806816e-02
3.909622399249412100e-02
4.075556243552416746e-02
4.156816641809010088e-02
4.155557239414563869e-02
4.065833683704767748e-02
3.897196182812170950e-02
3.647409476940204759e-02
3.325332045928765939e-02
2.938776863512197746e-02
2.493986829073807990e-02
2.005668723709355672e-02
1.479809498118487936e-02
9.330331456726521921e-03
3.737849352311332571e-03
-1.821889719375105639e-03
-7.236954293553741514e-03
-1.239193579583211524e-02
-1.712671253410970318e-02
-2.139738858634035110e-02
-2.502307656833959934e-02
-2.798567139882391849e-02
-3.016828596965054690e-02
-3.149345419837148996e-02
-3.198156322551263392e-02
-3.151721817436958090e-02
-3.018545864374777912e-02
-2.793212545271971450e-02
-2.480227821160139665e-02
-2.087744282432296011e-02
-1.617436745986339242e-02
-1.084132361586158735e-02
-4.929284654510761483e-03
1.411526220040178539e-03
8.069656225279910750e-03
1.489156930511256402e-02
2.173995989802312082e-02
2.846983305307967602e-02
3.489997031122284155e-02
4.094413909146465969e-02
4.638295204260053928e-02
5.117106918742048843e-02
5.514009411422020335e-02
5.817773563354325383e-02
6.028076334005342402e-02
6.127566459982407981e-02
6.125307547082308596e-02
6.011023966101415594e-02
5.786776093522217473e-02
5.462421146252012527e-02
5.033313039440642095e-02
4.518956508427308255e-02
3.920554930302534019e-02
3.251732946656704648e-02
2.528615547396106597e-02
1.759751780936855137e-02
9.656643925826888589e-03
1.577780723739072993e-03
-6.471705098722867026e-03
-1.433845141656009750e-02
-2.186790061887034300e-02
-2.894423511081719094e-02
-3.540814353540325948e-02
-4.115802586812292857e-02
-4.610776614248104921e-02
-5.012216401101918239e-02
-5.322397519625154255e-02
-5.527950424763868748e-02
-5.630891425002971379e-02
-5.631778801208606883e-02
-5.526082844618659257e-02
-5.328129719090025224e-02
-5.032982834251807647e-02
-4.654116897031086719e-02
-4.200302553501930602e-02
-3.678177567938036713e-02
-3.107186832936984985e-02
-2.492833864066247920e-02
-1.853203674070053042e-02
-1.201153318035300469e-02
-5.500361543838678570e-03
8.493223216377437934e-04
6.915309500072353011e-03
1.257277033612339695e-02
1.771312321901323539e-02
2.222556158736697235e-02
2.607467636401972905e-02
2.914481122021562662e-02
3.144615185981169264e-02
3.293677372284964378e-02
3.360636343739847182e-02
3.354741127506188220e-02
3.271093566670107283e-02
3.124564316326306629e-02
2.917535195071916526e-02
2.660192282850414383e-02
2.367981830090358508e-02
2.043285807927133074e-02
1.706842536911639188e-02
1.362763276192625883e-02
1.026494557262257190e-02
7.095896868748759537e-03
4.177845566620019477e-03
1.669580826982507149e-03
-4.212757765097059626e-04
-1.968811049887387622e-03
-2.959563710948021932e-03
-3.348455588823719999e-03
-3.091019812658296097e-03
-2.228154849180379211e-03
-7.188321805970286291e-04
1.355721961030582207e-03
3.996333418292935362e-03
7.133109451045257891e-03
1.069525815652447136e-02
1.462416156640000166e-02
1.880275025652315690e-02
2.317614542338448241e-02
2.761130709871067318e-02
3.204093005997629695e-02
3.633381515249612531e-02
4.040658181748859462e-02
4.416403549658590166e-02
4.748090450823810177e-02
5.032591406560909392e-02
5.255525783689009994e-02
5.416540726464852407e-02
5.506697169160795075e-02
5.520407080143164419e-02
5.460580411429004355e-02
5.318884452408512153e-02
5.103465432112459094e-02
4.811853928370422168e-02
4.447823794910930190e-02
4.020383852818031067e-02
3.531787170024900530e-02
2.994283653246083976e-02
2.414939081892711337e-02
1.803812605506996056e-02
1.172732707781060264e-02
5.334328338902346450e-03
-1.048663964322516830e-03
-7.272573206367568925e-03
-1.323947840280569402e-02
-1.885027259127173074e-02
-2.395008930943003794e-02
-2.853355645193500836e-02
-3.242722321758686327e-02
-3.559830522494149274e-02
-3.800558774788130589e-02
-3.953043520411479023e-02
-4.026924079169828807e-02
-4.009208227043971340e-02
-3.906045057826085243e-02
-3.720736993329945563e-02
-3.450577660391046519e-02
-3.112169119488921235e-02
-2.702073271546080388e-02
-2.233926199804870186e-02
-1.717113447307007726e-02
-1.159056087613609051e-02
-5.764166035613812501e-03
2.377648692241532760e-04
6.267893326400537750e-03
1.221718040900716777e-02
1.795349254735239750e-02
2.339256988767179912e-02
2.840131239307489702e-02
3.290036604478562693e-02
3.682568586040219777e-02
4.005595677906419877e-02
4.264128850153495881e-02
4.444863658300197973e-02
4.550771613442670949e-02
4.583187786251634310e-02
4.535633412287137095e-02
4.424403219347227550e-02
4.240540184610375879e-02
3.995174621896971368e-02
3.695531496899884250e-02
3.341081824610472872e-02
2.950785131924881996e-02
2.521525262179848473e-02
2.065579637158564477e-02
1.591462616779528230e-02
1.102821660130403822e-02
6.122867835310553085e-03
1.230296686293640487e-03
-3.570526097258418415e-03
-8.212007149492543678e-03
-1.262691126725284246e-02
-1.678755875615224602e-02
-2.060027867500846543e-02
-2.404190762846815724e-02
-2.706712580449984959e-02
-2.959148700048771716e-02
-3.166622374814236085e-02
-3.316661610994156573e-02
-3.411630532742277594e-02
-3.449605950682456401e-02
-3.424301112245704132e-02
-3.344832135796241279e-02
-3.202271589157747178e-02
-3.002984426347594590e-02
-2.748892108921919750e-02
-2.440891625683739782e-02
-2.088522173339537116e-02
-1.692736419025478792e-02
-1.262983365951990400e-02
-8.054633731425960008e-03
-3.302095024951503220e-03
1.559158132285366413e-03
6.411112238637704276e-03
1.115895409318760911e-02
1.572159761234862008e-02
1.995095645443503360e-02
2.383596512460674915e-02
2.721163988318014287e-02
3.003576124532658306e-02
3.225252123288960965e-02
3.375364836968423182e-02
3.459973696394647025e-02
3.467011752978791522e-02
3.401395359706585464e-02
3.262999279677875758e-02
3.052092828969618296e-02
2.779628108642071341e-02
2.444299326562230854e-02
2.059413675737466545e-02
1.629934363233797451e-02
1.168382131646732505e-02
6.855695494239570469e-03
1.914621067550248412e-03
-2.977335504703997569e-03
-7.751277556580117058e-03
-1.221711241016157357e-02
-1.632395494363055380e-02
-1.991644723740120318e-02
-2.288429637456754207e-02
-2.518643180688926245e-02
-2.666846174910853309e-02
-2.737383618273566202e-02
-2.718294895483555282e-02
-2.610157449232871837e-02
-2.415628400030260178e-02
-2.131497540395288146e-02
-1.771086013219885444e-02
-1.333385013779792364e-02
-8.309957827321093338e-03
-2.738300308534498233e-03
3.275521987280578459e-03
9.565372451186521241e-03
1.602573839151849588e-02
2.248285785559058989e-02
2.881036638118583681e-02
3.483841547885965090e-02
4.045749984558380530e-02
4.551521929540433553e-02
4.990120784938860410e-02
5.353245294978651453e-02
5.628823007668451450e-02
5.818076179667426573e-02
5.910371176158908668e-02
5.908252445207512471e-02
5.812151702169118112e-02
5.622296607198700585e-02
5.351109146528034571e-02
4.998108179022980879e-02
4.577605894853737506e-02
4.097604409370100842e-02
3.569636116892755534e-02
3.009302876816522671e-02
2.425606983117168519e-02
1.835344327177835036e-02
1.249049081191517564e-02
6.820510669430410525e-03
1.438052889757487733e-03
-3.522014127718841973e-03
-7.968173746620604153e-03
-1.182026942274864989e-02
-1.497413493219414138e-02
-1.744493257501520886e-02
-1.911727698980050447e-02
-2.002840190938936019e-02
-2.015318791164279200e-02
-1.949236849345873865e-02
-1.815752498543566490e-02
-1.610505656688620071e-02
-1.348297275524356492e-02
-1.032256642349501166e-02
-6.728222086977121534e-03
-2.843684616377329354e-03
1.289930840242464044e-03
5.491968002130995750e-03
9.705101460591725182e-03
1.377940493917320999e-02
1.762156912157958333e-02
2.114090190776515138e-02
2.421891523290468223e-02
2.681865244349442012e-02
2.882564768420520923e-02
3.025022747328205697e-02
3.101266434979093115e-02
3.111176981732095490e-02
3.056131701375163628e-02
2.933704152735195844e-02
2.753962790966733507e-02
2.514603544361527707e-02
2.225335425534320788e-02
1.891642285406609086e-02
1.520010627047251733e-02
1.122292523163737066e-02
7.028783287913589056e-03
2.741358799570173255e-03
-1.577144067868268239e-03
-5.811665246024316951e-03
-9.899728470590434676e-03
-1.374412962473010522e-02
-1.726131611979556113e-02
-2.040742255345468284e-02
-2.306374973944862183e-02
-2.525221493307719736e-02
-2.685550518304206588e-02
-2.786160542863943754e-02
-2.825907438187864537e-02
-2.797198914713919585e-02
-2.708865312511389914e-02
-2.552663394434192060e-02
-2.334313313358001712e-02
-2.056831419507408609e-02
-1.720780553969887550e-02
-1.337071948003042826e-02
-9.065754068196707482e-03
-4.391326193932420553e-03
5.825775478712465552e-04
5.757313825686953719e-03
1.105717829437823096e-02
1.636275580483143033e-02
2.158068312426240573e-02
2.662548417420600860e-02
3.133883309213290197e-02
3.572352534793470785e-02
3.958901398425326845e-02
4.289618336812459076e-02
4.558465678206283234e-02
4.750391694796399916e-02
4.874837516669427995e-02
4.913606536568575905e-02
4.870836913454430067e-02
4.746267658829666364e-02
4.532326152218213444e-02
4.244766017761681526e-02
3.874216713855401645e-02
3.431883687439932218e-02
2.924287130762972045e-02
2.354804663515039018e-02
1.740124776588733782e-02
1.083975282581850323e-02
4.004995458044605626e-03
-2.985915431110825434e-03
-1.000700886594798819e-02
-1.693795507129569264e-02
-2.362940305767064278e-02
-2.997055408360488685e-02
-3.583387603850012038e-02
-4.106979468640661879e-02
-4.564760615325655357e-02
-4.938512283077595155e-02
-5.226164768431533492e-02
-5.419815681197834301e-02
-5.511087170891122711e-02
-5.507913042677679838e-02
-5.398793662199452559e-02
-5.193425792763536886e-02
-4.893476020961379930e-02
-4.502294694162028293e-02
-4.036812481482555948e-02
-3.497703572443643105e-02
-2.902689170270318988e-02
-2.262790681920965122e-02
-1.589964595888629720e-02
-9.033956476576295025e-03
-2.131436214062503408e-03
4.646974684150269319e-03
1.115405104178077318e-02
1.728195109639861157e-02
2.290381607751612592e-02
2.791127970078360193e-02
3.226159741989816088e-02
3.584557154824927205e-02
3.866233545239577962e-02
4.070450390389947215e-02
4.193215994881002023e-02
4.245412686978883299e-02
4.223564059575162649e-02
4.139822800847094142e-02
4.002948009047364863e-02
3.816525504080067049e-02
3.599724899888788465e-02
3.353971829795415055e-02
3.096139542705509534e-02
2.836105945241156057e-02
2.580079081727503984e-02
2.343861335683667529e-02
2.128979756218441627e-02
1.947160870684626344e-02
1.802127731818142786e-02
1.697479181053520789e-02
1.637655230227145348e-02
1.621652229258012390e-02
1.650616152436141723e-02
1.720658279685002151e-02
1.830612829529227464e-02
1.973497694467118979e-02
2.146430273749910106e-02
2.341178847261311119e-02
2.550460678720057814e-02
2.769382839852375239e-02
2.985934658349794629e-02
3.197850305203885080e-02
3.393029390328385075e-02
3.567018236693540734e-02
3.713799594850414332e-02
3.824117863848406490e-02
3.898773334789894934e-02
3.927692498313080371e-02
3.913382589961291597e-02
3.851546571750349285e-02
3.740102587938005929e-02
3.584065567691945009e-02
3.378715174747552036e-02
3.132911937891284110e-02
2.846024426121927797e-02
2.521881344293583002e-02
2.168599788239745571e-02
1.786507700322857023e-02
1.385612344420784903e-02
9.694600504709565206e-03
5.426333562770923810e-03
1.138342533149759236e-03
-3.136070535469320276e-03
-7.343103818510966600e-03
-1.140524762823459312e-02
-1.531112391990309060e-02
-1.898411334040287987e-02
-2.237329155288938706e-02
-2.549170591101721992e-02
-2.822326690572659127e-02
-3.059585502705191792e-02
-3.254718771451977494e-02
-3.401634688738099099e-02
-3.506498112046109450e-02
-3.556451260492628913e-02
-3.556585665764201709e-02
-3.503238607049673214e-02
-3.391791505580243199e-02
-3.230574421481727937e-02
-3.011315938659086047e-02
-2.740410763733995905e-02
-2.419366194641719633e-02
-2.049017306072970987e-02
-1.637937520890656723e-02
-1.188252988457691450e-02
-7.069899512242212337e-03
-2.021592602305795523e-03
3.182540509911111794e-03
8.476838344824400365e-03
1.372949484158362057e-02
1.888653627017429504e-02
2.382863141778407412e-02
2.843797296704165395e-02
3.269831684236249036e-02
3.642663369152954189e-02
3.962112011427904729e-02
4.217826512972218389e-02
4.401107268668491557e-02
4.517102494288629394e-02
4.551445312361997175e-02
4.511410955927359218e-02
4.393051169443620146e-02
4.196476405359114009e-02
3.932206881367782819e-02
3.596473276777077677e-02
3.202334428466097060e-02
2.753518430855517174e-02
2.259668497908941601e-02
1.732467519909359002e-02
1.179798845254939957e-02
6.155459871865367506e-03
4.903564231391347936e-04
-5.050886798113504196e-03
-1.038338959668121467e-02
-1.535920670247950537e-02
-1.988977223416214454e-02
-2.387065549871328698e-02
-2.718623117541845921e-02
-2.981406150835238730e-02
-3.162781812542395099e-02
-3.263517358155763187e-02
-3.277752881664065115e-02
-3.204943351759664133e-02
-3.049840132992701416e-02
-2.810773739098551202e-02
-2.498623946659474584e-02
-2.115822637279406865e-02
-1.675285683332867342e-02
-1.186008743814263855e-02
-6.599049212438023830e-03
-1.127081041132492641e-03
4.461167526803712022e-03
9.960695654923377995e-03
1.529546212344356365e-02
2.027181437299813496e-02
2.477415427658215957e-02
2.869783882953972839e-02
3.187858339152468967e-02
3.430782961988703555e-02
3.583280901839265564e-02
3.645352872377600334e-02
3.612283246114945945e-02
3.481936103421459650e-02
3.261189562858217428e-02
2.948444170665691713e-02
2.555833077924892643e-02
2.087365024853995304e-02
1.557579300682224166e-02
9.768888131116721524e-03
3.595197995526459942e-03
-2.767992192263874461e-03
-9.213987083618271900e-03
-1.549814213493302950e-02
-2.154685880677367424e-02
-2.712513122726107825e-02
-3.209978751042713574e-02
-3.635890067552591254e-02
-3.968473436811439936e-02
-4.209067513397381222e-02
-4.337197088916065063e-02
-4.352236580664119170e-02
-4.249903960474829545e-02
-4.022861278523364587e-02
-3.683022284739759233e-02
-3.224365255187094936e-02
-2.660757762183573946e-02
-1.999504498041589085e-02
-1.251626896232714212e-02
-4.362224187944941343e-03
4.346860541328581053e-03
1.339430079976233756e-02
2.260902357034622751e-02
3.176997083378785974e-02
4.069889071974431421e-02
4.916991310856733827e-02
5.701699699856386389e-02
6.405710814026628619e-02
7.010682977875661026e-02
7.509766453022477528e-02
7.883831001220326096e-02
8.132623587736492743e-02
8.246650755411594202e-02
8.223655238302020332e-02
8.072099680568177449e-02
7.787104439925351951e-02
7.386145852208081397e-02
6.872971755838767904e-02
6.262379855240376991e-02
5.573442494275464981e-02
4.816167157526311804e-02
4.015485054248402186e-02
3.184808153047568452e-02
2.345267050865764216e-02
1.515797639353091628e-02
7.129348207900984384e-03
-4.596350000008681339e-04
-7.456608608909062914e-03
-1.372848073525557294e-02
-1.918192143116150342e-02
-2.368962541328104715e-02
-2.725291673668607181e-02
-2.976880674563529491e-02
-3.126519385465670320e-02
-3.177585101815490198e-02
-3.127343812386659816e-02
-2.992957220159879125e-02
-2.771915730729467356e-02
-2.481239588970040114e-02
-2.133024816651590133e-02
-1.733828384096254213e-02
-1.307731739710091615e-02
-8.580068192749534806e-03
-4.054369651934068737e-03
3.781757888921119179e-04
4.623751806418047519e-03
8.508534891946350001e-03
1.199264008956713382e-02
1.495073394339558638e-02
1.733790548435639248e-02
1.910338368994174765e-02
2.022403582552913248e-02
2.069309010502767138e-02
2.052409373324859052e-02
1.976453244641546148e-02
1.843478408674628644e-02
1.664302718436088541e-02
1.441616454263709192e-02
1.186964178473105466e-02
9.089560618469567227e-03
6.141156943747600946e-03
3.165241290435881136e-03
1.920460842663633885e-04
-2.649646214340331367e-03
-5.307846950232018683e-03
-7.715698397443641367e-03
-9.793319374976006825e-03
-1.152850174877912207e-02
-1.284456211760363897e-02
-1.375323928025536796e-02
-1.420937023798168886e-02
-1.422033476855891210e-02
-1.379134165040528381e-02
-1.291201169621593314e-02
-1.163797611868172543e-02
-9.955812218734771263e-03
-7.927999661358008099e-03
-5.575247346106772771e-03
-2.937425068815603842e-03
-7.636229069107706990e-05
2.977928000192153063e-03
6.158695393730317935e-03
9.423610854278233889e-03
1.270497359224128861e-02
1.596471919579839707e-02
1.912223001606967732e-02
2.214467755222491313e-02
2.496704530430878671e-02
2.751619529272925427e-02
2.979378919026880179e-02
3.168588169542182337e-02
3.321048754078081977e-02
3.430048499529222278e-02
3.490427972460161815e-02
3.506720855751546684e-02
3.468763398112519047e-02
3.383006071903009448e-02
3.245881770723222509e-02
3.056687045870681504e-02
2.823030394858423026e-02
2.540740798497783878e-02
2.218480398827837180e-02
1.858137027326639198e-02
1.464074100737918632e-02
1.044588423149226883e-02
6.038593227693593232e-03
1.498191316706223158e-03
-3.099539789553144332e-03
-7.674457455552311132e-03
-1.215759057106914620e-02
-1.643910796314273712e-02
-2.047166062440239354e-02
-2.414774663229573085e-02
-2.738880206400676545e-02
-3.015910233197001064e-02
-3.233883655093656995e-02
-3.393516691254111484e-02
-3.486127778628409640e-02
-3.509288352574198994e-02
-3.464814330902254297e-02
-3.347205465807547020e-02
-3.163928264146886882e-02
-2.913773920372616719e-02
-2.602968264416246139e-02
-2.239319350686765422e-02
-1.827689663817875371e-02
-1.380217126662768024e-02
-9.043367449807774433e-03
-4.121405145687124551e-03
8.577134527668547892e-04
5.777261407647985361e-03
1.053297232765107276e-02
1.501167216747291595e-02
1.911600391230276752e-02
2.277037461346401517e-02
2.587539741910171651e-02
2.841153049950388351e-02
3.029530075758704241e-02
3.152823814283148979e-02
3.210283679145055358e-02
3.200531833856556929e-02
3.131626477729314295e-02
3.001836767648245752e-02
2.822130022462228383e-02
2.597078089125630720e-02
2.334381363202912146e-02
2.046765631108652186e-02
1.737823551589595672e-02
1.423247750663535552e-02
1.107777303000628995e-02
8.034080026321215040e-03
5.194142903940110814e-03
2.610299701206657795e-03
4.053466681174502581e-04
-1.415245314159640881e-03
-2.748367626247856348e-03
-3.587804721371001988e-03
-3.898204607265241296e-03
-3.643866946110268200e-03
-2.871794519929893839e-03
-1.540368833964537477e-03
2.726264188597895058e-04
2.564613311595044347e-03
5.279746123685872400e-03
8.341547371495658392e-03
1.171492667515970816e-02
1.528930736857138720e-02
1.902267533027263147e-02
2.280728687366504609e-02
2.657999622344113522e-02
3.024646942634616475e-02
3.372938045298574244e-02
3.696445118392122781e-02
3.984710457173900461e-02
4.236243373555258901e-02
4.439625877810924465e-02
4.594335338397105561e-02
4.694587325374020848e-02
4.734486005042400775e-02
4.718172169844654651e-02
4.637156792883576073e-02
4.497517091740418221e-02
4.297287805208250405e-02
4.036815364725768185e-02
3.723909383643780185e-02
3.357206141954589135e-02
2.945330374427730658e-02
2.492463577011014980e-02
2.004412877229304335e-02
1.489706030362781750e-02
9.560596740394075241e-03
4.103677167708989076e-03
-1.363819335930465358e-03
-6.752755371070254427e-03
-1.199164757685685159e-02
-1.693177631624440474e-02
-2.154877193006827715e-02
-2.569209299200580013e-02
-2.928500787095612498e-02
-3.228945540658419849e-02
-3.455523533606714992e-02
-3.612067406356984922e-02
-3.686186194824620649e-02
-3.677157260558960861e-02
-3.586798688276662816e-02
-3.409063435850467894e-02
-3.154481711620121115e-02
-2.820450469072885089e-02
-2.416482070444697303e-02
-1.950643712996071033e-02
-1.430707918209634180e-02
-8.709283077229360015e-03
-2.804403350040414640e-03
3.242848945951582254e-03
9.324337914601490279e-03
1.526524666711697592e-02
2.095691539965746988e-02
2.624761955209071324e-02
3.099848445077151016e-02
3.514088974624553219e-02
3.851114020612277089e-02
4.110816552475386743e-02
4.281189909568348245e-02
4.360084357514126818e-02
4.349318691093086858e-02
4.243079900550671135e-02
4.053548302599929015e-02
3.777828260450667025e-02
3.427216779669464697e-02
3.011194421570318608e-02
2.536435362558409415e-02
2.021290084931764638e-02
1.471721880329299528e-02
9.056554973109500611e-03
3.345763723549267238e-03
-2.279754468939076094e-03
-7.673664810323822978e-03
-1.273627975976827573e-02
-1.732738290902703301e-02
-2.137446949431111992e-02
-2.476016969823418082e-02
-2.744972962926979163e-02
-2.936298632709220466e-02
-3.047488552084289329e-02
-3.078829121676183653e-02
-3.027047249465366144e-02
-2.900736446942775090e-02
-2.698164632887884926e-02
-2.429069195491323149e-02
-2.100379954197420518e-02
-1.718883514674912627e-02
-1.299281775226513239e-02
-8.469028840354709403e-03
-3.773866642726531571e-03
1.004994415896309952e-03
5.739706985716867306e-03
1.031925120763846349e-02
1.465138086494478104e-02
1.861510155791464352e-02
2.216345805233174704e-02
2.517595297092598342e-02
2.764969394211023307e-02
2.949937490857708691e-02
3.070197118959105270e-02
3.127797803278020011e-02
3.116488147979434159e-02
3.046501557579968031e-02
2.913124597035880031e-02
2.723429826308311139e-02
2.483824865877623175e-02
2.195305459711423615e-02
1.871428887895150786e-02
1.512325694818253408e-02
1.129264478297043427e-02
7.282085672840766383e-03
3.166741054177177328e-03
-9.653660774783358670e-04
-5.060231846915609795e-03
-9.011880557971776312e-03
-1.279366453917362909e-02
-1.627759191193438662e-02
-1.945838193108613209e-02
-2.223387713511083136e-02
-2.452999212260285541e-02
-2.635704907962270818e-02
-2.756701014915300882e-02
-2.822880417243626636e-02
-2.823023909256392946e-02
-2.754688560865674665e-02
-2.622718592933384260e-02
-2.416588108261326709e-02
-2.147879685795191923e-02
-1.811046999446534744e-02
-1.410119645069353445e-02
-9.539448137486215840e-03
-4.424938766255812929e-03
1.114209252364862200e-03
7.025538484122265288e-03
1.321005106468235712e-02
1.955378441552600016e-02
2.594075685654726252e-02
3.227538257865557314e-02
3.840888430457466141e-02
4.423008058562268030e-02
4.964292719709675894e-02
5.447775493065350194e-02
5.871980744159895071e-02
6.219936293914845454e-02
6.486219063685105812e-02
6.667930942495274571e-02
6.752461004560690594e-02
6.748304143944879041e-02
6.645116978838737365e-02
6.447329625935083186e-02
6.160545248030208781e-02
5.783334395137655626e-02
5.331039762436254326e-02
4.804947320750110190e-02
4.217782253665564030e-02
3.581496971968857468e-02
2.906206797930686175e-02
2.207380331626450018e-02
1.497212206776232096e-02
7.900083379216398319e-03
9.921335377898075555e-04
-5.597264897886950787e-03
-1.178505245195679563e-02
-1.740082538420225852e-02
-2.237215532740915308e-02
-2.660504706659961791e-02
-2.998698411535638195e-02
-3.255018008524931949e-02
-3.416043490027580176e-02
-3.487318432440551785e-02
-3.467111505731815257e-02
-3.355688802576951846e-02
-3.166535261444277521e-02
-2.896010181828714489e-02
-2.561185057404479284e-02
-2.167390623660191834e-02
-1.726659873536364950e-02
-1.255677546339973097e-02
-7.606421282436903221e-03
-2.617534170187923136e-03
2.332452586458055345e-03
7.077794352192481875e-03
1.150872424229033159e-02
1.552103078853082560e-02
1.898737559057976296e-02
2.185904096397591270e-02
2.402618922593564160e-02
2.548653805761917635e-02
2.616821469930971991e-02
2.608281540225680997e-02
2.523435219010106145e-02
2.363937536968024888e-02
2.138505063576741361e-02
1.848152637583527769e-02
1.506676191337158292e-02
1.118296357314945214e-02
6.974841432412969000e-03
2.551726078436922576e-03
-1.991689294838405906e-03
-6.465488386997813273e-03
-1.082248055128877048e-02
-1.485372780776538296e-02
-1.849593716585147887e-02
-2.161503558814636614e-02
-2.406440484440726044e-02
-2.582717877554551941e-02
-2.673547466402059411e-02
-2.681241769805814065e-02
-2.596790490435308893e-02
-2.417735009128709964e-02
-2.148570445980178129e-02
-1.786693541523170711e-02
-1.342970444653075052e-02
-8.205771177633821439e-03
-2.310702667637799627e-03
4.145944972506733495e-03
1.101981996574587577e-02
1.817179855783323042e-02
2.543883640926713693e-02
3.263399496587069543e-02
3.963043163395579133e-02
4.618899463116181436e-02
5.223216462624657302e-02
5.754324059897603094e-02
6.198677542395854972e-02
6.549629389150332659e-02
6.787473300090525463e-02
6.918024821377621869e-02
6.925869969713036034e-02
6.812208927408303083e-02
6.581735971103640226e-02
6.229517436256414020e-02
5.774482353385834016e-02
5.214959665725001081e-02
4.566517118376573620e-02
3.843651128654816673e-02
3.056743846991117133e-02
2.228681706803113324e-02
1.370872454815481346e-02
5.032483109152241854e-03
-3.567994832504080109e-03
-1.191956687710945748e-02
-1.987138226808987315e-02
-2.724678444413381265e-02
-3.392793883490048679e-02
-3.978710472278277482e-02
-4.469438722467637681e-02
-4.864845852078279742e-02
-5.149845228558243282e-02
-5.328190946814488627e-02
-5.396098325086539499e-02
-5.352601146653547526e-02
-5.211324716763267306e-02
-4.966421527664188762e-02
-4.635430635027526503e-02
-4.223345987344220842e-02
-3.741585058929616792e-02
-3.209331389523931849e-02
-2.631698803249150551e-02
-2.030608316423000020e-02
-1.415880724532715684e-02
-8.046306108489987424e-03
-2.111898666992405825e-03
3.523172796907748754e-03
8.714160010370628276e-03
1.337200155958273226e-02
1.736910639100734330e-02
2.068313738374486302e-02
2.319759456167651973e-02
2.492005332477337590e-02
2.581511174468788250e-02
2.587456266595370910e-02
2.519787502732593817e-02
2.373804234213421765e-02
2.164775526903580175e-02
1.894958081859493895e-02
1.576186992968002867e-02
1.223347710349109371e-02
8.404173438189261811e-03
4.484249282183520521e-03
5.155575621585747198e-04
-3.319482527738822596e-03
-6.926374811973790187e-03
-1.021266323103174264e-02
-1.302345868932548376e-02
-1.534975656819703368e-02
-1.703181612776364512e-02
-1.809705110633159919e-02
-1.845359834456078776e-02
-1.806808957604798607e-02
-1.698975552954506626e-02
-1.513860943285236238e-02
-1.265331367559777154e-02
-9.484832851855046904e-03
-5.710211933435369556e-03
-1.425570998143970390e-03
3.358893391103863653e-03
8.466588586470950514e-03
1.388118885047953319e-02
1.948076900868035352e-02
2.515611615455905919e-02
3.083182744954379370e-02
3.638364020206544258e-02
4.173078716038050584e-02
4.678206553026242887e-02
5.145428537745274505e-02
5.564658970617622491e-02
5.934654159064828988e-02
6.243375555802390536e-02
6.489190707203944253e-02
6.669312302914234825e-02
6.774691218449629959e-02
6.815656580354832739e-02
6.780423013419820122e-02
6.674568444905999709e-02
6.501866186753089971e-02
6.256682281583064720e-02
5.955847413325641992e-02
5.592323257056050489e-02
5.174689521126168978e-02
4.711809664154355259e-02
4.202312432433817635e-02
3.661478796883272518e-02
3.090195488008280061e-02
2.494834750057999678e-02
1.886579730967213528e-02
1.268550298409597613e-02
6.482893158481450174e-03
3.608382907223216945e-04
-5.664874322073820169e-03
-1.147936809814512418e-02
-1.700736403558189905e-02
-2.226360644506261699e-02
-2.706603127582970017e-02
-3.144409063936091236e-02
-3.529619543169518203e-02
-3.852592619522465095e-02
-4.121562487759168614e-02
-4.316400178757921063e-02
-4.443843514382157800e-02
-4.497702445978987024e-02
-4.471579876591696978e-02
-4.377470207387909595e-02
-4.202315819626414872e-02
-3.956574203110417576e-02
-3.641050855579592432e-02
-3.258152683312803832e-02
-2.820821767503456021e-02
-2.329739954938361141e-02
-1.797838406910357706e-02
-1.233307828017616778e-02
-6.479145304725020781e-03
-5.189517761106385643e-04
5.413335976447473247e-03
1.120842757919855541e-02
1.675047659951340098e-02
2.189256752627375888e-02
2.659928243721424584e-02
3.069280459680237549e-02
3.414314982361325163e-02
3.686007524308869410e-02
3.876117466945433465e-02
3.989588464883639385e-02
4.014426989397736067e-02
3.958781930491495071e-02
3.820367679582306608e-02
3.603377873633600847e-02
3.319399027757176379e-02
2.968127547332987184e-02
2.566581808938162707e-02
2.119593487929021317e-02
1.642214943833013654e-02
1.147910417874683370e-02
6.465242857196540696e-03
1.564361802666353746e-03
-3.138954339880101717e-03
-7.475096693474825825e-03
-1.134936071812802511e-02
-1.464447046522422344e-02
-1.725894670575272086e-02
-1.913164646397134613e-02
-2.019082132820037082e-02
-2.042753036846926135e-02
-1.980771530776527165e-02
-1.837481313732501620e-02
-1.614012732663547625e-02
-1.319636188095657872e-02
-9.618923592375424464e-03
-5.503757440293814175e-03
-1.014102792531217968e-03
3.772561573162311246e-03
8.642130011909568421e-03
1.349921581006224142e-02
1.816803279206787372e-02
2.247598070712118062e-02
2.634289278327538522e-02
2.956371695454503012e-02
3.210982263055398717e-02
3.383625617311431660e-02
3.468148033930924801e-02
3.463168820363283357e-02
3.361685915088866855e-02
3.171427088736473304e-02
2.889896319731879645e-02
2.526154704535626960e-02
2.087195177277611363e-02
1.582943614063395121e-02
1.027308128042437284e-02
4.307808504330464319e-03
-1.888719490560685464e-03
-8.204885883454523382e-03
-1.444135066870866693e-02
-2.048741170801359965e-02
-2.616890728397941110e-02
-3.133615187040810629e-02
-3.589775460028152287e-02
-3.967021798017680151e-02
-4.264109193377667306e-02
-4.465698068805616650e-02
-4.568599543674690955e-02
-4.570606307270607543e-02
-4.464739556380973445e-02
-4.261025623738142615e-02
-3.954132708288225079e-02
-3.554527749654355639e-02
-3.068902666775057478e-02
-2.504724888591705265e-02
-1.878900162808446600e-02
-1.198946677074715084e-02
-4.828391012066507969e-03
2.560082737888034511e-03
1.001121907496988969e-02
1.736811192418456773e-02
2.447092829510611953e-02
3.117386578125087501e-02
3.733516181211779528e-02
4.281158911722284660e-02
4.753604678674357847e-02
5.136102358858931488e-02
5.426925499409421261e-02
5.617898496379363643e-02
5.707038620140075791e-02
5.699319572130544936e-02
5.590117529537291102e-02
5.392210615137024016e-02
5.106320450020263024e-02
4.745085562947475716e-02
4.320451622863505370e-02
3.840208058865620527e-02
3.324098525391336323e-02
2.779211828682302821e-02
2.226112388281452706e-02
1.675114713874408662e-02
1.141743831594669786e-02
6.414135479105502295e-03
1.823917664535415831e-03
-2.176696023618266730e-03
-5.566247585950040953e-03
-8.195300178522314100e-03
-1.003538535994781544e-02
-1.103970305479968356e-02
-1.115159415815180841e-02
-1.044298833108835492e-02
-8.849227670403022467e-03
-6.479970588977377981e-03
-3.349135199560762492e-03
4.497991282856831502e-04
4.792643075819942415e-03
9.621885966789268593e-03
1.474874634698327205e-02
2.010753151580742248e-02
2.549926125555495096e-02
3.082014310414103730e-02
3.591834095884360867e-02
4.062751215184891296e-02
4.487579912968600593e-02
4.845907535977807268e-02
5.136547533398144738e-02
5.343264576571046809e-02
5.460780810927310519e-02
5.487237310853788907e-02
5.411719331844959402e-02
5.244811521255502568e-02
4.978108522514636258e-02
4.619909481860222378e-02
4.176671259027910782e-02
3.650905654144470658e-02
3.060283247781002414e-02
2.408376005875523945e-02
1.710749307007892669e-02
9.801129122038614028e-03
2.287560369013990486e-03
-5.280366727196170347e-03
-1.276528608330332673e-02
-2.004258748175935176e-02
-2.697419311192284994e-02
-3.341509591180217426e-02
-3.931700948088167474e-02
-4.449513240903726907e-02
-4.893004498961283505e-02
-5.251998256687972350e-02
-5.516347341053987746e-02
-5.693506438495603977e-02
-5.766746287914769481e-02
-5.745301322953711570e-02
-5.625510140271745146e-02
-5.405151055507050051e-02
-5.099778592427289120e-02
-4.700888576405692909e-02
-4.224100163836735922e-02
-3.673621579195524012e-02
-3.055858192098195522e-02
-2.387393015183950085e-02
-1.672419501821255719e-02
-9.258249604142530786e-03
-1.589557123666390619e-03
6.153892081654665884e-03
1.386423675927812849e-02
2.137482667819438562e-02
2.860760383675305107e-02
3.541164019193224211e-02
4.164368476648718648e-02
4.729478208319255056e-02
5.213388467723546749e-02
5.618843544977402543e-02
5.932567979032305622e-02
6.145119169526287728e-02
6.265769801877149603e-02
6.274946369452656658e-02
6.185573042646197450e-02
5.991695894800986438e-02
5.693910330104953732e-02
5.307981671035201521e-02
4.826780410067858795e-02
4.269023485496765274e-02
3.638665184183428880e-02
2.947220170809153328e-02
2.210995146115154672e-02
1.438641151254805260e-02
6.480546097193456631e-03
-1.483000100702252903e-03
-9.323497953033728358e-03
-1.692852006909319890e-02
-2.409752096439060978e-02
-3.072723196888136124e-02
-3.666342101376741935e-02
-4.174864895633621092e-02
-4.596204108590741522e-02
-4.910008377295849852e-02
-5.118576363513580030e-02
-5.211596157086040987e-02
-5.185181657540929162e-02
-5.047704325296447497e-02
-4.790509217447764395e-02
-4.428866752116036171e-02
-3.963616055901209023e-02
-3.406560717562641394e-02
-2.773306127687976200e-02
-2.072125935896114088e-02
-1.324788131996247273e-02
-5.429601549048254823e-03
2.515686197148984254e-03
1.043598040933963952e-02
1.813142511795521813e-02
2.543335836744852960e-02
3.218656423606889444e-02
3.820007072874698900e-02
4.340998591483351265e-02
4.762140546417543280e-02
5.081383224260015846e-02
5.288302302413912248e-02
5.378116232041680461e-02
5.356850659341727550e-02
5.216705157844574864e-02
4.972106741709805822e-02
4.622779347027578672e-02
4.181265532905840271e-02
3.661868808691913502e-02
3.072065651440597164e-02
2.434452151991985461e-02
1.757399982036000549e-02
1.063537228153576750e-02
3.661414928695353680e-03
-3.170047352010474211e-03
-9.680404629603511779e-03
-1.575716736681280483e-02
-2.119394260929801863e-02
-2.594748103766843575e-02
-2.982968616549744670e-02
-3.280124173031324225e-02
-3.478108013077988586e-02
-3.568016160456132652e-02
-3.556701735930956759e-02
-3.433312696967642796e-02
-3.209094823085225506e-02
-2.883373529085964462e-02
-2.462430695805891898e-02
-1.961098328954840458e-02
-1.381667935719222209e-02
-7.443547396355220357e-03
-5.699329425668262297e-04
6.630376560620611891e-03
1.399742196790038432e-02
2.139165426409153636e-02
2.862751519766854394e-02
3.557618205524828298e-02
4.205083787880487672e-02
4.795751171156941578e-02
5.311830666665096762e-02
5.746369287429393263e-02
6.088282817209934861e-02
6.327986327508236530e-02
6.467806045145853278e-02
6.496012293159744710e-02
6.421185244103991274e-02
6.240309171873762578e-02
5.957781472567959952e-02
5.586667828125820023e-02
5.126995528813504260e-02
4.597670460399436859e-02
4.004944417461724776e-02
3.363215680716101497e-02
2.688805312028223760e-02
1.991897511588871031e-02
1.290226263453641414e-02
5.954245190129525342e-03
-7.744661630611137867e-04
-7.176313256684207879e-03
-1.310707581158532947e-02
-1.850028962932157711e-02
-2.323700487433971729e-02
-2.723918690663939754e-02
-3.050018082834364888e-02
-3.289408125965459506e-02
-3.449336689679936840e-02
-3.521526388015108061e-02
-3.508187856938708299e-02
-3.417664750044511340e-02
-3.243394748424830581e-02
-3.002116294393227316e-02
-2.691371930322360509e-02
-2.321102168431122062e-02
-1.903995386107994875e-02
-1.441169378706196394e-02
-9.507368800269609677e-03
-4.364195804803186300e-03
8.932624555135146305e-04
6.150570530677863801e-03
1.133400625768267098e-02
1.632679587915529529e-02
2.105120883315781885e-02
2.541608066757573836e-02
2.936461218835941314e-02
3.280316452354277434e-02
3.572207246211739351e-02
3.804248718602341872e-02
3.974573133767703853e-02
4.084730037023562299e-02
4.128192881162794092e-02
4.113569781373507123e-02
4.036336187821654847e-02
3.902016894263193869e-02
3.717207068930255404e-02
3.481145914634048433e-02
3.206614799443352481e-02
2.893938498872233867e-02
2.552877120131389135e-02
2.191105336221920233e-02
1.813635112055547727e-02
1.431243876832992770e-02
1.048577579750624086e-02
6.751575099903680925e-03
3.166923575429059744e-03
-1.868010111684310914e-04
-3.259578438638795379e-03
-5.982538473213582821e-03
-8.303598837257602366e-03
-1.019594820269043717e-02
-1.159427222716033490e-02
-1.251411156285022960e-02
-1.290039026239248737e-02
-1.277549289215609840e-02
-1.214261607922618308e-02
-1.100729114739330133e-02
-9.436524226981844732e-03
-7.426943004785214845e-03
-5.083436273178520808e-03
-2.426425505521721988e-03
4.417877270306716855e-04
3.441302917568779453e-03
6.516801927793631002e-03
9.515076885030678000e-03
1.243053127774365434e-02
1.509372597254312817e-02
1.746581475749876475e-02
1.946721372428031685e-02
2.096205344725687175e-02
2.199435022001362816e-02
2.239889565483184006e-02
2.221629561959479263e-02
2.139504987119996565e-02
1.987700240526699483e-02
1.776367112998135378e-02
1.496542528970954203e-02
1.159399130252383378e-02
7.659178805121578774e-03
3.198210458438629882e-03
-1.664981379848592090e-03
-6.911308993535339625e-03
-1.241318848179624387e-02
-1.810005986093617125e-02
-2.386589967825783476e-02
-2.961705575116379760e-02
-3.523297262325612161e-02
-4.063072681973791539e-02
-4.569963034167130039e-02
-5.030940863662059642e-02
-5.443302539948172841e-02
-5.788975756340804940e-02
-6.067735837635932633e-02
-6.268545646860700093e-02
-6.381058551018829739e-02
-6.411028951635586171e-02
-6.341671139486586284e-02
-6.181689558283167546e-02
-5.925899665603912708e-02
-5.570950671047365105e-02
-5.131068536883049563e-02
-4.598133413262818492e-02
-3.987427489520047053e-02
-3.304151792220007267e-02
-2.552716185327926282e-02
-1.753123239092207672e-02
-9.087925389109970109e-03
-3.593930404343437593e-04
8.501362729291769491e-03
1.741550502094545497e-02
2.618163755189416297e-02
3.469016592687977629e-02
4.284329187898425206e-02
5.044599377692385311e-02
5.746001552730782558e-02
6.374758256650434052e-02
6.920748898318761222e-02
7.385763442467582762e-02
7.753957865388351467e-02
8.031081423322951329e-02
8.213086189729029707e-02
8.297466783549276026e-02
8.296654827875123150e-02
8.203487199805159502e-02
8.032559206629018289e-02
7.788106921073228994e-02
7.476437937285490554e-02
7.114156364275323052e-02
6.703313127404594840e-02
6.260916060248969406e-02
5.795310291297450095e-02
5.317483874281608153e-02
4.840318738158973927e-02
4.372137985380438602e-02
3.924006456966602774e-02
3.504236216808366555e-02
3.121622786061636554e-02
2.779834253540746161e-02
2.488516921406107307e-02
2.246433220587740892e-02
2.058959867829192672e-02
1.926329908168043781e-02
1.841784362606526185e-02
1.811395655904193824e-02
1.820431803064307547e-02
1.870723197554951742e-02
1.952025024091146727e-02
2.051207428405001434e-02
2.169365107308718343e-02
2.284089598283056688e-02
2.396557232971215784e-02
2.490935629710052876e-02
2.555764502653291512e-02
2.590664444438515318e-02
2.575847953447556182e-02
2.516419829175567738e-02
2.399851152944614679e-02
2.223237422462575469e-02
1.989966987623221703e-02
1.691137189255324802e-02
1.337572111160451743e-02
9.268571056527015462e-03
4.649919661407066890e-03
-3.853173029525315887e-04
-5.807492637894898398e-03
-1.148704666287506809e-02
-1.733967915387390341e-02
-2.328206185771933626e-02
-2.917763892670202294e-02
-3.493352701489145506e-02
-4.046100348447959766e-02
-4.560727812177899076e-02
-5.034282921226885393e-02
-5.452575014242388302e-02
-5.806662034129007194e-02
-6.095592438577735611e-02
-6.302762556687312168e-02
-6.433811633787096806e-02
-6.477815201916624355e-02
-6.430537429257195126e-02
-6.299050094047484172e-02
-6.071566980872335900e-02
-5.760274374698603345e-02
-5.361900020553119622e-02
-4.878594045312695943e-02
-4.323056428622270436e-02
-3.693995470370271816e-02
-3.004677796841677059e-02
-2.263113450635606885e-02
-1.476818577932349427e-02
-6.601815425293086799e-03
1.751220824053260038e-03
1.021065472485957124e-02
1.858298601429364538e-02
2.677463095429707951e-02
3.467075233079165708e-02
4.205707501487046529e-02
4.895189126436232108e-02
5.510163102051970907e-02
6.044697997311586357e-02
6.494235352559954433e-02
6.836418518614285900e-02
7.083909907049300292e-02
7.214573823452566370e-02
7.230674611516359207e-02
7.136180484933500601e-02
6.918200881552093173e-02
6.596732561916698878e-02
6.161690221900661957e-02
5.625127693257216815e-02
4.998199106870151315e-02
4.284268803660667979e-02
3.504501466762148520e-02
2.665371230973108754e-02
1.785920202877328347e-02
8.811667274578173156e-03
-3.019172351852806094e-04
-9.324443513306926445e-03
-1.805519793744546700e-02
-2.631064517913668174e-02
-3.395499394105286339e-02
-4.074929015619823541e-02
-4.665190629475779449e-02
-5.143431494966660411e-02
-5.502442527590419713e-02
-5.736668387785136963e-02
-5.831872758739261448e-02
-5.798942422865378116e-02
-5.625595761779288856e-02
-5.322720592304207993e-02
-4.896993493079587062e-02
-4.353605340088679415e-02
-3.715576491640019269e-02
-2.987993925657969271e-02
-2.196197290460209783e-02
-1.356237419611354758e-02
-4.892099393022024227e-03
3.807364513805788862e-03
1.236224811359078884e-02
2.052049414543524047e-02
2.812374937812115588e-02
3.495137253867587612e-02
4.088717276620173341e-02
4.576135591005340425e-02
4.948527498327009305e-02
5.199783621066946665e-02
5.322205180175649392e-02
5.323477120241063704e-02
5.197662211714406538e-02
4.958364595642830719e-02
4.611432935856022569e-02
4.168391519220387281e-02
3.650466831485137814e-02
3.064418402379986972e-02
2.437657533545397812e-02
1.781563530187304026e-02
1.118838711501113359e-02
4.696597422129496560e-03
-1.529783248109658524e-03
-7.247250695084702689e-03
-1.237896040963993791e-02
-1.672263566394044387e-02
-2.021508945525425302e-02
-2.274750849660921170e-02
-2.423940063245260887e-02
-2.470399657520532324e-02
-2.406508079183846197e-02
-2.243035023591944538e-02
-1.976808084428216886e-02
-1.618546425939079020e-02
-1.178057231977719041e-02
-6.623848747946217870e-03
-9.259133272692858865e-04
5.256927361842036149e-03
1.171194338377251273e-02
1.830752749306774688e-02
2.488579010099923466e-02
3.125650010891713876e-02
3.731182410906960789e-02
4.286785195738270632e-02
4.783200268110325559e-02
5.205861636658620784e-02
5.548857485657568422e-02
5.802738635143323692e-02
5.962612314621871384e-02
6.028772939938277509e-02
5.995731442304006592e-02
5.873997456670844441e-02
5.660602987383003132e-02
5.365300348121514185e-02
4.997901056115448826e-02
4.562669901293198854e-02
4.079295500873586500e-02
3.551488734852322610e-02
2.994709606099248828e-02
2.422042194856351138e-02
1.841674304776390325e-02
1.269474218585899157e-02
7.124894152041235176e-03
1.803553331814086898e-03
-3.176207937136645530e-03
-7.752552329341325273e-03
-1.189381681437654339e-02
-1.551994752561532825e-02
-1.864373376898411164e-02
-2.123185319848333932e-02
-2.325571178121070906e-02
-2.480216651672234943e-02
-2.578445378267161733e-02
-2.629188644771064329e-02
-2.632713963157172141e-02
-2.587893866671768864e-02
-2.507850343009031605e-02
-2.384441307160380455e-02
-2.228061346545969976e-02
-2.040193215016851760e-02
-1.821301146728307799e-02
-1.582103903184479965e-02
-1.318806091745180348e-02
-1.039629225724606615e-02
-7.472000327902958601e-03
-4.452927175660791222e-03
-1.393507346657617101e-03
1.669767833703362375e-03
4.685637441376526782e-03
7.614461417488165886e-03
1.038491604209702823e-02
1.299618148200613194e-02
1.535249714421896977e-02
1.743868139880091345e-02
1.921570878150702724e-02
2.061286223295012363e-02
2.167307667200988816e-02
2.229797700478111655e-02
2.251774895654729339e-02
2.231637780266581064e-02
2.167218178179628266e-02
2.065622971107875308e-02
1.922520032130684703e-02
1.745535237577980001e-02
1.536361524371651632e-02
1.300105321201211819e-02
1.044203582884304336e-02
7.717829752607049433e-03
4.927997554618859452e-03
2.109898238809225675e-03
-6.339082136660933661e-04
-3.255587082227884115e-03
-5.675306073138523637e-03
-7.812193775054578938e-03
-9.635547264365908887e-03
-1.104691941251102066e-02
-1.204922216419236636e-02
-1.256918143149040462e-02
-1.258747857505816345e-02
-1.210840590083544707e-02
-1.109764943453723715e-02
-9.613665005758491311e-03
-7.642129270000927975e-03
-5.239440774613465975e-03
-2.452498631536442937e-03
6.648434802468553353e-04
4.030040989042308480e-03
7.583420665986809542e-03
1.122719564589136874e-02
1.489797214845581252e-02
1.848129131566198652e-02
2.192941050678601927e-02
2.513518293008316223e-02
2.802181318206614299e-02
3.055211009710572662e-02
3.260592862349964011e-02
3.421904957895396254e-02
3.528186726450262267e-02
3.578582256815034807e-02
3.574898182633954452e-02
3.509122832835771810e-02
3.393354412018773081e-02
3.220042800781788839e-02
2.995084379099072908e-02
2.725222477409245531e-02
2.407815534951375167e-02
2.058108838753153549e-02
1.673601251018528788e-02
1.262556640437273274e-02
8.334556132652838276e-03
3.881896054202659853e-03
-6.202362558565743464e-04
-5.139069372993024069e-03
-9.614196585724450045e-03
-1.397167350760476767e-02
-1.815561026590507138e-02
-2.213686061116359322e-02
-2.582356959517815090e-02
-2.919684875261345167e-02
-3.220738287218468526e-02
-3.477137545647659977e-02
-3.694351349696172598e-02
-3.859272591706288530e-02
-3.973833400376072106e-02
-4.036552623342355706e-02
-4.038548994179588791e-02
-3.991233559476058124e-02
-3.882434117171450899e-02
-3.717018774217297622e-02
-3.498362804737181059e-02
-3.220671160924156590e-02
-2.898122874517851735e-02
-2.525105004036617626e-02
-2.108240222865176081e-02
-1.656272005561724298e-02
-1.168796873903060751e-02
-6.590789938154169476e-03
-1.305189536921607003e-03
4.109071585897657378e-03
9.531192290964336788e-03
1.492240619105406930e-02
2.019810748315131049e-02
2.525742724234567374e-02
3.007982369247813245e-02
3.455105349374480717e-02
3.862811353276141002e-02
4.230054488738450164e-02
4.545325748253890852e-02
4.812659163196538609e-02
5.024759220546451410e-02
5.180567309827072836e-02
5.285759135409025256e-02
5.332083964153181560e-02
5.328555050076229371e-02
5.272894252391916586e-02
5.168269891766792690e-02
5.023323988799618250e-02
4.835422450499974462e-02
4.614967108273273361e-02
4.363982267090811551e-02
4.088639582273933398e-02
3.796757317043376184e-02
3.491656980243091485e-02
3.181382939807975152e-02
2.871123720487014225e-02
2.567299266219169943e-02
2.274462012611906322e-02
1.999623740976372299e-02
1.745274130549068561e-02
1.517612336611131110e-02
1.319379294163900741e-02
1.150580005687061244e-02
1.017505986169954871e-02
9.153672407120689442e-03
8.487916545707130389e-03
8.138946004260454170e-03
8.066897104751122663e-03
8.290516284651442552e-03
8.702902568433390842e-03
9.325526285137306776e-03
1.005963560013959680e-02
1.085691948070963316e-02
1.169116737837206516e-02
1.244490855645122296e-02
1.313395293049295087e-02
1.364520760828550477e-02
1.396562284709079900e-02
1.405784490161557203e-02
1.384899589366156078e-02
1.337514024092292982e-02
1.256097589649115588e-02
1.144532996066036784e-02
1.001480300515825497e-02
8.260550385466991843e-03
6.239675696512518750e-03
3.938648426256666571e-03
1.417787022993112836e-03
-1.296471630814957123e-03
-4.171961875269762123e-03
-7.151661028419172526e-03
-1.019019534718007547e-02
-1.325371403803083173e-02
-1.627123521137163048e-02
-1.920302280023784142e-02
-2.200812768812472273e-02
-2.459479465581526983e-02
-2.698025554462856260e-02
-2.905294839074655175e-02
-3.078487230215247103e-02
-3.215524585400262453e-02
-3.305042316615949827e-02
-3.353282810250769047e-02
-3.348204780608445702e-02
-3.289324731352131354e-02
-3.177610245061741195e-02
-3.004372531855698317e-02
-2.778581829599245309e-02
-2.493729175999675682e-02
-2.152724837244128150e-02
-1.761327703591051771e-02
-1.318863442802788166e-02
-8.344973660914987990e-03
-3.128579647235883200e-03
2.402719589525203168e-03
8.144280871987760045e-03
1.400625233008612885e-02
1.992998190357416974e-02
2.575513782823744824e-02
3.142520200288032028e-02
3.681962272179963025e-02
4.179105153559662528e-02
4.634666751580804323e-02
5.027268102778206099e-02
5.355744733859953144e-02
5.611416525167144120e-02
5.781632346869043648e-02
5.875013905962704619e-02
5.874296368380876876e-02
5.785838059260806771e-02
5.608385221298863021e-02
5.338463772860176093e-02
4.990519888226968570e-02
4.559006170500397304e-02
4.056934337809242619e-02
3.491425576837210720e-02
2.870296878391705511e-02
2.209168659754519315e-02
1.516287239946474685e-02
8.066205965745381137e-03
9.331956552214581979e-04
-6.087070951474637774e-03
-1.288000189631367809e-02
-1.927408602319022682e-02
-2.517129965463370603e-02
-3.043575574547727550e-02
-3.494056570334929529e-02
-3.866104783387550731e-02
-4.143890737048150363e-02
-4.329302910733203585e-02
-4.415114633142341871e-02
-4.399966771368745561e-02
-4.292035519701246915e-02
-4.086149244046059781e-02
-3.796763388263659639e-02
-3.426390822192004054e-02
-2.987099505469564473e-02
-2.493518961598968978e-02
-1.953281005284556587e-02
-1.386232520861281972e-02
-8.017920583955184116e-03
-2.184281248507572749e-03
3.515633826667715397e-03
8.938016152186837801e-03
1.394627814757627010e-02
1.844662949894746926e-02
2.230440065588079612e-02
2.549615157732523091e-02
2.790301905759557527e-02
2.952981890191373054e-02
3.033674211703464574e-02
3.031555213110761343e-02
2.954533014483008702e-02
2.799234060870871982e-02
2.578884018255019062e-02
2.295132300017522359e-02
1.959491538161302338e-02
1.583146647392274370e-02
1.172062856132479770e-02
7.435892440068111661e-03
3.019467720046353776e-03
-1.349454384695795116e-03
-5.608469090471207390e-03
-9.631155682452926386e-03
-1.329388207749578749e-02
-1.655903038535204777e-02
-1.925496835572085980e-02
-2.140878444491036217e-02
-2.287432474185819437e-02
-2.362595012658966209e-02
-2.365287488245752801e-02
-2.285088449793278020e-02
-2.132878194291987911e-02
-1.898463253359024966e-02
-1.589264887122702682e-02
-1.209206027761004429e-02
-7.584164632551171174e-03
-2.524628398422040267e-03
3.086253177086497115e-03
9.110749891226802011e-03
1.545072336549229222e-02
2.200556237405934187e-02
2.862866644415154246e-02
3.521087579088937047e-02
4.162114142151586427e-02
4.773422832107937497e-02
5.341072599287140232e-02
5.858022041453631035e-02
6.308335612501773937e-02
6.687209379869130110e-02
6.985694023779280559e-02
7.194162236457582460e-02
7.317520645619156328e-02
7.343286576013162426e-02
7.278302835725333764e-02
7.121997966429136073e-02
6.873652712271462184e-02
6.548098660046157427e-02
6.141434643358587020e-02
5.667894468573378419e-02
5.134906799237794195e-02
4.548709757017140032e-02
3.926227301127663966e-02
3.272130780585125881e-02
2.599327210953894865e-02
1.919668912335039876e-02
1.241262482413038257e-02
5.756249555577904603e-03
-6.634729888445886972e-04
-6.796424069209273423e-03
-1.251215634946570288e-02
-1.775295282238394112e-02
-2.248866152757319353e-02
-2.658383365117688094e-02
-3.008585809808415543e-02
-3.288150534421691029e-02
-3.496335719481810655e-02
-3.637996804805584961e-02
-3.701950853804777258e-02
-3.700738317296298208e-02
-3.627918937387474008e-02
-3.488883530726001603e-02
-3.293628430630259757e-02
-3.038035297512787017e-02
-2.738012507167511891e-02
-2.393966186933848411e-02
-2.016048272069110442e-02
-1.615196508269749545e-02
-1.195622987402578455e-02
-7.706082266906528512e-03
-3.459714363235080921e-03
6.774149312760028088e-04
4.637865370150274710e-03
8.330473908733763283e-03
1.170548507627325492e-02
1.469340986860605963e-02
1.723589786342503982e-02
1.934171169358050307e-02
2.092195869717664025e-02
2.202826737545557703e-02
2.261503235617053076e-02
2.269110933292706536e-02
2.233135805300993579e-02
2.148000909726825378e-02
2.025531116613357024e-02
1.864276697913056294e-02
1.669871029827700581e-02
1.451992029263808083e-02
1.208925243211870712e-02
9.531112948355523889e-03
6.853927555507943574e-03
4.126538169456623120e-03
1.424505721759981164e-03
-1.236129341768314911e-03
-3.772271411207106344e-03
-6.161253397489389709e-03
-8.348788220800519577e-03
-1.030209196026298304e-02
-1.198457771931170368e-02
-1.337367672706372274e-02
-1.444523642994962470e-02
-1.517624859040728538e-02
-1.558030717597858397e-02
-1.562456932729387390e-02
-1.534182614686974144e-02
-1.472497626492876716e-02
-1.378795393104498973e-02
-1.257747808667362965e-02
-1.108772202136104265e-02
-9.378433960725875845e-03
-7.467812355885303753e-03
-5.395052769893973234e-03
-3.209641492623764754e-03
-9.395728861261260986e-04
1.367535742432856097e-03
3.675532902350501195e-03
5.940816451916196110e-03
8.139600485808154429e-03
1.021890793730033040e-02
1.216831299486817453e-02
1.394631529468730313e-02
1.552238159926688787e-02
1.690377857773180115e-02
1.803116585983328968e-02
1.892826691427865887e-02
1.955645914026021490e-02
1.990747152912580864e-02
1.999914941146186190e-02
1.979054636627516905e-02
1.931829443911647209e-02
1.855562293007757477e-02
1.752668071561347407e-02
1.624063966639415976e-02
1.470872059010254473e-02
1.297000773071090712e-02
1.103036215557232948e-02
8.961717838657940957e-03
6.766514788250772329e-03
4.530973079735798464e-03
2.296498125575237824e-03
1.113128337826545938e-04
-1.914196013546270829e-03
-3.783964255491671126e-03
-5.364448466322170074e-03
-6.630129047875614294e-03
-7.521581704451096688e-03
-7.943064027838734470e-03
-7.925675403461812651e-03
-7.363182838167757656e-03
-6.281113341528973999e-03
-4.663758922216273452e-03
-2.492073552766870502e-03
1.548598229609877974e-04
3.292306898311318612e-03
6.830872413285542059e-03
1.071618027016654415e-02
1.487866421842207881e-02
1.920768587808681718e-02
2.363126409261964711e-02
2.803694944043424661e-02
3.233207835830403942e-02
3.641523891597114176e-02
4.019906905378001216e-02
4.358937331495943424e-02
4.652135673833408813e-02
4.892478199700716485e-02
5.074410702491296415e-02
5.196447169941180444e-02
5.253664145192236262e-02
5.248580597477595089e-02
5.180253866971698540e-02
5.051149732200311410e-02
4.867482390182988061e-02
4.630721052581654451e-02
4.350419132516870901e-02
4.031185786883630801e-02
3.680338580695990958e-02
3.308191225706404864e-02
2.919498268918585895e-02
2.524771137992220388e-02
2.131260182797110186e-02
1.744616073362361894e-02
1.375188452948685955e-02
1.026266038262333910e-02
7.037347467379190258e-03
4.146174178495995628e-03
1.574497090189029211e-03
-5.998737245057816567e-04
-2.397073169259755950e-03
-3.831538367317067172e-03
-4.859736986525396880e-03
-5.586114431244271726e-03
-5.970309622597313147e-03
-6.096544479281513530e-03
-6.040630851922234971e-03
-5.793835076094569665e-03
-5.516079916269202126e-03
-5.191578947830922768e-03
-4.934169341146891520e-03
-4.827213613653877182e-03
-4.872950696766065008e-03
-5.209159030478951492e-03
-5.807832530444101589e-03
-6.747204626080575106e-03
-8.052976902495508765e-03
-9.699124588509876188e-03
-1.173031096448521118e-02
-1.407792375306128607e-02
-1.673720476729245038e-02
-1.965237006443261436e-02
-2.275603481311063575e-02
-2.599097913557485776e-02
-2.926814263206200736e-02
-3.251262267271761569e-02
-3.563553748544732308e-02
-3.856497609723070347e-02
-4.120358618785385785e-02
-4.350705782482004735e-02
-4.538763946042517761e-02
-4.680375301113347264e-02
-4.772802552538261966e-02
-4.809000634178243333e-02
-4.793644516720928228e-02
-4.720325579525528475e-02
-4.592970081646161745e-02
-4.414210269224526362e-02
-4.180780916669678271e-02
-3.905118404380061858e-02
-3.582449460578394917e-02
-3.221531450112167377e-02
-2.828131548161603656e-02
-2.399564743732029645e-02
-1.951352196092490110e-02
-1.478765322028776849e-02
-9.898079462930257227e-03
-4.918378301733350270e-03
1.997650047978810281e-04
5.310167277744554104e-03
1.045204208260047327e-02
1.558977151976605191e-02
2.063020875824670211e-02
2.563993252062993569e-02
3.050524315505734330e-02
3.523052555782356376e-02
3.983521004947894462e-02
4.420430581396982139e-02
4.839915954254754571e-02
5.235941371208360784e-02
5.603312056489953563e-02
5.949081037620922163e-02
6.260971206863323590e-02
6.541983600877679383e-02
6.793053269588145149e-02
7.002825126283543367e-02
7.181655547440581044e-02
7.318479151541099070e-02
7.411185358978250592e-02
7.467088003031988053e-02
7.470042861830752945e-02
7.430410985188250217e-02
7.340074822919732955e-02
7.191765523507050173e-02
6.996387819743497827e-02
6.737411422136960204e-02
6.422275045732481202e-02
6.048580875544114221e-02
5.607637474983490078e-02
5.111681008711120577e-02
4.551894496044051053e-02
3.932686195539346341e-02
3.261869237847462438e-02
2.535979937872686121e-02
1.768019595313112882e-02
9.647757449345345515e-03
1.288569982331046193e-03
-7.195001921842687602e-03
-1.574808283244556739e-02
-2.425312220068820759e-02
-3.248173455178085534e-02
-4.044258718766637062e-02
-4.785763690614276006e-02
-5.462079325115161421e-02
-6.068086494338565534e-02
-6.573864946860759340e-02
-6.988455601015114427e-02
-7.286924018222319666e-02
-7.462147863825352445e-02
-7.521289465697561516e-02
-7.439883901436084024e-02
-7.238224042137902936e-02
-6.903909546857411872e-02
-6.439508149914671686e-02
-5.865520091977709932e-02
-5.170962693357009782e-02
-4.384110656482015367e-02
-3.508263928793971254e-02
-2.554069142007036122e-02
-1.549608157847381928e-02
-4.966920831541063973e-03
5.781702072826553490e-03
1.660208770486289176e-02
2.739031890258425764e-02
3.788535209234653034e-02
4.801106542222750156e-02
5.762430614939859780e-02
6.654001905294840147e-02
7.474166797537767915e-02
8.206324266709021098e-02
8.844561385276220045e-02
9.390990256054027041e-02
9.830070088716394427e-02
1.017141148796437272e-01
1.040985296145505723e-01
1.054490161365190665e-01
1.059102308085678040e-01
1.053936017616412396e-01
1.040636242552962637e-01
1.019595036489246015e-01
9.912493486375890950e-02
9.574471281454811911e-02
9.181024234383108884e-02
8.747681262633429100e-02
8.284375376962736792e-02
7.796733012880904812e-02
7.299919955590435106e-02
6.799850660009917891e-02
6.303452786474986191e-02
5.824090854528727462e-02
5.362575447118249350e-02
4.926656202237889720e-02
4.524595224409407729e-02
4.149320949311963158e-02
3.815456887578204392e-02
3.512777870057956497e-02
3.241611684317617648e-02
3.007255036547805405e-02
2.788172615086156880e-02
2.599649121107540026e-02
2.418316579141121386e-02
2.241459506333201915e-02
2.069183375675264641e-02
1.871276100018543290e-02
1.665719088241273543e-02
1.420498371478095406e-02
1.137203452432766770e-02
8.135233933369961576e-03
4.206547342799397959e-03
-1.707104388251456245e-04
-5.312165883621441410e-03
-1.109499415840149716e-02
-1.751458240382421441e-02
-2.475765952931486061e-02
-3.250432069183354505e-02
-4.098912483060069417e-02
-4.997926300901320285e-02
-5.941673842285451895e-02
-6.936760954355777886e-02
-7.947627320811112561e-02
-8.987721183034634576e-02
-1.002950719747069397e-01
-1.106372527990849564e-01
-1.208951417374776738e-01
-1.307543770648153247e-01
-1.402782169507394705e-01
-1.492402393408311934e-01
-1.575555970434250885e-01
-1.652031859658397717e-01
-1.719773543586275988e-01
-1.779099956422841577e-01
-1.828785289090744115e-01
-1.868440442812993318e-01
-1.898026341180278354e-01
-1.916840107706967722e-01
-1.925141350274035823e-01
-1.922675484598882489e-01
-1.909781565126504321e-01
-1.886478233438926844e-01
-1.853344084728260621e-01
-1.810702219633501808e-01
-1.758821397128360609e-01
-1.698969703387529229e-01
-1.630906847054023334e-01
-1.556282489802079394e-01
-1.475473929225840641e-01
-1.388785672185508802e-01
-1.298423894048696126e-01
-1.203535964851858708e-01
-1.106578375252267460e-01
-1.007731746370756076e-01
-9.070515328693978807e-02
-8.073397221583887562e-02
-7.068456898145011880e-02
-6.085746204901135853e-02
-5.119909827360675375e-02
-4.169471382655907249e-02
-3.261723373109982893e-02
-2.368875737434589929e-02
-1.524783048263065807e-02
-7.107858075567292759e-03
7.283003522011071221e-04
8.068268794351877646e-03
1.528034644875622683e-02
2.198973844747169684e-02
2.855521919917448220e-02
3.490097879107458695e-02
4.096493043125609690e-02
4.716744275158044064e-02
5.309384054898871191e-02
5.926880723006795748e-02
6.549996517503120508e-02
7.186346123944431508e-02
7.877340649754979718e-02
8.577532567673250286e-02
9.349377667002335690e-02
1.016000373646323701e-01
1.102616855276745689e-01
1.198102077910459390e-01
1.297511300951092184e-01
1.406906203664081423e-01
1.521671699904494079e-01
1.643542889789781358e-01
1.774290171583631226e-01
1.908654719182837634e-01
2.051326068355431298e-01
2.196727906946951969e-01
2.345945977949371042e-01
2.498952204132106891e-01
2.650570136950831657e-01
2.803577690129201994e-01
2.952218636181392908e-01
3.096893949458962014e-01
3.236240814196381099e-01
3.365984819956145957e-01
3.487404403901556704e-01
3.595623497476201358e-01
3.691097237143253218e-01
3.772085184136005354e-01
3.836213622318955241e-01
3.884253443735089517e-01
3.913048720368400568e-01
3.924111288094245809e-01
3.916067284166068196e-01
3.889064600109429781e-01
3.844124783603747320e-01
3.779889968765270947e-01
3.699502902049560671e-01
3.601899967969070526e-01
3.489654728413993934e-01
3.364015355153426867e-01
3.224727383745687459e-01
3.076400027438066509e-01
2.917478886880686684e-01
2.752326975616788407e-01
2.581662230891761389e-01
2.405441467564995717e-01
2.228978408989902849e-01
2.049283254519109754e-01
1.871809791472034135e-01
1.695716008016522058e-01
1.520788212240840320e-01
1.352016467869135152e-01
1.184522166776653673e-01
1.024425458775845149e-01
8.684683928142200582e-02
7.166562461783480831e-02
5.726099036185269137e-02
4.298204245841301396e-02
2.949264510301916054e-02
1.618493469905858684e-02
3.173588156398206642e-03
-9.394777093046539213e-03
-2.224650504195977915e-02
-3.466064854294263059e-02
-4.750149549117135134e-02
-6.043714012910513661e-02
-7.355800253687684587e-02
-8.754496675434519926e-02
-1.016045536670456828e-01
-1.167656724742195673e-01
-1.324089513869372570e-01
-1.488165466201323006e-01
-1.665078894757404115e-01
-1.846050674736277042e-01
-2.041703077079079220e-01
-2.242884735462033485e-01
-2.453461163936707934e-01
-2.676299281184305046e-01
-2.901938466549298656e-01
-3.140176000425922154e-01
-3.379615378199291587e-01
-3.624455391918435798e-01
-3.875293164071133001e-01
-4.122672806859166705e-01
-4.375056649360884453e-01
-4.620162849394233717e-01
-4.862371850769635073e-01
-5.100700225816329203e-01
-5.326762982028603322e-01
-5.547801451590123056e-01
-5.752096333340057654e-01
-5.944550960150700725e-01
-6.123398996767207558e-01
-6.282398185279186587e-01
-6.427932259043958041e-01
-6.549857602902947606e-01
-6.654137729952102065e-01
-6.738646314894112255e-01
-6.800067315757588604e-01
-6.844099527403210148e-01
-6.862548671204359296e-01
-6.862800414974865593e-01
-6.842192054464717454e-01
-6.800695958792567497e-01
-6.742999183626097182e-01
-6.662739858669933790e-01
-6.568606261565783644e-01
-6.456741726765187206e-01
-6.330361095366283664e-01
-6.192253262595788232e-01
-6.037629072655649187e-01
-5.875714582234654593e-01
-5.700663386377553543e-01
-5.518572082679579216e-01
-5.329088864561077887e-01
-5.128982512056650123e-01
-4.926737780180565629e-01
-4.714074740854202750e-01
-4.499564096658099643e-01
-4.278614018113303663e-01
-4.050141816338726497e-01
-3.820559843466472816e-01
-3.579493196416831391e-01
-3.337829342491774876e-01
-3.086260907883602855e-01
-2.827065582767008256e-01
-2.563619828162912451e-01
-2.284562885654617681e-01
-2.003190545091055041e-01
-1.705743340918267348e-01
-1.399217949063270017e-01
-1.083495688391343109e-01
-7.476500153561092821e-02
-4.074313934273224996e-02
-4.541758927899289429e-03
3.258510571952887014e-02
7.100191320450376098e-02
1.116405480797895422e-01
1.527111405819753798e-01
1.962168088448809078e-01
2.403608014805984905e-01
2.858272050974434708e-01
3.333178983426429154e-01
3.808981017085472098e-01
4.307103037432861714e-01
4.805111105024724161e-01
5.312426343830336517e-01
5.833473774766022579e-01
6.348463580137694295e-01
6.878975280792577474e-01
7.399595620803977036e-01
7.921711716643063950e-01
8.447134084919131203e-01
8.956917320419540696e-01
9.471758273450671117e-01
9.964931312452177670e-01
1.044949838578604462e+00
1.092476623625107113e+00
1.137412501950273214e+00
1.181667791155938563e+00
1.222595448533292384e+00
1.261682969318175473e+00
1.298623035658773350e+00
1.332143339765999412e+00
1.363947344510121562e+00
1.391547333317139534e+00
1.416642641368301314e+00
1.438687220944384615e+00
1.456932461492688624e+00
1.472808508358635304e+00
1.484111412084122117e+00
1.492730353382433428e+00
1.497861443545265070e+00
1.499373402211500617e+00
1.498310728862688457e+00
1.492859058946181650e+00
1.485006547048639103e+00
1.473652785976744095e+00
1.459328057140437673e+00
1.442518743955382821e+00
1.421908501893210941e+00
1.399401523628016397e+00
1.373560288081564940e+00
1.345567989366376560e+00
1.315142310007357151e+00
1.281584510355339601e+00
1.246467442005223303e+00
1.208010609825171944e+00
1.168007501851476837e+00
1.125232705889807505e+00
1.079742310214187651e+00
1.032548590461596527e+00
9.816034357137983779e-01
9.292673942356141081e-01
8.733196003638540317e-01
8.147210492722588571e-01
7.537943034662962782e-01
6.883990891311646543e-01
6.214378457819750290e-01
5.498037246551005230e-01
4.754976203586313011e-01
3.981527927818574453e-01
3.157782490140922937e-01
2.317939591650127751e-01
1.424380296605495533e-01
5.081692905966844059e-02
-4.404267139103134471e-02
-1.437586932745003598e-01
-2.444687457608390735e-01
-3.503379618752971436e-01
-4.572140557393687965e-01
-5.666000300462625816e-01
-6.796159913478042602e-01
-7.921295850316485421e-01
-9.085263897330854155e-01
-1.023811097603565479e+00
-1.140008924990068007e+00
-1.257738943218389194e+00
-1.372873338769931451e+00
-1.489919591156102285e+00
-1.603346482894158820e+00
-1.715753660988253104e+00
-1.827320114838719034e+00
-1.934250830486395456e+00
-2.041087252137367525e+00
-2.142100566018154240e+00
-2.240500058604995459e+00
-2.336056489025972294e+00
-2.425623621437285049e+00
-2.513598748312619424e+00
-2.594371610069818868e+00
-2.671694295668824104e+00
-2.744872205381084118e+00
-2.811661838360822951e+00
-2.875988611514751270e+00
-2.932635228402826311e+00
-2.985676967702989959e+00
-3.033808123392380818e+00
-3.075850950896426017e+00
-3.114804741461956183e+00
-3.146086602956626344e+00
-3.173746822760894482e+00
-3.195709789280937851e+00
-3.211950702792652823e+00
-3.224086479937364746e+00
-3.228422002451041273e+00
-3.228613807792735546e+00
-3.221770205252296737e+00
-3.209086405518290608e+00
-3.190498209787671069e+00
-3.163518460929189757e+00
-3.131138501978433464e+00
-3.089812010207106052e+00
-3.042052510547713418e+00
-2.986056361706869833e+00
-2.920956541881510216e+00
-2.848940261359643511e+00
-2.766167438358834829e+00
-2.676593728189044619e+00
-2.576786757162183861e+00
-2.467952513068567999e+00
-2.351365430727576200e+00
-2.223308244064960970e+00
-2.089230696870827853e+00
-1.944151310439902414e+00
-1.791705365424968388e+00
-1.632009836793924418e+00
-1.461749609908964853e+00
-1.287727432851363263e+00
-1.103315731137247901e+00
-9.146967979598371601e-01
-7.204065760017377418e-01
-5.175910009853869065e-01
-3.140347453760365948e-01
-1.006071511398098361e-01
1.234750386164915892e-01
3.384316031427935800e-01
5.444693890073595277e-01
7.604059199587209772e-01
1.010037271121556612e+00
1.273902512422744104e+00
1.494083546773551818e+00
1.673275281835635120e+00
1.887446711972009528e+00
2.196046878428705718e+00
2.526404579147511598e+00
2.735658159178162130e+00
2.836821052871165261e+00
3.030696585579834679e+00
3.452644215258342086e+00
3.916028701188477346e+00
4.084926736672140457e+00
3.975399327822353612e+00
4.077220830253064143e+00
4.782899076958384121e+00
5.693856657852903957e+00
5.756709777601692224e+00
4.303482300505993230e+00
1.881292778854581016e+00
