BVP Signal
8.009047782998834908e-02
1.163402528791922519e-01
1.508681179124638227e-01
1.825856109410654848e-01
2.104042699762592727e-01
2.332356330293075541e-01
2.500787317211601857e-01
2.602912706316436453e-01
2.633339121522579318e-01
2.589370119217671018e-01
2.471093949390193445e-01
2.279680404834433238e-01
2.020304716587237592e-01
1.699282643354017852e-01
1.325182563456943075e-01
9.089489723601155979e-02
4.620692683271879209e-02
-2.120272304739160424e-04
-4.697832080947866862e-02
-9.270132535563382903e-02
-1.359828866748481746e-01
-1.754621974425655540e-01
-2.099449079493581616e-01
-2.382903048950367197e-01
-2.595705408380465373e-01
-2.730921047735876406e-01
-2.782608126024362361e-01
-2.748772722575041905e-01
-2.628631964071256322e-01
-2.424141687819551527e-01
-2.140337774935600623e-01
-1.783153194596874824e-01
-1.361919365661773684e-01
-8.870008363044676325e-02
-3.702315688646987124e-02
1.748662641894752068e-02
7.345343242691496077e-02
1.294334484774369853e-01
1.839645037302804764e-01
2.356410832497541075e-01
2.831241809578702862e-01
3.251232632214430818e-01
3.605653844113066997e-01
3.884500226805013279e-01
4.079819726423179471e-01
4.186122394505188415e-01
4.198788508846402756e-01
4.116816788805082172e-01
3.940401587249706683e-01
3.672087372206661038e-01
3.317297679987543102e-01
2.882243967523494543e-01
2.376269857581195522e-01
1.809758060866266671e-01
1.194515451552723567e-01
5.441312119866358737e-02
-1.275086478782959387e-02
-8.055514766365519386e-02
-1.474836498295244713e-01
-2.120496018055470500e-01
-2.728037438009733862e-01
-3.283340518242842121e-01
-3.774156266143596783e-01
-4.188910718898933849e-01
-4.517944728859792924e-01
-4.754101018954420832e-01
-4.891074587764281389e-01
-4.926330410862219122e-01
-4.858684896397194031e-01
-4.689388289469264004e-01
-4.422939369245929564e-01
-4.064668713044668480e-01
-3.623331564417199280e-01
-3.108919870158476373e-01
-2.532911326220077530e-01
-1.908809164732040431e-01
-1.250445495548762609e-01
-5.727152591213725830e-02
1.091094555331078436e-02
7.799874885703422800e-02
1.425200374942384995e-01
2.030338218554053886e-01
2.582683975562206080e-01
3.070177673659159057e-01
3.482389554219726957e-01
3.811211330590713597e-01
4.049254740742987968e-01
4.192440130988605018e-01
4.237975777051186110e-01
4.185138920257928663e-01
4.036216180058543879e-01
3.794241966785881770e-01
3.465443920828469304e-01
3.057309958900437108e-01
2.578825105789085970e-01
2.041198402980200777e-01
1.456063944847470204e-01
8.366229943554367998e-02
1.967000608019509045e-02
-4.496508079160629889e-02
-1.088028766211168730e-01
-1.704134627998873386e-01
-2.284530146600826928e-01
-2.816144625800779400e-01
-3.287076919223962945e-01
-3.687242451289941547e-01
-4.007147111838494924e-01
-4.240226682559853355e-01
-4.381160270771398135e-01
-4.426580918978806900e-01
-4.376220174187639977e-01
-4.230574877722042548e-01
-3.993537601146104898e-01
-3.670463270025918767e-01
-3.268322059155234771e-01
-2.796699173568906738e-01
-2.265684470091197944e-01
-1.687254885729690401e-01
-1.074210764696032216e-01
-4.397315265890489044e-02
2.023795182227068612e-02
8.383380630023738733e-02
1.454928381914543101e-01
2.039198664033105013e-01
2.579102144669973562e-01
3.064126280682376025e-01
3.484227037794770387e-01
3.831757798737432386e-01
4.100178644014611518e-01
4.284474752769091843e-01
4.382268315802327896e-01
4.391809598718783292e-01
4.314158337555575318e-01
4.151694451928070739e-01
3.908160589828938991e-01
3.589704331126190584e-01
3.202967591390331048e-01
2.756548577898211838e-01
2.259981820967700283e-01
1.723450090020623993e-01
1.158301861995751636e-01
5.760497520958682283e-02
-1.146040445577013300e-03
-5.922237295388606271e-02
-1.154536779278742820e-01
-1.687257258897684187e-01
-2.179474054806124217e-01
-2.621696723612405577e-01
-3.005151073846040743e-01
-3.322165738191040774e-01
-3.567151596371486155e-01
-3.735047157470402501e-01
-3.823321855066369457e-01
-3.830743436989230144e-01
-3.757437240005284673e-01
-3.606142553027386066e-01
-3.380162736588969152e-01
-3.085128742861860118e-01
-2.727888803120028238e-01
-2.316170959287200959e-01
-1.859428324955190170e-01
-1.367412861078390884e-01
-8.507410860271955033e-02
-3.204892000131542157e-02
2.122887886419523584e-02
7.365925586581668905e-02
1.241524982903147445e-01
1.717089251671571060e-01
2.153783271583254999e-01
2.542890655214481987e-01
2.877315929218168811e-01
3.150373850287629951e-01
3.357375880739966734e-01
3.494750212026398462e-01
3.559998097178780352e-01
3.552874245587984703e-01
3.473631347995638774e-01
3.324590117046073989e-01
3.109251820660570709e-01
2.831985680100949643e-01
2.499017181974525215e-01
2.116941481579981410e-01
1.693630923961320645e-01
1.237701963614471212e-01
7.581024150940161854e-02
2.644962794456899580e-02
-2.333563520497136667e-02
-7.256996389759225174e-02
-1.202781670341512565e-01
-1.655175721866381788e-01
-2.074194665181293140e-01
-2.451374751384746420e-01
-2.779551370352648654e-01
-3.052352499849104173e-01
-3.264244479473647487e-01
-3.411619149372382975e-01
-3.491324354024346044e-01
-3.502225350716429708e-01
-3.444443657165198736e-01
-3.319047496841608935e-01
-3.129315442486352294e-01
-2.878999322602582289e-01
-2.573570821440511192e-01
-2.219595210599672463e-01
-1.824201875241038273e-01
-1.395853066122464958e-01
-9.432545906477755870e-02
-4.756309510552280545e-02
-2.543006277991562494e-04
4.665328845965946436e-02
9.223454545790979453e-02
1.355748198719665121e-01
1.758442527147767442e-01
2.122693621838565303e-01
2.441376192795877142e-01
2.708896260023094804e-01
2.920033690571777196e-01
3.071221309081781925e-01
3.160013956270507629e-01
3.184765527126146023e-01
3.145864019967750114e-01
3.044158187050287623e-01
2.882194668882075983e-01
2.663697385181228450e-01
2.393046267532416560e-01
2.076314622259572695e-01
1.719935701916289750e-01
1.331394891787796575e-01
9.189227285953108226e-02
4.909852133693543008e-02
5.665071268782864711e-03
-3.749187740296032467e-02
-7.946796780202523836e-02
-1.193674502731821435e-01
-1.563273030107437123e-01
-1.895758475308919055e-01
-2.183668740139291520e-01
-2.420888327180112376e-01
-2.602297915539711903e-01
-2.723536444049512451e-01
-2.782355743371239254e-01
-2.777017309568747816e-01
-2.707706628424777495e-01
-2.576063070788013887e-01
-2.384508043851506498e-01
-2.137660186338771195e-01
-1.840635872650014382e-01
-1.499983615043828378e-01
-1.123357470833278998e-01
-7.187927869070692699e-02
-2.953885786547673364e-02
1.375432264595293982e-02
5.704859926030068917e-02
9.937617498757889134e-02
1.397873438854561057e-01
1.773896405762350470e-01
2.113082067703268563e-01
2.407738686711402565e-01
2.651026264199395355e-01
2.836733400212205769e-01
2.960561337896459588e-01
3.018698236371478716e-01
3.009148082210013619e-01
2.931409833473894722e-01
2.785769609606295605e-01
2.574921300994931217e-01
2.302147987953150898e-01
1.972484908488464916e-01
1.592441012751688867e-01
1.169103796762362701e-01
7.113300875752401331e-02
2.283889098346841839e-02
-2.696461008651000746e-02
-7.720099577364888943e-02
-1.267885153446074997e-01
-1.746351975321780159e-01
-2.196507690013254910e-01
-2.608161262062410057e-01
-2.971746443711514862e-01
-3.278263076483125538e-01
-3.520611124897246591e-01
-3.692209838287294765e-01
-3.788485178885203641e-01
-3.806662758581579320e-01
-3.744872923103300111e-01
-3.604251208454513633e-01
-3.386714319777923143e-01
-3.096354077749349232e-01
-2.739255091693183486e-01
-2.322209641852449324e-01
-1.854331935549490828e-01
-1.345317767353066962e-01
-8.058914233899480695e-02
-2.477398098489509010e-02
3.173452137216639657e-02
8.773169148424872499e-02
1.420098943975586225e-01
1.934255708132518736e-01
2.408964278623203226e-01
2.833900503487126743e-01
3.200564132927572469e-01
3.500975241560246864e-01
3.728960619107524188e-01
3.880111837530249574e-01
3.950804065611120408e-01
3.940211226011305357e-01
3.848283510302543675e-01
3.676960121353297639e-01
3.430165031764367267e-01
3.112504716616740219e-01
2.730995356030665455e-01
2.293314772354516640e-01
1.808409459540034347e-01
1.286519194136198085e-01
7.381704390585169806e-02
1.748355887967992239e-02
-3.917686847447535148e-02
-9.499374339380509125e-02
-1.487977921157326855e-01
-1.994435111114082060e-01
-2.458860075634577980e-01
-2.871122244253109246e-01
-3.222420652432733124e-01
-3.505368869044490632e-01
-3.713246468069728579e-01
-3.841930854059971145e-01
-3.888081305805051735e-01
-3.850396016806816868e-01
-3.729789153443927585e-01
-3.527937724614049197e-01
-3.249421880176543431e-01
-2.899689362742689513e-01
-2.485843202117840878e-01
-2.016824296810276473e-01
-1.502020603931749909e-01
-9.524245681345663850e-02
-3.794999331821133359e-02
2.048970789500337286e-02
7.884650883598953719e-02
1.358981212989900378e-01
1.904702616435713369e-01
2.414058350988921298e-01
2.876438131180075186e-01
3.282344922670260012e-01
3.622800661724477900e-01
3.891018946800303691e-01
4.080925538273565412e-01
4.188214701187544242e-01
4.210674365194330138e-01
4.146794627129710142e-01
3.997923376358306635e-01
3.766339201525673586e-01
3.456101533867329545e-01
3.073423620947434154e-01
2.625099465376012908e-01
2.120201067577161258e-01
1.568545493986118200e-01
9.809500620066002874e-02
3.694679064028055793e-02
-2.536588540663298197e-02
-8.756068126507277061e-02
-1.483374458653036743e-01
-2.064294515159035837e-01
-2.606121844896862050e-01
-3.096945723105072323e-01
-3.526484370060595785e-01
-3.885036100084350852e-01
-4.164528553708708447e-01
-4.358990961513600215e-01
-4.463178625969850266e-01
-4.475036496544271269e-01
-4.393639940425149715e-01
-4.220167585332924576e-01
-3.958569473014569295e-01
-3.613528168153415931e-01
-3.192752274061390061e-01
-2.705030861876386861e-01
-2.160544803136427716e-01
-1.571348283966696180e-01
-9.498268155376723976e-02
-3.095037832469768602e-02
3.356956473635280824e-02
9.719175801840529427e-02
1.585406865192554304e-01
2.162643433467777154e-01
2.691442230734860663e-01
3.160133378574402352e-01
3.558476177605862656e-01
3.878239068494381270e-01
4.111850832479884144e-01
4.254800942377914286e-01
4.303757630673450407e-01
4.257416761676236505e-01
4.117385781475316198e-01
3.886027379246786428e-01
3.568968373827863250e-01
3.173108800517617789e-01
2.706964018210020195e-01
2.181418505264390018e-01
1.607827364977374440e-01
9.993244682235195853e-02
3.697425897012060481e-02
-2.667614969144144893e-02
-8.955469910285165924e-02
-1.502057479215615221e-01
-2.072542223368701308e-01
-2.593592536698621220e-01
-3.053009514242625011e-01
-3.440449112100800177e-01
-3.746186948798018168e-01
-3.963574687367366622e-01
-4.087253383094011649e-01
-4.113946778161702289e-01
-4.043638820265552658e-01
-3.877128283692821697e-01
-3.618831987028234831e-01
-3.274705003789959989e-01
-2.852447249840831534e-01
-2.362547361892891051e-01
-1.816037508930963551e-01
-1.225999734857889656e-01
-6.063987032639431285e-02
2.837651700250659603e-03
6.632468815939648876e-02
1.283156968565709044e-01
1.873681055819543806e-01
2.420683074244476818e-01
2.911079944067058167e-01
3.333550388904983341e-01
3.677332232099262965e-01
3.934550480869354327e-01
4.098647067320440041e-01
4.164990097392417545e-01
4.132235624392893714e-01
3.999842952297694154e-01
3.770913922828210696e-01
3.450240182279716294e-01
3.044408621358637435e-01
2.563133882563420896e-01
2.016762287050988256e-01
1.418098632879119525e-01
7.811073731532892916e-02
1.204248767325391545e-02
-5.481215873717232290e-02
-1.208607420579483893e-01
-1.845318695095585770e-01
-2.442651572860060627e-01
-2.985896437057705133e-01
-3.461979198195078156e-01
-3.858359471360394699e-01
-4.165444875569372374e-01
-4.375107789519087076e-01
-4.481217099599535958e-01
-4.481359751832718619e-01
-4.374008873671230702e-01
-4.161669238442826102e-01
-3.848884801038213732e-01
-3.442095478861548763e-01
-2.951340995020279578e-01
-2.387371100294048420e-01
-1.763568273495364214e-01
-1.094671095895471818e-01
-3.960630567876755742e-02
3.156315412203160309e-02
1.023679777047016987e-01
1.711663295672433138e-01
2.363335429164155899e-01
2.963344438354298394e-01
3.498127406999001487e-01
3.954650869331762797e-01
4.322777435461801487e-01
4.593936130653670791e-01
4.761361200416009964e-01
4.821953370805386330e-01
4.773458946791163671e-01
4.617358821022772286e-01
4.357193792864362258e-01
3.998202065472162836e-01
3.549133486961723039e-01
3.019447454905939687e-01
2.421197338953064437e-01
1.767896142113605795e-01
1.073790187963685888e-01
3.546628565761529572e-02
-3.734895111931615941e-02
-1.094526836013317572e-01
-1.792229539676145067e-01
-2.450959305769146723e-01
-3.056354451541440920e-01
-3.594456158782290967e-01
-4.053698833416279346e-01
-4.423927795073084313e-01
-4.696554944605760284e-01
-4.866466729772027100e-01
-4.929365520662259414e-01
-4.884568849606701346e-01
-4.733568811173433644e-01
-4.479512984001163267e-01
-4.129281846706016612e-01
-3.690532628101687584e-01
-3.173690490869898184e-01
-2.590880253602082517e-01
-1.955043288557449799e-01
-1.280981621316006069e-01
-5.838018350188752675e-02
1.209689105339150153e-02
8.175412283070390695e-02
1.490520985784876684e-01
2.125474112771388313e-01
2.708279822941425663e-01
3.226796480286011071e-01
3.670153687272920129e-01
4.028762400041279168e-01
4.296135830193430483e-01
4.466522581488700516e-01
4.537334338902416220e-01
4.508056966380707964e-01
4.379616036655904487e-01
4.156473293305867900e-01
3.843858366926337089e-01
3.449686815851725763e-01
2.983673079988010679e-01
2.456408911771190695e-01
1.880663307785068183e-01
1.269620807008676189e-01
6.373394925468378602e-02
-1.525484849774355611e-04
-6.324307036816492755e-02
-1.241158287561104911e-01
-1.813652049083434581e-01
-2.337266228338858443e-01
-2.800342277226859911e-01
-3.192257231565637232e-01
-3.505132693186343018e-01
-3.731769174629840924e-01
-3.867911519646035634e-01
-3.911408868438536190e-01
-3.861474090726639830e-01
-3.720968762192965462e-01
-3.493579201153132474e-01
-3.185739026454539324e-01
-2.805887508350778381e-01
-2.363342571170596040e-01
-1.869783212651353610e-01
-1.337368391075040019e-01
-7.791781389052540585e-02
-2.089791819653115390e-02
3.595403671739341722e-02
9.129682547707912432e-02
1.438028756379388373e-01
1.922724382132570131e-01
2.356032148069698295e-01
2.727805888684889934e-01
3.030433278859219759e-01
3.256937238608665908e-01
3.402875150613960953e-01
3.465778022638766886e-01
3.444291847651064220e-01
3.340299258120288384e-01
3.156446954210548328e-01
2.897744342809193685e-01
2.571080427316358441e-01
2.184116353088667029e-01
1.746759587962556370e-01
1.269416914373779903e-01
7.635123680085173503e-02
2.412966742440281198e-02
-2.849127511633781085e-02
-8.026619009407021110e-02
-1.299517859115248419e-01
-1.763860042804166750e-01
-2.184742487370353037e-01
-2.551872967950859494e-01
-2.857032440142464047e-01
-3.092553234033788567e-01
-3.252991030311855880e-01
-3.334787658561507162e-01
-3.335406623368990520e-01
-3.255537739763863514e-01
-3.096680479385271467e-01
-2.862747312125689114e-01
-2.559741944762115029e-01
-2.194475092286554962e-01
-1.776293009458735916e-01
-1.315149563857670456e-01
-8.221800697471867703e-02
-3.095658556341177037e-02
2.103842323765617306e-02
7.250395509927198834e-02
1.221735378479678891e-01
1.688516551738288296e-01
2.114069721484056474e-01
2.487671869548884196e-01
2.800646803918706018e-01
3.044886355961580748e-01
3.214415469109089818e-01
3.305230167134040054e-01
3.314280511383129735e-01
3.241770920585025917e-01
3.088771858754006394e-01
2.858721484763343534e-01
2.557293025235168327e-01
2.190957177698049374e-01
1.768875664121419000e-01
1.300908056869495288e-01
7.982179816568334141e-02
2.732266379529477152e-02
-2.614436896900893328e-02
-7.925884727976847954e-02
-1.306886130575647120e-01
-1.791558845116395515e-01
-2.234364496055149807e-01
-2.623593220514929825e-01
-2.949563523531004705e-01
-3.203192327787220961e-01
-3.377579249398908745e-01
-3.468020621476602949e-01
-3.470796388915359243e-01
-3.385804860070311673e-01
-3.213972896045059757e-01
-2.958792115952771917e-01
-2.626391073280817112e-01
-2.223742137616149250e-01
-1.760841847245154246e-01
-1.248530789908634669e-01
-6.990050367995516434e-02
-1.258843621613082997e-02
4.570195660085556166e-02
1.035362140733312730e-01
1.594681001074117199e-01
2.121167664273354847e-01
2.601715263365000919e-01
3.023767267112275614e-01
3.377032281857486051e-01
3.651922157492821785e-01
3.841077665151365061e-01
3.939582848250181013e-01
3.943480660831091833e-01
3.852568890036885407e-01
3.667790163325602704e-01
3.392618597468473052e-01
3.033363161508862427e-01
2.597168715318792787e-01
2.094344691618558185e-01
1.536160741927291573e-01
9.353216259088595330e-02
3.061738735708700865e-02
-3.366851452968944169e-02
-9.778971532343946893e-02
-1.601895939554197901e-01
-2.193634160822982571e-01
-2.738670977230247550e-01
-3.223067551966904976e-01
-3.635151294410388090e-01
-3.964005388885151748e-01
-4.200987776235111659e-01
-4.340172587358630540e-01
-4.376626561146935712e-01
-4.309555796888725476e-01
-4.139529563930812728e-01
-3.869836534543883433e-01
-3.507082627709242617e-01
-3.058771148060691059e-01
-2.535950065147194454e-01
-1.950835332833981139e-01
-1.317150735433764708e-01
-6.504989797166160770e-02
3.325378967001302311e-03
7.174816731499492062e-02
1.385327806194312783e-01
2.020536302604068746e-01
2.607616833586712812e-01
3.131596501283563372e-01
3.580006134560484443e-01
3.941270298743364542e-01
4.206138374078233211e-01
4.368384221348962648e-01
4.422771556145761451e-01
4.368384054381813097e-01
4.205845209550138630e-01
3.938469871688898283e-01
3.573149701986908511e-01
3.117674538896629821e-01
2.583495543674992900e-01
1.983378483280229532e-01
1.331599023016408201e-01
6.444823995676961237e-02
-6.135698579036050204e-03
-7.684810061499280920e-02
-1.459169786181719053e-01
-2.116295602143275223e-01
-2.723553346165462630e-01
-3.265147966074750663e-01
-3.727943838561975642e-01
-4.099829978026844901e-01
-4.371086619643088644e-01
-4.535384372276525244e-01
-4.587414333779362696e-01
-4.526496348009937387e-01
-4.353740924900042497e-01
-4.072973167919892168e-01
-3.691949406332729611e-01
-3.219327781674260480e-01
-2.667461234891271293e-01
-2.050147046239816362e-01
-1.382511166958060866e-01
-6.816438723453814574e-02
3.513572375562268313e-03
7.500613318632193272e-02
1.445205101345283794e-01
2.103445798993801019e-01
2.708884307834750205e-01
3.246172216678856470e-01
3.702902066172224504e-01
4.067889114288985031e-01
4.332265649488181158e-01
4.490745105988027674e-01
4.539007739582232581e-01
4.477166547145460251e-01
4.307198932941073144e-01
4.033485173263316459e-01
3.664197835577227558e-01
3.208327559617383251e-01
2.678195164499018732e-01
2.087542440959615497e-01
1.451227959666401002e-01
7.859081971183246029e-02
1.084449683373878842e-02
-5.640051931370441973e-02
-1.214169736567823343e-01
-1.825579141529677929e-01
-2.383092127969604623e-01
-2.872098913843527113e-01
-3.280947542260834737e-01
-3.599321385530610540e-01
-3.819130057484942942e-01
-3.936035430747826247e-01
-3.946654169891216091e-01
-3.852025654515516817e-01
-3.655215269413643053e-01
-3.361536115332528496e-01
-2.980167539868010529e-01
-2.521073972600717528e-01
-1.997293854790334333e-01
-1.423296483595657413e-01
-8.143947414156713083e-02
-1.873779558127964401e-02
4.408407928737047288e-02
1.053560999205985366e-01
1.634193454370287957e-01
2.167162677477754706e-01
2.638722898981146758e-01
3.035720728918508415e-01
3.348236383243199388e-01
3.567935826647258279e-01
3.688627998992511370e-01
3.708060403342399169e-01
3.624911887310340308e-01
3.442061114413539902e-01
3.164483250377549961e-01
2.799105075291126177e-01
2.356510878088845518e-01
1.847999003976009968e-01
1.287494279706389300e-01
6.902560907373521404e-02
7.212710546738963779e-03
-5.499434835802188143e-02
-1.158950291496364804e-01
-1.738502023158826071e-01
-2.272534344914644011e-01
-2.746142602209280525e-01
-3.146707446404520825e-01
-3.462273528974099124e-01
-3.684452501326701546e-01
-3.806760273316843191e-01
-3.824888935694573666e-01
-3.738892252184551346e-01
-3.549809743673629781e-01
-3.262942767787188614e-01
-2.885911892986188221e-01
-2.428105993831239928e-01
-1.902521250158659138e-01
-1.322823903607249219e-01
-7.048091718759741386e-02
-6.545227644244672183e-03
5.780628177063948381e-02
1.208137280055879281e-01
1.807260122587119322e-01
2.359296962936921760e-01
2.848900409141548740e-01
3.262140258018766947e-01
3.588132151341206222e-01
3.816777815866867485e-01
3.941892367605895897e-01
3.959566255400843171e-01
3.867983479189225360e-01
3.669899482415619474e-01
3.369067305433873227e-01
2.973229304032714571e-01
2.492494982337304932e-01
1.938452389631679929e-01
1.325967521888687106e-01
6.705079965595536762e-02
-1.085215965946823014e-03
-7.000673093660315927e-02
-1.379129707930417392e-01
-2.030150748476602929e-01
-2.635425211653001920e-01
-3.179077056620673303e-01
-3.646366751579006027e-01
-4.024086824775633398e-01
-4.302622705762779165e-01
-4.473249384293830899e-01
-4.531411905562010567e-01
-4.475197518049764955e-01
-4.304734679742590608e-01
-4.025004508737112241e-01
-3.642036747867199997e-01
-3.165667555503068331e-01
-2.608195645552562336e-01
-1.983136783808565617e-01
-1.306927566346011427e-01
-5.965319978309850668e-02
1.301065362621880994e-02
8.543987037597111645e-02
1.558077381341383960e-01
2.223723861465260465e-01
2.834236800191010097e-01
3.374796994490777413e-01
3.832128572077520556e-01
4.194483173573739232e-01
4.454013260050778689e-01
4.603807810747546636e-01
4.640907585693585524e-01
4.565082048203206178e-01
4.377853500715322976e-01
4.085271436188211425e-01
3.694379975416774986e-01
3.215493578739735403e-01
2.661233253859226489e-01
2.045199314239804500e-01
1.383532638322031993e-01
6.928581559810942370e-02
-9.456860767804164958e-04
-7.055108617423272444e-02
-1.377726945287765792e-01
-2.009468239083083418e-01
-2.584418705917584380e-01
-3.088473071329502773e-01
-3.509154704754955389e-01
-3.835402600369177128e-01
-4.060098243792821249e-01
-4.177089119392159433e-01
-4.184057533056619871e-01
-4.081571260381097188e-01
-3.871818963789785406e-01
-3.561532957999509752e-01
-3.158477101830372558e-01
-2.673453574141606559e-01
-2.119599948184672511e-01
-1.510866217636067932e-01
-8.634612211151690420e-02
-1.940410556633595518e-02
4.803491490297376321e-02
1.142359028035980772e-01
1.775060101514841226e-01
2.362846173862601373e-01
2.890508392930897785e-01
3.345133621168074334e-01
3.715650971873981634e-01
3.992284358165385516e-01
4.169172078760542410e-01
4.241431035008829120e-01
4.207637342620134668e-01
4.069202885521742696e-01
3.828906572465916036e-01
3.493668035226557000e-01
3.071393322678944160e-01
2.572594487519003770e-01
2.009966049392458987e-01
1.396877989950063570e-01
7.487104709305611450e-02
8.127656741465039136e-03
-5.892908025067290778e-02
-1.246585129884213994e-01
-1.874559513460785087e-01
-2.458414869165525540e-01
-2.983730566852687560e-01
-3.438177558563429992e-01
-3.811255088078692177e-01
-4.093610610829936935e-01
-4.279662605333953151e-01
-4.364816773611193690e-01
-4.347689436920079697e-01
-4.229763957192766988e-01
-4.013745027143499344e-01
-3.706322252107003834e-01
-3.315190000574460560e-01
-2.850382645796284975e-01
-2.324069271441392415e-01
-1.748980412276487373e-01
-1.139607612310931106e-01
-5.108503652291780661e-02
1.222509368151778776e-02
7.445245935698525941e-02
1.341152138236337277e-01
1.898652946583878343e-01
2.403948963288970453e-01
2.845867079392409016e-01
3.215047852432849629e-01
3.503089205035980203e-01
3.704977229120078319e-01
3.816630283745813812e-01
3.836633983120469327e-01
3.766168190295542950e-01
3.607386830658326771e-01
3.365843688674267642e-01
3.048010948897317829e-01
2.662292671831392177e-01
2.219012461078276877e-01
1.728979050450454302e-01
1.204619623625271529e-01
6.587790127695536402e-02
1.045630391460054820e-02
-4.446575574936624531e-02
-9.757226264667760718e-02
-1.476388296352423302e-01
-1.934705778988317082e-01
-2.340180286055918435e-01
-2.683824768473397904e-01
-2.957410087134388910e-01
-3.155611821377999338e-01
-3.273962687024495333e-01
-3.310314313381568785e-01
-3.264974845518339719e-01
-3.139118210474294290e-01
-2.937153056753479818e-01
-2.664431601246192716e-01
-2.328139734768673308e-01
-1.937447757349017863e-01
-1.502001393821976727e-01
-1.033115461793708556e-01
-5.425782709855996033e-02
-4.248235549805357003e-03
4.547434225122923279e-02
9.368319679616460283e-02
1.392330571872707756e-01
1.810062380097365864e-01
2.180141348328878959e-01
2.494139360292202401e-01
2.744281559018749705e-01
2.925472213388907727e-01
3.033462397186907356e-01
3.066034485475786497e-01
3.023314685990421413e-01
2.906177092422187469e-01
2.718445490445998702e-01
2.464874565912215099e-01
2.151843139947604011e-01
1.787644518021505591e-01
1.381012283492579207e-01
9.422963323869151808e-02
4.823512966612977793e-02
1.239480365889610546e-03
-4.559184688010117781e-02
-9.110253066671114563e-02
-1.341951819966000770e-01
-1.737939543141075460e-01
-2.089300108439341441e-01
-2.387661863852117705e-01
-2.625215327080432370e-01
-2.796625881294002580e-01
-2.897404425391776894e-01
-2.924945190725333211e-01
-2.879009770180007144e-01
-2.760070925857835422e-01
-2.571557568917668957e-01
-2.317911655086459244e-01
-2.005176213859412304e-01
-1.641450236877896873e-01
-1.235281980239764654e-01
-7.969180972264774954e-02
-3.371863205251018902e-02
1.326966243691149461e-02
6.010040075447714569e-02
1.056071751594093028e-01
1.486774943640616908e-01
1.882198183340469955e-01
2.232419474879903942e-01
2.528848890679468719e-01
2.763415304279298046e-01
2.930465702250380500e-01
3.025240746141532044e-01
3.044762293999205838e-01
2.988491874561183259e-01
2.856578894533566282e-01
2.652153447314806178e-01
2.379457337054194932e-01
2.044342949807700649e-01
1.654916068018540409e-01
1.219772058888841382e-01
7.494274173031728603e-02
2.551202033812868808e-02
-2.513824982425662269e-02
-7.575581715780987935e-02
-1.250883171880185218e-01
-1.719183532965680439e-01
-2.150436025500721549e-01
-2.533560064805838175e-01
-2.858853303725596984e-01
-3.117140357882748902e-01
-3.301871836207170285e-01
-3.407552139650636969e-01
-3.430618637794928261e-01
-3.370394469802508453e-01
-3.226967708067912111e-01
-3.003838025131658762e-01
-2.705889379811434181e-01
-2.339735316507401131e-01
-1.914626252923610217e-01
-1.440339283514952828e-01
-9.286658979106372780e-02
-3.922229873831824948e-02
1.559523913225555752e-02
7.021708512661262169e-02
1.232784659210265921e-01
1.734813948928370653e-01
2.195573556515149904e-01
2.603479194444182632e-01
2.948702021674504681e-01
3.221982750986507327e-01
3.416937398780478530e-01
3.528433323635711272e-01
3.553238683182236013e-01
3.491215101543274080e-01
3.342978295341449968e-01
3.112500217410926195e-01
2.805236328314783534e-01
2.428233706068920195e-01
1.991183586040753406e-01
1.504289260739554712e-01
9.796731715303390320e-02
4.303180773862549935e-02
-1.304056422928420722e-02
-6.884734891406582569e-02
-1.229883159178390417e-01
-1.741281005466185361e-01
-2.209621654481923325e-01
-2.622908927419022040e-01
-2.970972728605547619e-01
-3.244205203695653128e-01
-3.435931999829767158e-01
-3.540868408288148084e-01
-3.555619992932333440e-01
-3.480147183580887815e-01
-3.315197457639508238e-01
-3.065021318107390980e-01
-2.735557514536787749e-01
-2.334314981937482547e-01
-1.871644939622922055e-01
-1.358430956373121445e-01
-8.074389160549585998e-02
-2.323565901939617095e-02
3.528352291422531817e-02
9.336213672015897247e-02
1.495529261779989794e-01
2.024933476186091541e-01
2.508641218457525746e-01
2.934540055830493488e-01
3.292570167574465634e-01
3.573244374575439974e-01
3.770025919883115972e-01
3.877899431406757746e-01
3.893593741736368075e-01
3.817213040594964468e-01
3.649622117969922308e-01
3.394974581081973142e-01
3.059152770239680352e-01
2.649444615519632729e-01
2.175909703529856354e-01
1.649134388218219671e-01
1.081510117117134712e-01
4.863949535110788369e-02
-1.225301834516892563e-02
-7.309446924826543124e-02
-1.324518904799218133e-01
-1.889567694618475013e-01
-2.412763808776903773e-01
-2.881691793810799984e-01
-3.285830198176838968e-01
-3.615180986799413354e-01
-3.862504520281193066e-01
-4.022111376265548044e-01
-4.089935965691486319e-01
-4.065341050816469459e-01
-3.948462091339337565e-01
-3.742724833979020893e-01
-3.453441452272642542e-01
-3.087296447110072783e-01
-2.653921554154795026e-01
-2.163519180801992681e-01
-1.628144588360234402e-01
-1.060936537904634547e-01
-4.753596850921207317e-02
1.144238210224290953e-02
6.942158183585023234e-02
1.250431103334232463e-01
1.769853911448140971e-01
2.240100774506354198e-01
2.650678907510086724e-01
2.991599524429665036e-01
3.255475912418708817e-01
3.436514834146899844e-01
3.530379450007073427e-01
3.536085563771878548e-01
3.453406450226980118e-01
3.285215370397841506e-01
3.036323716240916237e-01
2.712816504485759395e-01
2.323756425814293425e-01
1.878808503406018682e-01
1.389539673621054128e-01
8.687307774789929105e-02
3.295513233655542051e-02
-2.139251371314873640e-02
-7.475264896915859159e-02
-1.257520390361470952e-01
-1.730463071017417642e-01
-2.153664493998036777e-01
-2.516312069057707879e-01
-2.808101671630526264e-01
-3.021388726155882498e-01
-3.150303564122816091e-01
-3.190452191263658532e-01
-3.141145535840856873e-01
-3.002544787762926326e-01
-2.778118317903908174e-01
-2.473588442604492399e-01
-2.095957057208697738e-01
-1.655474711924864728e-01
-1.163062940539654477e-01
-6.314995998276654032e-02
-7.485451429900771836e-03
4.925184094704416343e-02
1.055571421208588156e-01
1.599197768782513185e-01
2.109042733327887165e-01
2.571287478179515862e-01
2.972966987763338564e-01
3.303436698546605710e-01
3.552657439841719889e-01
3.713464862695031177e-01
3.780784991697413444e-01
3.751004924556674558e-01
3.624500461831441367e-01
3.402580098696078581e-01
3.089876173483642186e-01
2.693489841569907672e-01
2.221747660860818874e-01
1.686347237950339417e-01
1.099716073871685323e-01
4.761080456189167170e-02
-1.688372971183486893e-02
-8.192285072990149186e-02
-1.458530886113561797e-01
-2.070151376556885192e-01
-2.638404614940008108e-01
-3.148309380421145942e-01
-3.585815763662997258e-01
-3.939640378585692604e-01
-4.199230120840390934e-01
-4.357284818854696429e-01
-4.409081267467396259e-01
-4.351462380611534897e-01
-4.185913447276101707e-01
-3.915039710811417661e-01
-3.545028777562788669e-01
-3.084967411721403763e-01
-2.545143333144714859e-01
-1.939398676976810398e-01
-1.282376283795639837e-01
-5.903184730480211251e-02
1.192100973291521093e-02
8.285564760987158828e-02
1.519909462802324918e-01
2.175503523384831328e-01
2.778917959843005825e-01
3.314868154427929037e-01
3.769096588373110901e-01
4.130654905843168523e-01
4.389473876115964623e-01
4.538873648075629763e-01
4.575099301306206900e-01
4.495890994533514595e-01
4.303773773251609036e-01
4.002479655780226686e-01
3.599165359979371037e-01
3.104006834666577230e-01
2.528276648774160362e-01
1.886727887600747056e-01
1.194952019858392667e-01
4.700063680632285412e-02
-2.697315419837545414e-02
-1.005823698982032388e-01
-1.719784281932679182e-01
-2.393188507730230619e-01
-3.009038859104826713e-01
-3.551651055284649749e-01
-4.006371028149669500e-01
-4.362155865179304093e-01
-4.608964718547428618e-01
-4.740296279502664301e-01
-4.752976272231823618e-01
-4.645329548483113635e-01
-4.420847841489599084e-01
-4.084401465042880042e-01
-3.644302176994263509e-01
-3.112166376678495161e-01
-2.500628368206653240e-01
-1.825740917217534287e-01
-1.104434064774069413e-01
-3.547831765514578017e-02
4.040128525596990705e-02
1.152831786791519431e-01
1.873041892965309485e-01
2.546208369487759082e-01
3.155639703398062657e-01
3.686391395872922749e-01
4.124563650906863943e-01
4.460187970654216350e-01
4.684435236743230702e-01
4.791883946405524619e-01
4.780601180638137659e-01
4.649996968960766197e-01
4.404410339913465422e-01
4.049583821709814568e-01
3.594303406205533458e-01
3.050538102045931566e-01
2.431132490001507440e-01
1.752025537607191374e-01
1.030018167672031026e-01
2.828832911228571292e-02
-4.705676877537869063e-02
-1.211591140612525985e-01
-1.921961237585166904e-01
-2.583653842398680456e-01
-3.180277209650839154e-01
-3.697221347368881972e-01
-4.120833687411781798e-01
-4.441345456343566145e-01
-4.650190619878506459e-01
-4.742074261553549941e-01
-4.715348972978736786e-01
-4.569641356124084508e-01
-4.309547169746836826e-01
-3.941186236268731102e-01
-3.473597203714877124e-01
-2.919143672173377668e-01
-2.291008167811540153e-01
-1.605375451272417764e-01
-8.793386964910836212e-02
-1.307988387748513538e-02
6.214032274013170376e-02
1.358525263288901663e-01
2.062556037968666101e-01
2.715756124770304925e-01
3.302047780538377442e-01
3.807328997696036721e-01
4.218401737564941856e-01
4.525967362849764863e-01
4.722020982111494458e-01
4.801614870123475098e-01
4.763514716708551200e-01
4.607652466227570853e-01
4.338735439824864537e-01
3.963056225151924128e-01
3.489590265076072395e-01
2.930642099961369706e-01
2.299283873707493320e-01
1.611497180119362549e-01
8.842264073470211538e-02
1.351898140096322379e-02
-6.169136003849820526e-02
-1.353452174512913830e-01
-2.056489420472789043e-01
-2.708360591643725890e-01
-3.292994851582387028e-01
-3.796386371740162469e-01
-4.205394960605493004e-01
-4.510856485902645652e-01
-4.705031062060270886e-01
-4.783178682079019528e-01
-4.744529414944470003e-01
-4.589447871272521740e-01
-4.323122489548663072e-01
-3.952478140068120815e-01
-3.486939679783138679e-01
-2.939311597818248245e-01
-2.323090788690476138e-01
-1.654372100500552667e-01
-9.501863787127926009e-02
-2.280410641338043512e-02
4.938991536994152137e-02
1.197606890618596043e-01
1.866146660496573184e-01
2.483015893003979180e-01
3.033350933107542557e-01
3.504602402944825279e-01
3.885032363367989516e-01
4.166746584242488893e-01
4.343338811737429417e-01
4.411021498027778431e-01
4.369783757556841008e-01
4.220595160378070587e-01
3.968674710003864403e-01
3.620905901305569996e-01
3.186262803941396493e-01
2.676798807585795137e-01
2.105177987349197144e-01
1.486372232354288558e-01
8.362648212285384020e-02
1.711860849568318244e-02
-4.918627787095022214e-02
-1.135965600592748759e-01
-1.745122650718225477e-01
-2.303725802841918857e-01
-2.797607432249779036e-01
-3.214818208913048370e-01
-3.544151049797706898e-01
-3.778096924711938365e-01
-3.910703266890642182e-01
-3.938507841396922116e-01
-3.861963590808064062e-01
-3.682490026916674375e-01
-3.405778157803038275e-01
-3.039341834024776312e-01
-2.592678645766576806e-01
-2.078470031797403916e-01
-1.509987247560750090e-01
-9.026258004834721016e-02
-2.726971085197374411e-02
3.632504699636905643e-02
9.882844325453021828e-02
1.585621153493039781e-01
2.139812170967421157e-01
2.636016801100838358e-01
3.060969897657012107e-01
3.404052736490517650e-01
3.655420446461051798e-01
3.809087426236115181e-01
3.860833001877819193e-01
3.808776276069946176e-01
3.655046380603722556e-01
3.402691020270336986e-01
3.058741342422544029e-01
2.632081319539486541e-01
2.133283526791321938e-01
1.575872821238249455e-01
9.738951217942617977e-02
3.431277829492922204e-02
-2.998360780678215043e-02
-9.383559933192747726e-02
-1.555714929115514511e-01
-2.135388086033820076e-01
-2.662459843685433536e-01
-3.122805953928136091e-01
-3.503929037172833771e-01
-3.796313537344671585e-01
-3.991251854494585194e-01
-4.084062693894991991e-01
-4.072069671700968563e-01
-3.954871772786617834e-01
-3.736319550888131946e-01
-3.421189977925063741e-01
-3.018136073478038806e-01
-2.537776687043071799e-01
-1.992181113904665235e-01
-1.396178606142709222e-01
-7.650511020470560086e-02
-1.152960408969702644e-02
5.359646551361922640e-02
1.171866451878398330e-01
1.776061147345461000e-01
2.332496594866391992e-01
2.827233214965237940e-01
3.247457323016778030e-01
3.582047702438109216e-01
3.823266857329260526e-01
3.964215661759759035e-01
4.001981250414389790e-01
3.935813068365917600e-01
3.766988040395193860e-01
3.500911117104456571e-01
3.143857580298394794e-01
2.705531699322096806e-01
2.197534927073398481e-01
1.632634131534174693e-01
1.026007143739045835e-01
3.932237378739829314e-02
-2.492982118601204389e-02
-8.846648721147370997e-02
-1.496351686133486347e-01
-2.068640670346190980e-01
-2.586145532279905956e-01
-3.035753296199119600e-01
-3.405669286230501025e-01
-3.685761709823853760e-01
-3.869526846965639089e-01
-3.951332012010151939e-01
-3.929536140236438158e-01
-3.804858246296503599e-01
-3.579902817059693598e-01
-3.261455552691787663e-01
-2.857170779233971780e-01
-2.377845574464858003e-01
-1.836173480445857653e-01
-1.245760038067120212e-01
-6.222540996319023132e-02
1.837644621540082679e-03
6.598149390018405447e-02
1.285531968099304645e-01
1.879546732636910855e-01
2.427180653462733539e-01
2.914163054623247762e-01
3.328697862985396383e-01
3.660551296219155537e-01
3.901043491701825516e-01
4.045189489116094439e-01
4.088866898981650122e-01
4.031609761028069894e-01
3.875308616541413009e-01
3.623449957764520724e-01
3.283369866996982411e-01
2.863215995595342900e-01
2.373844241010214517e-01
1.827892885773219067e-01
1.238742037054463285e-01
6.215701844585930225e-02
-8.145898904808879237e-04
-6.347067433735442687e-02
-1.242264352091640434e-01
-1.815492091528373986e-01
-2.340421247450442666e-01
-2.803490923409072688e-01
-3.193558283391210173e-01
-3.501143704938216028e-01
-3.718228848094938255e-01
-3.840584907060422548e-01
-3.864878934205761007e-01
-3.791367043735135445e-01
-3.622826425494001246e-01
-3.363510465615497935e-01
-3.021539928688509180e-01
-2.605867856619085154e-01
-2.127901165805896611e-01
-1.600807321419414064e-01
-1.038303304654758508e-01
-4.555274228067585085e-02
1.321526864609789964e-02
7.095885441786675685e-02
1.261792993087443859e-01
1.774432324814566586e-01
2.235023160356159888e-01
2.631587661479847240e-01
2.954709071693006339e-01
3.196889670940954442e-01
3.351973167821509780e-01
3.417580343404702514e-01
3.392230853916038402e-01
3.277618128047311563e-01
3.077864885322574851e-01
2.798275494639251848e-01
2.447499907394816154e-01
2.034933469638681713e-01
1.571862370885195315e-01
1.071051282659986059e-01
5.456166126318734433e-02
9.630514991213479092e-04
-5.226807941466893315e-02
-1.037535896997757723e-01
-1.521508958395283717e-01
-1.961811682085164710e-01
-2.347622866994947544e-01
-2.668654666801361097e-01
-2.917057743863641361e-01
-3.086973317695893559e-01
-3.173742008203380705e-01
-3.176368716833344319e-01
-3.094762745532582127e-01
-2.931718562408751616e-01
-2.692436628681735833e-01
-2.383119343211508312e-01
-2.013023001436128889e-01
-1.592116884285065814e-01
-1.131875881022238184e-01
-6.450575371481950815e-02
-1.446083899711559512e-02
3.560262364154625353e-02
8.433382211803529260e-02
1.304584254471990723e-01
1.727686738306136449e-01
2.101252295833550832e-01
2.416173725139594830e-01
2.663966058075704080e-01
2.838568509906055359e-01
2.936075836735756450e-01
2.953660791654238449e-01
2.892045118081301158e-01
2.752865126591980682e-01
2.540285376857506772e-01
2.260767039472812989e-01
1.921578543233472824e-01
1.532613110436882586e-01
1.104413338346184048e-01
6.486233495145393713e-02
1.779094707152333033e-02
-2.950014179055063246e-02
-7.573012119534831832e-02
-1.196210167628832116e-01
-1.599937065325825192e-01
-1.957627832540326795e-01
-2.259134929488352816e-01
-2.496860898686534824e-01
-2.663927633308984522e-01
-2.755898683437275620e-01
-2.770702305978058888e-01
-2.707279210740144437e-01
-2.568143179135091714e-01
-2.356781770090263239e-01
-2.078987982232783083e-01
-1.742835776656129210e-01
-1.357060982379104663e-01
-9.326577901787277969e-02
-4.812138005529607854e-02
-1.499236850984256297e-03
4.530601448444721707e-02
9.100918663745456716e-02
1.343762356700110572e-01
1.741916168914653951e-01
2.093713423938504958e-01
2.389672620708256368e-01
2.621061270526757747e-01
2.782031062068893723e-01
2.867585709961243401e-01
2.875131631340818172e-01
2.804609673124061620e-01
2.656878590877438939e-01
2.436228164608537916e-01
2.147946969811381779e-01
1.799318755259891600e-01
1.399777251537784317e-01
9.592856564460391922e-02
4.896735150330529251e-02
3.298457668471435622e-04
-4.871126090388242652e-02
-9.684262706817348132e-02
-1.427686388319658328e-01
-1.852833099110114401e-01
-2.232112019110022993e-01
-2.555267100607673258e-01
-2.813727398366960841e-01
-2.999697942339137890e-01
-3.108565068793258668e-01
-3.136717596453222345e-01
-3.082979125204613480e-01
-2.948970658922105414e-01
-2.737195439189638035e-01
-2.453615688740757306e-01
-2.105276886066828057e-01
-1.701006937257988350e-01
-1.251725845368512058e-01
-7.687708981906524186e-02
-2.649300179427658414e-02
2.465681775533472286e-02
7.525044103734411516e-02
1.239670726404552975e-01
1.695149341166555801e-01
2.107467800190383489e-01
2.465653271001087554e-01
2.760425837140180194e-01
2.984579675153793410e-01
3.131685278277779316e-01
3.198637644635052846e-01
3.183455434091849723e-01
3.086412905539089313e-01
2.910607432074168166e-01
2.659914358236747933e-01
2.341355134456991893e-01
1.963018426393618454e-01
1.534456406000566930e-01
1.067092416969333546e-01
5.726770061129481115e-02
6.406369495022642968e-03
-4.455290156658668621e-02
-9.430506577779027011e-02
-1.415670710372883834e-01
-1.850864411495687090e-01
-2.237711540435878554e-01
-2.565882632376130790e-01
-2.826728673959705840e-01
-3.013844021710360699e-01
-3.121575033794009579e-01
-3.147637334516452667e-01
-3.090979098428692784e-01
-2.952700276435351046e-01
-2.736835188284805764e-01
-2.448153408751284066e-01
-2.094465166801730005e-01
-1.684701944505872795e-01
-1.229071654888580917e-01
-7.395599920294275431e-02
-2.284230969071231881e-02
2.912587272610691475e-02
8.061084781922062126e-02
1.303076038580426310e-01
1.769577738203422790e-01
2.193358896381154000e-01
2.563953967455466776e-01
2.871603904425001907e-01
3.108180861019281815e-01
3.267930451188352792e-01
3.345806338645506695e-01
3.340020718854807003e-01
3.250079642450590667e-01
3.077437597728531760e-01
2.826444658822526157e-01
2.502132613628699209e-01
2.112397261885571864e-01
1.666286696447534799e-01
1.174027554437511583e-01
6.476347361648769618e-02
9.940593834986910515e-03
-4.574859659786020827e-02
-1.009517988085517348e-01
-1.543400160538917210e-01
-2.046206301447698050e-01
-2.505285935953527887e-01
-2.909639355508976122e-01
-3.248974018680657050e-01
-3.514525258312398148e-01
-3.699952619585333835e-01
-3.799608003394264744e-01
-3.811149166767839880e-01
-3.733662855742664877e-01
-3.568172920048500174e-01
-3.318841210610271597e-01
-2.990538555737117798e-01
-2.591136193808200039e-01
-2.129822499396499536e-01
-1.616966285130995162e-01
-1.064887516890206942e-01
-4.862136521784597709e-02
1.055253686668901347e-02
6.964020733215328662e-02
1.272712305946022693e-01
1.821134010251807267e-01
2.328598592819461355e-01
2.783660439164141187e-01
3.175627651520877559e-01
3.495215993049913816e-01
3.735577501656044408e-01
3.890515516682918062e-01
3.956976061272327039e-01
3.933384696748082887e-01
3.819938600329222389e-01
3.619963800924962394e-01
3.337480373765536190e-01
2.979456181663283076e-01
2.554272203352899173e-01
2.071500730302013593e-01
1.542859741055598033e-01
9.804372187107604497e-02
3.974858984633353187e-02
-1.921757218748833956e-02
-7.747689113279970785e-02
-1.336595690037003514e-01
-1.864128894936879222e-01
-2.345193642287991820e-01
-2.768298889543485686e-01
-3.123233656912670075e-01
-3.402205888535363432e-01
-3.598064047065542281e-01
-3.706833196062800928e-01
-3.726168457831123826e-01
-3.655492183380077420e-01
-3.497630331249491631e-01
-3.256149589875435568e-01
-2.937702515913185874e-01
-2.550555547535305889e-01
-2.104146854285219581e-01
-1.610212179227052121e-01
-1.080881394071375595e-01
-5.294005492195242440e-02
3.039125489922966938e-03
5.847431533648365237e-02
1.120094517232986947e-01
1.623060499977567184e-01
2.081678449037715206e-01
2.484766974765860170e-01
2.822351559517220498e-01
3.086947023351379604e-01
3.271693849398573661e-01
3.372757310704119771e-01
3.387994186407843333e-01
3.316849879046142036e-01
3.162105066823481248e-01
2.927261867413274432e-01
2.618729510218729128e-01
2.244576072084130125e-01
1.813955504469774715e-01
1.338339522566452666e-01
8.296175783160712747e-02
3.008297263063525184e-02
-2.343152222424181585e-02
-7.621438245366804476e-02
-1.269079650852388830e-01
-1.741688524511973146e-01
-2.167882951568783634e-01
-2.536380837150730705e-01
-2.837056922802709269e-01
-3.062393232521254394e-01
-3.205523434937722627e-01
-3.262703611123275449e-01
-3.232093134667455847e-01
-3.113438647045311258e-01
-2.910119118027834073e-01
-2.626300674565670845e-01
-2.269148061032090213e-01
-1.847692003174037922e-01
-1.371996750848676894e-01
-8.545219206492962738e-02
-3.081640210671041102e-02
2.531809027353784658e-02
8.149826485432018486e-02
1.362846633334863500e-01
1.882733606634217627e-01
2.360790869878680032e-01
2.784729109692728466e-01
3.143276609299349156e-01
3.426327806670671494e-01
3.626644445004281181e-01
3.737687924988445376e-01
3.756056011021676744e-01
3.680430040563882899e-01
3.510985368589998323e-01
3.251618600283787686e-01
2.907047670167881570e-01
2.484922779339012455e-01
1.994883676116167015e-01
1.447562578574629610e-01
8.560886026316447128e-02
2.340776258095787765e-02
-4.037815385376945093e-02
-1.042056974507417216e-01
-1.665394600451239604e-01
-2.258688626034428271e-01
-2.806988174583396889e-01
-3.296848059473422299e-01
-3.715890638801668810e-01
-4.052877398545899901e-01
-4.299631034546059771e-01
-4.448737239316745695e-01
-4.496099707646596388e-01
-4.440024252746092026e-01
-4.280359398776935609e-01
-4.021134510650352656e-01
-3.667330539890210073e-01
-3.227075273498053454e-01
-2.710823659000738961e-01
-2.130031282243490254e-01
-1.498873762149621758e-01
-8.320825544263726892e-02
-1.454074319697519491e-02
5.446327773476811879e-02
1.221652333598320928e-01
1.869713178378586416e-01
2.473070059469043569e-01
3.017642370576327782e-01
3.490634979304659824e-01
3.880374351189713189e-01
4.178469283082078545e-01
4.377354729581262038e-01
4.472722395621981373e-01
4.462832873649448251e-01
4.347363282716387167e-01
4.130151407270667985e-01
3.816020281942467118e-01
3.412749653900659097e-01
2.930501837150699118e-01
2.380354737893159156e-01
1.776069383492573373e-01
1.131997597247522691e-01
4.635080364956335741e-02
-2.131936269378353205e-02
-8.819718804821000124e-02
-1.526999448676806259e-01
-2.132596387128507798e-01
-2.684540909039121459e-01
-3.169837761780185392e-01
-3.576475236639749533e-01
-3.895581774142068410e-01
-4.119109335493054691e-01
-4.242071147576163548e-01
-4.262110937311746062e-01
-4.178175050056671669e-01
-3.993351890142030625e-01
-3.711764152845450360e-01
-3.340364821234858561e-01
-2.888591422870355752e-01
-2.366731653079962860e-01
-1.787743722437341032e-01
-1.165218596767369913e-01
-5.137183883809669227e-02
1.513238745521235801e-02
8.145105892145909632e-02
1.460681019195561869e-01
2.074789595792825292e-01
2.643020438779906112e-01
3.152684288119605438e-01
3.591881050019850585e-01
3.951448150207410581e-01
4.222973767132269240e-01
4.400590990881883546e-01
4.480814837258844108e-01
4.461225454933735457e-01
4.343056277782881280e-01
4.128516025826408642e-01
3.822330007933020246e-01
3.431629786272927807e-01
2.964365161321418918e-01
2.431262195111113245e-01
1.843773077378774994e-01
1.214646887273019144e-01
5.578994932166173037e-02
-1.122618987017511179e-02
-7.810839481936321382e-02
-1.433703964191770375e-01
-2.055836321760191043e-01
-2.633771231500678933e-01
-3.154341882333475122e-01
-3.606474064361679943e-01
-3.979715468095907926e-01
-4.265842607413042331e-01
-4.458904056578428254e-01
-4.553951651538516443e-01
-4.549767366849729600e-01
-4.446205333307263752e-01
-4.245770581439565761e-01
-3.953728780684818700e-01
-3.576231106660974213e-01
-3.122638545429251011e-01
-2.603221751483200674e-01
-2.029760546329678894e-01
-1.415640311115750616e-01
-7.745133096417103347e-02
-1.208538317050024402e-02
5.306555117368100261e-02
1.165736456518658981e-01
1.770550206341840460e-01
2.331692322616147617e-01
2.837595663152707726e-01
3.277272063650364942e-01
3.641617994618095988e-01
3.923622459445843536e-01
4.117099129907266231e-01
4.219130351267792456e-01
4.227808323291781800e-01
4.143476287048395990e-01
3.969030812686715759e-01
3.708145786703900271e-01
3.367488749677839399e-01
2.954653215051175064e-01
2.478775597813316356e-01
1.950780191771446515e-01
1.381975883077888323e-01
7.850373463875985613e-02
1.730537565774513398e-02
-4.407165366622678437e-02
-1.042814980488487864e-01
-1.619955893119602308e-01
-2.159760918862252965e-01
-2.650169317305787198e-01
-3.080422385474588243e-01
-3.441336269117539204e-01
-3.724386787431741008e-01
-3.923900493719644778e-01
-4.035162542439229005e-01
-4.055623114679010044e-01
-3.985407592721521564e-01
-3.825460138871031868e-01
-3.580100891262342211e-01
-3.254788444527130231e-01
-2.856839359186425509e-01
-2.395915520668739362e-01
-1.882202141907213522e-01
-1.327862125103626834e-01
-7.457232902682159326e-02
-1.490845261449763592e-02
4.481480689926070626e-02
1.032138419581963840e-01
1.589649097069687489e-01
2.107673617850199799e-01
2.574355035322161145e-01
2.979351519172811491e-01
3.312924836351835989e-01
3.568122679404143183e-01
3.739006019558397398e-01
3.821700320944513840e-01
3.815110551937565542e-01
3.718933755739545211e-01
3.536271723695983971e-01
3.271474733704457516e-01
2.930735945048966729e-01
2.522783035106100913e-01
2.056899569603777012e-01
1.544544690053676894e-01
9.979806534961116471e-02
4.300939267944065003e-02
-1.453526552619543999e-02
-7.145774137707650020e-02
-1.264080921351536935e-01
-1.780487698392895224e-01
-2.251361683471699848e-01
-2.665616786523046233e-01
-3.012699040275157447e-01
-3.284689147806733045e-01
-3.474708395964449803e-01
-3.577854103520435869e-01
-3.592123224599435005e-01
-3.516301828046619615e-01
-3.352700150791460554e-01
-3.105035407625994504e-01
-2.778894943750350732e-01
-2.382668839594721810e-01
-1.925339038196185459e-01
-1.418229310616096195e-01
-8.736088832758058531e-02
-3.044159029612783507e-02
2.753888971636320182e-02
8.517877966500425613e-02
1.410961114332091038e-01
1.939183772090699587e-01
2.423582571057170121e-01
2.852619841531586209e-01
3.215244829571815011e-01
3.502934380525019042e-01
3.708249161624552759e-01
3.825573022159889369e-01
3.852206554497605295e-01
3.786203440938467613e-01
3.629054866562743675e-01
3.383747716599804778e-01
3.055073512538191149e-01
2.650771615289829186e-01
2.179206012280455740e-01
1.651268499022310043e-01
1.078968156871025763e-01
4.751456233110426530e-02
-1.459734333348186586e-02
-7.700027738018033752e-02
-1.382345953946880757e-01
-1.968320285545785420e-01
-2.513871618988177126e-01
-3.006022860409616748e-01
-3.432217524975914591e-01
-3.782286047975433885e-01
-4.047173553859638173e-01
-4.219631591944980054e-01
-4.295564276455999808e-01
-4.271677094011004372e-01
-4.148435311904099532e-01
-3.928087768302266358e-01
-3.614835990609845395e-01
-3.216358733884570054e-01
-2.741058245013827110e-01
-2.200233339507219887e-01
-1.606581044440225370e-01
-9.737164300608827650e-02
-3.169188464724220777e-02
3.483223886486280785e-02
1.006253386378588854e-01
1.640996486491246853e-01
2.237311358917514204e-01
2.781152189379902384e-01
3.258901321897612058e-01
3.659446480229363585e-01
3.972947862133821006e-01
4.191348966861642156e-01
4.309988476530319801e-01
4.325030457647404680e-01
4.236471828819601271e-01
4.046291572416436111e-01
3.758376810187474826e-01
3.380318404223290329e-01
2.920473975021712909e-01
2.390204624529049804e-01
1.802454663665896406e-01
1.171123021293560273e-01
5.119919625120360196e-02
-1.588888253087759883e-02
-8.250763021154591814e-02
-1.469920315467264926e-01
-2.077358906062554134e-01
-2.632538803146931006e-01
-3.121031885389966565e-01
-3.531019577253668440e-01
-3.852126583120012437e-01
-4.075797347293720341e-01
-4.197257557998707589e-01
-4.212630359271176683e-01
-4.122124008698087594e-01
-3.928249658218451179e-01
-3.635418437619073462e-01
-3.252058958725507209e-01
-2.787413067820601054e-01
-2.253654077308786252e-01
-1.664641021586497072e-01
-1.035005951823360915e-01
-3.810320752291010415e-02
2.807812642747715970e-02
9.339639169944070896e-02
1.562066259674136370e-01
2.149378485897638635e-01
2.681850046888552552e-01
3.145917789486590288e-01
3.530775824599922119e-01
3.827278469399437721e-01
4.027949455455712702e-01
4.129093415216799623e-01
4.127882272725024171e-01
4.025165875657061854e-01
3.824054350594907614e-01
3.529242309792317012e-01
3.149070137453167106e-01
2.692626517857589219e-01
2.171517993537874225e-01
1.598930851001544029e-01
9.887012283347060282e-02
3.561693477223645127e-02
-2.831024980817524808e-02
-9.135447118718433013e-02
-1.519584789557480442e-01
-2.086263652355127840e-01
-2.600131962205891600e-01
-3.048179883684871694e-01
-3.419904759107859071e-01
-3.706448912367313886e-01
-3.900455251566155024e-01
-3.998274939316395216e-01
-3.997122580086879262e-01
-3.897740440975552834e-01
-3.703234104735361187e-01
-3.418174475323235706e-01
-3.050799312374803396e-01
-2.610117642249019654e-01
-2.107509332096743071e-01
-1.555976325596626075e-01
-9.690659774058141274e-02
-3.616824820886403030e-02
2.510614599256831558e-02
8.542193758407584658e-02
1.432961939434246323e-01
1.973075979123539991e-01
2.462007323124406621e-01
2.887658249640756569e-01
3.240328001101568933e-01
3.512029184755393052e-01
3.696081772689737699e-01
3.789321803614666972e-01
3.789413303942213984e-01
3.697127028805990978e-01
3.515502049766212611e-01
3.248806158737872485e-01
2.904643473170442913e-01
2.491351733217436748e-01
2.019360836079462374e-01
1.500661082145233749e-01
9.477375002819016236e-02
3.744027901404189951e-02
-2.052938568199035030e-02
-7.773479057758569954e-02
-1.327789207527003412e-01
-1.843131594984866173e-01
-2.311325135312295442e-01
-2.720725485039146019e-01
-3.061817598960385745e-01
-3.326744681493829514e-01
-3.508809688139719052e-01
-3.604713854747947921e-01
-3.611990558494937442e-01
-3.531124318403605633e-01
-3.364947444477751626e-01
-3.117428192507928353e-01
-2.795875523786054417e-01
-2.408369769419499429e-01
-1.964972220584229046e-01
-1.477354136552144204e-01
-9.576198603436483769e-02
-4.191085960651259185e-02
1.246029508023215743e-02
6.600829898450463751e-02
1.174020166668176129e-01
1.653574916611362522e-01
2.087440199561573229e-01
2.464739201241492872e-01
2.776632521676941634e-01
3.016009189896040610e-01
3.176790778388639547e-01
3.256178386016593818e-01
3.252208682973206644e-01
3.165597312580034073e-01
2.999381674718789581e-01
2.757594863708171529e-01
2.447427744344112255e-01
2.076846387314930098e-01
1.655632931384728723e-01
1.195177416530181225e-01
7.072710387665057108e-02
2.049220522346266449e-02
-2.986000786963463258e-02
-7.901525222247444968e-02
-1.256707001179284688e-01
-1.685674575615465631e-01
-2.066036807278358867e-01
-2.387232479510685013e-01
-2.640765479990810904e-01
-2.820047936578032877e-01
-2.919516873807518342e-01
-2.937134437407843413e-01
-2.871809334257156010e-01
-2.725190757762797622e-01
-2.501514878908965844e-01
-2.205975408633704948e-01
-1.847011558910499618e-01
-1.433906712905540504e-01
-9.775715837799070496e-02
-4.904862127621192891e-02
1.459201541377380673e-03
5.240765627042665020e-02
1.024201580492572483e-01
1.501692965036967586e-01
1.943761063681893608e-01
2.338149638156618026e-01
2.674644055099839046e-01
2.943631455689563747e-01
3.137683160143992511e-01
3.251568700829849390e-01
3.281028321381628809e-01
3.225367735069643027e-01
3.084905343532536870e-01
2.862466764155268684e-01
2.563455387101458705e-01
2.194105578550770708e-01
1.763633491172021117e-01
1.282089687361921415e-01
7.609163139984080615e-02
2.130171390577430268e-02
-3.484752370665841759e-02
-9.097447074841277792e-02
-1.456811728399260430e-01
-1.976210080272836900e-01
-2.455024344882974774e-01
-2.880839929455720760e-01
-3.243322544143349417e-01
-3.532787443287386808e-01
-3.741697519226396818e-01
-3.864869837329368285e-01
-3.898063236940597087e-01
-3.840734719848392653e-01
-3.693468945939215597e-01
-3.459346604960506499e-01
-3.144243530238424733e-01
-2.754844025999833024e-01
-2.300880166380972480e-01
-1.793005973765035566e-01
-1.243173590204860179e-01
-6.648202069644751355e-02
-7.157635163193881017e-03
5.223978457963955602e-02
1.102805508904972642e-01
1.655958298076952440e-01
2.168879173644950031e-01
2.629080970555429664e-01
3.026255194797119463e-01
3.350815156448812560e-01
3.595206579761049959e-01
3.754301996326984692e-01
3.823828274346645628e-01
3.803049086843757198e-01
3.692391133583088347e-01
3.494546678579927845e-01
3.214971610153325443e-01
2.859865882124304481e-01
2.438364439988131294e-01
1.960570020940716196e-01
1.437858614155345105e-01
8.831928301507847856e-02
3.097736020119747080e-02
-2.684737379777837885e-02
-8.373995099111061768e-02
-1.383273379903492972e-01
-1.892899241995724124e-01
-2.353484925379800419e-01
-2.754214818328646897e-01
-3.084980666154779616e-01
-3.337579764292807893e-01
-3.506288466364931855e-01
-3.586206799216635210e-01
-3.576043341465020009e-01
-3.475793187750250701e-01
-3.287710836916746815e-01
-3.017053541583901710e-01
-2.669828075155166180e-01
-2.255089567480212664e-01
-1.782987083543671469e-01
-1.264901653423209926e-01
-7.138865750859176018e-02
-1.432274092200477161e-02
4.331393724160708530e-02
1.001054465509348956e-01
1.546817691735022371e-01
2.057366697433863634e-01
2.520023304041012491e-01
2.924104469063275036e-01
3.259695006109238347e-01
3.518633518299693064e-01
3.695245170472207241e-01
3.784599043783832828e-01
3.785131539327202255e-01
3.696582317196587253e-01
3.520695372589165428e-01
3.262117391634515862e-01
2.926184983010567398e-01
2.521112617002810308e-01
2.056242704817609346e-01
1.542109877957231756e-01
9.910118776459662937e-02
4.155247756735422349e-02
-1.709082239897594807e-02
-7.545072070078562287e-02
-1.321735500030619959e-01
-1.859426010876126245e-01
-2.354696304980163912e-01
-2.796327218585606955e-01
-3.173795131511339962e-01
-3.478127646374361559e-01
-3.702750419878367838e-01
-3.841785901428220740e-01
-3.892656793750665090e-01
-3.854176495916760148e-01
-3.727113109778112943e-01
-3.515320333954746190e-01
-3.223358146600682206e-01
-2.858776593402659327e-01
-2.430404436318794326e-01
-1.948266648016345193e-01
-1.424315367197413751e-01
-8.708082668723485242e-02
-3.009238155232451389e-02
2.717649579291542966e-02
8.338890128707991678e-02
1.372419095953729129e-01
1.874571471077768614e-01
2.329115236009184076e-01
2.725523129017776158e-01
3.054636238609155230e-01
3.309602836244204260e-01
3.484197397672916252e-01
3.575205727350190266e-01
3.580795397193288765e-01
3.500853361535556374e-01
3.338225467828466742e-01
3.096421151896813218e-01
2.781783165312686767e-01
2.401977554980676000e-01
1.965840990154278101e-01
1.484265297927251648e-01
9.685005754841656544e-02
4.309643222146491981e-02
-1.153737467571387676e-02
-6.575409093207557065e-02
-1.182564954335652702e-01
-1.677621394992682702e-01
-2.131078892410517567e-01
-2.531895093312807599e-01
-2.870211300704801904e-01
-3.138347714493976426e-01
-3.329215363341008760e-01
-3.438676094411948214e-01
-3.464067697672159052e-01
-3.404419843997196216e-01
-3.261937551279944225e-01
-3.039527556358028737e-01
-2.743074363686198724e-01
-2.379979892617716808e-01
-1.958824599636605490e-01
-1.490442393831733769e-01
-9.860600064221838879e-02
-4.580931593617493247e-02
8.042694211270989824e-03
6.164856044418057235e-02
1.137111002931880943e-01
1.629472468320633527e-01
2.081965470254744932e-01
2.483642626171091994e-01
2.824664485316958906e-01
3.097417960263786352e-01
3.294860288029750617e-01
3.412745960246951760e-01
3.448353978684721155e-01
3.400475635852729384e-01
3.270996605496682696e-01
3.062478761382934067e-01
2.780275831348252846e-01
2.431293867847276191e-01
2.023537628338513139e-01
1.567299906451180558e-01
1.073296395675505666e-01
5.535358809013923853e-02
2.075974372662325873e-03
-5.121880305726983496e-02
-1.032259577898877456e-01
-1.526475642214846218e-01
-1.982816186493161492e-01
-2.389821124861055690e-01
-2.737000971737257871e-01
-3.015998990466517982e-01
-3.219012002545924012e-01
-3.341011593737921448e-01
-3.378617939760263367e-01
-3.329961070328849582e-01
-3.196541078895092092e-01
-2.980602372947439016e-01
-2.687382764115663347e-01
-2.323935347430325371e-01
-1.898450760572186480e-01
-1.421696833618207312e-01
-9.049298664356272837e-02
-3.607731289464435886e-02
1.973044921884817282e-02
7.557441817612559065e-02
1.300803613165768535e-01
1.818804825793415292e-01
2.297098566583675172e-01
2.723688761854152207e-01
3.087524646291374131e-01
3.379824602810347911e-01
3.592379799987671651e-01
3.719721576066344904e-01
3.758155477894492003e-01
3.705395684976864334e-01
3.562581707515164453e-01
3.331620476581282908e-01
3.017354620816045108e-01
2.626567978637062151e-01
2.167160491868387884e-01
1.649782531950803599e-01
1.085641721926159375e-01
4.875111305157538849e-02
-1.307792174667124496e-02
-7.551714110672506919e-02
-1.371065963004134136e-01
-1.963833069959328437e-01
-2.519565654472154526e-01
-3.024856563816815669e-01
-3.467115682358129503e-01
-3.835903908034969390e-01
-4.121345175596707877e-01
-4.316306755894146474e-01
-4.415591698519757968e-01
-4.415435965228005633e-01
-4.315875009419403163e-01
-4.117824789635037286e-01
-3.825435684769104006e-01
-3.445189272021172977e-01
-2.984774838478985171e-01
-2.455112570083093915e-01
-1.867810442104425595e-01
-1.236266326753075323e-01
-5.751957837409398672e-02
1.004062112693585029e-02
7.748326689994190775e-02
1.432296678453046368e-01
2.057684970169139649e-01
2.636391561899212865e-01
3.154578052018370826e-01
3.600619143079137885e-01
3.963474004667780770e-01
4.234805883891593625e-01
4.408356942404454970e-01
4.479226992948573405e-01
4.446430915740390288e-01
4.309924801953360918e-01
4.072898705445037182e-01
3.741082576513889424e-01
3.321409496182214927e-01
2.824301578770072041e-01
2.260974263548506391e-01
1.644635130481779672e-01
9.900900989273550556e-02
3.125334776832310729e-02
-3.717590463137762646e-02
-1.046325010431373992e-01
-1.695123249551779288e-01
-2.302458118817580501e-01
-2.853301988100180875e-01
-3.334749643606690905e-01
-3.734481487262400479e-01
-4.042877236460554746e-01
-4.252577362329631461e-01
-4.357571759025489211e-01
-4.356080333273866789e-01
-4.247387344306876589e-01
-4.034155195599873900e-01
-3.721936657752342725e-01
-3.317485544434622957e-01
-2.831307737436519756e-01
-2.274810394600469687e-01
-1.661367615320274993e-01
-1.006072771304461766e-01
-3.243611360012577105e-02
3.673464208170086620e-02
1.052443022169655129e-01
1.714844810228693672e-01
2.338934999806487336e-01
2.909729587596092681e-01
3.414436429093345438e-01
3.840877661016218747e-01
4.179370483053427288e-01
4.422508275323183691e-01
4.564045723707151891e-01
4.601665564243463402e-01
4.534091010447939274e-01
4.363012519693523772e-01
4.092885920675773948e-01
3.729212732085093185e-01
3.281005399308795090e-01
2.758185953396757872e-01
2.172578125696566220e-01
1.537816221875891176e-01
8.679492905329387609e-02
1.783383324259942698e-02
-5.153467546822788209e-02
-1.197543580036067729e-01
-1.852794317380133393e-01
-2.466056509957620102e-01
-3.023899914157913704e-01
-3.513380693544335687e-01
-3.923628463592626070e-01
-4.245833055034729520e-01
-4.472202590288320012e-01
-4.598682481882189754e-01
-4.622279081123825684e-01
-4.542882094745628874e-01
-4.363307996075687645e-01
-4.087406365236504469e-01
-3.722744335488157308e-01
-3.277926870863454578e-01
-2.763541136680952581e-01
-2.192229760497738933e-01
-1.577080288944069653e-01
-9.326562956705336527e-02
-2.739099213871598604e-02
3.842299554900838188e-02
1.026859101528480034e-01
1.639410937606339269e-01
2.208774798535728667e-01
2.722300578652654401e-01
3.169118782740411033e-01
3.540286907481163814e-01
3.827695579045586327e-01
4.026503563510410166e-01
4.132861183696465712e-01
4.145303041786350118e-01
4.064999733850614416e-01
3.893974494823457810e-01
3.637506001331595185e-01
3.301858869886112879e-01
2.895077708260956340e-01
2.427217520359269964e-01
1.908805988688603850e-01
1.352070646948533017e-01
7.697462219869796729e-02
1.749472655990169656e-02
-4.187734518111746462e-02
-9.979729896687253299e-02
-1.549849054986741637e-01
-2.061827820923399224e-01
-2.522517664297331264e-01
-2.921920601159214703e-01
-3.250674351665444606e-01
-3.502136021725321124e-01
-3.670558926709042158e-01
-3.752358189413405598e-01
-3.746552405265109464e-01
-3.652994446627234049e-01
-3.474946088234299735e-01
-3.216792238554715966e-01
-2.884861873145029842e-01
-2.487875760675317127e-01
-2.035113016631241722e-01
-1.537967824367470759e-01
-1.008528460014049416e-01
-4.594620269412590802e-02
9.583703183565873279e-03
6.440107499034120053e-02
1.172137381059726313e-01
1.667466626303995836e-01
2.118317011435985886e-01
2.514379940454610773e-01
2.845928661789133285e-01
3.105894218069176760e-01
3.288152594779998883e-01
3.388605963872504123e-01
3.405815059176168225e-01
3.339120703539411594e-01
3.191187485633320553e-01
2.965868863655300447e-01
2.668848438063634587e-01
2.308262867940845120e-01
1.892798226069603851e-01
1.433286141347278331e-01
9.413296644019265857e-02
4.291657955539541353e-02
-9.010086032431752212e-03
-6.033466020812747188e-02
-1.097702250808083729e-01
-1.560410739338186081e-01
-1.979648238535680060e-01
-2.344897644962357364e-01
-2.646178103723000330e-01
-2.876131226705228583e-01
-3.028409887766460029e-01
-3.098672231976461466e-01
-3.085443854398079999e-01
-2.988045778423482624e-01
-2.809322315922933022e-01
-2.553488555348951139e-01
-2.226626697455029724e-01
-1.837545873531026830e-01
-1.395624873949554701e-01
-9.124636220127753383e-02
-4.005335475402799217e-02
1.271391409909272685e-02
6.567018634411658784e-02
1.174309556999493798e-01
1.666601970595885662e-01
2.120429646840804594e-01
2.523701291689437465e-01
2.865941312057388446e-01
3.137241901120862986e-01
3.330551818519340013e-01
3.440013126651201292e-01
3.461760200822178168e-01
3.395032858035420542e-01
3.239861475464060891e-01
2.999813728117942668e-01
2.679955582231178801e-01
2.287116572663590863e-01
1.830933041950148499e-01
1.321603957726462941e-01
7.714995704397945020e-02
1.939217136613952119e-02
-3.973167670089311487e-02
-9.875749567961689124e-02
-1.562211393829540107e-01
-2.107126484730983407e-01
-2.608471337296098258e-01
-3.053478636692928405e-01
-3.431183110838428307e-01
-3.731207532743525124e-01
-3.946238377662140140e-01
-4.070353647005375830e-01
-4.099677091664176709e-01
-4.033809410406273832e-01
-3.873186506142194951e-01
-3.621983342470664891e-01
-3.286100550941168930e-01
-2.873163873570734883e-01
-2.393790708528787115e-01
-1.859164271441457184e-01
-1.282522912415167693e-01
-6.780677499552237308e-02
-6.035030610409858332e-03
5.554630705183541406e-02
1.154249104564393780e-01
1.721731873103212740e-01
2.244051838373075647e-01
2.708507365512564657e-01
3.104502144417808362e-01
3.422047105585496740e-01
3.654286365474994636e-01
3.795912091986705650e-01
3.843520399428339007e-01
3.797235676398056370e-01
3.657986761430678246e-01
3.430219397292192940e-01
3.120149292366480864e-01
2.735516362197794038e-01
2.286940095790050975e-01
1.785578878880574594e-01
1.244450341875918548e-01
6.775241319746466706e-02
9.904806351922673668e-03
-4.762028479275774717e-02
-1.033493753430493739e-01
-1.558984539264038349e-01
-2.039310879534424470e-01
-2.462220188357644446e-01
-2.817667571687954009e-01
-3.096211814894587744e-01
-3.291526099868236632e-01
-3.398959836253703792e-01
-3.415651329178820417e-01
-3.342353873150429866e-01
-3.180619473440806089e-01
-2.935356400070442962e-01
-2.613314856383034956e-01
-2.222566771223197235e-01
-1.773901577705107868e-01
-1.278602993105881491e-01
-7.494407072201345055e-02
-2.000149939047879410e-02
3.559891614102167479e-02
9.047253788476670999e-02
1.432440588423025407e-01
1.926511180723670391e-01
2.374964128566416366e-01
2.766879229507790972e-01
3.093617705632619175e-01
3.347115620079090803e-01
3.522099342347767559e-01
3.614931413615279920e-01
3.623417740243103369e-01
3.548541911251738012e-01
3.391977531132058798e-01
3.158120080154998011e-01
2.852994260685924877e-01
2.483645470608502603e-01
2.059401774247720529e-01
1.590024419446310899e-01
1.086524285152709601e-01
5.606753670779174303e-02
2.438372467264915411e-03
-5.101612276609146512e-02
-1.030795010065496675e-01
-1.526079519497360870e-01
-1.985032255814188629e-01
-2.397406696460420705e-01
-2.754701164131171387e-01
-3.048861205930040730e-01
-3.274025579383928464e-01
-3.425734974400939103e-01
-3.500689160825680712e-01
-3.498371673692446393e-01
-3.418892232706836620e-01
-3.264810097539846412e-01
-3.040283501319330783e-01
-2.750433769635409753e-01
-2.402728335663347758e-01
-2.005114991984286998e-01
-1.566981897528816337e-01
-1.098677332190598488e-01
-6.108454058292656086e-02
-1.148448209196728520e-02
3.778733281148105583e-02
8.561165258380354359e-02
1.308869247742637798e-01
1.725606179166578880e-01
2.097081179975588405e-01
2.414397083955857060e-01
2.670481935075547097e-01
2.859535341400272213e-01
2.976785939987715013e-01
3.020161450512490187e-01
2.988226481688224800e-01
2.882043887287769612e-01
2.704454171230452619e-01
2.459329831549084688e-01
2.153281532834303846e-01
1.793517169411039669e-01
1.389027827991441977e-01
9.501006440229031735e-02
4.874475592599067375e-02
1.289652948962216605e-03
-4.615357368870928734e-02
-9.239262994636726622e-02
-1.362422293094895376e-01
-1.765647396714564721e-01
-2.123597133125774694e-01
-2.426651061962266653e-01
-2.667205605651521427e-01
-2.839188022233425368e-01
-2.937620281154857960e-01
-2.960650502473100021e-01
-2.907179683796392022e-01
-2.778792390476769181e-01
-2.579153875280313923e-01
-2.312933464064939604e-01
-1.987678531192712816e-01
-1.611581882100816543e-01
-1.194434913261625819e-01
-7.472951849601482122e-02
-2.815004553728310543e-02
1.908494031599113766e-02
6.575338757110249510e-02
1.106765178038751352e-01
1.527105876212250246e-01
1.907667010323020607e-01
2.239271773247021868e-01
2.513205252076015084e-01
2.722795463813814099e-01
2.863059611682252648e-01
2.930002723521418773e-01
2.922682692762063050e-01
2.840917334791626669e-01
2.686930789312081957e-01
2.464979809857660853e-01
2.180180332400821208e-01
1.840302994202281661e-01
1.453751188683139739e-01
1.030350814631823264e-01
5.811553030525833802e-02
1.174700426692705524e-02
-3.486756472731436518e-02
-8.051201295450732820e-02
-1.240114943336350362e-01
-1.642275915200280823e-01
-2.000735277825680947e-01
-2.306391206743728106e-01
-2.550637125234894720e-01
-2.726950714819736943e-01
-2.830686856607586011e-01
-2.858189512181495973e-01
-2.809113573646010442e-01
-2.683981978569321969e-01
-2.485806128652878477e-01
-2.219887058429188820e-01
-1.892361037492567843e-01
-1.512124170963710101e-01
-1.088769240840444658e-01
-6.331677447044115059e-02
-1.573931216827929858e-02
3.263271020740211165e-02
8.053601213869442110e-02
1.267010713505493658e-01
1.699292204618969571e-01
2.090898304519270279e-01
2.431110638162014559e-01
2.711376891841869030e-01
2.923766436506769484e-01
3.062536927726519087e-01
3.124092662924202735e-01
3.105784970789249866e-01
3.008359264421742729e-01
2.833502243857226044e-01
2.585233888756432452e-01
2.269912444755360914e-01
1.894639456664918287e-01
1.469119508855492029e-01
1.003763332800353542e-01
5.100792997867242135e-02
6.995018334503624868e-05
-5.116383092593611986e-02
-1.013968766304675917e-01
-1.493299811409856404e-01
-1.937450654864456556e-01
-2.335088975446819037e-01
-2.675481186228919062e-01
-2.950276252711149794e-01
-3.151844889331393285e-01
-3.274815672755995166e-01
-3.316229541401606307e-01
-3.274065599244813107e-01
-3.149887715707965774e-01
-2.946323169443954004e-01
-2.668286765256124848e-01
-2.323190121077804982e-01
-1.919131996582255084e-01
-1.466722258203944640e-01
-9.773047333826118122e-02
-4.631054047777882765e-02
6.266610660158686980e-03
5.867712512323279561e-02
1.096075708151403594e-01
1.577508391822434741e-01
2.018980059080817957e-01
2.409519966131111468e-01
2.738762378427256894e-01
2.998901875823903884e-01
3.182956015722164800e-01
3.286115370064300323e-01
3.306099413682450638e-01
3.241489870513055704e-01
3.094339941793380344e-01
2.867813080322927366e-01
2.567165268235449549e-01
2.200140313889293042e-01
1.775114003961141829e-01
1.302869482195692652e-01
7.949571432301222318e-02
2.637577415844519907e-02
-2.773395077084428104e-02
-8.149004900313769340e-02
-1.335571644918452094e-01
-1.826051588863704944e-01
-2.273978719636417789e-01
-2.668157831118928014e-01
-2.997973368083050039e-01
-3.255443210436637647e-01
-3.433496717092112127e-01
-3.527238553553205813e-01
-3.534531352950850414e-01
-3.454096424372434804e-01
-3.288281752334912267e-01
-3.040691037292990728e-01
-2.716984224241509316e-01
-2.325484482203791226e-01
-1.875124297192735101e-01
-1.377195152382625631e-01
-8.438068152374600395e-02
-2.877644740408211860e-02
2.772068839924595948e-02
8.373677919484034948e-02
1.379251787469468193e-01
1.889510238722040825e-01
2.355770230769056450e-01
2.766978645228134748e-01
3.112632288971378669e-01
3.384847354790196383e-01
3.576717598948307986e-01
3.683336521167057676e-01
3.702560348219030018e-01
3.633033375491472872e-01
3.476848223786820902e-01
3.237395568508562582e-01
2.919972111998476172e-01
2.532564378377079040e-01
2.083759065740906913e-01
1.584539467662856860e-01
1.046799347586790663e-01
4.832021085006698441e-02
-9.248005938137095899e-03
-6.663975756404856565e-02
-1.224756815311650454e-01
-1.753801628936754176e-01
-2.240623381816281845e-01
-2.673563680474969617e-01
-3.041477154157579132e-01
-3.335839633360271339e-01
-3.549188893859248073e-01
-3.676064392330761210e-01
-3.714019988247466708e-01
-3.661419847687742979e-01
-3.520282535105365151e-01
-3.294123254752163721e-01
-2.988366578820348951e-01
-2.611373382292075940e-01
-2.172110806423895313e-01
-1.681924777245991653e-01
-1.153146870660688300e-01
-5.987359328165955952e-02
-3.263413230633782636e-03
5.311798416179313448e-02
1.079069916792703976e-01
1.597558019859831868e-01
2.074110489472393848e-01
2.497713346511623023e-01
2.857868951281227199e-01
3.146747502987879974e-01
3.357690781128003232e-01
3.485848324381677910e-01
3.529337493483572508e-01
3.487005382341294979e-01
3.360975083738924063e-01
3.154830986642361834e-01
2.873756098874777343e-01
2.525612489116595416e-01
2.118800428102607381e-01
1.663807271134535581e-01
1.172066183971293557e-01
6.555755475240587771e-02
1.272981521204332583e-02
-3.997322345812202166e-02
-9.126663816901391113e-02
-1.398748618683819667e-01
-1.845970655216079281e-01
-2.243637668902554727e-01
-2.581493563408562286e-01
-2.851671589684239838e-01
-3.047447726966552306e-01
-3.163742892209597812e-01
-3.198423745166129040e-01
-3.150070819364525487e-01
-3.020529250338611638e-01
-2.813232404144356269e-01
-2.533188112270192693e-01
-2.188280282843392821e-01
-1.786963184861612430e-01
-1.339849708466473999e-01
-8.586212826088870931e-02
-3.554937701305410647e-02
1.563262465256978762e-02
6.635585943690094912e-02
1.153226711036552665e-01
1.612513914702202455e-01
2.029405310597053314e-01
2.393425287025613690e-01
2.694562676149405700e-01
2.925331678863423157e-01
3.079560794346130059e-01
3.152676664511578908e-01
3.143227161557788918e-01
3.050482620505443054e-01
2.876924186008935624e-01
2.626736079249711864e-01
2.305555403606363296e-01
1.921910672370363560e-01
1.484899245799294887e-01
1.005666095934619614e-01
4.964631274374504966e-02
-2.998399778738183863e-03
-5.599970398991929721e-02
-1.079819219955598375e-01
-1.576060430730564788e-01
-2.035537613571803961e-01
-2.445880471634331865e-01
-2.796424660364243975e-01
-3.076998244836278706e-01
-3.280123687493468054e-01
-3.399851130728215320e-01
-3.431878150833251317e-01
-3.375412390995704004e-01
-3.230461624172777935e-01
-3.000482801389715015e-01
-2.690927742800517941e-01
-2.308707682840024922e-01
-1.863895787579434304e-01
-1.367180138376793419e-01
-8.312414025231218417e-02
-2.699356439572258431e-02
3.025475078133137152e-02
8.713007002084557917e-02
1.421390048905459835e-01
1.938642235120969781e-01
2.409345933951372309e-01
2.820762670750078804e-01
3.162383096324058451e-01
3.424286823616209396e-01
3.599564301261027888e-01
3.683165596428533695e-01
3.671693544581313695e-01
3.565587695509183641e-01
3.366147287144702349e-01
3.078116341570914516e-01
2.708411072537452169e-01
2.265295684377859886e-01
1.760208892926140578e-01
1.205216894180208276e-01
6.142118868829398587e-02
2.261324119955943068e-04
-6.153286807351228405e-02
-1.222709984742804679e-01
-1.804033317466557373e-01
-2.344417807086437988e-01
-2.829621829172788150e-01
-3.246446393875033198e-01
-3.584302918103495772e-01
-3.833277430710554379e-01
-3.986749956146128371e-01
-4.040317538114370777e-01
-3.991279590776982134e-01
-3.841239554584384708e-01
-3.592771638393871259e-01
-3.252035469697853731e-01
-2.827655189854037521e-01
-2.329526129919776145e-01
-1.770787251306802368e-01
-1.165227189625685777e-01
-5.281758698663191476e-02
1.239550566619310179e-02
7.747131993699646335e-02
1.407596337905747397e-01
2.006200030389823363e-01
2.555550918941789651e-01
3.041703471359799016e-01
3.451858427937415374e-01
3.776341845398515917e-01
4.006263586242321817e-01
4.136140180540243683e-01
4.162986437552654295e-01
4.085399902933825045e-01
3.906321975034677263e-01
3.629691095326374461e-01
3.262733145956028258e-01
2.815136730294840461e-01
2.297661064169777001e-01
1.724014291724350334e-01
1.108521032215588065e-01
4.667187330312085741e-02
-1.849271919337919928e-02
-8.300085078714877773e-02
-1.452358123214782526e-01
-2.035956373883086590e-01
-2.566355172336599044e-01
-3.030335739637795567e-01
-3.415798459889244354e-01
-3.713967847437247838e-01
-3.916914273132402480e-01
-4.020068721513409549e-01
-4.021547276731954890e-01
-3.920922822813008857e-01
-3.722099311087786466e-01
-3.430009496523406809e-01
-3.052573642896947437e-01
-2.600150526076432378e-01
-2.083966784583066723e-01
-1.517806778249810029e-01
-9.160128471434392239e-02
-2.937003569711868142e-02
3.333707918843511336e-02
9.496271420822763321e-02
1.540173390794471464e-01
2.090348752277343125e-01
2.587161329134657350e-01
3.019041106645231065e-01
3.375413686416932624e-01
3.648907115280586311e-01
3.832982372213696309e-01
3.923982785192072220e-01
3.920760410316610489e-01
3.823329271851743094e-01
3.635426951989234046e-01
3.361723790260762734e-01
3.009322933397562405e-01
2.587490714341946219e-01
2.106200844687165508e-01
1.577663560486519678e-01
1.014622037132498211e-01
4.305678833271764372e-02
-1.603274405681644199e-02
-7.439736347643065295e-02
-1.306664280470714867e-01
-1.834843403162920994e-01
-2.316235480731503316e-01
-2.739753247909056943e-01
-3.095112325340965143e-01
-3.374844839281471165e-01
-3.572260675293980059e-01
-3.683257914286595658e-01
-3.706188311545067782e-01
-3.640459022022654589e-01
-3.489128255721283822e-01
-3.256231087563783433e-01
-2.948145633561330414e-01
-2.573519208498056265e-01
-2.141668078726995106e-01
-1.664156183861306704e-01
-1.153125956710356892e-01
-6.214013209246999764e-02
-8.248045549595062892e-03
4.502285135474183575e-02
9.637926934155788272e-02
1.445452123005503131e-01
1.883715926172127297e-01
2.268375930403658536e-01
2.589955172195447242e-01
2.841741179552534913e-01
3.017825887880555280e-01
3.114644560424930098e-01
3.131052042767493715e-01
3.066814031843321242e-01
2.925055133686692566e-01
2.709862215466907198e-01
2.427359050258849349e-01
2.085817988592735817e-01
1.694087192415945908e-01
1.263052205734317424e-01
8.041693673785289820e-02
3.294906573875486244e-02
-1.482900903269638096e-02
-6.165516102902245110e-02
-1.063133252486444247e-01
-1.476044558848045307e-01
-1.844483356085868941e-01
-2.158955615801613770e-01
-2.410644404216827630e-01
-2.593491245638534504e-01
-2.702296324711901954e-01
-2.734131805153947048e-01
-2.688625002852824686e-01
-2.566272003973576465e-01
-2.370965626392257941e-01
-2.107646654628731464e-01
-1.783184599227671252e-01
-1.406664920622574255e-01
-9.876902501900564069e-02
-5.377399293032182614e-02
-6.886234156046014410e-03
4.065117472307287066e-02
8.755028189201019551e-02
1.325370795601569784e-01
1.744179509277828388e-01
2.120278124122209340e-01
2.443354872981120529e-01
2.704703819589929781e-01
2.896303518807096244e-01
3.013076229553547924e-01
3.050925438735331841e-01
3.007958910249312057e-01
2.884984869052109602e-01
2.683627826998580268e-01
2.408845490112691279e-01
2.066708861871041636e-01
1.665073895164618234e-01
1.214030469055765449e-01
7.241506504114125775e-02
2.077959970541447959e-02
-3.220787330483261546e-02
-8.522056244332132380e-02
-1.368916636306355683e-01
-1.858692602763806767e-01
-2.308955690901508540e-01
-2.707479738871303998e-01
-3.043478518512323650e-01
-3.308047344915341359e-01
-3.493008755699117396e-01
-3.593496292104598755e-01
-3.605835983317801086e-01
-3.528722556482334904e-01
-3.364012475609935438e-01
-3.114428269868723120e-01
-2.786345108886258970e-01
-2.387461367049404926e-01
-1.927241861294686776e-01
-1.417559835764202469e-01
-8.707351864482572312e-02
-3.006740242193276652e-02
2.781465043466171613e-02
8.512198146698463086e-02
1.403999320290285624e-01
1.922183780651485763e-01
2.392948802578347967e-01
2.804047903681421428e-01
3.144882911670775494e-01
3.407203088416835279e-01
3.583517565400619054e-01
3.669875021127023684e-01
3.663702932971045767e-01
3.564691762435259204e-01
3.375823635340881035e-01
3.100896061711204688e-01
2.747183351024936049e-01
2.323330758509174754e-01
1.839546372765085147e-01
1.308359760993048626e-01
7.427094363328164139e-02
1.569468041752613424e-02
-4.340190279916796012e-02
-1.015311045722699090e-01
-1.572103135453846723e-01
-2.089809502294707189e-01
-2.555398896483029869e-01
-2.956495962170860858e-01
-3.282367288646809711e-01
-3.524829159013879165e-01
-3.676466186757780807e-01
-3.733566943072027522e-01
-3.693988722628238630e-01
-3.557860961022524249e-01
-3.328915577676198057e-01
-3.011723278646573077e-01
-2.614449267938196986e-01
-2.146803403143544287e-01
-1.619980059653770010e-01
-1.047575819560648130e-01
-4.435793590350353699e-02
1.767959350713960154e-02
7.978083464900542765e-02
1.403911096466428088e-01
1.979884621144883672e-01
2.510793172076832835e-01
2.983549101913599566e-01
3.385906274021249773e-01
3.707293222547947686e-01
3.939974660086386637e-01
4.076988254438211889e-01
4.115105016717847120e-01
4.052816329350319990e-01
3.890737749228541653e-01
3.633156140896194874e-01
3.285173281379652477e-01
2.855344073157026208e-01
2.353842576393304908e-01
1.792207600539571788e-01
1.184383544960558449e-01
5.447115574825416029e-02
-1.112832541878779058e-02
-7.675151192106052789e-02
-1.408080648624289444e-01
-2.017413500240916036e-01
-2.580210702812952839e-01
-3.083019544568678105e-01
-3.513302475594793917e-01
-3.860151491307980409e-01
-4.115670245311582320e-01
-4.272748123691261224e-01
-4.328102181736799836e-01
-4.280371224208402436e-01
-4.130272041918960912e-01
-3.882436999365231900e-01
-3.542337853731682973e-01
-3.118895587716142281e-01
-2.622795521130271701e-01
-2.065964873705873617e-01
-1.462713226973263725e-01
-8.277320481876107583e-02
-1.766692096868753559e-02
4.743322289001244974e-02
1.109420967662264057e-01
1.713333052800086742e-01
2.271092116377249059e-01
2.769699265969897128e-01
3.197218140449289425e-01
3.543246542091142981e-01
3.800475978030097290e-01
3.962359973573582606e-01
4.025958021717003232e-01
3.990302655233544105e-01
3.856262800835154048e-01
3.628478919697278315e-01
3.312392345000010341e-01
2.916619184124288333e-01
2.451547710767263411e-01
1.928683982110764861e-01
1.361867518216496875e-01
7.653330129676612359e-02
1.542700658808471292e-02
-4.555899679801120317e-02
-1.048748856065370716e-01
-1.610228484807469385e-01
-2.125306151987111092e-01
-2.581155216574589351e-01
-2.966058394065128612e-01
-3.269766865403318512e-01
-3.485265846471424234e-01
-3.606331236045310917e-01
-3.630439015000979097e-01
-3.557272155541090775e-01
-3.388327917190653293e-01
-3.129164228564199624e-01
-2.786198295324962548e-01
-2.369040564133863824e-01
-1.889245533868944282e-01
-1.359365601181695415e-01
-7.942122357864377091e-02
-2.089719995954193721e-02
3.805680606087264578e-02
9.582494488863957383e-02
1.508353128332725057e-01
2.016220239430877581e-01
2.467553297717919314e-01
2.850408381581867601e-01
3.154340492262949769e-01
3.370462029440589036e-01
3.493624292112362806e-01
3.519563340937853502e-01
3.447831890156821677e-01
3.280463809528516017e-01
3.021186685633620028e-01
2.677850177969650636e-01
2.259176226787943387e-01
1.776783176245113338e-01
1.244212091655885477e-01
6.757648783277631077e-02
8.759903661247896156e-03
-5.038316244030219965e-02
-1.082020336044768188e-01
-1.630425824889039088e-01
-2.133199052960306208e-01
-2.576303108789405605e-01
-2.946224842984251358e-01
-3.232417157981293809e-01
-3.426390538729218727e-01
-3.521373881331705813e-01
-3.515086923596810742e-01
-3.406300864149206520e-01
-3.197859046290899010e-01
-2.895489805434074970e-01
-2.506503755883568996e-01
-2.042382331806665285e-01
-1.515489308999050655e-01
-9.405629809388738050e-02
-3.340598120378177049e-02
2.871943349236252135e-02
9.054439910360002897e-02
1.502838002569421016e-01
2.062458300613744522e-01
2.568077612277043231e-01
3.004516356852819370e-01
3.359560561305573456e-01
3.621771350050735916e-01
3.783279235138759522e-01
3.838912218831952994e-01
3.785243516657808005e-01
3.623789437038507089e-01
3.357230393387133915e-01
2.992134912274069247e-01
2.538073153012059824e-01
2.005936450519171521e-01
1.410366466446517086e-01
7.668181311142492629e-02
9.243929146978656364e-03
-5.942872039385276028e-02
-1.274832393878974346e-01
-1.930636781456483986e-01
-2.543239315464465577e-01
-3.095852451789601889e-01
-3.573037476481706332e-01
-3.960625930628899338e-01
-4.248347878039471781e-01
-4.426944511235114121e-01
-4.491167603876788372e-01
-4.439070844359172541e-01
-4.270452246489433445e-01
-3.990446421955459178e-01
-3.605480049335280102e-01
-3.125626202746947802e-01
-2.564024848192647532e-01
-1.934851848685269771e-01
-1.255406810134847562e-01
-5.436829705914952154e-02
1.815114955345573100e-02
9.006682411281147216e-02
1.594600530662351745e-01
2.245293708930772292e-01
2.835113440012864694e-01
3.348837977259284671e-01
3.773363500023331207e-01
4.096960388774050221e-01
4.312440425750447837e-01
4.413810381746131606e-01
4.398994383443798339e-01
4.269429687442872767e-01
4.028058086787071335e-01
3.682752996310261207e-01
3.242637791701173389e-01
2.719774153266519834e-01
2.128915759958402987e-01
1.485536499498038565e-01
8.073835243166468945e-02
1.127341376862585516e-02
-5.799310379336775761e-02
-1.251941087210705905e-01
-1.885089645288521853e-01
-2.462941182797628026e-01
-2.969597691233039072e-01
-3.391757192175639535e-01
-3.718599919819587374e-01
-3.940631089289202693e-01
-4.053069387521439637e-01
-4.052434737884568761e-01
-3.938958284551461464e-01
-3.716496257063736097e-01
-3.390228072316451846e-01
-2.969953214845466594e-01
-2.466714489892575524e-01
-1.893964862849904784e-01
-1.267562319595378628e-01
-6.038486766161631214e-02
7.930059937568498252e-03
7.636374614658097970e-02
1.431261947142219992e-01
2.064628930810429031e-01
2.646780555239668375e-01
3.163124084081300191e-01
3.599786785701023506e-01
3.945572434227775371e-01
4.192072109291536952e-01
4.332090569305764305e-01
4.363029473327553198e-01
4.283635565581797588e-01
4.095907775751377877e-01
3.805304945328115696e-01
3.418378985486109634e-01
2.945705473335772928e-01
2.399024688045838238e-01
1.791991426969086199e-01
1.140341252003214678e-01
4.601646746704153579e-02
-2.313321858018835275e-02
-9.166499077342543655e-02
-1.578775063051575112e-01
-2.201233848902114099e-01
-2.768113433552891189e-01
-3.265934872112742915e-01
-3.682001142140919336e-01
-4.006166414720396807e-01
-4.231178680249034207e-01
-4.350907591529223906e-01
-4.363742502958470326e-01
-4.269493238351586006e-01
-4.070983852949766613e-01
-3.774531279550200624e-01
-3.387429873076218678e-01
-2.920727078214508388e-01
-2.386644243296252854e-01
-1.798978342068268121e-01
-1.173391551586397824e-01
-5.257895000869679258e-02
1.272557072130480957e-02
7.689888682374551587e-02
1.383369934675524049e-01
1.955223970812886014e-01
2.469946590846205936e-01
2.915549054211794555e-01
3.280933585225198623e-01
3.557386679581238664e-01
3.739141016820020091e-01
3.821419224877666831e-01
3.803617939080849997e-01
3.686549184760046782e-01
3.473607574466399672e-01
3.171447842824174357e-01
2.787556052694682984e-01
2.332717823411126767e-01
1.818841953611613771e-01
1.259152861354867758e-01
6.685713931983175429e-02
6.222968840552997594e-03
-5.442017452814786743e-02
-1.134887520881431855e-01
-1.694678814168506797e-01
-2.209332019545874881e-01
-2.665129016441595833e-01
-3.050934569104182259e-01
-3.356561571461516569e-01
-3.574104325948045946e-01
-3.698728904798888606e-01
-3.726550990759927018e-01
-3.657873164897578189e-01
-3.494537398815112383e-01
-3.240833942166456705e-01
-2.904420358978500039e-01
-2.493729721395380183e-01
-2.020302076107549361e-01
-1.496827300022805785e-01
-9.370218726404913601e-02
-3.560439253097914813e-02
2.308397079248540595e-02
8.083596619449806564e-02
1.361265652093594236e-01
1.875295588189994089e-01
2.337607711168518121e-01
2.735952763950738609e-01
3.061054648486796204e-01
3.304811669605190461e-01
3.461358828578159352e-01
3.528113271830607411e-01
3.503373989311650005e-01
3.389357171881758890e-01
3.189841793328088704e-01
2.910624438684866200e-01
2.560525303176390821e-01
2.148984992258718141e-01
1.687853144091061020e-01
1.189950456973273007e-01
6.686965690224626335e-02
1.384262282305024142e-02
-3.865220571159512508e-02
-8.923013078760849703e-02
-1.365282931122417109e-01
-1.792936015715657083e-01
-2.164450087046065341e-01
-2.469605338440479247e-01
-2.701188278491104544e-01
-2.853272681164674696e-01
-2.921980555150192060e-01
-2.906710318983356522e-01
-2.807667139020399993e-01
-2.628642848641030150e-01
-2.374986914262923465e-01
-2.053723727840723323e-01
-1.674612593036608199e-01
-1.247926206402632521e-01
-7.858069830480857165e-02
-3.012191568318161455e-02
1.926009445383830565e-02
6.819670227530122419e-02
1.153277320010378526e-01
1.593871075836811313e-01
1.991523836119940549e-01
2.335204673053318525e-01
2.615923043209461563e-01
2.825286876916926482e-01
2.957922564503141505e-01
3.009860927915075091e-01
2.978974228336717101e-01
2.866345956585774624e-01
2.673796943396737902e-01
2.406363299809847478e-01
2.070603344781735133e-01
1.674464698188718181e-01
1.228366360455723227e-01
7.431771988443955368e-02
2.313104295427632906e-02
-2.940786765262490277e-02
-8.196826890469818827e-02
-1.331924218335107934e-01
-1.817325037970565771e-01
-2.263457894733709730e-01
-2.658422144323879799e-01
-2.991498229355439853e-01
-3.254170493200760905e-01
-3.438533107201979799e-01
-3.539783171574747422e-01
-3.554690292042130828e-01
-3.481835115763399768e-01
-3.323242256169263165e-01
-3.081701223701718284e-01
-2.763262339433608661e-01
-2.375659578571593378e-01
-1.927927460873015697e-01
-1.431619573821830693e-01
-8.987329400662194545e-02
-3.426118835509540245e-02
2.226922786781332722e-02
7.831335994912538845e-02
1.324689404870126319e-01
1.833489619152059158e-01
2.297036208166991222e-01
2.703575925533684421e-01
3.042607317370664699e-01
3.306178056676021271e-01
3.486987111128828642e-01
3.580926915051806381e-01
3.585652886622626712e-01
3.500521936522680844e-01
3.328417592076182707e-01
3.072985816989398100e-01
2.740960407154579559e-01
2.340814238419961224e-01
1.882168674911731676e-01
1.377065313313535488e-01
8.379762288651824986e-02
2.785475302715190865e-02
-2.869014766982733167e-02
-8.441191997691266380e-02
-1.379020049219200905e-01
-1.877685472610206574e-01
-2.327682970931652939e-01
-2.717457422917224918e-01
-3.036705199840049607e-01
-3.277905497741047114e-01
-3.434228492282723755e-01
-3.502135184244739019e-01
-3.480066617951942387e-01
-3.368109770494631672e-01
-3.170068649641364367e-01
-2.890542223187149151e-01
-2.537119135715994456e-01
-2.119224217731379700e-01
-1.647264144478821912e-01
-1.133889937867243736e-01
-5.921454964089032519e-02
-3.586719070616806171e-03
5.206128747735631890e-02
1.063208842234527607e-01
1.578445275222569721e-01
2.053088896987484147e-01
2.475659408783564830e-01
2.835802702299383693e-01
3.124377824067319231e-01
3.335184073630298451e-01
3.462723128329170397e-01
3.504558465271123691e-01
3.460261317658068214e-01
3.330793390637175611e-01
3.120531429137182733e-01
2.834588702235910085e-01
2.480610580691420264e-01
2.067938187306209430e-01
1.606691662862998471e-01
1.108919796383644879e-01
5.870262269797851817e-02
5.402154735272890473e-03
-4.766690937467271683e-02
-9.918550455841296243e-02
-1.478985970421555496e-01
-1.925741150715917782e-01
-2.321425796028007138e-01
-2.656482979143948153e-01
-2.922434999969730773e-01
-3.113658353770694109e-01
-3.225221192262360814e-01
-3.255061054489025718e-01
-3.203166111130192895e-01
-3.070777985135695887e-01
-2.862484992198394695e-01
-2.583618925029979585e-01
-2.241851780263449667e-01
-1.846563909618477994e-01
-1.407797908403478904e-01
-9.373632413948829178e-02
-4.474086356824108490e-02
4.951196202410079739e-03
5.405427305624349588e-02
1.013110931052102204e-01
1.455486460905310031e-01
1.856203466314013117e-01
2.205449540227147343e-01
2.494672725988562600e-01
2.716306819737768774e-01
2.865621940309465154e-01
2.938585675885202475e-01
2.933795524269937616e-01
2.851896891439171799e-01
2.694619794349657482e-01
2.466832433806255276e-01
2.174130955289599876e-01
1.824199780813866301e-01
1.426384563484338619e-01
9.906067687480396566e-02
5.284406336785639480e-02
5.180377975476449515e-03
-4.270277955770998557e-02
-8.954869509168786323e-02
-1.341265018088132754e-01
-1.752906190016381427e-01
-2.119221230078386087e-01
-2.430644822280993433e-01
-2.678960178670967140e-01
-2.856898645948940385e-01
-2.960161633031878070e-01
-2.985211095079786103e-01
-2.931183448979632344e-01
-2.799483925997130473e-01
-2.592581743598109112e-01
-2.316273674985675213e-01
-1.977167868096859626e-01
-1.583934596080135149e-01
-1.147031263006565160e-01
-6.774264688544794077e-02
-1.876423359017074383e-02
3.094587694018090945e-02
8.008881259446765100e-02
1.273545167341127438e-01
1.714683362001322431e-01
2.112816520953319233e-01
2.456833236753468985e-01
2.737506059277959869e-01
2.947311604367932603e-01
3.079713394233717927e-01
3.131514749761058480e-01
3.100409091039028620e-01
2.986834384348674987e-01
2.793764662307828273e-01
2.525194173831760147e-01
2.188537805193669639e-01
1.792093772963991027e-01
1.346088665842678500e-01
8.625694250841783872e-02
3.540054472239911876e-02
-1.658026145775415294e-02
-6.827461804176422622e-02
-1.182875940343274118e-01
-1.652396177995549831e-01
-2.077978429064081811e-01
-2.448084711896210686e-01
-2.751712414487018643e-01
-2.980114885649385315e-01
-3.126767973548014168e-01
-3.186232513616430451e-01
-3.157013670405610650e-01
-3.038724176538300514e-01
-2.833915790292329540e-01
-2.548098178515097456e-01
-2.187776801171328611e-01
-1.762988605057996261e-01
-1.284738875529668478e-01
-7.656768426827967322e-02
-2.201419444869593539e-02
3.372852630051015321e-02
8.913389729317582055e-02
1.426604121874953668e-01
1.928415499019613955e-01
2.382895487171765858e-01
2.776818476887471521e-01
3.099592503589493342e-01
3.341430153473087250e-01
3.495146344974720543e-01
3.556348301592379690e-01
3.521748116161730890e-01
3.392306492894344161e-01
3.170252104105828472e-01
2.860600135049923831e-01
2.471420245782883773e-01
2.011650807383769668e-01
1.493438730992978081e-01
9.298767061428395153e-02
3.352956781070871861e-02
-2.745867881026126112e-02
-8.839559106906595687e-02
-1.476886616449271106e-01
-2.037459548516767915e-01
-2.550868876058875467e-01
-3.003582725883525151e-01
-3.382811944321914011e-01
-3.678949200104469908e-01
-3.883416562021810847e-01
-3.990424991726713166e-01
-3.997445018278844575e-01
-3.903059954929166131e-01
-3.710350429280145912e-01
-3.423839268408093162e-01
-3.050696116066791697e-01
-2.601250921986824061e-01
-2.086592018313390695e-01
-1.520654054046454429e-01
-9.182766615068310712e-02
-2.950722379689077468e-02
3.324043584446656485e-02
9.476689576934207992e-02
1.534888670171851155e-01
2.078479959342546535e-01
2.564369904261093458e-01
2.980368447498287221e-01
3.315097320637410139e-01
3.560799484751501209e-01
3.710969298003047312e-01
3.761836977804015048e-01
3.713116247399953496e-01
3.565544765228692015e-01
3.324131401249125206e-01
2.995365763826698391e-01
2.587989299443617108e-01
2.113672447513149089e-01
1.584700633470214337e-01
1.015657164624594599e-01
4.219193943361265742e-02
-1.807290327448479728e-02
-7.759651497623326621e-02
-1.347626091209772059e-01
-1.880659874463206371e-01
-2.360441392052198273e-01
-2.774010600452902486e-01
-3.110669110931012504e-01
-3.360546203030650436e-01
-3.517614729945580665e-01
-3.577281687082135564e-01
-3.537610067706318251e-01
-3.400347826150996733e-01
-3.168210383260162133e-01
-2.848030712245529505e-01
-2.448191093815851871e-01
-1.979001676277716004e-01
-1.453504470683947281e-01
-8.852345416625995167e-02
-2.894585206604621819e-02
3.179070622234150822e-02
9.209374878104242823e-02
1.503697839201540987e-01
2.050520581789280761e-01
2.547407708266216653e-01
2.981036309060075551e-01
3.339880886337516785e-01
3.615077185381732061e-01
3.798586487164321568e-01
3.886268025179835384e-01
3.875556891506961588e-01
3.766306509764457688e-01
3.562026881851876325e-01
3.267100358086905132e-01
2.889628534515472080e-01
2.439236712968233523e-01
1.927130216786325789e-01
1.366953485280727465e-01
7.727539074952732845e-02
1.598800279570725125e-02
-4.557864893655119709e-02
-1.058556002895830739e-01
-1.633045289385492704e-01
-2.164178548137151714e-01
-2.638813864275725840e-01
-3.044651922691737345e-01
-3.371216856895612457e-01
-3.610976780175886858e-01
-3.757228846598068550e-01
-3.807242017197520756e-01
-3.760031014764579349e-01
-3.616880336490082559e-01
-3.382815228456129697e-01
-3.063682832662297795e-01
-2.668755046764478278e-01
-2.208832377241337630e-01
-1.695950027644799185e-01
-1.144218373451911797e-01
-5.680380433511478255e-02
1.751851044288987858e-03
5.970814000928004184e-02
1.155785230006358688e-01
1.679638732835819215e-01
2.155036028705180629e-01
2.570658775070304713e-01
2.916266047802411610e-01
3.183354931407375576e-01
3.366482260460536002e-01
3.460970615995840882e-01
3.465708451358445186e-01
3.381290051804883845e-01
3.210117393019966126e-01
2.957838991915928695e-01
2.630775253020145588e-01
2.237920270366561271e-01
1.789570448330565222e-01
1.296894812139001152e-01
7.726582513932800378e-02
2.298480766030253086e-02
-3.181327687044344099e-02
-8.576795003810200324e-02
-1.375612066815836698e-01
-1.859555274609041575e-01
-2.297446309133697184e-01
-2.679124230691434239e-01
-2.995402746654129977e-01
-3.238498943174813460e-01
-3.403325762733490079e-01
-3.485458404837352142e-01
-3.483579812107925333e-01
-3.397994191515216200e-01
-3.230575927654200097e-01
-2.986274021687005398e-01
-2.670679053693494343e-01
-2.291912962112660490e-01
-1.859444011667016894e-01
-1.383577105913805783e-01
-8.762826801957790401e-02
-3.497865383716614041e-02
1.831789866625443963e-02
7.096094524010077009e-02
1.216831241899947180e-01
1.692859986000289085e-01
2.125976760981109770e-01
2.506177811907317476e-01
2.824416398121131211e-01
3.072882634472708929e-01
3.246360087841267950e-01
3.340258045637326534e-01
3.352884809280534673e-01
3.284197598964044285e-01
3.135583145192428756e-01
2.911479446617064037e-01
2.616969913961650906e-01
2.259627149195024831e-01
1.848468648226618827e-01
1.393357827341888400e-01
9.059910522792824494e-02
3.983768215919181177e-02
-1.167875020689082555e-02
-6.263979061572619300e-02
-1.117572088595220059e-01
-1.577941777310456484e-01
-1.995360674444217608e-01
-2.359295928430301670e-01
-2.660195463589461462e-01
-2.889712171324659296e-01
-3.042259277375900517e-01
-3.112920427633956155e-01
-3.099860358009545180e-01
-3.003154279528095216e-01
-2.824356910365338758e-01
-2.568464044998979290e-01
-2.241205236011876156e-01
-1.850967066277502404e-01
-1.407818165813401468e-01
-9.226517785877924593e-02
-4.082980267119062923e-02
1.220781765333063540e-02
6.547682076206626234e-02
1.175713064737775870e-01
1.671181354846503486e-01
2.128270034629209662e-01
2.534360406869856641e-01
2.878728948848472413e-01
3.151906582598974493e-01
3.345676985821184335e-01
3.454952700903657359e-01
3.475394042387731641e-01
3.405850291344880709e-01
3.247325844790120986e-01
3.002250859236825775e-01
2.676661561185431637e-01
2.277378457141345236e-01
1.813836349054937236e-01
1.297274512831250448e-01
7.397002998267700191e-02
1.550726612497313472e-02
-4.422926575312335906e-02
-1.037616563676407311e-01
-1.615793930421626778e-01
-2.162085397264355557e-01
-2.662768286317362398e-01
-3.104446412087497609e-01
-3.475821936484421726e-01
-3.767110070706142788e-01
-3.969839863807095859e-01
-4.079118203386128960e-01
-4.090917797731238870e-01
-4.004651797727198370e-01
-3.822267083194570425e-01
-3.547145145688219703e-01
-3.186604194353229169e-01
-2.748839730113276092e-01
-2.244614955180301297e-01
-1.686624729660196331e-01
-1.088203769427397855e-01
-4.644237545980192672e-02
1.693211654512381814e-02
7.975479944111384112e-02
1.404705802622440158e-01
1.975743528659354153e-01
2.497115678272509576e-01
2.955707738817399677e-01
3.340713205285155141e-01
3.643138453883292271e-01
3.855246023416514789e-01
3.973010613906295951e-01
3.993319644244981426e-01
3.916274184496862931e-01
3.744553943386476069e-01
3.482084521207297056e-01
3.136486534845999152e-01
2.716243253372252475e-01
2.232096470363637841e-01
1.696639348458880425e-01
1.123005566211879303e-01
5.258965414064800670e-02
-7.966873711749894449e-03
-6.786373325561773084e-02
-1.255927977775274929e-01
-1.796914510831279510e-01
-2.288478035931066912e-01
-2.717935770917574434e-01
-3.074811443720701365e-01
-3.350516745051344003e-01
-3.537624308245179705e-01
-3.632432501442004469e-01
-3.632196591946811326e-01
-3.537256197223962451e-01
-3.350646972407758661e-01
-3.076545276075509094e-01
-2.722771027210671990e-01
-2.298042332160921963e-01
-1.813126443433738244e-01
-1.280620455749820197e-01
-7.135619822390942835e-02
-1.263265181902989247e-02
4.664201751773729143e-02
1.050149421384523329e-01
1.610457613294545842e-01
2.133389030776782769e-01
2.606603399689154665e-01
3.018229095817263063e-01
3.358442982341478533e-01
3.619331046775599581e-01
3.793975590290075139e-01
3.878907484990501420e-01
3.871589690311441623e-01
3.772168276163365142e-01
3.583343854399887451e-01
3.308789019461234604e-01
2.955507817237230106e-01
2.531386585370445919e-01
2.046181904597464962e-01
1.511469407655494646e-01
9.392680855164689535e-02
3.430409414852540750e-02
-2.633915566142357861e-02
-8.661297589465477564e-02
-1.451195339150049279e-01
-2.004918125514386362e-01
-2.514880224206009207e-01
-2.969052053379591105e-01
-3.357145649313245661e-01
-3.670640887831914112e-01
-3.901890515149499805e-01
-4.046517926928368536e-01
-4.101092042843290653e-01
-4.064723293121840220e-01
-3.939157551592586959e-01
-3.727060824285989837e-01
-3.434467952488168274e-01
-3.068374041901507643e-01
-2.637598561947862574e-01
-2.152893600220600889e-01
-1.625443941381166657e-01
-1.067904211975441164e-01
-4.933304259575806150e-02
8.511700430646321203e-03
6.541646923245567069e-02
1.200786006596265554e-01
1.713073626007701467e-01
2.179483536492241025e-01
2.589946304600485583e-01
2.936022762921675633e-01
3.209984021095778073e-01
3.406946123017986494e-01
3.522906151233196614e-01
3.555978985933332392e-01
3.506671458447113698e-01
3.376264246895564480e-01
3.169045610801454194e-01
2.890234418214191470e-01
2.546725244338146621e-01
2.147346161862953295e-01
1.701384537128163843e-01
1.219808189047696112e-01
7.140992476954745316e-02
1.961593305115930802e-02
-3.216155209790864250e-02
-8.269060141971296130e-02
-1.307907621202899495e-01
-1.753005267387352795e-01
-2.151646583337049057e-01
-2.494559094692451184e-01
-2.773051747867495420e-01
-2.980968712203659332e-01
-3.113005859730055835e-01
-3.165871831095758426e-01
-3.138751715404105580e-01
-3.031607638230580659e-01
-2.847614812851331223e-01
-2.591028526520793296e-01
-2.267910933103251536e-01
-1.886595275061770660e-01
-1.455932838037624910e-01
-9.867449987560411584e-02
-4.905138439230986858e-02
2.075832608328692652e-03
5.344014495952759125e-02
1.037782977565072096e-01
1.518710373160747640e-01
1.965164521927536545e-01
2.366137512834265710e-01
2.711948529770034089e-01
2.993463189310054950e-01
3.204076669874088568e-01
3.338101428158896100e-01
3.391764755369571227e-01
3.363860927232106279e-01
3.253927734045918840e-01
3.064706364989978615e-01
2.800108504105481844e-01
2.465816101560917573e-01
2.069935368598409264e-01
1.621115898900749863e-01
1.130152260941497677e-01
6.086282664720263358e-02
6.878794192736421148e-03
-4.762016028924921651e-02
-1.013133379565266390e-01
-1.528973891935093699e-01
-2.010771828522357196e-01
-2.446454823355406760e-01
-2.825208198096764156e-01
-3.136735791287288411e-01
-3.373326838485842805e-01
-3.528288539334586416e-01
-3.596921216633615082e-01
-3.577437396155335181e-01
-3.468852485452649237e-01
-3.273777284323948766e-01
-2.996252085234547557e-01
-2.642238140430487325e-01
-2.220563287979376854e-01
-1.740660247842083508e-01
-1.214350840393120801e-01
-6.544167441762709092e-02
-7.430030050599004815e-03
5.115505884605000414e-02
1.088648668811217635e-01
1.642807525445472705e-01
2.159978785144325841e-01
2.627080846545833404e-01
3.032541015292610220e-01
3.365329761929962138e-01
3.617216554695415476e-01
3.781165703253135391e-01
3.852139628331535670e-01
3.828283470744338057e-01
3.708558023460501452e-01
3.495624671350705537e-01
3.193747393939522783e-01
2.809089129020234665e-01
2.350901164795520804e-01
1.829072900475365859e-01
1.256023554883015370e-01
6.452841615402574171e-02
1.111339662479587931e-03
-6.310242154805417725e-02
-1.265573115622466993e-01
-1.877148969376324084e-01
-2.450455440539859586e-01
-2.971115692860321067e-01
-3.426319883510268727e-01
-3.803803172266871924e-01
-4.094257029481492283e-01
-4.289745802975609701e-01
-4.384411128928543677e-01
-4.376003306976385954e-01
-4.263158031176529361e-01
-4.048560739533376696e-01
-3.736808188379080464e-01
-3.334464650520443385e-01
-2.851581695644675452e-01
-2.298901793786543302e-01
-1.689797215115207141e-01
-1.038902199856985009e-01
-3.615020119189914227e-02
3.259459619151658383e-02
1.006905994582995012e-01
1.665219247422003446e-01
2.284920295054587991e-01
2.851026091289359798e-01
3.350381710306479799e-01
3.770393379204197148e-01
4.101500591790535610e-01
4.335675034879808987e-01
4.466839427334863277e-01
4.492612753301292172e-01
4.411479657139533717e-01
4.225810743085242627e-01
3.939976459813513965e-01
3.560160662332770842e-01
3.096049936580295703e-01
2.558030478899208093e-01
1.959106747780164359e-01
1.313656329692417524e-01
6.367585697781186216e-02
-5.513225325021372733e-03
-7.454123102115035870e-02
-1.417600160500138151e-01
-2.055285347508092331e-01
-2.642869557514052059e-01
-3.166408890670673326e-01
-3.612470330221143611e-01
-3.970517813845415578e-01
-4.231609787850823534e-01
-4.388683275411586204e-01
-4.438559363786472867e-01
-4.378963603808898597e-01
-4.211651819071276504e-01
-3.940641686812802469e-01
-3.571772947782234087e-01
-3.114720049442199490e-01
-2.579924176296007898e-01
-1.980540727924408884e-01
-1.331278840187078705e-01
-6.475164273566266782e-02
5.394852913760600499e-03
7.561510409533633847e-02
1.442333345895335517e-01
2.095862471901379087e-01
2.700910370376373715e-01
3.243443144608243456e-01
3.709941734388921830e-01
4.089737065366310653e-01
4.373868681226299460e-01
4.555087717541149162e-01
4.630004404074846702e-01
4.596114291784441086e-01
4.454676509323866052e-01
4.209253158040778819e-01
3.865037693719459155e-01
3.430961668143859278e-01
2.916724219415993136e-01
2.334625639948638143e-01
1.698591174341938514e-01
1.023225400365605497e-01
3.246996415177977324e-02
-3.805821042060453241e-02
-1.076179190277269937e-01
-1.745629427596098182e-01
-2.373087126646254985e-01
-2.944217592614449264e-01
-3.445129849206518546e-01
-3.864486441972542763e-01
-4.192618186385698720e-01
-4.421406654688541660e-01
-4.546550010961232235e-01
-4.564639222471462143e-01
-4.475961096526311911e-01
-4.283267851610924049e-01
-3.990881773828987567e-01
-3.607040197466916398e-01
-3.140809535018446730e-01
-2.603882000812913211e-01
-2.009738678177728222e-01
-1.372520128329461631e-01
-7.080096074147337881e-02
-3.226016485335991835e-03
6.386335417766728084e-02
1.288548840163593057e-01
1.901922608058184139e-01
2.464698604782890601e-01
2.963250418478933779e-01
3.386335052185169281e-01
3.724405981940749344e-01
3.969278149059389249e-01
4.116417024004844216e-01
4.162155834536790389e-01
4.106187734480245544e-01
3.950648608638457349e-01
3.699061462586700211e-01
3.358707026898923864e-01
2.937700934728425528e-01
2.446669467258950348e-01
1.898103471603697079e-01
1.305169106432775283e-01
6.828558152548463989e-02
4.650022577399257062e-03
-5.882698482150336416e-02
-1.205606017974526351e-01
-1.790063615081483039e-01
-2.327408676053313030e-01
-2.803773000378813607e-01
-3.207449329027349805e-01
-3.528406164488152585e-01
-3.757884702360865803e-01
-3.890850274180671642e-01
-3.923190656554377265e-01
-3.854225536500014426e-01
-3.685993227408864148e-01
-3.421924217252244604e-01
-3.069539368392965040e-01
-2.637311832156642444e-01
-2.136314074849465783e-01
-1.579722071139079698e-01
-9.813583999117492240e-02
-3.569098504112677706e-02
2.775591221790907337e-02
9.058513386114452892e-02
1.511660020425673601e-01
2.079151096924419795e-01
2.594041220060449016e-01
3.042498895398495495e-01
3.413052583650229010e-01
3.696224269877914637e-01
3.883799377408856390e-01
3.971571458803972998e-01
3.956358942558895198e-01
3.838371316408133449e-01
3.620744422855224354e-01
3.307903934199933893e-01
2.908358301856297512e-01
2.431618321987660813e-01
1.889607273800628651e-01
1.296375276682610878e-01
6.665334850685900037e-02
1.640381163462545366e-03
-6.373187787463041598e-02
-1.277967719499149002e-01
-1.888902042071886056e-01
-2.453992621317824807e-01
-2.958945079455579386e-01
-3.390004411882562296e-01
-3.735954991239165968e-01
-3.987917676719869298e-01
-4.138300903155702204e-01
-4.183931110367088424e-01
-4.122820187248108503e-01
-3.956474850735935966e-01
-3.689686822312522319e-01
-3.328488209225352046e-01
-2.883108372998050006e-01
-2.364867043518779077e-01
-1.787248042102379531e-01
-1.165813255247766245e-01
-5.165192681269936692e-02
1.434761078597052153e-02
7.967488260216371021e-02
1.426406527331604557e-01
2.016078422495866662e-01
2.550050948916864346e-01
3.015127015560437052e-01
3.398852563313116137e-01
3.691545593374119805e-01
3.886302091302281658e-01
3.977463564276344510e-01
3.963935352989297334e-01
3.845914762829638067e-01
3.626817215675509076e-01
3.313352715352620992e-01
2.913288058350552712e-01
2.438165149483516037e-01
1.900575499785480682e-01
1.314809143278258541e-01
6.969325194219733177e-02
6.325094406246456469e-03
-5.692682750378719181e-02
-1.183513937574920405e-01
-1.763219723632864500e-01
-2.293022010608376515e-01
-2.758266500419090939e-01
-3.147205855614981784e-01
-3.448991293476810771e-01
-3.655609475170840117e-01
-3.762141932746658757e-01
-3.764862208199104554e-01
-3.664680411253129488e-01
-3.463909286966138090e-01
-3.167829065619336415e-01
-2.785028898978851863e-01
-2.325000307826126100e-01
-1.800579618104212187e-01
-1.225603201101679307e-01
-6.151118534336363908e-02
1.448165436558346286e-03
6.466957521020000321e-02
1.265076201488612995e-01
1.853215556527290087e-01
2.395897918640945701e-01
2.879294147312219110e-01
3.290318825669749092e-01
3.619096570145565739e-01
3.856802264031500282e-01
3.997304794985792054e-01
4.037676066319986212e-01
3.976045818823867872e-01
3.814850258765876134e-01
3.557929027830251112e-01
3.211645881356008925e-01
2.785430396644918982e-01
2.289460143534762793e-01
1.736766433191743175e-01
1.141308279714154938e-01
5.179571001118921103e-02
-1.172836940588184440e-02
-7.483880336201198524e-02
-1.359578726554586670e-01
-1.935191824244895109e-01
-2.460767681763516013e-01
-2.923373786379681594e-01
-3.310783518284292626e-01
-3.614005618501361372e-01
-3.825188032162110119e-01
-3.939046614269758884e-01
-3.953623509992270080e-01
-3.867954488091980281e-01
-3.685291744527632307e-01
-3.410375910204841432e-01
-3.050239589375685068e-01
-2.614948177646641003e-01
-2.115224892188710681e-01
-1.564308512144475527e-01
-9.763271325560124447e-02
-3.660210978160077788e-02
2.510422053338204340e-02
8.593472823334152855e-02
1.444013606322973042e-01
1.990415167447469047e-01
2.485198278103575298e-01
2.916767636203558833e-01
3.274188253042806807e-01
3.549654465564209271e-01
3.736548894866729142e-01
3.830471508599224695e-01
3.830152099755659290e-01
3.735160805717074872e-01
3.548713825664120414e-01
3.275426621736903243e-01
2.921789998472319461e-01
2.496998524094962146e-01
2.010813302041225548e-01
1.475199113810359286e-01
9.029745686345425071e-02
3.075497776969315922e-02
-2.967950289668541686e-02
-8.957636564422655212e-02
-1.475402744365768015e-01
-2.021910357165763727e-01
-2.522444963498271520e-01
-2.965612595369497839e-01
-3.340554863813398612e-01
-3.639122935146343885e-01
-3.854286960952597596e-01
-3.980982187691224361e-01
-4.017167596738699942e-01
-3.961591719798263078e-01
-3.816557785225169752e-01
-3.585856033076963989e-01
-3.275099205346090336e-01
-2.892763626849288450e-01
-2.447911955297130682e-01
-1.951903215527757141e-01
-1.417069525289860188e-01
-8.563516970854090360e-02
-2.836651932593081682e-02
2.870295916478138309e-02
8.420772500753681555e-02
1.367966052927687137e-01
1.852082013009321848e-01
2.283287761814167816e-01
2.650946783569825271e-01
2.947048608628262123e-01
3.164761017494921447e-01
3.299053215309815101e-01
3.347916742201832996e-01
3.310087533744408006e-01
3.187674540563594228e-01
2.984324445292290129e-01
2.705339102006663055e-01
2.358854696591410338e-01
1.953575020758804293e-01
1.500397212444655182e-01
1.011234452559475194e-01
4.985701318854274255e-02
-2.411907094858722900e-03
-5.432913279203277490e-02
-1.045684276653442435e-01
-1.518176206894876756e-01
-1.948488081526982274e-01
-2.325854591725063925e-01
-2.639995484184037844e-01
-2.883258153415867442e-01
-3.049273068804108089e-01
-3.133410373684757388e-01
-3.134223639280791507e-01
-3.051017419485231308e-01
-2.886473493819264879e-01
-2.644951934898770451e-01
-2.332353819889444457e-01
-1.957455396267931969e-01
-1.529583429001104555e-01
-1.060041446301280832e-01
-5.611324563777753127e-02
-4.553946383919038610e-03
4.733385741151208137e-02
9.820928491647684666e-02
1.467936857668998840e-01
1.918412245361222901e-01
2.321996021617076522e-01
2.668999192179990487e-01
2.950248530848997852e-01
3.159274910126148583e-01
3.291046285759029466e-01
3.342136569639282406e-01
3.312323768831699766e-01
3.202107794723074718e-01
3.015100557875536325e-01
2.756600268658475628e-01
2.433220986933424257e-01
2.054250244384352442e-01
1.629483263093511880e-01
1.170406072333465275e-01
6.894383035029960638e-02
1.992638136414548455e-02
-2.868979931738557809e-02
-7.558373491389236420e-02
-1.195097689510786765e-01
-1.592652167284365206e-01
-1.937417114205706170e-01
-2.220329178321760466e-01
-2.432867461852907809e-01
-2.569316857050889524e-01
-2.625586998892881496e-01
-2.599171754914832988e-01
-2.491011688108830668e-01
-2.302812522844783771e-01
-2.039429709788000977e-01
-1.707579829133036853e-01
-1.315206884507968965e-01
-8.729673846344265797e-02
-3.920290776745538608e-02
1.149558600483846504e-02
6.344407780310223899e-02
1.152767709871582724e-01
1.656050303005409674e-01
2.130469153453002917e-01
2.563286172832928145e-01
2.942432706360689210e-01
3.256868861068218379e-01
3.497959766565976736e-01
3.657680961957234800e-01
3.730971364279422886e-01
3.714639734902132062e-01
3.607034826055439680e-01
3.410155075213214815e-01
3.126808702617798197e-01
2.762926601119688463e-01
2.326451586922084758e-01
1.826482644345661654e-01
1.274895087494511969e-01
6.841058627956986271e-02
6.796412283056163517e-03
-5.587391724008305971e-02
-1.181135407358637757e-01
-1.784201213989607959e-01
-2.352988365622916134e-01
-2.873768804738952021e-01
-3.333636680673668917e-01
-3.720772929518736394e-01
-4.026134674222887622e-01
-4.241380097318130371e-01
-4.361429206912661449e-01
-4.383444920749792750e-01
-4.306195888072643640e-01
-4.132593288270185461e-01
-3.866479272638869702e-01
-3.514987690385797947e-01
-3.087564199546104504e-01
-2.594759504215531365e-01
-2.049995468467029625e-01
-1.467266202485122406e-01
-8.617723113246889000e-02
-2.495795521695143293e-02
3.533230541443010964e-02
9.312123817040962592e-02
1.468526473239570862e-01
1.951307548065255304e-01
2.366774710519408131e-01
2.703316227327814403e-01
2.952572896156429039e-01
3.106997471463852634e-01
3.162443401738475046e-01
3.117312080109453376e-01
2.971540457553789594e-01
2.729364424643847542e-01
2.396012006701191410e-01
1.979864802149133851e-01
1.491718103570249809e-01
9.433523054699755050e-02
3.493074561554543322e-02
-2.752985648502459526e-02
-9.143552317208936131e-02
-1.550976046946050957e-01
-2.168435309526923760e-01
-2.750562524662782948e-01
-3.281409392206811049e-01
-3.746869828776926425e-01
-4.134309847508621516e-01
-4.432314198826485807e-01
-4.633158670549342162e-01
-4.730059273856976887e-01
-4.719816515974972759e-01
-4.602156849239626979e-01
-4.378313888174165669e-01
-4.054085919134795546e-01
-3.636364785873666960e-01
-3.135076596938635163e-01
-2.562677739820866663e-01
-1.932461846503983338e-01
-1.260222174583542909e-01
-5.622985179016204427e-02
1.443858663384389729e-02
8.424107184020357408e-02
1.514665546597182555e-01
2.145137453091408020e-01
2.718161164051675627e-01
3.220186246969838351e-01
3.639503013014762089e-01
3.965605400324294649e-01
4.191931789793308383e-01
4.312955298590059883e-01
4.326602268949359953e-01
4.233869578675810708e-01
4.037111351497977285e-01
3.743106078793363434e-01
3.359751877430883771e-01
2.897699260072897909e-01
2.370098955884056835e-01
1.790829802474966925e-01
1.176081585545571961e-01
5.425897516179389868e-02
-9.246646828064086776e-03
-7.114960204405473831e-02
-1.297232989209131659e-01
-1.833677665501785015e-01
-2.305228442288420609e-01
-2.698461406169911925e-01
-3.002017153519052073e-01
-3.205749529766510619e-01
-3.303823009162236701e-01
-3.291581915702472827e-01
-3.167712893368310745e-01
-2.934139571277825098e-01
-2.594354883216887231e-01
-2.157458597160797353e-01
-1.633918195461845357e-01
-1.034201160472179026e-01
-3.687749745432356008e-02
