BVP Green Neck Signal
-3.065636881281532181e-03
-5.471825254694230589e-03
-7.608846830721683122e-03
-9.332591824785423443e-03
-1.049895045230699910e-02
-1.096381292870793507e-02
-1.059719137673815863e-02
-9.326989533227017168e-03
-7.097670716298539947e-03
-3.895805987949075427e-03
2.485556142453656386e-04
5.289053569370502292e-03
1.111920482926172064e-02
1.761550492272920959e-02
2.462312719236025432e-02
3.195420559339146038e-02
3.941444251021195000e-02
4.678864330325526594e-02
5.385618818867309726e-02
6.040169063099950358e-02
6.621540351813018366e-02
7.109574831713502685e-02
7.487596112723034214e-02
7.740026789277928976e-02
7.855113384050474434e-02
7.825312041265586327e-02
7.644765531710537299e-02
7.314266859802368015e-02
6.836641557246903034e-02
6.219114077384805400e-02
5.473856039164538834e-02
4.614418013988481199e-02
3.659521976419705808e-02
2.629454958793835118e-02
1.546528838160661674e-02
4.353818192652577669e-03
-6.791204098193804120e-03
-1.771640837192433454e-02
-2.816746265334453547e-02
-3.790369172546959042e-02
-4.670045151124078975e-02
-5.434273840707016384e-02
-6.065804441915605832e-02
-6.548795595260437086e-02
-6.871251714672713118e-02
-7.025788957966266901e-02
-7.006633345772635135e-02
-6.814687970612888501e-02
-6.453060225749458756e-02
-5.929126095512805145e-02
-5.255490897253119187e-02
-4.446154705381522021e-02
-3.520620521471935771e-02
-2.500211198502511056e-02
-1.408546406212736989e-02
-2.721201500576170274e-03
8.822020038558227653e-03
2.026557688353824993e-02
3.132790697526958296e-02
4.173944598050974980e-02
5.124597774402490230e-02
5.960288934837490449e-02
6.661183532406822483e-02
7.209103003636363471e-02
7.590088657066609845e-02
7.795695268935187716e-02
7.819240846856943816e-02
7.661717397022313469e-02
7.326857980423975847e-02
6.822941663037741800e-02
6.164314977024946962e-02
5.366748047344136602e-02
4.451672234313995558e-02
3.442550757256029187e-02
2.364758513380333174e-02
1.246275952988470763e-02
1.152911546864516731e-03
-9.998899425806251698e-03
-2.070955681584026042e-02
-3.071274657149137416e-02
-3.976558391193020514e-02
-4.763542298724609408e-02
-5.414017759579959482e-02
-5.911718186004624037e-02
-6.244259713531553208e-02
-6.404786750254952421e-02
-6.387977082595430733e-02
-6.195281784123479046e-02
-5.830777206963271703e-02
-5.302197333479709979e-02
-4.622595357904332042e-02
-3.806197111290241658e-02
-2.871939555523848192e-02
-1.840608355493588560e-02
-7.346242068160610192e-03
4.211647885890487490e-03
1.601629129162157605e-02
2.781100437734817382e-02
3.933714944071942804e-02
5.034608819124890972e-02
6.060439883768716646e-02
6.988556936677776943e-02
7.800019259890265955e-02
8.477436197273825746e-02
9.006400903486984355e-02
9.377138376032458089e-02
9.581143419211557433e-02
9.615788362908385400e-02
9.480929961444903298e-02
9.179718252375530796e-02
8.720523710864724887e-02
8.112880301231072122e-02
7.371170153376230272e-02
6.511856742408299314e-02
5.553266267046769872e-02
4.516738297487227910e-02
3.424075207856174669e-02
2.298408943756087564e-02
1.163442557099914239e-02
4.248853135436284068e-04
-1.041792975112710261e-02
-2.067143600255243185e-02
-3.013791084604133114e-02
-3.863093150009266202e-02
-4.598502186162949090e-02
-5.207017465335554707e-02
-5.676586562393783758e-02
-5.999688331707963423e-02
-6.170889969522876800e-02
-6.187359417335449446e-02
-6.050759759447390390e-02
-5.763786719274672371e-02
-5.333632499925061027e-02
-4.769600936971939847e-02
-4.083062435823484049e-02
-3.289033394355923845e-02
-2.403249251593767011e-02
-1.444170886660866258e-02
-4.315616414204128878e-03
6.141025872535650978e-03
1.671067546791981176e-02
2.717477680472640128e-02
3.731751274994411088e-02
4.692449468798089163e-02
5.579137828077631450e-02
6.373243457901224540e-02
7.056802025313134441e-02
7.615240650350546536e-02
8.035693992618254955e-02
8.307672118478001688e-02
8.425167840362807192e-02
8.383271001552085322e-02
8.182186832629610718e-02
7.824743333198791451e-02
7.316352893543076608e-02
6.667401668029510065e-02
5.889312135565327039e-02
4.997609836894555818e-02
4.009964717436884790e-02
2.945413607565492559e-02
1.825669125062329839e-02
6.728551518203302467e-03
-4.900369289181149418e-03
-1.639557736990934766e-02
-2.752743607384517538e-02
-3.807625283347305933e-02
-4.782637985469784941e-02
-5.658861543512837960e-02
-6.418826871182341243e-02
-7.047044691501964941e-02
-7.532105836223822182e-02
-7.863603969952535910e-02
-8.035873621624486929e-02
-8.045900253855431394e-02
-7.893120588070105803e-02
-7.582116768167962428e-02
-7.118587365456964522e-02
-6.512749736193196304e-02
-5.777400140267354572e-02
-4.927099598684007986e-02
-3.980178893777531340e-02
-2.955678512962018473e-02
-1.874817031630013342e-02
-7.600804202514419364e-03
3.658119667467176622e-03
1.479656784777629366e-02
2.558320880165384364e-02
3.580082638923701849e-02
4.524065884594115350e-02
5.370896737271239202e-02
6.104593226438623232e-02
6.710057537809942241e-02
7.176644561608362671e-02
7.496424018235253728e-02
7.663896739845645067e-02
7.679133526424095080e-02
7.543449673208782458e-02
7.263172201002635053e-02
6.847747690525160524e-02
6.308600543856024423e-02
5.661755237366508653e-02
4.924144807151831227e-02
4.115412969342534255e-02
3.256925604075859570e-02
2.370460885956856417e-02
1.478735241543913115e-02
6.045102101117619600e-03
-2.305678838727712524e-03
-1.005579807707698316e-02
-1.700890099224734026e-02
-2.300036401688299731e-02
-2.787374450681276428e-02
-3.151259848272543879e-02
-3.382705811366088638e-02
-3.474799820576639220e-02
-3.425806640789889890e-02
-3.235165646778370013e-02
-2.906792942369602201e-02
-2.447642591925795058e-02
-1.866429093332317574e-02
-1.176320286426860671e-02
-3.914230872851951620e-03
4.713321754052516958e-03
1.393058197589546084e-02
2.354193787327872253e-02
3.333478356607840615e-02
4.309374259549686448e-02
5.260401650348459079e-02
6.165122569599213592e-02
7.002763443709346391e-02
7.754369787356193977e-02
8.401503843852654863e-02
8.928563990503726733e-02
9.322002273012405804e-02
9.569921663123522049e-02
9.664931574370880241e-02
9.600731178578042480e-02
9.375314065585492462e-02
8.989850143108470137e-02
8.447363189501579106e-02
7.755992868255295880e-02
6.925043491476237656e-02
5.967468640447311234e-02
4.898979215295124617e-02
3.736411102867128603e-02
2.499712671502483941e-02
1.209481536924031722e-02
-1.124944623572906102e-03
-1.443508944608161600e-02
-2.760928091289218539e-02
-4.042408602240886439e-02
-5.265760643042547567e-02
-6.410329542855588980e-02
-7.456671757391868105e-02
-8.386417744456267642e-02
-9.184414304973573251e-02
-9.836335311570039430e-02
-1.033119000397708653e-01
-1.066067551746589792e-01
-1.081804563286895005e-01
-1.080123847928716740e-01
-1.060934436286957716e-01
-1.024523146945961471e-01
-9.714878264000641195e-02
-9.025722377588868417e-02
-8.189632023197021549e-02
-7.219540373317653859e-02
-6.131274981619228709e-02
-4.943097797263657639e-02
-3.674113136705882410e-02
-2.345971627006092353e-02
-9.808961331477237741e-03
3.981049686849562862e-03
1.767348397780274180e-02
3.103363020131076622e-02
4.383474435351391446e-02
5.585288190816800613e-02
6.688443739314285652e-02
7.674366036820415293e-02
8.525760113303168519e-02
9.229583523911842613e-02
9.773932793958199639e-02
1.015095351257804673e-01
1.035642252435620414e-01
1.038784639448377123e-01
1.024845304693209752e-01
9.942951417417573989e-02
9.480069101086767425e-02
8.872215492229154621e-02
8.133099814881213085e-02
7.280693234119697821e-02
6.334036439419782338e-02
5.314099092137510721e-02
4.243656281496816646e-02
3.145711022245474553e-02
2.043860995648186935e-02
9.617931895132842551e-03
-7.787116906263179261e-04
-1.053529888409182776e-02
-1.944471697517529546e-02
-2.733254800943538815e-02
-3.403377193092013003e-02
-3.941731494201820840e-02
-4.338526162946553660e-02
-4.585503883735552594e-02
-4.679910002301658489e-02
-4.620522927107999223e-02
-4.410188211805244479e-02
-4.055809882048971859e-02
-3.565714393429297163e-02
-2.953264019075252378e-02
-2.233202363513808741e-02
-1.422891613226546191e-02
-5.423633345894416161e-03
3.878061829986620586e-03
1.345282820274184415e-02
2.307289835404649145e-02
3.251352662967572221e-02
4.155311423988462122e-02
4.997620643206792529e-02
5.759279268729124851e-02
6.422076380964075737e-02
6.970777210344707153e-02
7.393313235860858590e-02
7.678997172998359988e-02
7.822480368938680706e-02
7.820007817703311659e-02
7.671661943135005268e-02
7.381695836433736779e-02
6.955676289301700177e-02
6.404090186000424567e-02
5.738881392839306067e-02
4.974424907873795099e-02
4.127795011110178131e-02
3.216599997447740222e-02
2.260244760385123411e-02
1.278645489979247409e-02
2.916781256320302024e-03
-6.808270946129799453e-03
-1.619417696899105169e-02
-2.506398235233440325e-02
-3.324655556072514395e-02
-4.059165166974763872e-02
-4.697322963855669886e-02
-5.227503314481554697e-02
-5.642126506735826302e-02
-5.934916776089697171e-02
-6.102521171037288833e-02
-6.145046917914063350e-02
-6.063661782347689461e-02
-5.863765056553343208e-02
-5.552124103529067906e-02
-5.137809798180696663e-02
-4.632678914272197329e-02
-4.049230506792864809e-02
-3.402361011066968449e-02
-2.707738818044284207e-02
-1.981661380162318131e-02
-1.241203223074463340e-02
-5.033685236880691694e-03
2.154509063053031311e-03
8.990983729472821692e-03
1.532798734661675391e-02
2.103521167474683984e-02
2.598991035495194779e-02
3.010349249662124665e-02
3.329932378814742105e-02
3.552701919644225825e-02
3.677004928081826357e-02
3.702186563778381290e-02
3.631798225545142256e-02
3.470869129595112457e-02
3.226684411669437230e-02
2.909501502144162116e-02
2.530219562091976307e-02
2.102181554685205248e-02
1.639590209330520770e-02
1.157231305951210258e-02
6.706748587699816119e-03
1.954308408820909504e-03
-2.536497364467704685e-03
-6.619781740881630280e-03
-1.016241117936957615e-02
-1.304880172944098034e-02
-1.516994003145656460e-02
-1.644781965085347769e-02
-1.681615948392578552e-02
-1.623063630153383924e-02
-1.467778770187396463e-02
-1.215255678996791412e-02
-8.686460841913582268e-03
-4.325014417668353317e-03
8.664052349652111296e-04
6.793904877070950504e-03
1.335710899496833637e-02
2.042930909809913959e-02
2.787358596685295814e-02
3.554315777546386557e-02
4.327678466122235335e-02
5.091141767048962263e-02
5.827987203220608148e-02
6.521345830611442740e-02
7.154936818605003856e-02
7.713362746045594742e-02
8.181671209502459907e-02
8.547324085270464888e-02
8.798782098743185287e-02
8.926605134186313406e-02
8.924569931122976196e-02
8.787385921082996321e-02
8.514152586658532695e-02
8.105804176783307224e-02
7.565911584133071244e-02
6.902172121865501886e-02
6.123243515391504216e-02
5.241878689482015741e-02
4.272567371003145598e-02
3.231489920398157578e-02
2.137527454533415250e-02
1.010002223846443760e-02
-1.303756772555118501e-03
-1.262305527187770372e-02
-2.364685307091755895e-02
-3.416742245606696482e-02
-4.398012722570824456e-02
-5.290037104806551843e-02
-6.075257848786908693e-02
-6.737996211831773219e-02
-7.265714232461871480e-02
-7.646766072645810874e-02
-7.873880740467031902e-02
-7.941780110548447846e-02
-7.847895498608435660e-02
-7.594282062621234008e-02
-7.184096652112034742e-02
-6.625406985179234376e-02
-5.928558112848977130e-02
-5.106241877407912549e-02
-4.175238178736251360e-02
-3.153138541124762134e-02
-2.060638840909200659e-02
-9.198984790148021992e-03
2.461468743627988690e-03
1.413186964061029574e-02
2.556837603370758910e-02
3.653264810703970439e-02
4.678912446147524828e-02
5.611606045171079610e-02
6.431696980166691502e-02
7.120343309349233540e-02
7.663111803118444199e-02
8.047759642096853627e-02
8.265016577459127767e-02
8.311148000762492993e-02
8.183740009626749856e-02
7.886392302510047969e-02
7.425746449206266364e-02
6.811298361016028535e-02
6.057963803523946922e-02
5.181742297068476361e-02
4.202724953557727960e-02
3.143111457510334994e-02
2.026230546077974204e-02
8.775875163090153183e-03
-2.770616960418902444e-03
-1.411977477439970048e-02
-2.501436907164224926e-02
-3.520817411428655425e-02
-4.447699281210975436e-02
-5.260363719303066260e-02
-5.941106273459045156e-02
-6.474394914973326254e-02
-6.847371897694710940e-02
-7.052613957629343122e-02
-7.083984341338553370e-02
-6.941194207735730537e-02
-6.627181197856116257e-02
-6.147689248296978742e-02
-5.514271917118896554e-02
-4.739687964479043225e-02
-3.841290969770050356e-02
-2.839020964396930108e-02
-1.754283622209769355e-02
-6.115644853085409546e-03
5.641704244153516838e-03
1.747131621971587806e-02
2.911060756831181096e-02
4.030396641140923664e-02
5.081118998176066548e-02
6.039755647345286527e-02
6.886356680203670200e-02
7.603049271554611355e-02
8.174384670493882454e-02
8.590293545800094244e-02
8.841980195547118060e-02
8.926355595628139572e-02
8.843763485328161311e-02
8.597192368878331381e-02
8.195595634785492190e-02
7.649175368757693549e-02
6.972638127802796570e-02
6.183456669210770501e-02
5.300492179086346151e-02
4.345773815760133746e-02
3.341869896896103309e-02
2.312295230220501666e-02
1.281156152204611376e-02
2.720963785481874710e-03
-6.923745964926427202e-03
-1.590151857604086422e-02
-2.401865370809673494e-02
-3.109901966248946464e-02
-3.698491165524118995e-02
-4.156326654081332617e-02
-4.473172860466703704e-02
-4.643494245477314958e-02
-4.664837518473131939e-02
-4.536975476643015370e-02
-4.265154019685314657e-02
-3.855826619963059060e-02
-3.319837004854652579e-02
-2.670969487885151844e-02
-1.924553032581922951e-02
-1.099760713966815330e-02
-2.165223788016633691e-03
7.033988868978246697e-03
1.636986495200387984e-02
2.561203461394873093e-02
3.453023143863494931e-02
4.289566979800617935e-02
5.049857794670296884e-02
5.714249545363613014e-02
6.264664182035534212e-02
6.687188301214223862e-02
6.968959228170421016e-02
7.101857226841976067e-02
7.081152461953887922e-02
6.904422090109936516e-02
6.575425859033678933e-02
6.099340008393887291e-02
5.486258579740262153e-02
4.749865961414840437e-02
3.905536721548222984e-02
2.973204446512860144e-02
1.973753635358618808e-02
9.301919080892081734e-03
-1.328899967872094676e-03
-1.190806430183999516e-02
-2.218706165567118499e-02
-3.191831805961270474e-02
-4.087248399201147409e-02
-4.883410561314181775e-02
-5.560242943739791138e-02
-6.101936570922831399e-02
-6.493779779425074006e-02
-6.725750069334965331e-02
-6.791476559070457053e-02
-6.686810609648041748e-02
-6.414077072367870003e-02
-5.977150954641415742e-02
-5.384978337915575369e-02
-4.650539530883324862e-02
-3.788585520144419766e-02
-2.819042376198568206e-02
-1.763002170848778499e-02
-6.441554173711653078e-03
5.116956515618545018e-03
1.678439327757617894e-02
2.829170451473309034e-02
3.936913775251794922e-02
4.976174537814233995e-02
5.922687521280613210e-02
6.753556009371382285e-02
7.450241287155712211e-02
7.995374901697820114e-02
8.376457360486799786e-02
8.585119690979724216e-02
8.615255625363811565e-02
8.467909176124994997e-02
8.145917730037033344e-02
7.657448098349337040e-02
7.015285862448739085e-02
6.233981464657515487e-02
5.333625200225323298e-02
4.335633570265563785e-02
3.263979109684966851e-02
2.144897382427379123e-02
1.004904813052615205e-02
-1.287684388503915547e-03
-1.228811600552652712e-02
-2.269390510253858212e-02
-3.226006638678679400e-02
-4.075401438132457421e-02
-4.798617311923754347e-02
-5.377891527079011608e-02
-5.799969426582477633e-02
-6.055761994944707655e-02
-6.138204777150044894e-02
-6.047141766759028120e-02
-5.784256269962282510e-02
-5.356275374175838849e-02
-4.774687419216418205e-02
-4.052685849284401454e-02
-3.209220508672961519e-02
-2.264734829986444348e-02
-1.242479202644834919e-02
-1.684109261988999545e-03
9.310777850717337836e-03
2.028333359140698650e-02
3.095449228131500613e-02
4.105709876782423495e-02
5.033573176200668853e-02
5.854661911814112996e-02
6.549038055599389063e-02
7.098071359127294810e-02
7.487864582765188515e-02
7.709283904734709481e-02
7.755290751606855326e-02
7.626539152981906544e-02
7.325862884144679343e-02
6.861380320407559075e-02
6.246643154133016407e-02
5.496869783943316573e-02
4.633209007732152357e-02
3.678454079716862030e-02
2.657786411827491035e-02
1.598895765859825388e-02
5.296687393906817330e-03
-5.216743373721154098e-03
-1.526896560994045991e-02
-2.459668342686523873e-02
-3.295706651469067217e-02
-4.012039940630532375e-02
-4.591013705706357279e-02
-5.016607582532870563e-02
-5.277579830998315596e-02
-5.367926882269345029e-02
-5.283570584863601233e-02
-5.027895909718808204e-02
-4.606549408513496702e-02
-4.029813378464398854e-02
-3.313161380455180438e-02
-2.473467067655597817e-02
-1.532796628073131683e-02
-5.147759886514009786e-03
5.550839278850822761e-03
1.649115786719796209e-02
2.739541792500332223e-02
3.798620230134578529e-02
4.798682996426134606e-02
5.714014337129894039e-02
6.521180450886741864e-02
7.197997864206322205e-02
7.727715640169685596e-02
8.095370156302446329e-02
8.290660167800630032e-02
8.308851515317117187e-02
8.147064770688144941e-02
7.810011737208029381e-02
7.304888722391610079e-02
6.643355994443213286e-02
5.842519064800245215e-02
4.920795920709276905e-02
3.901605348619497510e-02
2.809996383569633716e-02
1.672522745128185787e-02
5.176129177314926430e-03
-6.263183327145203580e-03
-1.731542068143925722e-02
-2.770613036112946209e-02
-3.718340717668378037e-02
-4.552406004411758272e-02
-5.251749660050036850e-02
-5.801058967038844744e-02
-6.187048806882804869e-02
-6.400845327677574803e-02
-6.439313243025475419e-02
-6.301007193957906816e-02
-5.991645621933574389e-02
-5.519487304581027071e-02
-4.896715280352283151e-02
-4.140727592224809767e-02
-3.270083175702928613e-02
-2.307842719417972643e-02
-1.278669241618054196e-02
-2.084775135280986583e-03
8.751192653319368742e-03
1.944525921323284057e-02
2.972951364383187578e-02
3.933940095547285715e-02
4.803205333781855602e-02
5.559470671232211170e-02
6.182655060239920786e-02
6.658437845573779434e-02
6.974698548425545264e-02
7.123577662317148729e-02
7.103256265168716999e-02
6.913560486756242796e-02
6.561512611778969051e-02
6.056908051378453312e-02
5.413219712152197299e-02
4.649245288488697281e-02
3.784853036829086831e-02
2.843976176422885471e-02
1.852124119546654304e-02
8.355833545673777008e-03
-1.782130370963877497e-03
-1.161990550547483715e-02
-2.090079391871128150e-02
-2.937483910358234390e-02
-3.681636078363398346e-02
-4.303641785316240226e-02
-4.785818481207924913e-02
-5.116415869327055332e-02
-5.286137172541662682e-02
-5.289591468969425531e-02
-5.127422966793284548e-02
-4.801769130716122130e-02
-4.321322886825593179e-02
-3.697527429044537850e-02
-2.944938353656322699e-02
-2.083021699135009092e-02
-1.132187706747956289e-02
-1.163648160600140591e-03
9.390257669142882541e-03
2.007951711118814014e-02
3.063400903558802235e-02
4.078493047122214860e-02
5.027912813689619509e-02
5.887051479974023810e-02
6.633540954363932596e-02
7.248712502530434143e-02
7.715052482403123024e-02
8.020921742401564136e-02
8.157325297573028711e-02
8.119083308206276328e-02
7.907443589202463319e-02
7.525186964269094114e-02
6.981905224913233232e-02
6.290305636496239250e-02
5.466182521164076463e-02
4.530637363638175680e-02
3.505751514596072010e-02
2.417076720877982948e-02
1.291773967758797284e-02
1.574189390778645697e-03
-9.576955348647215108e-03
-2.025463049736772603e-02
-3.019819888000496028e-02
-3.915693797731412129e-02
-4.690395907813380699e-02
-5.325531337919992697e-02
-5.803914940086340318e-02
-6.114492060592863903e-02
-6.249210445420901733e-02
-6.203677297448986078e-02
-5.980221964116822636e-02
-5.582698584439366868e-02
-5.021591650520460665e-02
-4.310693176701864415e-02
-3.466626674970651328e-02
-2.511318567712201438e-02
-1.467668913565082882e-02
-3.618600723224967355e-03
7.782610072854931858e-03
1.924498211682248300e-02
3.048006030923018639e-02
4.120107231474778864e-02
5.114248643630588120e-02
6.004995253211547340e-02
6.769280280703131314e-02
7.388696372479312824e-02
7.846097490000884800e-02
8.130777139344726179e-02
8.235464854320019568e-02
8.156573457439623975e-02
7.897894181150991177e-02
7.464844098946742112e-02
6.869663566365644125e-02
6.128304803207350326e-02
5.259361814385518641e-02
4.286812759174100235e-02
3.235590193215565763e-02
2.133369026995254880e-02
1.009342187608700675e-02
-1.073571295501665399e-03
-1.187756038535004062e-02
-2.203204104135327718e-02
-3.128008904070665730e-02
-3.938166508209398758e-02
-4.612243075731588954e-02
-5.134322008659947950e-02
-5.489869689214036536e-02
-5.671028864294500732e-02
-5.673823431274557100e-02
-5.497718507099259161e-02
-5.149689588456876632e-02
-4.638326727915641212e-02
-3.978521218946120402e-02
-3.188902705979557856e-02
-2.290293468492784340e-02
-1.308370142779667102e-02
-2.696611231084031918e-03
7.973443291948817749e-03
1.862972457365570655e-02
2.897976433429492321e-02
3.874136849228555085e-02
4.763719623652316881e-02
5.542726951312599432e-02
6.189481257680885806e-02
6.685093340972930731e-02
7.017204283419367639e-02
7.175032228759155306e-02
7.154924980560005421e-02
6.957747192953545046e-02
6.587661527625082725e-02
6.056661669140881582e-02
5.378393450369305800e-02
4.572178497742088871e-02
3.661009683002714593e-02
2.669438543505307099e-02
1.625735785441899048e-02
5.587758614821498361e-03
-5.021335786744548016e-03
-1.527401400809233652e-02
-2.488510370490062268e-02
-3.359686676763212060e-02
-4.115971651795567038e-02
-4.737175385565173952e-02
-5.206332164892370912e-02
-5.509308920520395586e-02
-5.639188634353894253e-02
-5.590742455496001267e-02
-5.365487241876513297e-02
-4.969597329823448317e-02
-4.411996634891250657e-02
-3.708690693399241400e-02
-2.877191677343976517e-02
-1.939480354466414924e-02
-9.206886292566987193e-03
1.530659705322210545e-03
1.253156329488826562e-02
2.350568636979029000e-02
3.416796402134036903e-02
4.423700197392813754e-02
5.344446081517911784e-02
6.155825216087169871e-02
6.835621718817438963e-02
7.366725243850635874e-02
7.735786069594555170e-02
7.932183627900879497e-02
7.952856773317311390e-02
7.796531257223703049e-02
7.468341672159430067e-02
6.978244563724118887e-02
6.338543243280310435e-02
5.568073382475728639e-02
4.687092378658280073e-02
3.719310721453323448e-02
2.691092803462414446e-02
1.629281365786825614e-02
5.619507891519824258e-03
-4.826911625940965428e-03
-1.477928109866880925e-02
-2.398215481860015846e-02
-3.219499552175847379e-02
-3.922213251416194896e-02
-4.487967641676727376e-02
-4.903452832762829339e-02
-5.159434536369342933e-02
-5.249052941415162377e-02
-5.172564800393299883e-02
-4.931951446025718833e-02
-4.534584105869397114e-02
-3.992252399100512661e-02
-3.318562832188585998e-02
-2.532563463830865558e-02
-1.654551355224497672e-02
-7.074420823108705861e-03
2.836559152405970438e-03
1.293329363797149530e-02
2.295381002549476412e-02
3.263533835959699786e-02
4.172957688907518586e-02
5.000060411772438984e-02
5.722545001416994709e-02
6.322365702341820048e-02
6.782629609140888860e-02
7.091076754140133998e-02
7.239496868630354576e-02
7.221793716992946921e-02
7.038734213981603927e-02
6.692838159107022955e-02
6.191639484345175248e-02
5.547149661263386239e-02
4.773016646922650236e-02
3.888148404284636622e-02
2.912742124526563475e-02
1.869357681534679697e-02
7.827103392930648273e-03
-3.222340729504832163e-03
-1.419884374268668738e-02
-2.484575208452555889e-02
-3.492028089643798433e-02
-4.419257055389946148e-02
-5.244383801189796135e-02
-5.949482283005825406e-02
-6.517736267255593019e-02
-6.936281459962272133e-02
-7.196016139665063760e-02
-7.289545005932554500e-02
-7.215431304896381681e-02
-6.973854866883255621e-02
-6.569184259248637969e-02
-6.009862135068615857e-02
-5.305738639830086950e-02
-4.471523848758503228e-02
-3.523228907249113112e-02
-2.479359613573882404e-02
-1.360900493332183221e-02
-1.893647193367663933e-03
1.012037766225300402e-02
2.219678986126466524e-02
3.410125802670341960e-02
4.560142851156229887e-02
5.647048008051436252e-02
6.650401897782061422e-02
7.550456114813788866e-02
8.330252060582973850e-02
8.975724053796615975e-02
9.474159977564916568e-02
9.817996101073953041e-02
1.000118145355419069e-01
1.002161027222169126e-01
9.881356107108960063e-02
9.583935685748640187e-02
9.138240110371553815e-02
8.554726562314705907e-02
7.846855496601415347e-02
7.031337522605503321e-02
6.125654462402404382e-02
5.149988772529395104e-02
4.125288384042280487e-02
3.072975492981497997e-02
2.014996606698626208e-02
9.730310552617110753e-03
-3.257955270070198722e-04
-9.819452881903152283e-03
-1.857254749724188830e-02
-2.643044164951301178e-02
-3.324897310433557601e-02
-3.892691704407693493e-02
-4.337662786264680215e-02
-4.654324948580246257e-02
-4.840976030561475879e-02
-4.897140483240485648e-02
-4.827196655665783043e-02
-4.637057299233908469e-02
-4.335388233887241261e-02
-3.934100527104029271e-02
-3.445877571034952624e-02
-2.886269873996564345e-02
-2.271726584310995029e-02
-1.619449898706500773e-02
-9.475487370602693818e-03
-2.740408323846007035e-03
3.837841747750944318e-03
1.008910623458317800e-02
1.585915238133450006e-02
2.101334134310581248e-02
2.542555548343771593e-02
2.900730579086325395e-02
3.168295577337094937e-02
3.340539649109685455e-02
3.416337830268725839e-02
3.395627194667469317e-02
3.282742475467955584e-02
3.083523187675923927e-02
2.806105163370169187e-02
2.461572929327219064e-02
2.061621717591991670e-02
1.620200784032828356e-02
1.152026698815747721e-02
6.721785295665990909e-03
1.962103881943842373e-03
-2.604911243159041198e-03
-6.836466462691532034e-03
-1.059396122963485003e-02
-1.375461683689314756e-02
-1.621686920732798992e-02
-1.788694475777332510e-02
-1.870689836981494908e-02
-1.863200069348100452e-02
-1.764279030850830071e-02
-1.575441395756869978e-02
-1.299146523672508290e-02
-9.419007251783401494e-03
-5.117165292482754937e-03
-1.864599985064024912e-04
5.244054336934545098e-03
1.103971267515976157e-02
1.704504229579735866e-02
2.309682320934773603e-02
2.902942521284009036e-02
3.467378669192727747e-02
3.986293825407033475e-02
4.444435793870648438e-02
4.827136110572510103e-02
5.121607436723275147e-02
5.317812037124878405e-02
5.406638001384250769e-02
5.383423196902822894e-02
5.245285466160844873e-02
4.992308045321180998e-02
4.629000732746899743e-02
4.160970090936682436e-02
3.598561694433555919e-02
2.954038474538076692e-02
2.241746293930814427e-02
1.479205621948649803e-02
6.844683904626003290e-03
-1.226675703020041475e-03
-9.216986147457193954e-03
-1.692342531262052557e-02
-2.414666040125461322e-02
-3.069127781011920381e-02
-3.638642567402690375e-02
-4.107182981514759940e-02
-4.461077686052926372e-02
-4.690410095050522032e-02
-4.786341306611673063e-02
-4.745202772216070702e-02
-4.565570761022890584e-02
-4.249070387244076319e-02
-3.802287195893352956e-02
-3.232932193920370900e-02
-2.553499062702376671e-02
-1.778590633652245984e-02
-9.247191912296249053e-03
-1.156692973510141387e-04
9.406753947580549086e-03
1.910289703488515789e-02
2.874881235682326397e-02
3.812375513023968238e-02
4.701249423334304817e-02
5.520382057454184532e-02
6.251279419974660467e-02
6.876673315604933667e-02
7.381637618868604200e-02
7.755317708350524530e-02
7.987952584148939883e-02
8.075083344530541163e-02
8.014757618662288197e-02
7.807974007467373412e-02
7.460965131873092959e-02
6.981098085456501068e-02
6.380462318119874132e-02
5.673419360793108962e-02
4.876077569704985459e-02
4.007702892510223158e-02
3.088062837497202590e-02
2.138282279840459515e-02
1.180145643067395146e-02
2.351004098907394715e-03
-6.760421114995385575e-03
-1.532835154465011888e-02
-2.317307665930821298e-02
-3.012743048986428474e-02
-3.604457999921067968e-02
-4.081626143869931250e-02
-4.434402466372297513e-02
-4.657669891740444379e-02
-4.748747137236180443e-02
-4.707482373038564261e-02
-4.538615134580140098e-02
-4.247940524553599911e-02
-3.845606296729451451e-02
-3.344046561606166257e-02
-2.757346746610881555e-02
-2.102844048147638895e-02
-1.398435911014746409e-02
-6.636114648850199513e-03
8.129084604047102230e-04
8.160864656445800808e-03
1.520920878074081412e-02
2.176222521048674918e-02
2.764692841668573570e-02
3.270287444956790357e-02
3.678923931644865336e-02
3.980585140550458451e-02
4.166276594020654894e-02
4.231954148849365743e-02
4.176353567702527358e-02
4.000744808530855984e-02
3.711739805669563019e-02
3.317076713547116584e-02
2.828850243426678929e-02
2.261650757103008530e-02
1.631481437654329000e-02
9.573655215828045031e-03
2.588124301412325461e-03
-4.437742673551467801e-03
-1.129471476142278850e-02
-1.777911701947761103e-02
-2.369982823002374922e-02
-2.887028077536927390e-02
-3.313382239993376693e-02
-3.635174586522557649e-02
-3.840573029599595595e-02
-3.922349319575106630e-02
-3.874360849502067605e-02
-3.695272927310410543e-02
-3.386693314932520682e-02
-2.952430521070013858e-02
-2.401341346885147582e-02
-1.743345086922754722e-02
-9.921613285915656735e-03
-1.638843696410088521e-03
7.242048334146959296e-03
1.652071665588443136e-02
2.599203944586873233e-02
3.544239796378202689e-02
4.465276804236298358e-02
5.340838719234678594e-02
6.150514589537506294e-02
6.874281311839208763e-02
7.494800322336259146e-02
7.996487527637849424e-02
8.365621561677563656e-02
8.593076157093866574e-02
8.670835205395051315e-02
8.595760375201551284e-02
8.367967630009140456e-02
7.989839776828573659e-02
7.469426331159031984e-02
6.816017950929426084e-02
6.043220739513743833e-02
5.167581340856542554e-02
4.207024961962255172e-02
3.182950947872714015e-02
2.117418736814671854e-02
1.033731176589276074e-02
-4.394429981335306462e-04
-1.091733099139612952e-02
-2.086595578945649870e-02
-3.005822956439924837e-02
-3.829261215014630876e-02
-4.538575187944122319e-02
-5.117181325374961509e-02
-5.553214142100829781e-02
-5.835969436574817842e-02
-5.959631728223143549e-02
-5.921940001827871031e-02
-5.722881785384179715e-02
-5.368561663557241265e-02
-4.866487087290211067e-02
-4.228872912556573549e-02
-3.471430326017324597e-02
-2.611460985763068565e-02
-1.670621917318260846e-02
-6.714844642337876660e-03
3.614404755615393053e-03
1.402170684321117980e-02
2.424738748177918818e-02
3.403329381424611416e-02
4.312305768473490702e-02
5.128306089579658111e-02
5.829732980614215493e-02
6.396726323729517993e-02
6.814550907400343527e-02
7.069788784658381786e-02
7.154492417897791168e-02
7.065047853481352946e-02
6.800345220093903520e-02
6.366679249080471614e-02
5.772116566743906718e-02
5.030204561656947959e-02
4.158926096183192950e-02
3.178011338589245560e-02
2.112342040874458371e-02
9.879423560432769660e-03
-1.671476214127677259e-03
-1.323221214025441413e-02
-2.450678207386511320e-02
-3.520428304876788150e-02
-4.503644391187775625e-02
-5.374255345624492225e-02
-6.108518194116046435e-02
-6.684573099593293932e-02
-7.086601712202726666e-02
-7.300378686346867263e-02
-7.317652005477071064e-02
-7.135324447904160816e-02
-6.752893131153200890e-02
-6.178149257855421878e-02
-5.420970412491928764e-02
-4.497063575994395684e-02
-3.427274947017185797e-02
-2.234249356406262099e-02
-9.463177664686102733e-03
4.068354937525803239e-03
1.793444117317157666e-02
3.179866698959651905e-02
4.532604125112010829e-02
5.818908844315243828e-02
7.006361894264302725e-02
8.065725386390223961e-02
8.970688353711152307e-02
9.696990548222535200e-02
1.022751713870621443e-01
1.054711776292128339e-01
1.064726783434327417e-01
1.052567074439289263e-01
1.018272719491627315e-01
9.628099046448571063e-02
8.873905810753504597e-02
7.938150213425988755e-02
6.844484327144553792e-02
5.618196404680789180e-02
4.290016879588937765e-02
2.892056949748034178e-02
1.457898796712298224e-02
2.256759305053028519e-04
-1.379255826784264900e-02
-2.714494516165082832e-02
-3.950620242409828842e-02
-5.058606399490873234e-02
-6.012935491206537059e-02
-6.790053722754341159e-02
-7.373756945274477503e-02
-7.749963479469706984e-02
-7.910779246619076277e-02
-7.854644791799647585e-02
-7.582396769307633844e-02
-7.103645435152233789e-02
-6.430493802282860605e-02
-5.580325719471581486e-02
-4.576048015446186612e-02
-3.442024756509622085e-02
-2.207724841555683271e-02
-9.040285392139047263e-03
4.368559923777112254e-03
1.781301851152140847e-02
3.095976536495378961e-02
4.349136807181652742e-02
5.509596902312147160e-02
6.549514378225909650e-02
7.444696015863394578e-02
8.172779441970751124e-02
8.718774216525433662e-02
9.069962035183760929e-02
9.219528355589222401e-02
9.167241706681636404e-02
8.915066184144622430e-02
8.473457885806960632e-02
7.855465102490295781e-02
7.078760791701139976e-02
6.166286038430111860e-02
5.142148716438623562e-02
4.034598411806475382e-02
2.873120423950622365e-02
1.687776985282998105e-02
5.093015898030604088e-03
-6.320296461887012565e-03
-1.708328584282688828e-02
-2.692531218309875130e-02
-3.560953357880342063e-02
-4.293929336313249967e-02
-4.873438589403805005e-02
-5.288435100297837060e-02
-5.530173644917401460e-02
-5.594932743387726753e-02
-5.485092992490248759e-02
-5.204829788716180961e-02
-4.765549234142023305e-02
-4.181046498888526392e-02
-3.468782126115148995e-02
-2.650764834534393571e-02
-1.749920883548759104e-02
-7.924700927723583518e-03
1.942943340537245031e-03
1.182811909037326421e-02
2.145183888694167026e-02
3.053971004989206040e-02
3.884297113607767388e-02
4.612221155142876006e-02
5.217095749552933676e-02
5.682540363165054093e-02
5.993752592814541313e-02
6.142996192429563823e-02
6.125053818750703094e-02
5.939542955583277523e-02
5.592479313571143557e-02
5.091573967091336111e-02
4.451567052175383482e-02
3.689717258605901273e-02
2.826427264634042563e-02
1.886349524248825613e-02
8.948351067956824417e-03
-1.204859204016951735e-03
-1.131183096993544808e-02
-2.109336626440606877e-02
-3.027733988193607312e-02
-3.859845969205227129e-02
-4.582861425014570639e-02
-5.175400940510435643e-02
-5.619660045919324526e-02
-5.902881370374444409e-02
-6.013861980004624880e-02
-5.948482067873573503e-02
-5.705352850539709836e-02
-5.287362628165575423e-02
-4.703567305069266541e-02
-3.964495246561633435e-02
-3.086817331695605737e-02
-2.089601622912536094e-02
-9.944731047911955710e-03
1.731780823918187620e-03
1.387358717851559092e-02
2.620166262927221129e-02
3.842958803423281167e-02
5.027540926805650762e-02
6.146393048349969163e-02
7.172569495843818255e-02
8.082500675630624465e-02
8.854024147713847326e-02
9.468188486676269722e-02
9.910984859052834883e-02
1.016985412576639769e-01
1.023911169849761327e-01
1.011595796650326673e-01
9.801694180551545621e-02
9.304067223881705428e-02
8.632308175369747538e-02
7.801945424996929723e-02
6.831189271718417222e-02
5.740812101890162278e-02
4.555696570711998544e-02
3.301393280504828082e-02
2.005536683042343643e-02
6.966520108425114724e-03
-5.970498782274831148e-03
-1.847881194109965430e-02
-3.028622011741217979e-02
-4.115082465586173549e-02
-5.084441027775434691e-02
-5.916621690531435190e-02
-6.596157836880107983e-02
-7.108843892333115144e-02
-7.446551847440212313e-02
-7.603930760930122101e-02
-7.579125672023771798e-02
-7.376272055584466580e-02
-7.000860245099264911e-02
-6.464198977710400307e-02
-5.780303513010254940e-02
-4.965672787348879985e-02
-4.041148267525113830e-02
-3.028357452362725327e-02
-1.951627980301124526e-02
-8.365614749186735602e-03
2.909974751702468568e-03
1.404780799206285270e-02
2.478717347149987649e-02
3.488673997684395289e-02
4.411472832996126553e-02
5.226106066657683347e-02
5.915544645440848348e-02
6.463873281145800231e-02
6.860843701065712230e-02
7.099031161155931746e-02
7.174388402320952540e-02
7.089181069808210556e-02
6.847098261480809300e-02
6.457990393585176514e-02
5.934834868222373105e-02
5.293162845455097465e-02
4.553369771171394270e-02
3.736718996356255124e-02
2.867226818535907606e-02
1.970329043565050009e-02
1.071528955204034163e-02
1.964393663757663458e-03
-6.296002542196340104e-03
-1.383813421175414914e-02
-2.044792325158117235e-02
-2.593558681861531101e-02
-3.015995985816868896e-02
-3.299240829155870858e-02
-3.436604076399981528e-02
-3.424746798490631294e-02
-3.263625153752715974e-02
-2.959907497556314021e-02
-2.521698540223495794e-02
-1.962879186911079682e-02
-1.300526464230425915e-02
-5.537266266842210544e-03
2.542758197897104083e-03
1.099559682612747703e-02
1.956734290795446307e-02
2.799584402224335189e-02
3.602554459375340717e-02
4.341529165389747258e-02
4.992976833087995475e-02
5.537338231167743957e-02
5.957357415884902141e-02
6.238615027588131218e-02
6.372879110160571681e-02
6.353381123379529816e-02
6.179932510378783467e-02
5.856234526677671359e-02
5.388950422493651859e-02
4.791306664362639939e-02
4.077856036221449293e-02
3.267690369401749645e-02
2.382639541521495985e-02
1.445603113950076624e-02
4.818609670046779085e-03
-4.830132362171111679e-03
-1.423889771073091372e-02
-2.315917031646667901e-02
-3.135576313062616444e-02
-3.862485308889683500e-02
-4.477126601973015901e-02
-4.964621380831273773e-02
-5.313018320126033228e-02
-5.512964431174054852e-02
-5.561273180707566183e-02
-5.456152014960489322e-02
-5.201382937570697002e-02
-4.804340049233633142e-02
-4.274616323512546445e-02
-3.627143960482013402e-02
-2.877939748718390256e-02
-2.046287301073643899e-02
-1.153619564994487305e-02
-2.219924081530464527e-03
7.250571299600370480e-03
1.663828780889389444e-02
2.571452383275984327e-02
3.425618236814226975e-02
4.205269600985483275e-02
4.892569035836046715e-02
5.470534090742297517e-02
5.926497455268604081e-02
6.250759315850361320e-02
6.435909142398339722e-02
6.480454364739314521e-02
6.384259599784626593e-02
6.152247587337710683e-02
5.792893730065110797e-02
5.316542640228538730e-02
4.738415675163198254e-02
4.074745596514363355e-02
3.344345959492965592e-02
2.567881561333412027e-02
1.766316764037181505e-02
9.613366594518736249e-03
1.746520426273594218e-03
-5.733975446066014517e-03
-1.263478878950856539e-02
-1.877546880312037231e-02
-2.401158990507035879e-02
-2.820793511730958908e-02
-3.127004566721307971e-02
-3.313400132102595208e-02
-3.375513486033974997e-02
-3.314277890509041008e-02
-3.131886372650325573e-02
-2.834693772663819666e-02
-2.432240388386699287e-02
-1.935468097180085417e-02
-1.359263997313738155e-02
-7.193657648638706117e-03
-3.330554971143068199e-04
6.799815147557551100e-03
1.401484179196377591e-02
2.112072607185686013e-02
2.792694398258126209e-02
3.425880752189690986e-02
3.995428381262285111e-02
4.486351860153766496e-02
4.887372131248175766e-02
5.188168391095442783e-02
5.382250401995337247e-02
5.466254754522174159e-02
5.438496382700932358e-02
5.302385677079166082e-02
5.062562103313329037e-02
4.727193695271530993e-02
4.307390976981884112e-02
3.815284181557028476e-02
3.266061928440171236e-02
2.675589832534251700e-02
2.060592566462464414e-02
1.438526590901196764e-02
8.265824563660003829e-03
2.409756428527325481e-03
-3.024008454047034250e-03
-7.897804104024344282e-03
-1.209247263438284654e-02
-1.550092028128458206e-02
-1.805558229389655350e-02
-1.969921458005934739e-02
-2.040826106070750545e-02
-2.018912030470959573e-02
-1.906094819537181712e-02
-1.708435226160187614e-02
-1.433034809007548670e-02
-1.089414920814425584e-02
-6.892950003732087674e-03
-2.449634159799700395e-03
2.295179426515166557e-03
7.196817283855102068e-03
1.210988518007727506e-02
1.688832008103363647e-02
2.139013601428388367e-02
2.548859219026169270e-02
2.906148571128914365e-02
3.200748967603074535e-02
3.424506816104933016e-02
3.570300484743641617e-02
3.634641371776364122e-02
3.615034563905063919e-02
3.511786920760717051e-02
3.327918775482537755e-02
3.067433417912457383e-02
2.737736256079833369e-02
2.347139186076958178e-02
1.905682183942149915e-02
1.425114958349871924e-02
9.175074023150802532e-03
3.959184825075838521e-03
-1.263615710584942500e-03
-6.364178152255201351e-03
-1.121714620933017027e-02
-1.570188112320057561e-02
-1.971639414047155620e-02
-2.316429438312996025e-02
-2.596917209043483193e-02
-2.807524882742043482e-02
-2.943554422715941032e-02
-3.003605200467517750e-02
-2.987231940704845184e-02
-2.896260712295357226e-02
-2.734913453201957140e-02
-2.508149292768970667e-02
-2.223608749001767387e-02
-1.889698028529702978e-02
-1.515989453112387940e-02
-1.113311937589353019e-02
-6.926506302175375676e-03
-2.654053257238249766e-03
1.569324561926278491e-03
5.634937840137604903e-03
9.440951200751586739e-03
1.289044968576516861e-02
1.590718031087079085e-02
1.842140743186811147e-02
2.038287103097377595e-02
2.176321416188409241e-02
2.254211664146773403e-02
2.273110853519489175e-02
2.235159487318223032e-02
2.144451733888519396e-02
2.007326373432580247e-02
1.830681898383926948e-02
1.623488137631028116e-02
1.395347039587695355e-02
1.156409726240899098e-02
9.174718478713072764e-03
6.892570656981938243e-03
4.819592101419772033e-03
3.055769655636865825e-03
1.689945403299187437e-03
7.975963498295501192e-04
4.484613913669898561e-04
6.875737608882624696e-04
1.551743610143631324e-03
3.059694630573383395e-03
5.207992848369938366e-03
7.986617766772459437e-03
1.135876880429286494e-02
1.527869766908913907e-02
1.968620490532629885e-02
2.450300488799923154e-02
2.964661191100931986e-02
3.501849810337383934e-02
4.051474938656160485e-02
4.602607653055546671e-02
5.143631894309830949e-02
5.662882132321823275e-02
6.148668027761514110e-02
6.589304496288901636e-02
6.973640821116787458e-02
7.291224654194607135e-02
7.531972306020129349e-02
7.687573588088619791e-02
7.750366603861368053e-02
7.714353509103895334e-02
7.575757861491762279e-02
7.331554963658964974e-02
6.982096584601689415e-02
6.528972157819919186e-02
5.976035455162156951e-02
5.330228206020488219e-02
4.599303919666358070e-02
3.794436521197555590e-02
2.928064208784603162e-02
2.014197664640653140e-02
1.069037901748015607e-02
1.091551754678628250e-03
-8.476505183356320208e-03
-1.783132155870745944e-02
-2.679321745523937509e-02
-3.518649890549465503e-02
-4.283948384325197284e-02
-4.960310254713025391e-02
-5.533726016907685591e-02
-5.992480572992963522e-02
-6.328197503977957272e-02
-6.533545043684423070e-02
-6.606079578060150559e-02
-6.545300410581972317e-02
-6.353737181009365409e-02
-6.038423151838306219e-02
-5.607457744167223396e-02
-5.073432517277921133e-02
-4.450745223263562894e-02
-3.755576357695664114e-02
-3.006811224151663409e-02
-2.223717783610838772e-02
-1.426590840421669733e-02
-6.361286029354715557e-03
1.276908072356208040e-03
8.460104774596655455e-03
1.500569263418776063e-02
2.076477551226776561e-02
2.560285012149829398e-02
2.941338538553473630e-02
3.213422519151960116e-02
3.371505366102101747e-02
3.416028994010879283e-02
3.349795560459080390e-02
3.178422987662995330e-02
2.912088925028278458e-02
2.561886930124593342e-02
2.142456971169240387e-02
1.669988465740092007e-02
1.161529570997938896e-02
6.355438950575572829e-03
1.105388111465207407e-03
-3.956335518185380082e-03
-8.654302601933025127e-03
-1.282743985765982635e-02
-1.633901854818724936e-02
-1.905997435343592672e-02
-2.090101148611906573e-02
-2.179118935507926708e-02
-2.168463404646587406e-02
-2.057881240571281939e-02
-1.848118307491609241e-02
-1.544283107538667842e-02
-1.153531461906854606e-02
-6.848943165613718617e-03
-1.507095628855117248e-03
4.360816466623889699e-03
1.060453023161200478e-02
1.706384736066511934e-02
2.357591806234625789e-02
2.997319170053626414e-02
3.608902638986975081e-02
4.176819533355251995e-02
4.686115384940898326e-02
5.123212798415758412e-02
5.477081958718695714e-02
5.737412160103271680e-02
5.897584956397958905e-02
5.952837465470781075e-02
5.900611540542990280e-02
5.742505969888215406e-02
5.481053992854935386e-02
5.122822100014894076e-02
4.676441653367553047e-02
4.152212546594333947e-02
3.563640134993797948e-02
2.924810477855412788e-02
2.251685765765878977e-02
1.561205023843957942e-02
8.704483297617924067e-03
1.967590358207765497e-03
-4.426412917915829512e-03
-1.031915241927434772e-02
-1.555971507484720483e-02
-2.001131138438797669e-02
-2.356567627448248603e-02
-2.612201093231203419e-02
-2.761686422848929484e-02
-2.800722960376908488e-02
-2.727058994207785803e-02
-2.542654134808262911e-02
-2.250391032930366270e-02
-1.856972884585215283e-02
-1.371236565554582142e-02
-8.035424294056627351e-03
-1.674376473490604353e-03
5.229303459653549847e-03
1.251513484886640319e-02
2.001181599559178487e-02
2.754552168325016120e-02
3.493721509425722072e-02
4.200817261447705592e-02
4.858977250262824094e-02
5.451932173847370833e-02
5.964576024922173259e-02
6.384372608018522299e-02
6.699466382330693248e-02
6.901487851852644573e-02
6.984147921304743878e-02
6.943116342660649032e-02
6.778456178850625347e-02
6.491219346991296268e-02
6.086547644410028601e-02
5.572074377446412097e-02
4.957120416417674230e-02
4.254853121194199922e-02
3.479207364441193329e-02
2.646563767053512067e-02
1.774823621053223804e-02
8.823613947628842699e-03
-1.137560751894757527e-04
-8.868427313397252501e-03
-1.725166137157981006e-02
-2.507900961980974452e-02
-3.217622831817772144e-02
-3.839378815137205192e-02
-4.358878209938164827e-02
-4.765260032030439741e-02
-5.049893957211450818e-02
-5.206063662998458574e-02
-5.231735234468785911e-02
-5.125952557527366227e-02
-4.892099386511085390e-02
-4.536441980426755144e-02
-4.067060413759826520e-02
-3.496536382008701843e-02
-2.838401043002109631e-02
-2.109183899354030028e-02
-1.327448230652936677e-02
-5.124716567827453106e-03
3.147008956551931164e-03
1.132759625747875067e-02
1.920657259709295309e-02
2.657529974753235907e-02
3.323439999048898030e-02
3.900919335602984900e-02
4.373191094720308564e-02
4.727211044691810582e-02
4.952580402884034644e-02
5.041017554724512573e-02
4.989892073104074816e-02
4.797908415083169259e-02
4.468890829007444304e-02
4.010369671940730574e-02
3.431893617590617979e-02
2.748445861871973150e-02
1.976184361466882394e-02
1.134481658374541894e-02
2.450871289683622875e-03
-6.696528526287532854e-03
-1.585835714279678482e-02
-2.479336723820420307e-02
-3.326842594802729286e-02
-4.105653878198566031e-02
-4.794205367647536714e-02
-5.374227119700366456e-02
-5.828326542142065608e-02
-6.143224859263702459e-02
-6.308819604814103199e-02
-6.317069217376582169e-02
-6.165899788316796942e-02
-5.854673435948667265e-02
-5.387648767194992000e-02
-4.772946521869676079e-02
-4.020500312479508703e-02
-3.145520416882825049e-02
-2.164421125003791052e-02
-1.096636490173058011e-02
3.596618199616912620e-04
1.210899602807442334e-02
2.403933419458701565e-02
3.590517544620223239e-02
4.746504083355611997e-02
5.848076453775226391e-02
6.872252701253338258e-02
7.798724827843743490e-02
8.607930324295277880e-02
9.283816852025927879e-02
9.813284550039823306e-02
1.018503230702253876e-01
1.039342850903385851e-01
1.043428121583993839e-01
1.030808763813761270e-01
1.001937427102332634e-01
9.574416250204222101e-02
8.984993884359895877e-02
8.264229886790924740e-02
7.428415417435940693e-02
6.496623011248141288e-02
5.488646486880834063e-02
4.426465562884052823e-02
3.332537719185253711e-02
2.229350144092701741e-02
1.139416641950910178e-02
8.470163244430079647e-04
-9.147970567247783527e-03
-1.839656457327965705e-02
-2.673134009041851916e-02
-3.400942888028420097e-02
-4.010141557222553915e-02
-4.492382721244997379e-02
-4.840550154658448956e-02
-5.051207281197676868e-02
-5.124361513373376642e-02
-5.061392147100760019e-02
-4.868329579366621057e-02
-4.552426340651487963e-02
-4.123723963658561947e-02
-3.594930703967272323e-02
-2.979522981934382142e-02
-2.293520777255662890e-02
-1.553590502645400308e-02
-7.771714002059103635e-03
1.754239557138319305e-04
8.124527440461930261e-03
1.589963830341429435e-02
2.332666196289789190e-02
3.024584930723064197e-02
3.651176610301566650e-02
4.198756287434689954e-02
4.656856358470663065e-02
5.015940312221329328e-02
5.269301360295634840e-02
5.413117330985905279e-02
5.444696562993388972e-02
5.365490219730767452e-02
5.178127328635954291e-02
4.887861292972632554e-02
4.502678532821621088e-02
4.031363176240462809e-02
3.485542125458826468e-02
2.877641046065768093e-02
2.221244669834673141e-02
1.531170825155166344e-02
8.223805339375216128e-03
1.101975192038626150e-03
-5.899788214978907500e-03
-1.263363643027017209e-02
-1.895840026734862960e-02
-2.473762815641367130e-02
-2.985439650246105026e-02
-3.419788549677512529e-02
-3.767590806286250094e-02
-4.021696525503981601e-02
-4.175766345055054174e-02
-4.226670653561291624e-02
-4.172274599919508636e-02
-4.012744581851570430e-02
-3.750857279180999648e-02
-3.390239857788811956e-02
-2.937841298422769892e-02
-2.401645249680577771e-02
-1.791566533139942602e-02
-1.119757786968481918e-02
-3.989274827568063675e-03
3.561491186784572147e-03
1.130059384371870715e-02
1.906812253349365882e-02
2.669731975185620637e-02
3.402216469294268991e-02
4.088220958088285839e-02
4.711911862379244281e-02
5.258791729894175815e-02
5.715979226178738437e-02
6.071359380690889707e-02
6.316193455926512323e-02
6.442884963721509650e-02
6.446643416067224241e-02
6.326145586124434783e-02
6.081194912695956495e-02
5.716308743056559144e-02
5.237599463079516821e-02
4.653970896824715514e-02
3.977850593094542364e-02
3.222511153725286792e-02
2.404508051362639481e-02
1.541507498489139670e-02
6.522259144874120382e-03
-2.432662616298602795e-03
-1.124852423171890901e-02
-1.972651698916916274e-02
-2.766895828777324318e-02
-3.489139992271750312e-02
-4.122683851317228421e-02
-4.651615472636114190e-02
-5.063751088716961224e-02
-5.348268930009105609e-02
-5.497363918897971852e-02
-5.507292618099909193e-02
-5.375532273489078833e-02
-5.104896672171082422e-02
-4.700160819351653640e-02
-4.169182045153158045e-02
-3.524057012368721209e-02
-2.777864087917901459e-02
-1.947624647906353451e-02
-1.051820593553406090e-02
-1.102972699438053289e-03
8.551851697944458375e-03
1.822693974361358493e-02
2.770123491982624808e-02
3.675327923110509321e-02
4.517351986576276235e-02
5.276951683649113573e-02
5.935650417666346601e-02
6.478883650018438245e-02
6.893635882497765877e-02
7.170031196514935201e-02
7.302801001213472809e-02
7.287968165269739784e-02
7.127392961064511756e-02
6.825268074206937430e-02
6.388988948751925245e-02
5.830751214766526080e-02
5.163792284007121675e-02
4.405542667666613454e-02
3.575128296060807453e-02
2.693022192524285874e-02
1.781757528762176190e-02
8.640604063378055921e-03
-3.722225969018042036e-04
-8.992133307079845303e-03
-1.700218352358339596e-02
-2.420397767843682213e-02
-3.040649298432884784e-02
-3.545797749385960068e-02
-3.922353944616070731e-02
-4.159799843758634624e-02
-4.252371087467719801e-02
-4.195554373481512334e-02
-3.990604720962476204e-02
-3.641288059305110986e-02
-3.154471568312338520e-02
-2.542088629574536934e-02
-1.817164517503667281e-02
-9.972011692430038030e-03
-1.016803807877737081e-03
8.483550263623023877e-03
1.829261372447550660e-02
2.817061385238919802e-02
3.787146317356766129e-02
4.714636782350077604e-02
5.575619823986824319e-02
6.347839658864895540e-02
7.009734497521920293e-02
7.543770136119382075e-02
7.934294256527872624e-02
8.168788674170794628e-02
8.240205355328306114e-02
8.142894924856443339e-02
7.877795300240401921e-02
7.448969318427331454e-02
6.863903654905084695e-02
6.136181968592167857e-02
5.280652645415975094e-02
4.317212179964430296e-02
3.268193464143352017e-02
2.157490834934444601e-02
1.011828632282195557e-02
-1.417318997483339726e-03
-1.275844939174781111e-02
-2.363036956312934700e-02
-3.377096143442789855e-02
-4.294173961461548311e-02
-5.091240003956674226e-02
-5.749976378304403474e-02
-6.254457885838801690e-02
-6.592024510502131340e-02
-6.756231831846624958e-02
-6.742123707435078439e-02
-6.551563535438093000e-02
-6.189940311960327041e-02
-5.665918877057945363e-02
-4.994520592345608884e-02
-4.192051549170854041e-02
-3.279694464510245211e-02
-2.281201251683930009e-02
-1.221685197116913375e-02
-1.289398831976261081e-03
9.689291506213686470e-03
2.043885037072056682e-02
3.067937363951766389e-02
4.014513940923002122e-02
4.859946223957647277e-02
5.581469397909247232e-02
6.161480203568258512e-02
6.585228356800919280e-02
6.841277820297345102e-02
6.925074401328082385e-02
6.833651676618700266e-02
6.571036617173166283e-02
6.145197538746929172e-02
5.567172335373921782e-02
4.854484251508390386e-02
4.025932269402670433e-02
3.104678551826544480e-02
2.116393093693439559e-02
1.087663333104194226e-02
4.702315609054538020e-04
-9.768293195439805773e-03
-1.956158360496695198e-02
-2.863800543012461064e-02
-3.674296457262425653e-02
-4.365993483621597587e-02
-4.918279882060387631e-02
-5.316054263684717035e-02
-5.547532318487493480e-02
-5.604067803939769693e-02
-5.484115479174047486e-02
-5.187729235064252042e-02
-4.721547630833744513e-02
-4.096255280558447343e-02
-3.325218234996536043e-02
-2.427964804516104941e-02
-1.425249112000431286e-02
-3.416451996179297942e-03
7.958772106356433451e-03
1.959667292204874539e-02
3.120525172307896111e-02
4.249133819943892720e-02
5.317452705707297750e-02
6.298263818884825005e-02
7.166076813672828116e-02
7.899620005398966249e-02
8.478736039649664713e-02
8.888924250857097031e-02
9.119394494781535299e-02
9.162393291885673197e-02
9.017654731076005237e-02
8.686605336707092784e-02
8.177171421233694892e-02
7.501633173365765406e-02
6.674706929566533165e-02
5.717185204890859462e-02
4.651085545965880780e-02
3.501686520988969015e-02
2.296497073656790511e-02
1.063383820314882725e-02
-1.689565699182722647e-03
-1.371832921669488385e-02
-2.518383825616012789e-02
-3.583029203287958070e-02
-4.541909164229430973e-02
-5.375742608156319075e-02
-6.066405023930113855e-02
-6.601004884935449124e-02
-6.970390745165117030e-02
-7.167906108324359482e-02
-7.193576361931454388e-02
-7.048951543597516134e-02
-6.740810460054980080e-02
-6.279749304566165091e-02
-5.678171410252764312e-02
-4.953355991535151465e-02
-4.123609660237594066e-02
-3.209658013289533318e-02
-2.234030511897115018e-02
-1.219507553939565107e-02
-1.894726722657179979e-03
8.326749202970988584e-03
1.824908071516706878e-02
2.766245877926602065e-02
3.636930380871714052e-02
4.420761081831445227e-02
5.102453621216775786e-02
5.670651281356227369e-02
6.117055915978256153e-02
6.435191988789942807e-02
6.623888195833535497e-02
6.683234147017948212e-02
6.617329126603187228e-02
6.433462234505828159e-02
6.140259716807827672e-02
5.750243476797909509e-02
5.276804667397470144e-02
4.735152563730050251e-02
4.141973993235577994e-02
3.514137944051257123e-02
2.868958729515756756e-02
2.223780147769258489e-02
1.594949430580704097e-02
9.979861871531804651e-03
4.475915125071845690e-03
-4.413091163091159563e-04
-4.657630966126827254e-03
-8.085838164966720545e-03
-1.066159602457189028e-02
-1.233270484599400911e-02
-1.308523511638124033e-02
-1.291487125819987779e-02
-1.184609811118594695e-02
-9.928360588012193413e-03
-7.221168070890958066e-03
-3.815778960550995219e-03
1.888282574091029731e-04
4.676796507066810840e-03
9.517324868917169736e-03
1.457643931617272869e-02
1.971080975523133161e-02
2.477524127485123545e-02
2.962828000166908143e-02
3.413185601023024235e-02
3.815330340759064826e-02
4.157901736141675353e-02
4.430084697382054293e-02
4.623379566756445624e-02
4.731426239201263345e-02
4.748983803755552763e-02
4.674653065760332737e-02
4.508063296645698631e-02
4.251765825921255404e-02
3.911070361302505100e-02
3.492280301136734683e-02
3.005056148296494228e-02
2.459927764270116585e-02
1.869025466278673858e-02
1.246022983184223200e-02
6.048370674809610929e-03
-3.991557386012669489e-04
-6.734747939853824236e-03
-1.281673154056395779e-02
-1.850927131928441216e-02
-2.368217570775596470e-02
-2.822673361805982245e-02
-3.204054438747218347e-02
-3.504369772903504626e-02
-3.717891822972765881e-02
-3.839895275114190570e-02
-3.869337139044838614e-02
-3.806221763026698679e-02
-3.653178214170341859e-02
-3.415534142194701778e-02
-3.099502554301927087e-02
-2.714482526554531927e-02
-2.270766741814513046e-02
-1.780185936154684428e-02
-1.256186307146056093e-02
-7.124870491929799141e-03
-1.636488376129230371e-03
3.755612013028633914e-03
8.908706100439960779e-03
1.368537715522863754e-02
1.795363014170266516e-02
2.160413186056960033e-02
2.453466136306536871e-02
2.666738732909892939e-02
2.795121358816899521e-02
2.834592747043682831e-02
2.785416172909038757e-02
2.649161467261470365e-02
2.430292998722254766e-02
2.136516542983774025e-02
1.776458650370689452e-02
1.362202859910227257e-02
9.068748076994615284e-03
4.249644650878396657e-03
-6.747740450764629083e-04
-5.542639757885638174e-03
-1.018969234714627893e-02
-1.445131472337727978e-02
-1.817372092416807278e-02
-2.121578480266727434e-02
-2.344388796848735634e-02
-2.475731885661171944e-02
-2.506622959976048670e-02
-2.431022263959009555e-02
-2.246406550109546901e-02
-1.951458207628880420e-02
-1.549823991341735090e-02
-1.046778642409655451e-02
-4.506252747027379713e-03
2.266388970408012016e-03
9.720913842611686451e-03
1.769239491206356374e-02
2.600422954587269103e-02
3.446776349848224702e-02
4.287932608618394426e-02
5.103472943683363960e-02
5.873200526709143610e-02
6.577032040600885865e-02
7.196421131106628399e-02
7.714778825819353092e-02
8.116453384494705381e-02
8.390129994070245900e-02
8.526029516911015627e-02
8.517914166002743537e-02
8.364153138291624545e-02
8.064509420910201398e-02
7.624700762756370098e-02
7.052556980195139047e-02
6.359188919733074763e-02
5.560067647753377806e-02
4.671615432132280449e-02
3.713909194054820784e-02
2.708323811553983718e-02
1.677127108493661756e-02
6.437982723663654254e-03
-3.682683989037099578e-03
-1.336667744877021065e-02
-2.239392244446232472e-02
-3.056413466171575138e-02
-3.770449970138768647e-02
-4.365255872195247105e-02
-4.829514925292149180e-02
-5.153790398862325567e-02
-5.332131720745037634e-02
-5.363530315000825804e-02
-5.248284295002064032e-02
-4.992341385590677583e-02
-4.603824464606344480e-02
-4.093642993316352896e-02
-3.476741044444418144e-02
-2.768863997027720680e-02
-1.988775869830097798e-02
-1.156411525729697347e-02
-2.923022736892195647e-03
5.821403882145926786e-03
1.445604386779266587e-02
2.277867056226152292e-02
3.059164854213638346e-02
3.771464674693379704e-02
4.399352297524612015e-02
4.928288680112623971e-02
5.348039077836393151e-02
5.650149047032468341e-02
5.829003344407508030e-02
5.883373729045496964e-02
5.813105868368836221e-02
5.622732978354749028e-02
5.318753710855191746e-02
4.909818001661108572e-02
4.407969552948356323e-02
3.825887252912477804e-02
3.178561609368828200e-02
2.481963382309401028e-02
1.752426783010387762e-02
1.006868197353580872e-02
2.621185243369671472e-03
-4.659719420370500229e-03
-1.161993792066608362e-02
-1.811807093483032427e-02
-2.403367598726794535e-02
-2.925245143066112358e-02
-3.369044744971996797e-02
-3.727735353326553508e-02
-3.996085706269059817e-02
-4.171895910475059699e-02
-4.253660655074746610e-02
-4.242874844300070086e-02
-4.142405690040849159e-02
-3.956476052171008229e-02
-3.691639338909804419e-02
-3.354911752583968065e-02
-2.955082450741920719e-02
-2.501766399150815584e-02
-2.005113694990522111e-02
-1.476211806490491420e-02
-9.262615495606930580e-03
-3.666023776348370164e-03
1.913645863491013344e-03
7.366066508190447296e-03
1.258757217083355737e-02
1.747696170725158288e-02
2.194729690740048617e-02
2.591864593595248623e-02
2.932173576284517746e-02
3.210689374901682519e-02
3.422944298094932752e-02
3.566860219873928955e-02
3.641553770394181239e-02
3.647461409877989641e-02
3.587496090433981571e-02
3.465115558824286707e-02
3.286078771784528563e-02
3.057317272910597961e-02
2.786665446530726259e-02
2.483683824899144549e-02
2.158227826572271801e-02
1.821010918204914175e-02
1.483190167439340720e-02
1.155837465626357446e-02
8.498490630061620102e-03
5.759672499896371228e-03
3.437330832947277717e-03
1.620440003720989564e-03
3.873731842139287174e-04
-2.047965901398659389e-04
-1.045163376497040136e-04
7.124157693979161349e-04
2.255292059502128806e-03
4.518149761861281477e-03
7.463802264321093075e-03
1.104817679751014803e-02
1.519842990439992068e-02
1.982572184510816848e-02
2.483002029880190115e-02
3.008798866219734164e-02
3.547212601667763809e-02
4.084316162296214303e-02
4.605516517625678902e-02
5.096285923071435658e-02
5.542254241088837019e-02
5.929225254219857438e-02
6.244547476363150607e-02
6.476470151000356112e-02
6.614597503756923513e-02
6.651507917343937870e-02
6.580532848057006612e-02
6.398677587761601726e-02
6.105129844941983852e-02
5.700998180667144616e-02
5.191676074987587597e-02
4.583485275512327178e-02
3.886360432783379087e-02
3.112426720974283828e-02
2.275070597856626575e-02
1.390530324493444506e-02
4.755570942697531778e-03
-4.518882238203500434e-03
-1.373097276245668387e-02
-2.269517691335046911e-02
-3.122993244640542149e-02
-3.915588576960085665e-02
-4.631216624734570131e-02
-5.254963041304388377e-02
-5.773335543555790234e-02
-6.176248141759715232e-02
-6.454452634135857125e-02
-6.602557460630152641e-02
-6.617667952845339430e-02
-6.498794766219911923e-02
-6.249577640977820731e-02
-5.874680689462060540e-02
-5.382582496089164531e-02
-4.784283770937380192e-02
-4.092165346362883899e-02
-3.322003621985500366e-02
-2.490248149619331275e-02
-1.615097966096830373e-02
-7.159330583261772421e-03
1.877400347891243146e-03
1.076143032445707297e-02
1.929561980755800307e-02
2.729659766492365663e-02
3.459051152376317606e-02
4.101618449918249115e-02
4.644571731370051443e-02
5.075971085041610514e-02
5.387844060569473709e-02
5.575017612617097496e-02
5.634289983791018752e-02
5.567678676883829059e-02
5.378392384128696802e-02
5.073834086804500376e-02
4.664429639833100188e-02
4.162055000638107544e-02
3.582451693867441667e-02
2.942160702369868430e-02
2.259536394563064349e-02
1.554267896916931152e-02
8.461164634556770162e-03
1.549610969930052817e-03
-4.994106445234923475e-03
-1.098835127432728521e-02
-1.626371152277031329e-02
-2.066383651970280649e-02
-2.406977741871248883e-02
-2.637211348288330537e-02
-2.750190761560630109e-02
-2.742134566113269695e-02
-2.611121969490864947e-02
-2.360577427820514246e-02
-1.995182881202178099e-02
-1.523610782034214191e-02
-9.576675583945240891e-03
-3.104554560322539056e-03
4.011983844290425982e-03
1.159655899882883548e-02
1.945726393048618358e-02
2.738973590916115447e-02
3.518994396543316527e-02
4.265600713709570557e-02
4.958762086518776063e-02
5.580349775701365367e-02
6.113794198918635903e-02
6.543877820960482261e-02
6.859597000405177891e-02
7.051041319577384947e-02
7.112475646603769186e-02
7.041661701508949989e-02
6.838128801333012707e-02
6.506892499343518155e-02
6.054309046028320124e-02
5.490415078289368617e-02
4.828396164627882930e-02
4.082498466269205567e-02
3.270216288841882452e-02
2.409786650014529574e-02
1.520464246846048653e-02
6.223932813704740469e-03
-2.644531241870817090e-03
-1.120799501647539061e-02
-1.927621430177037937e-02
-2.667782390382364421e-02
-3.325831755625205388e-02
-3.887437850571655307e-02
-4.342037424476309637e-02
-4.680074786739688714e-02
-4.895331992804414362e-02
-4.984636030518812405e-02
-4.946161035157884550e-02
-4.782583792772560072e-02
-4.497755540327270929e-02
-4.098558280742516796e-02
-3.594698587641480952e-02
-2.996855321230518926e-02
-2.318935710631828129e-02
-1.575671504118002914e-02
-7.832929253177836962e-03
4.054313134192778778e-04
8.779764324858477589e-03
1.710585485653398977e-02
2.519849432285313842e-02
3.288011009650711192e-02
3.998055650331238525e-02
4.633658581012135153e-02
5.181080129285712405e-02
5.627335797392674782e-02
5.962202923326263837e-02
6.178203049620751425e-02
6.269118487071276280e-02
6.233325350096362988e-02
6.070496749129616204e-02
5.783682438244480001e-02
5.379359653165139560e-02
4.865172224590035704e-02
4.252939338362981408e-02
3.555640478865838144e-02
2.788350274534405482e-02
1.968315933047413285e-02
1.113196836770100756e-02
2.419672176295157608e-03
-6.260646912592876187e-03
-1.471921738158549729e-02
-2.276977501455320491e-02
-3.023107242211582613e-02
-3.694283988180074862e-02
-4.275135326442541794e-02
-4.752613640905693770e-02
-5.116187229583172430e-02
-5.356396388009248416e-02
-5.467978500798380964e-02
-5.446946534483926988e-02
-5.292435988112718231e-02
-5.007034547994877738e-02
-4.594486030326597886e-02
-4.062977158705808473e-02
-3.422045051796442777e-02
-2.683795627491402519e-02
-1.863236117889067317e-02
-9.760986436542473318e-03
-4.076758595730686774e-04
9.235765943533504746e-03
1.897018460561916697e-02
2.858794582014344277e-02
3.788244112070716929e-02
4.665420912686880917e-02
5.470646079249989746e-02
6.185949515519098552e-02
6.795375564560872383e-02
7.283948755403368835e-02
7.640924426107217893e-02
7.856956666922711163e-02
7.926209172325771046e-02
7.847072282911550511e-02
7.619322244980016035e-02
7.248427514962198226e-02
6.741734261989365540e-02
6.109914137622855096e-02
5.367730165469630776e-02
4.530927851600647510e-02
3.619011543291175692e-02
2.652722992784008887e-02
1.653973019431286343e-02
6.461415574140082566e-03
-3.473711770329995091e-03
-1.303550625998894062e-02
-2.199551883173641448e-02
-3.014160360805979988e-02
-3.728255643762056620e-02
-4.323676602457983409e-02
-4.786704144552828694e-02
-5.105203877882594915e-02
-5.270642458933349345e-02
-5.279211578030188617e-02
-5.128548896416421088e-02
-4.822529325903977121e-02
-4.367263498639560593e-02
-3.772494328155553966e-02
-3.052833465257247941e-02
-2.224038335328463317e-02
-1.306439203675496645e-02
-3.220152744658255628e-03
7.056919403404730666e-03
1.751002409484157460e-02
2.788085042100617306e-02
3.791129989327678834e-02
4.734371122227549328e-02
5.593711561752600508e-02
6.347392021866445078e-02
6.974690672898241350e-02
7.460044242913801971e-02
7.789881320066034676e-02
7.954704089934987177e-02
7.950839948265549240e-02
7.776244619838103278e-02
7.436107523053202273e-02
6.938432525387136507e-02
6.295061826870214372e-02
5.523443548786084734e-02
4.642194771628085914e-02
3.674485336159223625e-02
2.645271104068650653e-02
1.580626188947598099e-02
5.082903023537615160e-03
-5.440274066563206487e-03
-1.549694382989040727e-02
-2.482544385234118633e-02
-3.318658028235582647e-02
-4.037546560948612751e-02
-4.619915128567341628e-02
-5.052456869729241018e-02
-5.324365148064353487e-02
-5.428936169576373955e-02
-5.365861096190412821e-02
-5.136429432862128774e-02
-4.749013643190978101e-02
-4.214983858513692699e-02
-3.549081816600692385e-02
-2.771414639491982107e-02
-1.903109183921685571e-02
-9.690541802708818250e-03
4.252568009482406153e-05
9.897701347322131193e-03
1.959581214136833435e-02
2.885978534972137577e-02
3.743335140342078649e-02
4.506966587328632701e-02
5.154869095925661282e-02
5.669502993049840844e-02
6.034664778072317687e-02
6.240855076350021458e-02
6.281614510095503978e-02
6.154566627595574324e-02
5.864272241661312030e-02
5.416866021192572045e-02
4.825244988782839695e-02
4.105422443018547085e-02
3.276134428544637267e-02
2.360835238419720095e-02
1.383761007586402358e-02
3.715333553862058998e-03
-6.481161770150874538e-03
-1.647736409944552949e-02
-2.600386948142835442e-02
-3.479592668996277227e-02
-4.262158452812992576e-02
-4.926484509356676700e-02
-5.453855788812799615e-02
-5.830796052757817455e-02
-6.045191667100108940e-02
-6.091513268874976933e-02
-5.967480287731743299e-02
-5.674355042701894475e-02
-5.219960669038476581e-02
-4.613526135505918724e-02
-3.870064640991247029e-02
-3.007496973913096477e-02
-2.045859417473382125e-02
-1.009178557223274104e-02
7.787695982226314900e-04
1.188964722722035336e-02
2.296891247017897666e-02
3.374943726699246999e-02
4.397359440692092530e-02
5.338873023359036463e-02
6.177654524865131697e-02
6.893689342335977688e-02
7.469703053005241622e-02
7.893851527426849757e-02
8.155636136516578039e-02
8.250949431951065671e-02
8.179120728055323808e-02
7.942701560807835515e-02
7.550746901665782163e-02
7.013667639055713721e-02
6.347154419923912994e-02
5.569793072799518463e-02
4.701871771568694180e-02
3.767167695444145759e-02
2.789994283201022857e-02
1.795625824434034234e-02
8.098690878305970023e-03
-1.422142974669832194e-03
-1.037164852120123042e-02
-1.852099230973407867e-02
-2.567801332354907595e-02
-3.167162620971333137e-02
-3.635568773542261628e-02
-3.963795841361907740e-02
-4.143885134519664781e-02
-4.173523820853884680e-02
-4.053708105848662785e-02
-3.788021743554930570e-02
-3.385734659852938228e-02
-2.857291629985438813e-02
-2.217380250744846459e-02
-1.483226367528390523e-02
-6.733247346916623396e-03
1.910078204297081805e-03
1.088000381910773050e-02
1.995216212225725538e-02
2.889814519787070601e-02
3.749558753599759736e-02
4.553638899376117460e-02
5.281718997655507342e-02
5.916468282395145190e-02
6.442437294786852731e-02
6.846139149904303944e-02
7.118715566975560016e-02
7.252399205888331035e-02
7.244148793005664166e-02
7.093942955052520705e-02
6.803896487141854188e-02
6.381237373674794600e-02
5.834284392916353618e-02
5.175155719578566904e-02
4.418448804087485998e-02
3.579932973723759515e-02
2.678209346234305260e-02
1.732391043528270710e-02
7.625062428635052958e-03
-2.108080381229348460e-03
-1.167221283853136192e-02
-2.087218015799771620e-02
-2.951581250121063787e-02
-3.743216835190816411e-02
-4.446478536747501542e-02
-5.047126640441101930e-02
-5.534544274573139494e-02
-5.898989398750904140e-02
-6.134423856408977721e-02
-6.237389224397504178e-02
-6.206130914976388385e-02
-6.043337547287860184e-02
-5.752698530723861919e-02
-5.341381441038191985e-02
-4.819028479691767064e-02
-4.196508100186433637e-02
-3.487921013452582875e-02
-2.708042195347056674e-02
-1.873329424670919924e-02
-1.001463338316304665e-02
-1.103332649270673954e-03
7.816604259876909488e-03
1.656089379596008271e-02
2.495396825924379308e-02
3.282673915073290594e-02
4.001892490080102144e-02
4.639524211424880112e-02
5.182696912713467829e-02
5.621574943952187958e-02
5.948627340352014709e-02
6.157861548704484517e-02
6.247666941099880300e-02
6.217479704299310600e-02
6.070369162231012417e-02
5.812221554178980537e-02
5.450258792362789456e-02
4.995527441832735976e-02
4.459931520248284348e-02
3.857495297647875465e-02
3.203922399184686021e-02
2.515307747629840635e-02
1.808818116928879310e-02
1.101798714875738827e-02
4.111276101416484231e-03
-2.466953698704039966e-03
-8.558528151562579470e-03
-1.402662857799116987e-02
-1.874028282803016227e-02
-2.259542595104382240e-02
-2.551024123449435743e-02
-2.741651208759026542e-02
-2.828815164886120531e-02
-2.810963896088963798e-02
-2.690002427369729554e-02
-2.470756009128282499e-02
-2.159324268211922776e-02
-1.765754319946531703e-02
-1.301038589174930045e-02
-7.783636657867137529e-03
-2.128095691878840665e-03
3.801244472245762090e-03
9.837178484967363384e-03
1.581016962624547106e-02
2.155581548318092136e-02
2.691424050853812727e-02
3.173297375993347491e-02
3.588494927659584971e-02
3.925025444672917280e-02
4.173951118548949873e-02
4.329084250618580459e-02
4.385673581717814545e-02
4.343773249120751884e-02
4.204691566631361954e-02
3.973235544667821917e-02
3.657431338916880548e-02
3.266416761494226467e-02
2.812979289795337901e-02
2.310816842111865221e-02
1.775094347339299661e-02
1.222355664816675985e-02
6.691960931470748025e-03
1.322032118039457443e-03
-3.721042917984461809e-03
-8.286433515629998067e-03
-1.223709455399486258e-02
-1.544571189997944773e-02
-1.782042956916325693e-02
-1.927942814128907195e-02
-1.977359138531212257e-02
-1.928588392198016949e-02
-1.781242772976813354e-02
-1.539612433040967766e-02
-1.209271623024083496e-02
-7.987046391890606153e-03
-3.193120423599649094e-03
2.166948408723744224e-03
7.943301789758574344e-03
1.397872506815125981e-02
2.010839131609131955e-02
2.615968045500787625e-02
3.196154830118293905e-02
3.735097675681350871e-02
4.216776222213262926e-02
4.626986804715085833e-02
4.953425756057557028e-02
5.184815153540597854e-02
5.313869243843459544e-02
5.334493383934310606e-02
5.243902069955270334e-02
5.042845371548758393e-02
4.733327193073368078e-02
4.322075906227142161e-02
3.817209297273862351e-02
3.229532805577393917e-02
2.572785414826765649e-02
1.861408061813472209e-02
1.112320062117754492e-02
3.431510005774800372e-03
-4.279975459767737869e-03
-1.182497727677830728e-02
-1.901952080070239137e-02
-2.569147483541115579e-02
-3.167276631317512275e-02
-3.681481231236693324e-02
-4.099123251015349828e-02
-4.408574851349617019e-02
-4.602392952312668595e-02
-4.674469388947343623e-02
-4.621933622295966437e-02
-4.445682968869718588e-02
-4.147824337333403527e-02
-3.735274740824404832e-02
-3.216482413479489905e-02
-2.602565283910571875e-02
-1.907815276174386343e-02
-1.147248168683745982e-02
-3.385435961596225396e-03
4.997812908986523119e-03
1.348676325293388274e-02
2.188444117734243688e-02
2.999593910681840059e-02
3.763879736551530714e-02
4.463507187988393493e-02
5.082729234506651317e-02
5.608339755882554151e-02
6.028171516599941521e-02
6.334631216557061462e-02
6.521695357129517201e-02
6.586627849260998091e-02
6.530860429632398545e-02
6.356991572322444328e-02
6.072403281906608302e-02
5.686122548000530075e-02
5.209452328933203424e-02
4.656643175317224520e-02
4.042484499674960791e-02
3.383636629692860637e-02
2.697394289096275571e-02
2.001011924488123317e-02
1.311689970335981267e-02
6.462924550877626600e-03
1.982072158650781402e-04
-5.534184679738667414e-03
-1.061110445270837220e-02
-1.493634514265321754e-02
-1.842248029031293144e-02
-2.102151550010405295e-02
-2.270004606072551639e-02
-2.344909326084874956e-02
-2.329341942963419898e-02
-2.226613159291415678e-02
-2.043491503383899899e-02
-1.788038750358018902e-02
-1.469831435572153434e-02
-1.100583213696887906e-02
-6.923774125986241132e-03
-2.585543122725532036e-03
1.870780560468814427e-03
6.307952923168345938e-03
1.058994889472925430e-02
1.458329907250918017e-02
1.816977476465608116e-02
2.123727519334298736e-02
2.368953388801346011e-02
2.545362680726995230e-02
2.646382178251099199e-02
2.668816283872585404e-02
2.610828624521042279e-02
2.472650669645230781e-02
2.257627006835235400e-02
1.969838368623046121e-02
1.616483180124662217e-02
1.206031214197153360e-02
7.482570850246825223e-03
2.549410218886979940e-03
-2.618069704270382242e-03
-7.888160789354324923e-03
-1.312482620423539338e-02
-1.819341600983769014e-02
-2.296148553863414793e-02
-2.729889406985281514e-02
-3.108998248644510159e-02
-3.422537228110495572e-02
-3.660911515281764506e-02
-3.816685144269001129e-02
-3.883031699324938912e-02
-3.856041570896692749e-02
-3.733082907988275606e-02
-3.513276504826063490e-02
-3.198619594735928329e-02
-2.791795311340292129e-02
-2.298507464421865876e-02
-1.725807133120805387e-02
-1.082209039187733736e-02
-3.786806960796907512e-03
3.733155991852268873e-03
1.160391617306052135e-02
1.968286542751333454e-02
2.782233703401017222e-02
3.586603514777376295e-02
4.365722108998248974e-02
5.104227223579261424e-02
5.786910032323729774e-02
6.399429837869145821e-02
6.928971200356323634e-02
7.363228139486130419e-02
7.692669223605773376e-02
7.909090589192664666e-02
8.006255542422899274e-02
7.981450593123194659e-02
7.832838534102315453e-02
7.562667285282781426e-02
7.175173418613507714e-02
6.676687289769116240e-02
6.077365425884236061e-02
5.388157972983514260e-02
4.623174425592363468e-02
3.798090152866552549e-02
2.929574824456390031e-02
2.036146884140127913e-02
1.136563503758622820e-02
2.498753339795847968e-03
-6.047250888376107594e-03
-1.408747500612247440e-02
-2.145054012109378488e-02
-2.796989507137481040e-02
-3.350768862677145493e-02
-3.794102737297112837e-02
-4.116787335677197374e-02
-4.312695588454659723e-02
-4.376702695941876026e-02
-4.308402877539275339e-02
-4.109895343236816267e-02
-3.785680482092399629e-02
-3.345042914247437632e-02
-2.798268019931927225e-02
-2.159577371819200453e-02
-1.445322796955471507e-02
-6.731218227543253954e-03
1.368465863703063196e-03
9.640263006589785619e-03
1.787275640233640384e-02
2.585134580616625655e-02
3.336871141906562477e-02
4.023292558362227128e-02
4.625746631327394554e-02
5.128949776975530450e-02
5.519529869014882378e-02
5.786447533710144947e-02
5.923639707345634831e-02
5.926219279285776381e-02
5.794605699163758034e-02
5.532288426872211673e-02
5.145183190049975458e-02
4.644468942858590021e-02
4.042391656858707744e-02
3.354961913141882995e-02
2.600412532882821759e-02
1.797951439252238812e-02
9.689198716286814145e-03
1.349458311557680257e-03
-6.823982831171427829e-03
-1.461577465803116753e-02
-2.182023915081753029e-02
-2.825399389305612019e-02
-3.374021057588190431e-02
-3.813941759184139024e-02
-4.133522505630052302e-02
-4.323415243594928153e-02
-4.379599379653466296e-02
-4.299286454742350105e-02
-4.084903145724459034e-02
-3.742165237746897244e-02
-3.279010430664665299e-02
-2.708619983765819805e-02
-2.045249284627645436e-02
-1.306606109830228853e-02
-5.126211309489354592e-03
3.160167538373317465e-03
1.156834839074241325e-02
1.987137185389471067e-02
2.784796055468524018e-02
3.528060250422967309e-02
4.196385296962738820e-02
4.772264075739359596e-02
5.239018072142986870e-02
5.584338221707126071e-02
5.798856611802317984e-02
5.875603766368937830e-02
5.813682834729796967e-02
5.613583132967899653e-02
5.281061725560828174e-02
4.825496723033181889e-02
4.258213994991080775e-02
3.595517480633027979e-02
2.854727603282366383e-02
2.055783967061613343e-02
1.220464740602337540e-02
3.708346919140154130e-03
-4.703664129056902080e-03
-1.280395338798703993e-02
-2.037992061360658497e-02
-2.722962109210986387e-02
-3.316519190369033449e-02
-3.803728380558967642e-02
-4.170640752548800817e-02
-4.407785108234699156e-02
-4.508974084276180794e-02
-4.470185681209211392e-02
-4.293349558331208127e-02
-3.981773201309957849e-02
-3.543436966414108963e-02
-2.989821865268744300e-02
-2.334005449888587602e-02
-1.593474941420037344e-02
-7.866563793558897441e-03
6.595889979408419562e-04
9.422991989763054854e-03
1.820184049022660622e-02
2.677227860977286072e-02
3.491122820088869705e-02
4.241336541750109768e-02
4.908725502270386287e-02
5.475579243832898874e-02
5.928458883045311517e-02
6.255027721980645217e-02
6.447508812186932003e-02
6.501768430664503495e-02
6.415712455375291445e-02
6.193320653239194756e-02
5.840022868756675201e-02
5.365557828166424986e-02
4.783181338697928969e-02
4.107452942486103376e-02
3.356788199367889691e-02
2.550455898014829595e-02
1.709093682860423832e-02
8.544805710180770897e-03
8.262341093575979734e-05
-8.084683441563439085e-03
-1.574850694098597209e-02
-2.272096168459408067e-02
-2.883181786139290409e-02
-3.392412118371179036e-02
-3.788375915591787879e-02
-4.060785177410851376e-02
-4.203370448738466547e-02
-4.213359926076859496e-02
-4.089652372207894238e-02
-3.836512509704073648e-02
-3.459556665341752962e-02
-2.968046451808787484e-02
-2.374484775211439108e-02
-1.692500404418074283e-02
-9.393066169078137170e-03
-1.329836264474564683e-03
7.069399600716374729e-03
1.559619858045565785e-02
2.404177681407836456e-02
3.219784717720262229e-02
3.985701349368752505e-02
4.682758641490400442e-02
5.293245250954730502e-02
5.800566883908399307e-02
6.192075349948963914e-02
6.456224126865343915e-02
6.585343646979061050e-02
6.575439793501060282e-02
6.424180935165309247e-02
6.135015117025684195e-02
5.712948748405020233e-02
5.166957421420327601e-02
4.509860819919860042e-02
3.755729452993973594e-02
2.922900453510219460e-02
2.030829802198574896e-02
1.100734839188022111e-02
1.555755633642774347e-03
-7.815646674785134765e-03
-1.687406340500018781e-02
-2.538686084163126883e-02
-3.313668869114802518e-02
-3.992164408975792944e-02
-4.555079214370905821e-02
-4.987535378697838251e-02
-5.275901324765313455e-02
-5.410598802035666149e-02
-5.386234786466629482e-02
-5.199148865390844365e-02
-4.852150595657736543e-02
-4.349922656014876959e-02
-3.701568572677944868e-02
-2.920855089299212448e-02
-2.022985267720623509e-02
-1.028387484338428963e-02
4.101876543963958038e-04
1.161068080606608884e-02
2.305174896765544573e-02
3.446502469726756002e-02
4.557634878469968981e-02
5.611055325672522492e-02
6.580866553683097087e-02
7.442954216196480399e-02
8.174412519921944731e-02
8.757387553909312672e-02
9.175617492902590766e-02
9.417561764698069438e-02
9.476989507018301895e-02
9.349620416630384512e-02
9.038905937215128972e-02
8.550697590288706962e-02
7.895676325939644802e-02
7.090071742677835076e-02
6.151565536622204122e-02
5.103285184424597581e-02
3.970032585276456194e-02
2.778444762511141086e-02
1.557312583727462826e-02
3.354758369958165884e-03
-8.585863123966275615e-03
-1.996571805317690768e-02
-3.052385175120465866e-02
-4.002577215000555078e-02
-4.825000676574335567e-02
-5.503227859440038700e-02
-6.022747019852322387e-02
-6.373652702394481950e-02
-6.551682671510533629e-02
-6.554349464699951722e-02
-6.386483997892809794e-02
-6.055367160498163065e-02
-5.572399941469314416e-02
-4.954139842420336726e-02
-4.218327720069409842e-02
-3.387204087996845830e-02
-2.484511889497383053e-02
-1.535188369932442669e-02
-5.656972983100272759e-03
3.975889843806129816e-03
1.329326012775793736e-02
2.204572659435789089e-02
3.000722059082590321e-02
3.698217653727719351e-02
4.278744243632271599e-02
4.729698518970422427e-02
5.040536687769657520e-02
5.204897657979953157e-02
5.222003458396733133e-02
5.092630034900932218e-02
4.824142345390342729e-02
4.426295020170211564e-02
3.912148378142871891e-02
3.299269954088697443e-02
2.606113618177512831e-02
1.854394345702323199e-02
1.067008556374891316e-02
2.672546158276430626e-03
-5.210108074643822126e-03
-1.274221022719645470e-02
-1.970780300169177462e-02
-2.589870683185437061e-02
-3.113188448066144670e-02
-3.526010736575198312e-02
-3.814809506290688795e-02
-3.971673735740333111e-02
-3.990881906895061421e-02
-3.870377294408354485e-02
-3.613433979078475855e-02
-3.224658448279262013e-02
-2.714362296921327133e-02
-2.095106988957332744e-02
-1.382033188576528744e-02
-5.941128199466691809e-03
2.490105934782682953e-03
1.125382977820937706e-02
2.012138679340043021e-02
2.886490153244822970e-02
3.725772070522359591e-02
4.507716901910865936e-02
5.212609402786905211e-02
5.821809670908241474e-02
6.319281787971202380e-02
6.693033277288421012e-02
6.932262788538798293e-02
7.031858204391576439e-02
6.989115301114223744e-02
6.804714134668125858e-02
6.484700180974897754e-02
6.036343930097639449e-02
5.472101256915556239e-02
4.806655032346853623e-02
4.056740559407510938e-02
3.242413796501814049e-02
2.384247473138184636e-02
1.504327679751084335e-02
6.253907346025864601e-03
-2.302587733430819586e-03
-1.041037453803857031e-02
-1.785824408483868697e-02
-2.446380829408795199e-02
-3.005778686008288986e-02
-3.449581334900352070e-02
-3.767571030566249646e-02
-3.950666922561001798e-02
-3.995244875620020120e-02
-3.900194944539722708e-02
-3.667484278637188344e-02
-3.304398118903704301e-02
-2.819393322267066404e-02
-2.225860788143863706e-02
-1.539504100667241950e-02
-7.778994403051136750e-03
3.807715172334091153e-04
8.870400579268709895e-03
1.746253703909531399e-02
2.592346778617939801e-02
3.402494139660291322e-02
4.154868490780835866e-02
4.828153612835572872e-02
5.404328793990836183e-02
5.867001120962676841e-02
6.202453192840787222e-02
6.401910835006680012e-02
6.457854626461909109e-02
6.368756344989127960e-02
6.136094369792237380e-02
5.764445295150316673e-02
5.264221771992113469e-02
4.647043313700745942e-02
3.929291175649433226e-02
3.129780068086990968e-02
2.268767232780162513e-02
1.369271262120069430e-02
4.546620815879241252e-03
-4.513863492330084590e-03
-1.325050215352145504e-02
-2.143588012263278331e-02
-2.886408365078636101e-02
-3.533626340286778744e-02
-4.069459251480122414e-02
-4.480325260129028320e-02
-4.755346109923712372e-02
-4.889089253991438233e-02
-4.877391678315024653e-02
-4.721769115207678780e-02
-4.426842485291974938e-02
-3.999814148021758886e-02
-3.453181265701639469e-02
-2.800494287664775928e-02
-2.059080439682423047e-02
-1.248372820035578874e-02
-3.887352295096836025e-03
4.975400146460904650e-03
1.387948222756205802e-02
2.260320361107821807e-02
3.092684493765467807e-02
3.864243082069222790e-02
4.556745365646142770e-02
5.152675878258011766e-02
5.638582439238058047e-02
6.003386870890085880e-02
6.238456618083491195e-02
6.340530702581199940e-02
6.307567818324806563e-02
6.142696416277590443e-02
5.852126861703368238e-02
5.444211465620877460e-02
4.932082238894605619e-02
4.329808034447642923e-02
3.654416066138542474e-02
2.924733032616415318e-02
2.160102978244718072e-02
1.381015150831216114e-02
6.080390729651937581e-03
-1.391650180146046870e-03
-8.415057750895840391e-03
-1.481095838830076734e-02
-2.042895685427739694e-02
-2.512611471881190384e-02
-2.879711535389598703e-02
-3.136058840084290922e-02
-3.275542606360599962e-02
-3.296899267288213448e-02
-3.199959118794042101e-02
-2.988877489246252739e-02
-2.670620816218323423e-02
-2.253873801263955867e-02
-1.751490539024599252e-02
-1.177176148788995104e-02
-5.471878720868402629e-03
1.205233126511761135e-03
8.075249549671387889e-03
1.494232209822623884e-02
2.160937392039364788e-02
2.788661224483385964e-02
3.358920343811114956e-02
3.854317074629488166e-02
4.260268550525489473e-02
4.562948997193679024e-02
4.752415286732108307e-02
4.821417507853491963e-02
4.764828891044214920e-02
4.583063113987584369e-02
4.277817953211031365e-02
3.855641601291669163e-02
3.326518523437389796e-02
2.702248416787548374e-02
1.999408517507040434e-02
1.235571896513347478e-02
4.308287232030384543e-03
-3.929096590356135482e-03
-1.213476710872355042e-02
-2.008103346017044849e-02
-2.754029750752581829e-02
-3.430105281538121248e-02
-4.016370297188481819e-02
-4.494350896584563271e-02
-4.849764481711480585e-02
-5.069409282293975416e-02
-5.144915515625835684e-02
-5.071565039841159639e-02
-4.846962080425597230e-02
-4.475284166909282435e-02
-3.962251425500221136e-02
-3.318672884937849676e-02
-2.559286189755180518e-02
-1.700513424907872800e-02
-7.635502428316424603e-03
2.293832528364314963e-03
1.254078364279147262e-02
2.284758292303751270e-02
3.295721346222936499e-02
4.261629325735069584e-02
5.157374772093880483e-02
5.960429199809149509e-02
6.650342702415791563e-02
7.208499124549243298e-02
7.621898427972893797e-02
7.878987515487817506e-02
7.973830493725407587e-02
7.905116102313165805e-02
7.673921656387282242e-02
7.288622132962289946e-02
6.759350437671451939e-02
6.101072422581682586e-02
5.332818796501420655e-02
4.474926767937836142e-02
3.551652937650971037e-02
2.588111767930854901e-02
1.610219199094981360e-02
6.445797497232091944e-03
-2.827514805985555796e-03
-1.147665501186133884e-02
-1.926655947170167332e-02
-2.599691733597100929e-02
-3.149792594693821141e-02
-3.561898293424473755e-02
-3.827282965985250723e-02
-3.938883440027107080e-02
-3.895022666616958229e-02
-3.698853933120636178e-02
-3.355572652697009356e-02
-2.877060148857070454e-02
-2.276887036260556718e-02
-1.572502633886474488e-02
-7.849098278422035960e-03
6.399687892468201161e-04
9.495385630943079316e-03
1.846401220813552457e-02
2.729314152353867762e-02
3.573047195585570684e-02
4.353144116788902618e-02
5.048047216973042262e-02
5.637060769921348191e-02
6.103359033263835998e-02
6.433816577020941285e-02
6.617207550570691765e-02
6.649041825776436099e-02
6.526679967141402194e-02
6.252591439480029156e-02
5.834236033085795498e-02
5.280823818468775854e-02
4.607644133225208272e-02
3.831613193842382109e-02
2.972609380983266131e-02
2.053466922673507014e-02
1.097532781456750373e-02
1.297079566730811179e-03
-8.247483306172804021e-03
-1.741389472775373842e-02
-2.596597239516221928e-02
-3.367652828100813761e-02
-4.035406646112845580e-02
-4.581786968819185485e-02
-4.992545854620808465e-02
-5.257417438741033427e-02
-5.367853685770550970e-02
-5.321805644915095918e-02
-5.119126880801632556e-02
-4.764290491965877256e-02
-4.266684173706444122e-02
-3.637260407747187202e-02
-2.892739869547289455e-02
-2.051513459715306742e-02
-1.134731356219973765e-02
-1.665426152307419513e-03
8.284057974086636925e-03
1.823919925203819001e-02
2.793405995884280790e-02
3.711137288562491032e-02
4.552349811068550495e-02
5.293213256641052938e-02
5.913932928939529682e-02
6.396010504483357062e-02
6.725174062810344855e-02
6.891945693144578555e-02
6.888702992126072289e-02
6.715298513799991542e-02
6.373931960016378240e-02
5.871723822786052011e-02
5.221496779165386848e-02
4.437627748810254319e-02
3.540421891452669167e-02
2.552032258396031220e-02
1.496898119691524205e-02
4.021651072509737149e-03
-7.047704422867681964e-03
-1.796049514564825034e-02
-2.843720460828843416e-02
-3.821475847666165604e-02
-4.704997122687819278e-02
-5.471074376394253341e-02
-6.101487236806733133e-02
-6.579706815654097485e-02
-6.893470224331371687e-02
-7.035785918226852842e-02
-7.001366048154411548e-02
-6.792041876338340833e-02
-6.412052783153743274e-02
-5.869825930382700091e-02
-5.179074845496212109e-02
-4.354797982478424839e-02
-3.417009763525535176e-02
-2.387426288684096898e-02
-1.289542650207220649e-02
-1.491477189814453819e-03
1.007774774680955145e-02
2.155006676352323736e-02
3.266287388961092164e-02
4.316834734313245575e-02
5.283815475371525516e-02
6.145354911600654085e-02
6.884176470834653394e-02
7.484684882193512467e-02
7.935068128400150911e-02
8.228607957533205786e-02
8.360100076059108487e-02
8.330936179869818936e-02
8.144929215208486506e-02
7.809576420799130281e-02
7.337442170515988404e-02
6.742225016964555062e-02
6.042106708090090594e-02
5.256926826703561817e-02
4.407945092653292596e-02
3.518415382381425566e-02
2.611730165023671418e-02
1.711214698494955416e-02
8.401404191927714510e-03
2.035536712640881318e-04
-7.283382010277549348e-03
-1.386986310061381726e-02
-1.940885764658458607e-02
-2.377013105085350880e-02
-2.685577656103681904e-02
-2.861532605377656302e-02
-2.901127308386868692e-02
-2.806409349315164975e-02
-2.581741836315377264e-02
-2.234600988321092108e-02
-1.777128685075659437e-02
-1.222468713084780799e-02
-5.877711934499046595e-03
1.081951373690884927e-03
8.454496537389749600e-03
1.602158725024283026e-02
2.356368666341898677e-02
3.086372946704011438e-02
3.770590240724629172e-02
4.388944585208639365e-02
4.923720235515542665e-02
5.358081347411874223e-02
5.679791419558338078e-02
5.878585609541793489e-02
5.947482659082431455e-02
5.884754311587202247e-02
5.689985864438889401e-02
5.368653966202859007e-02
4.928794373563194497e-02
4.381235136215471532e-02
3.741363948180078530e-02
3.025430408193102716e-02
2.252844289858443177e-02
1.444404589686058143e-02
6.213847671535275945e-03
-1.941567732957737852e-03
-9.803012848564369650e-03
-1.716713812135617356e-02
-2.383794041142240500e-02
-2.963973992985861894e-02
-3.443160119514405287e-02
-3.808275525622694530e-02
-4.051364697533137160e-02
-4.166854442171290945e-02
-4.152248088565047707e-02
-4.010413691545799963e-02
-3.745431132193240142e-02
-3.366596237576827827e-02
-2.885672906021979206e-02
-2.316558726044513211e-02
-1.676945498134689572e-02
-9.851743257116933258e-03
-2.616266714689979844e-03
4.723388272824742204e-03
1.195479000139859291e-02
1.886773295547086379e-02
2.525529948501759048e-02
3.093561649908632000e-02
3.573931198278339216e-02
3.952006462919666063e-02
4.217453692797183684e-02
4.361059830652611047e-02
4.379084213145992277e-02
4.270557032859467750e-02
4.037421137311477531e-02
3.687154745501544650e-02
3.228400816315885047e-02
2.674482874461004550e-02
2.041138614347951311e-02
1.345655464886092757e-02
6.083160674088531304e-03
-1.501591163481263286e-03
-9.082443740292161713e-03
-1.643996900374083969e-02
-2.336216380339140725e-02
-2.965196530627745714e-02
-3.511786719174123106e-02
-3.960294083622506456e-02
-4.296897851677903418e-02
-4.510208611877120077e-02
-4.593779802975624105e-02
-4.542338483458018689e-02
-4.355963486340486829e-02
-4.037686071242460595e-02
-3.593053918302815258e-02
-3.032822949219200065e-02
-2.368809782876543646e-02
-1.616759001419719455e-02
-7.946255280099972021e-03
7.851316894878519054e-04
9.812261709277743382e-03
1.891758559767613493e-02
2.788155983569278601e-02
3.648354395679009182e-02
4.451215488798455217e-02
5.177633729942032054e-02
5.809140124755944601e-02
6.331025775185528115e-02
6.730798294439298279e-02
6.998375461450219437e-02
7.129019295900054787e-02
7.119228673236996374e-02
6.970871870305044016e-02
6.689046383777660920e-02
6.281178293374668764e-02
5.759939018343397665e-02
5.139057070442236419e-02
4.435777287261265939e-02
3.669502795932233497e-02
2.860425069071602378e-02
2.030514379811815956e-02
1.201950257374474924e-02
3.963989138769449284e-03
-3.647989024344882800e-03
-1.061473770192909553e-02
-1.676260601984991966e-02
-2.192562473010457869e-02
-2.597872197093475249e-02
-2.882308445344432951e-02
-3.038276021773111957e-02
-3.063700245620451512e-02
-2.957759221771201485e-02
-2.724597447729043553e-02
-2.371615340352167117e-02
-1.908167560773067067e-02
-1.348389501872434594e-02
-7.073901035816830898e-03
-3.120163209601074794e-05
7.445671900958227354e-03
1.515337712142653635e-02
2.287706495627613371e-02
3.040086039145413477e-02
3.751901164196617261e-02
4.403271269888404948e-02
4.975588867874206761e-02
5.453571966564815798e-02
5.822807674231977176e-02
6.073126429342869809e-02
6.197327196653861642e-02
6.190369340524228686e-02
6.052887523397003366e-02
5.786810510186878725e-02
5.398684850621074394e-02
4.898356670661045686e-02
4.297276244302108972e-02
3.611136534493851469e-02
2.856501527081093533e-02
2.051913549717149926e-02
1.217358564565683074e-02
3.728880521367273528e-03
-4.613538545168974561e-03
-1.265329777995889173e-02
-2.020758131490849735e-02
-2.710667731744390019e-02
-3.319442509749150755e-02
-3.835308790160245340e-02
-4.247455513759168522e-02
-4.549040833254017202e-02
-4.736248223436585747e-02
-4.806994077428840967e-02
-4.764120466608232768e-02
-4.611607271333095781e-02
-4.356883880520696223e-02
-4.010065575955863021e-02
-3.582292047025190107e-02
-3.087606609586178441e-02
-2.540662655559571687e-02
-1.957047820809868638e-02
-1.353092718621255915e-02
-7.449122394877686834e-03
-1.478843146707905024e-03
4.228775805595342760e-03
9.542298608449881897e-03
1.434630180601715807e-02
1.853748442700595134e-02
2.204979934463922528e-02
2.482662938676436643e-02
2.684506568584441727e-02
2.811018961843416569e-02
2.864018476299901722e-02
2.849334958170617049e-02
2.773751818775850586e-02
2.646383310623400681e-02
2.478320919221537605e-02
2.281123541604636318e-02
2.067707666674259079e-02
1.851248910331741715e-02
1.644469434332192226e-02
1.459698347535357335e-02
1.308539452403349734e-02
1.200148620845028005e-02
1.143001278894018036e-02
1.142682402839843327e-02
1.202217792419277634e-02
1.323337516610800964e-02
1.503520066993236509e-02
1.739162154235802948e-02
2.023831579039196346e-02
2.348537379627989655e-02
2.703528475473767484e-02
3.076643501146016785e-02
3.455155308178547297e-02
3.825890317516656564e-02
4.175262439318968427e-02
4.490016815771439435e-02
4.758180769597033372e-02
4.968178782840463464e-02
5.110530686098285064e-02
5.177734288957196868e-02
5.163353371418120258e-02
5.064698386459285523e-02
4.880098723341264044e-02
4.610720022401133822e-02
4.260463084721365090e-02
3.834181623705778391e-02
3.339998092824807141e-02
2.786897982893672687e-02
2.185424812209980916e-02
1.547657017162560808e-02
8.859428062811215351e-03
2.134456460304139276e-03
-4.564831727566640712e-03
-1.110841179323510640e-02
-1.736976964119279349e-02
-2.322641738999129540e-02
-2.857166159433085356e-02
-3.330352340020283769e-02
-3.733665937147900155e-02
-4.060282963753031327e-02
-4.304108448648613638e-02
-4.461768600311638577e-02
-4.530676051744436661e-02
-4.510141127950881290e-02
-4.401467355406644966e-02
-4.206611064237929937e-02
-3.929920680907737079e-02
-3.576436035885221382e-02
-3.152529407853053162e-02
-2.666002790372933723e-02
-2.125046358596346940e-02
-1.539246049962429176e-02
-9.185919140566543503e-03
-2.736497571960514602e-03
3.843834948512560995e-03
1.044232277656911151e-02
1.694411997471883397e-02
2.323391718717495585e-02
2.919994531590170556e-02
3.473439989492965035e-02
3.973256030398842481e-02
4.410296469109682704e-02
4.775845345875236875e-02
5.062617021916058363e-02
5.264962208340293742e-02
5.377915880525833969e-02
5.399324618240824991e-02
5.327934304099581075e-02
5.164635120151202241e-02
4.912823417517257762e-02
4.576698012234181601e-02
4.163658126998772552e-02
3.682124642881529769e-02
3.142251329115142156e-02
2.556261007899132687e-02
1.936810650787691712e-02
1.298110901830963441e-02
6.548566779407267481e-03
2.183533734638112150e-04
-5.860531599182519993e-03
-1.154166172984785223e-02
-1.669206271743986503e-02
-2.118351577073940978e-02
-2.490498850772317890e-02
-2.776686907331279985e-02
-2.968787289549872088e-02
-3.062317171879928857e-02
-3.054050392133048075e-02
-2.943397291588629311e-02
-2.733125175300737952e-02
-2.426971113807861735e-02
-2.032697380733521075e-02
-1.559460020995448275e-02
-1.018471608347651554e-02
-4.236196313993658563e-03
2.106813234032283919e-03
8.681076704988507919e-03
1.531681884881942388e-02
2.184323585338505957e-02
2.808816371578036486e-02
3.388236739734154512e-02
3.907362269937190297e-02
4.351613550185340351e-02
4.708501452781522351e-02
4.968375928537829139e-02
5.122586155573820993e-02
5.167076806236940018e-02
5.099505479534163083e-02
4.920624741892275916e-02
4.635481078610669686e-02
4.250222603342717481e-02
3.775643248113237649e-02
3.224282044249640600e-02
2.610710869120417416e-02
1.952381982646039099e-02
1.267205030867351624e-02
5.745362053909457145e-03
-1.057342820624680366e-03
-7.541584384805901167e-03
-1.351930812855115134e-02
-1.880749873401459799e-02
-2.325137461218457213e-02
-2.670749639303030692e-02
-2.905885052557750925e-02
-3.022754510675354500e-02
-3.014733684332052827e-02
-2.880617306915963377e-02
-2.621388386968157708e-02
-2.241248979071357866e-02
-1.749268088105634250e-02
-1.155631424033928996e-02
-4.751841467404980743e-03
2.753235713559495056e-03
1.077393849671596550e-02
1.909831761420588414e-02
2.751087022997564246e-02
3.578777008783330660e-02
4.370189930065546124e-02
5.103489857355514303e-02
5.758228143219559780e-02
6.314616861760086186e-02
6.756579903578298352e-02
7.069651415590344490e-02
7.242393731123650258e-02
7.268257026658780928e-02
7.142002665768440450e-02
6.864524309141926961e-02
6.439408196683189811e-02
5.873543786667671796e-02
5.179263483033229309e-02
4.370048381902155027e-02
3.464019706459747772e-02
2.481367056539240945e-02
1.443745746950395384e-02
3.752726489218323469e-03
-6.996626012963828509e-03
-1.756407147125578494e-02
-2.770202965381644844e-02
-3.717421522704868891e-02
-4.576386597379218657e-02
-5.326140619423292560e-02
-5.949746623279516394e-02
-6.432159619760069447e-02
-6.761239377387930072e-02
-6.929958594432186758e-02
-6.932563788294486551e-02
-6.769214798531761335e-02
-6.442900628523866302e-02
-5.959642464845622128e-02
-5.330907522451195507e-02
-4.569304333439239835e-02
-3.692041522262565212e-02
-2.718569036322551064e-02
-1.669908565835934167e-02
-5.699574910063348251e-03
5.569687582487970433e-03
1.685662577343058008e-02
2.790481101996442753e-02
3.846474040642796494e-02
4.830004941225600479e-02
5.717988649354013853e-02
6.490797439679629743e-02
7.130576497877190445e-02
7.622152027298603749e-02
7.955501737141749963e-02
8.121890839154775887e-02
8.118715892836865511e-02
7.946572552068875694e-02
7.609213454967518608e-02
7.116574044104295726e-02
6.479885601986849764e-02
5.715520899474933747e-02
4.842587300350634227e-02
3.881897777663410182e-02
2.857660917901201636e-02
1.794603863082368939e-02
7.184671968379390677e-03
-3.444644044627003659e-03
-1.368619070408257955e-02
-2.329909143992923981e-02
-3.204813534397294578e-02
-3.973456584713312006e-02
-4.617996561263536942e-02
-5.123199937223522210e-02
-5.479301747341506351e-02
-5.677844895267649544e-02
-5.716372273540123311e-02
-5.595838942857912085e-02
-5.320058443946975441e-02
-4.898942868924599514e-02
-4.343665546837378183e-02
-3.670085382891924430e-02
-2.896780227413398717e-02
-2.043740870392598413e-02
-1.134011425716042500e-02
-1.911047027069533166e-03
7.608502419440762998e-03
1.697363285607556699e-02
2.594758966582137033e-02
3.431217123181590223e-02
4.185525284745034852e-02
4.840230373035773331e-02
5.380163088379245201e-02
5.792590209671766993e-02
6.070349369264373823e-02
6.207572155987533397e-02
6.203959617785143044e-02
6.062665261370185632e-02
5.789242395469944291e-02
5.394813418877194428e-02
4.891640085853773273e-02
4.295739596438321456e-02
3.625505772866563503e-02
2.900246735645902602e-02
2.141398563204358410e-02
1.370701877600028450e-02
6.097576099891127005e-03
-1.199261455510995319e-03
-7.977850762537390741e-03
-1.405595382850219864e-02
-1.925792624863731373e-02
-2.344438262867428596e-02
-2.649993040710076769e-02
-2.832998744381470813e-02
-2.889180518784155438e-02
-2.815463247984303918e-02
-2.613571876913818592e-02
-2.288474905508711132e-02
-1.847120547997045670e-02
-1.301451901779602550e-02
-6.644718072435008491e-03
4.753478338695750482e-04
8.160178024831789972e-03
1.621635956911552517e-02
2.443058997365379209e-02
3.258642311342747899e-02
4.046916834833793469e-02
4.786538608694539815e-02
5.457071762820719929e-02
6.040551196572212928e-02
6.519704410020658869e-02
6.880990296002188755e-02
7.113557997706793090e-02
7.208629225619454794e-02
7.163051005011163153e-02
6.974999206154647302e-02
6.647604646658385186e-02
6.187647074648172651e-02
5.603817936787853365e-02
4.910036468967379081e-02
4.121364064953827316e-02
3.255941735504551404e-02
2.334227123943303367e-02
1.377287723812973402e-02
4.078125359054891874e-03
-5.512530436422675637e-03
-1.477546883499386392e-02
-2.349155740925285007e-02
-3.145146122792771143e-02
-3.847490706705238017e-02
-4.438948355603462848e-02
-4.906027940803559667e-02
-5.238183798302867983e-02
-5.426778211071862229e-02
-5.468795887633189773e-02
-5.362591357657602725e-02
-5.111186078311441561e-02
-4.721346233778363904e-02
-4.201591673243952607e-02
-3.565632980859703011e-02
-2.828384066174093048e-02
-2.007791176672370226e-02
-1.124286218026408248e-02
-1.989440773196919990e-03
7.453223872146021341e-03
1.685252785242833534e-02
2.597969232836725567e-02
3.460914349274898938e-02
4.252384245496029780e-02
4.953463609220194741e-02
5.546018691620046431e-02
6.015552016857537987e-02
6.350677411371161152e-02
6.541834677637069217e-02
6.585308108227352908e-02
6.478875307766442104e-02
6.225010583930335600e-02
5.830293640172271724e-02
5.303005550275740471e-02
4.656851950754917896e-02
3.906870820301831110e-02
3.071058493663272188e-02
2.170053049274513896e-02
1.225075624882564912e-02
2.590906815609965441e-03
-7.045745225702013462e-03
-1.643073890710636947e-02
-2.534000292610820437e-02
-3.355743489273792235e-02
-4.089538588317000178e-02
-4.717434939649401554e-02
-5.224862140050383352e-02
-5.600400067137373955e-02
-5.834230661572214344e-02
-5.922069670972724548e-02
-5.861125689686810109e-02
-5.652852861715316340e-02
-5.302747443627894158e-02
-4.817833619990949390e-02
-4.210368497135759391e-02
-3.493993949030547996e-02
-2.685265394088089813e-02
-1.803572047493392366e-02
-8.689786457907256942e-03
9.625999514201091095e-04
1.069351151083826855e-02
2.027478516841233619e-02
2.947802356782030370e-02
3.808027947198219798e-02
4.588055390284238866e-02
5.268462988146158099e-02
5.832825239642389775e-02
6.267757950469923789e-02
6.561393831198295001e-02
6.707555127984081433e-02
6.701712210930452218e-02
6.543838068664206697e-02
6.238574723048832815e-02
5.792214670476963922e-02
5.217104615465533585e-02
4.527316560180030813e-02
3.740190505158146050e-02
2.876528366407610227e-02
1.957868425919852273e-02
1.008214328246669934e-02
5.223178286953462923e-04
-8.855361798356281219e-03
-1.780679306346547724e-02
-2.609418714644477777e-02
-3.350746113084549643e-02
-3.984541442107529530e-02
-4.494027951089855227e-02
-4.866125180469181577e-02
-5.089312869570290776e-02
-5.158292851294402764e-02
-5.069687381107223362e-02
-4.824562997898593220e-02
-4.429005840596012683e-02
-3.890632000904714616e-02
-3.222931206653883301e-02
-2.441196230260525568e-02
-1.563557925333276810e-02
-6.114218068142487569e-03
3.932179435150927500e-03
1.426424562318619020e-02
2.463695476955186578e-02
3.480949813246912716e-02
4.454603947243420542e-02
5.361732762004154523e-02
6.182494345070359970e-02
6.898087968642345469e-02
7.492991239933464998e-02
7.955629972367275760e-02
8.275874537249321150e-02
8.449664882556054413e-02
8.474954692004235679e-02
8.353642017418164145e-02
8.092477793756433502e-02
7.699495227697611410e-02
7.187787367836057095e-02
6.572127157072127357e-02
5.869374826773964687e-02
5.099013916123853324e-02
4.280899987618761587e-02
3.435970641722634750e-02
2.585501574974811284e-02
1.750114388395370216e-02
9.495901763879746951e-03
2.031404918676085400e-03
-4.728035158854629327e-03
-1.062809067815714305e-02
-1.553954413433517902e-02
-1.936612696113433618e-02
-2.202213832040385288e-02
-2.346805743629515328e-02
-2.368096235411704803e-02
-2.266673658942152531e-02
-2.046987613773201820e-02
-1.714481707183224124e-02
-1.278711115949248030e-02
-7.507256812352614342e-03
-1.435101662197903541e-03
5.273012540404741454e-03
1.245566206431778129e-02
1.993297354705299979e-02
2.751836892414587926e-02
3.502347395601491248e-02
4.225741175737793981e-02
4.903145351182169875e-02
5.517082752291530001e-02
6.050629883605623122e-02
6.488685726866220971e-02
6.818756170454580434e-02
7.029253424146231222e-02
7.112915872611405566e-02
7.064178343701162099e-02
6.880453620594226272e-02
6.563505167024288878e-02
6.116219803135589800e-02
5.546377031128747054e-02
4.863697030354774409e-02
4.080263054444735471e-02
3.211684097564337231e-02
2.274247368746092415e-02
1.286754288201014812e-02
2.690109894644274885e-03
-7.587933421721535995e-03
-1.775888229497496473e-02
-2.761647526390198504e-02
-3.696724986385549472e-02
-4.562322585342834524e-02
-5.341364576440445905e-02
-6.019461926014196135e-02
-6.583081289412980042e-02
-7.022916092023866186e-02
-7.331460168076263384e-02
-7.503969732170963358e-02
-7.540100320338635753e-02
-7.440590293203767913e-02
-7.210982185794438670e-02
-6.858897227893402671e-02
-6.394295896456152206e-02
-5.830942449196913763e-02
-5.183359320720352936e-02
-4.468986233487936416e-02
-3.706542999028208940e-02
-2.915440236967892229e-02
-2.116231826525424159e-02
-1.329482028261817946e-02
-5.750351326987689429e-03
1.276039594606294403e-03
7.603857318160395923e-03
1.307739335481007334e-02
1.754892729069878338e-02
2.091273050917745457e-02
2.308255639412188850e-02
2.400010436478617823e-02
2.365561266895032863e-02
2.205095292653978106e-02
1.924033349337948146e-02
1.530265312085245070e-02
1.034129223418057270e-02
4.503014351321871396e-03
-2.057053857530318983e-03
-9.152913789834569644e-03
-1.658376709361682189e-02
-2.414261563038105907e-02
-3.161133032521596525e-02
-3.877179129091608278e-02
-4.541560859426990032e-02
-5.133929063732250997e-02
-5.635477427802457889e-02
-6.030268388510209160e-02
-6.303204739780800259e-02
-6.443611698412300692e-02
-6.443047604977979181e-02
-6.295827937809088393e-02
-6.001490666930211354e-02
-5.560783174322394412e-02
-4.979825347204997615e-02
-4.267501328731547472e-02
-3.435127132506463066e-02
-2.498714823940742513e-02
-1.475186139836747769e-02
-3.847224798629089726e-03
7.507868967241614067e-03
1.908798178712221502e-02
3.065492524060732527e-02
4.197009210291750836e-02
5.280482617427975645e-02
6.293589561440893210e-02
7.215572874807330006e-02
8.028857735426912778e-02
8.716760809261898946e-02
9.267317076725414826e-02
9.671156804867994672e-02
9.921697784454157343e-02
1.001811631749108811e-01
9.960882493601673493e-02
9.755987507248557733e-02
9.412519910075607676e-02
8.941859411389296852e-02
8.360201786099305532e-02
7.684662804472139341e-02
6.935341589802604401e-02
6.134043772331991551e-02
5.303060997922000308e-02
4.465702150285898175e-02
3.645301708079752567e-02
2.864087577167952897e-02
2.143634886492618019e-02
1.504114396198521879e-02
9.625787462906326350e-03
5.352514407368231218e-03
2.340908686126340690e-03
6.849902871649687919e-04
4.546409146009497415e-04
1.665363046484312493e-03
4.320340702717936562e-03
8.371416488797323377e-03
1.373901911297042977e-02
2.032197299827838421e-02
2.796962893309656861e-02
3.652135026044157906e-02
4.578398016725974268e-02
5.554405119977325056e-02
6.558104561415632749e-02
7.565831094392312661e-02
8.553734854046815550e-02
9.498557536371074472e-02
1.037742157895044093e-01
1.116864213713896492e-01
1.185344092072511402e-01
1.241383799269947519e-01
1.283611487801209483e-01
1.310933676839030892e-01
1.322498881599528664e-01
1.318050423127110349e-01
1.297467826591283679e-01
1.261170931494988989e-01
1.209939966674879464e-01
1.144766073189041056e-01
1.067164953366301072e-01
9.787593194696457555e-02
8.814726881036283324e-02
7.774334471584196105e-02
6.688166183278622390e-02
5.579094326421302208e-02
4.470087319158811551e-02
3.383003682782131233e-02
2.338927634012430423e-02
1.357672569406206606e-02
4.556752094522198079e-03
-3.515008418454016251e-03
-1.052433773601997406e-02
-1.638649420588148692e-02
-2.103748556087246119e-02
-2.446874218896826630e-02
-2.668445168490662239e-02
-2.773408196720049401e-02
-2.770001779224282729e-02
-2.668093328490316052e-02
-2.481936200351111954e-02
-2.226715231911354648e-02
-1.919935991712317519e-02
-1.580827272859658406e-02
-1.228935210610891844e-02
-8.846047941372102777e-03
-5.682514756960887689e-03
-2.992230543276734600e-03
-9.605654307773998923e-04
2.382317172285684098e-04
4.622189508774101480e-04
-4.220381019027497072e-04
-2.509248513280507020e-03
-5.864093046197603812e-03
-1.053212166166880674e-02
-1.650328709888142925e-02
-2.375420253034084273e-02
-3.221698778483417236e-02
-4.178851794379048745e-02
-5.235000743347083263e-02
-6.373705431600852622e-02
-7.577500149760457715e-02
-8.826609647222419253e-02
-1.009938976720299864e-01
-1.137389952860104331e-01
-1.262742461645953440e-01
-1.383716643684946013e-01
-1.498148021726201373e-01
-1.603967536048298836e-01
-1.699215947550933303e-01
-1.782282456354159772e-01
-1.851649750050944621e-01
-1.906191847680442364e-01
-1.945113332718928500e-01
-1.967802085839052140e-01
-1.974223144726653112e-01
-1.964486348936751448e-01
-1.939140182025790582e-01
-1.899111658524305357e-01
-1.845477876879966228e-01
-1.779786738597665396e-01
-1.703699230431094946e-01
-1.619108246257898731e-01
-1.528111127070590214e-01
-1.432836226712209393e-01
-1.335496036957668220e-01
-1.238315241512688569e-01
-1.143399029584661192e-01
-1.052744964644570513e-01
-9.682390060714470004e-02
-8.913801518324095119e-02
-8.235594098322808476e-02
-7.657469207323841509e-02
-7.185255847998835155e-02
-6.822889439825868818e-02
-6.567867812949224060e-02
-6.415988103980131696e-02
-6.358504838548093008e-02
-6.382402663282624178e-02
-6.473248117193450279e-02
-6.611884321239221152e-02
-6.777956048593733462e-02
-6.949287159678547987e-02
-7.101952986939528978e-02
-7.212011478624359706e-02
-7.255726214006551211e-02
-7.209504914201347869e-02
-7.051854796267593983e-02
-6.763342620092455126e-02
-6.325918538298756777e-02
-5.726669663771328384e-02
-4.954159193526345983e-02
-4.001669491482750390e-02
-2.867212173590257679e-02
-1.550726465672475594e-02
-5.913855520130999882e-04
1.598664984989512511e-02
3.409291757026981784e-02
5.354736475402599449e-02
7.415643022986942445e-02
9.567905554907359111e-02
1.178611517938019798e-01
1.404316381460532503e-01
1.631016627629426341e-01
1.855823573678294369e-01
2.075883501041830004e-01
2.288360413934021342e-01
2.490636788591931439e-01
2.680328523240537164e-01
2.855188178706248303e-01
3.013515688929461755e-01
3.153777992977713218e-01
3.274916635259838005e-01
3.376391188792452480e-01
3.457846913885659901e-01
3.519643192103905638e-01
3.562354153140426249e-01
3.586974714245588780e-01
3.594968994832000719e-01
3.587917694267842017e-01
3.567823587103384764e-01
3.536814184289132634e-01
3.497126065440933074e-01
3.451120048194680212e-01
3.401138755518721135e-01
3.349407420128194257e-01
3.298108812401629453e-01
3.249180702222461692e-01
3.204275725811827624e-01
3.164917198352371064e-01
3.132082212125911203e-01
3.106570555662496180e-01
3.088768922196105660e-01
3.078572862387148334e-01
3.075727493228482268e-01
3.079375783705634029e-01
3.088465570464962173e-01
3.101628775698856422e-01
3.117113614442750258e-01
3.133087352530086744e-01
3.147424278808276799e-01
3.157905084737348544e-01
3.162274623479172098e-01
3.158233312008357774e-01
3.143516121947990682e-01
3.116051918369863172e-01
3.073839504449773496e-01
3.015142061190566602e-01
2.938557988041521352e-01
2.842813339429698383e-01
2.727198995351721167e-01
2.591203249185591306e-01
2.434705975297122571e-01
2.258094254512374166e-01
2.061893587092607505e-01
1.847200922073234663e-01
1.615313955814447755e-01
1.367801284901538073e-01
1.106589940346140999e-01
8.336729925946444186e-02
5.512752768845237406e-02
2.617022945272350076e-02
-3.273816470021954222e-03
-3.297353252185686312e-02
-6.270149892377598067e-02
-9.225141768221602201e-02
-1.214250268341415251e-01
-1.500470714659855043e-01
-1.779740872621115300e-01
-2.050728562367512831e-01
-2.312567762138533767e-01
-2.564568550178743522e-01
-2.806328176697535648e-01
-3.037849194629915761e-01
-3.259232050201673059e-01
-3.470983350198822426e-01
-3.673764710321764104e-01
-3.868403502962415863e-01
-4.055966001324986525e-01
-4.237553891885622037e-01
-4.414372867586521254e-01
-4.587667421016016212e-01
-4.758630995468544067e-01
-4.928381605242211916e-01
-5.097989685403445659e-01
-5.268261883191711625e-01
-5.439897415796026703e-01
-5.613362843163705040e-01
-5.788774302251104009e-01
-5.966148120682196465e-01
-6.145039225958850437e-01
-6.324813277867082917e-01
-6.504576922573681586e-01
-6.683038428100939177e-01
-6.858819220255784055e-01
-7.030187302103605429e-01
-7.195263912133924578e-01
-7.352056798687937045e-01
-7.498395649408580166e-01
-7.632093918686354561e-01
-7.750961079287835842e-01
-7.852806560540914749e-01
-7.935548238437631907e-01
-7.997278594412151609e-01
-8.036155906637670876e-01
-8.050690558604821634e-01
-8.039547766206578405e-01
-8.001645911915210574e-01
-7.936319063828145559e-01
-7.843005937064796429e-01
-7.721621719399400785e-01
-7.572294254772461430e-01
-7.395392987800814000e-01
-7.191692311381716607e-01
-6.962051054254535520e-01
-6.707666410191449602e-01
-6.429889184681294445e-01
-6.130183958255214227e-01
-5.810209745713942331e-01
-5.471652428794361311e-01
-5.116256372349200499e-01
-4.745792342431736088e-01
-4.361986512943709648e-01
-3.966486391746865681e-01
-3.560906456516737539e-01
-3.146665232115605781e-01
-2.725087430491827667e-01
-2.297353880516995461e-01
-1.864387681704794408e-01
-1.427048719044003156e-01
-9.859051733966812947e-02
-5.413832881075241604e-02
-9.376629053681020606e-03
3.569238667804080362e-02
8.107176216230835286e-02
1.267846267920545722e-01
1.728640546429650593e-01
2.193483196830124937e-01
2.662853412635756700e-01
3.137238253584948011e-01
3.617101171736129550e-01
4.102893092859028479e-01
4.594991565203725981e-01
5.093633234797998455e-01
5.599011669731337459e-01
6.111084357445466519e-01
6.629685893083070436e-01
7.154498064039496175e-01
7.684904173393124482e-01
8.220216731990576120e-01
8.759425945968049021e-01
9.301350956684678595e-01
9.844650185209369297e-01
1.038766188671340407e+00
1.092865610715261449e+00
1.146562808480986906e+00
1.199642423756422716e+00
1.251878827396904148e+00
1.303025556655859729e+00
1.352832504811406267e+00
1.401039346195768642e+00
1.447380127357160706e+00
1.491589727070524951e+00
1.533404899346224148e+00
1.572564137414809826e+00
1.608820561157923601e+00
1.641935606831553818e+00
1.671683875414438081e+00
1.697868111061404006e+00
1.720298351713391183e+00
1.738821089421715760e+00
1.753303924393478930e+00
1.763634790433820543e+00
1.769745852875562075e+00
1.771579145103447717e+00
1.769117623091154945e+00
1.762368426327609150e+00
1.751355291176068363e+00
1.736138660228569996e+00
1.716786147168137822e+00
1.693388135458672616e+00
1.666048739628433362e+00
1.634876416721911196e+00
1.599989204084109273e+00
1.561505989136508843e+00
1.519540243978685590e+00
1.474202076586002441e+00
1.425593238487736114e+00
1.373795873985402816e+00
1.318886947205842208e+00
1.260916972489925403e+00
1.199919775064805849e+00
1.135915522729448179e+00
1.068892020005201671e+00
9.988301454432447768e-01
9.256860368730659427e-01
8.493999000271535982e-01
7.699057069658765684e-01
6.871226685845702731e-01
6.009680954712972589e-01
5.113633675604847273e-01
4.182325671374140241e-01
3.215107193161458321e-01
2.211604241379583058e-01
1.171521741662439192e-01
9.500678573753191039e-03
-1.017495845799567811e-01
-2.165270887298097191e-01
-3.346916594799860811e-01
-4.560868136886625512e-01
-5.804884225723200286e-01
-7.076258500193887135e-01
-8.371992141986623892e-01
-9.688334782482165286e-01
-1.102137360541224798e+00
-1.236668292523588564e+00
-1.371947692181527678e+00
-1.507483678494326185e+00
-1.642750277099917833e+00
-1.777215608014468540e+00
-1.910345455597754594e+00
-2.041603942787851178e+00
-2.170465562911533031e+00
-2.296433749271343583e+00
-2.419020289359229192e+00
-2.537783765721097318e+00
-2.652317083094198225e+00
-2.762239512025846722e+00
-2.867243161836213083e+00
-2.967037474797814767e+00
-3.061395838662016367e+00
-3.150139547556264130e+00
-3.233113953075050340e+00
-3.310231195154758943e+00
-3.381417964198190962e+00
-3.446637142865699666e+00
-3.505879310296229345e+00
-3.559140084025719464e+00
-3.606428032421046481e+00
-3.647753053773826082e+00
-3.683108538838491874e+00
-3.712474963381435344e+00
-3.735816499317713202e+00
-3.753048486151659979e+00
-3.764073599709808704e+00
-3.768741382972011333e+00
-3.766858926493085402e+00
-3.758210827033374279e+00
-3.742514894152755733e+00
-3.719473509105590825e+00
-3.688750125701899307e+00
-3.649976425686833004e+00
-3.602778706030278055e+00
-3.546768955837740656e+00
-3.481557737561051358e+00
-3.406779976139235000e+00
-3.322090916511112546e+00
-3.227170086672136229e+00
-3.121774851052812050e+00
-3.005683733760525111e+00
-2.878765960726778150e+00
-2.740968033574169738e+00
-2.592279823231621982e+00
-2.432829047441464887e+00
-2.262778211238391624e+00
-2.082394564536976134e+00
-1.892036523921171831e+00
-1.692097062444134714e+00
-1.483077981158400060e+00
-1.265507000764338752e+00
-1.039957741555937343e+00
-8.070446357656667624e-01
-5.673833345654917260e-01
-3.215887707869010681e-01
-7.027336983567517015e-02
1.859961527266580095e-01
4.466946037479633258e-01
7.113271241730669825e-01
9.795033851802404934e-01
1.250861160219701951e+00
1.525127319641194079e+00
1.802111415134386885e+00
2.081651745658076091e+00
2.363681808650579086e+00
2.648158392766375879e+00
2.935063029100155152e+00
3.224400705086115426e+00
3.516158325400287943e+00
3.810250407117891758e+00
4.106569056152099328e+00
4.404893802167492822e+00
4.704895146448314414e+00
5.006142139628251719e+00
5.307825323036645671e+00
5.609042905573518034e+00
5.908893096138894130e+00
6.206474103633436989e+00
