3.645261085546323832e-03
-9.083693222766357767e-03
-2.021313497900595335e-02
-2.846227372036734538e-02
-3.304918794243503349e-02
-3.380080680714571406e-02
-3.113957043718978621e-02
-2.595346746847349353e-02
-1.938133676849700462e-02
-1.256277535119034588e-02
-6.407830882554952506e-03
-1.434780372647896998e-03
2.293357581381615801e-03
5.126891201503525411e-03
7.699794696199449909e-03
1.074893918220543379e-02
1.492793981857430501e-02
2.065878581450856372e-02
2.805134494078882074e-02
3.690103801035974490e-02
4.675390508504738418e-02
5.701159228925588296e-02
6.704085394937309150e-02
7.625491832835208650e-02
8.414645831543765553e-02
9.027018035517350714e-02
9.419172714556364734e-02
9.543299930056313440e-02
9.344783308246054632e-02
8.765455949693880255e-02
7.753486361630554380e-02
6.278603411827007874e-02
4.349242312803570237e-02
2.026815144174692884e-02
-5.678420569554518127e-03
-3.259546098772802408e-02
-5.836622256037946044e-02
-8.079692950511216387e-02
-9.796558463604405909e-02
-1.085622877529815455e-01
-1.121457535620380974e-01
-1.092526068344326501e-01
-1.013240901488521861e-01
-9.045329596988885279e-02
-7.899630144171583546e-02
-6.912314676752062681e-02
-6.240139142559200658e-02
-5.950138385908493310e-02
-6.008843635419924833e-02
-6.292765038409428580e-02
-6.618080346606228237e-02
-6.783192768626924996e-02
-6.614883675848790001e-02
-6.007884807986167697e-02
-4.949069204340283967e-02
-3.520831707982086112e-02
-1.882860087252277020e-02
-2.363531027000174978e-03
1.221272431126573313e-02
2.340934177656058685e-02
3.055524017378012311e-02
3.394829791317575257e-02
3.478075228444392486e-02
3.485416549550063303e-02
3.614488791049286914e-02
4.031544476079715333e-02
4.828100531397661044e-02
5.992990601700828174e-02
7.406517341094820406e-02
8.858697784122761265e-02
1.008840527483058358e-01
1.083564985514025580e-01
1.089628591493288917e-01
1.016772632716314156e-01
8.675932449963227877e-02
6.577686918517947068e-02
4.137158917182520712e-02
1.680996582453156418e-02
-4.594537326170121394e-03
-2.007590554210329781e-02
-2.791117119696568186e-02
-2.772160711368514344e-02
-2.052275653657109275e-02
-8.516182895430910588e-03
5.333870618096063151e-03
1.785484449867149465e-02
2.624370112136439198e-02
2.855887103915588990e-02
2.403658224220592277e-02
1.317844139090511811e-02
-2.397090790097908264e-03
-2.030110476620355930e-02
-3.784393208010809750e-02
-5.253322984563568721e-02
-6.250474644597003859e-02
-6.680806007239228905e-02
-6.550201132001221005e-02
-5.955427126194948184e-02
-5.057818746857528636e-02
-4.046998833689048614e-02
-3.102498733822947261e-02
-2.361019991789484185e-02
-1.895392093056919025e-02
-1.708464208613198407e-02
-1.741868686468502070e-02
-1.896526033105324499e-02
-2.059555257137237610e-02
-2.131324002739776180e-02
-2.046839796105514100e-02
-1.787360333009174046e-02
-1.380548720814816881e-02
-8.901365808290177470e-03
-3.982925130853406243e-03
1.474327464782154706e-04
2.889529774830810679e-03
3.968145838049934315e-03
3.472942747143834344e-03
1.813766867132981381e-03
-3.908554720128453244e-04
-2.460259458034950476e-03
-3.796071999061045952e-03
-3.991290274015985018e-03
-2.882407214887119408e-03
-5.390173629832529720e-04
2.798461054101423345e-03
6.809996502390731898e-03
1.118760379145347650e-02
1.570129339078157882e-02
2.022237713016924315e-02
2.470065055049212518e-02
2.910597092521241547e-02
3.335555225721564820e-02
3.725304543980767491e-02
4.046289573405414952e-02
4.253420041535671547e-02
4.297468686086657746e-02
4.136099141831207221e-02
3.745990016534771205e-02
3.132969571625912608e-02
2.337287070724731325e-02
1.432097859842553292e-02
5.147220477361817703e-03
-3.080914848083187579e-03
-9.381995043573922860e-03
-1.303798836069498812e-02
-1.373150281869734216e-02
-1.161304635122534928e-02
-7.282514278101850924e-03
-1.686929271291257026e-03
4.045980907354049770e-03
8.805429768787599587e-03
1.168733747283176236e-02
1.213944808649865953e-02
1.003523884056733984e-02
5.665715195730528994e-03
-3.443376718985750873e-04
-7.173737625577512877e-03
-1.396418134605682294e-02
-1.996734835568352365e-02
-2.465115091117470875e-02
-2.774793094464529999e-02
-2.924201421116876670e-02
-2.930816938825095072e-02
-2.822284907100135881e-02
-2.627432923506596574e-02
-2.369530819031376995e-02
-2.063316835600486482e-02
-1.716134090282098179e-02
-1.332321192805434665e-02
-9.190899161087926622e-03
-4.917318929562665072e-03
-7.621755174734880234e-04
2.919839919375381843e-03
5.729345997420687980e-03
7.300366760959048351e-03
7.386802148143349622e-03
5.934184058525034111e-03
3.116114631127438195e-03
-6.770890451267535387e-04
-4.898249920266705207e-03
-8.939980844335065555e-03
-1.224661695147981864e-02
-1.441536498922885504e-02
-1.526265508764160922e-02
-1.483999434265157770e-02
-1.339620179186106624e-02
-1.129656834753026487e-02
-8.920659774734322756e-03
-6.566129086813417975e-03
-4.384348732313375456e-03
-2.365091379979440862e-03
-3.739460392998038632e-04
1.768861881398261062e-03
4.192031570700607140e-03
6.889256966604241812e-03
9.676086793416492637e-03
1.220583607018874833e-02
1.404684874435956424e-02
1.480548014609686137e-02
1.426403575506869463e-02
1.249491717397133161e-02
9.914139664150268400e-03
7.249525553837548458e-03
5.418897596690959440e-03
5.336904734259597521e-03
7.689911696439224661e-03
1.273108395573555388e-02
2.014847191620742356e-02
2.904639352955746406e-02
3.805684139035613728e-02
4.556804220402034533e-02
5.002856165320473253e-02
5.026458603166138184e-02
4.574078257405969627e-02
3.670397353143878272e-02
2.417246593073229047e-02
9.767284738779011266e-03
-4.582831936851407967e-03
-1.700144124518583599e-02
-2.601226220126210548e-02
-3.079949583855800394e-02
-3.132459735782719412e-02
-2.827627305584606149e-02
-2.286897327580113964e-02
-1.654018170477478122e-02
-1.061986065458966899e-02
-6.050810152709035737e-03
-3.225010520177091014e-03
-1.971502768832816832e-03
-1.693216895601796709e-03
-1.612781154721810647e-03
-1.060014695404232210e-03
2.766309960791010769e-04
2.203274949695150503e-03
4.020509793232755757e-03
4.674667363806887799e-03
3.026145870239055347e-03
-1.830310482694611635e-03
-1.027340931267904656e-02
-2.196644636881482648e-02
-3.582366129001189614e-02
-5.014738484818759279e-02
-6.291116587291335771e-02
-7.212941346613302440e-02
-7.623349015484545688e-02
-7.437244638257885232e-02
-6.657385630091701423e-02
-5.373207315777646376e-02
-3.742985097651027604e-02
-1.963546624407219374e-02
-2.342894221525133186e-03
1.276821011215516222e-02
2.458440403127121893e-02
3.267713450065386216e-02
3.727500984216751412e-02
3.910919995374519120e-02
3.917749861974657855e-02
3.848635425099845853e-02
3.782945100290494717e-02
3.764748014862514397e-02
3.799085901197500614e-02
3.858137480114640083e-02
3.894629776654770503e-02
3.858437227829109029e-02
3.711983921584523227e-02
3.440806198042016539e-02
3.057170098468658601e-02
2.596532747316088879e-02
2.108402932189246820e-02
1.644380511271352485e-02
1.246588955739266931e-02
9.393240264478540380e-03
7.256911941921130940e-03
5.896084803977108199e-03
5.021825389981407137e-03
4.304604825156767636e-03
3.461389985446511330e-03
2.320351846179452907e-03
8.488518066725927319e-04
-8.589523569372883860e-04
-2.627728528944962665e-03
-4.264501412714437681e-03
-5.621179179816196241e-03
-6.638782864382962098e-03
-7.362190096697902517e-03
-7.922942232745949775e-03
-8.496594136950797599e-03
-9.247832592935829876e-03
-1.027945111853759835e-02
-1.159963358550473132e-02
-1.311646341305072391e-02
-1.466075015725667313e-02
-1.603032513948055710e-02
-1.704305547614410471e-02
-1.758352922255571049e-02
-1.763025479289256209e-02
-1.725575222631038630e-02
-1.659957897580441322e-02
-1.582204848811421746e-02
-1.505206478617893140e-02
-1.434453759005911884e-02
-1.366062886215817923e-02
-1.287809754892678404e-02
-1.183074642348351871e-02
-1.036756670085596521e-02
-8.415864248403877659e-03
-6.030215131891445909e-03
-3.411387337719111457e-03
-8.860518895412727858e-04
1.152276495748194921e-03
2.330365068598039616e-03
2.391405178894251068e-03
1.276917228994938272e-03
-8.275788737969365372e-04
-3.498360324907416781e-03
-6.135016332506288209e-03
-8.069115180088137079e-03
-8.699748806468258697e-03
-7.627910181458414166e-03
-4.759863180886546655e-03
-3.545729217594387889e-04
4.998922181751372026e-03
1.047379201806497920e-02
1.515183966785836611e-02
1.819623744643192320e-02
1.901604231884782351e-02
1.738852949814312723e-02
1.351328111340194260e-02
7.985616227454549187e-03
1.693469983424332817e-03
-4.342327606827038264e-03
-9.152691418589282285e-03
-1.199308415872724944e-02
-1.247040099204350591e-02
-1.059966677713903953e-02
-6.781062467187494447e-03
-1.704325868623460943e-03
3.797723956265852338e-03
8.915019660373717236e-03
1.301105322152867547e-02
1.572873835484397617e-02
1.703201226000218213e-02
1.717812352625346789e-02
1.663028221487292124e-02
1.593237671995500343e-02
1.557434478341616219e-02
1.587730744209552708e-02
1.692195557781518353e-02
1.853344886821660376e-02
2.032366972504228222e-02
2.177979731511842793e-02
2.237924312210810840e-02
2.170662351275242513e-02
1.954915837450410532e-02
1.595211610939046426e-02
1.122426873186411003e-02
5.892926194848610057e-03
6.171316296747159438e-04
-3.925470262019959897e-03
-7.158634262231925935e-03
-8.714241348220890665e-03
-8.507927191040428466e-03
-6.770521993363663726e-03
-4.028612594882434970e-03
-1.034835306848740435e-03
1.344056386540316839e-03
2.266503153905339435e-03
1.062643828160658374e-03
-2.635175002399401875e-03
-8.800905742534958359e-03
-1.698143870825839438e-02
-2.633277312313826723e-02
-3.572625464054387384e-02
-4.391288047389794308e-02
-4.972165687295088121e-02
-5.225902882861395427e-02
-5.107283014724335601e-02
-4.624755849568680521e-02
-3.840827023578869542e-02
-2.862662115069296645e-02
-1.824166213571451131e-02
-8.626046986429158903e-03
-9.412563373156039581e-04
4.069999484922200844e-03
6.211508008601806033e-03
5.853683993315757922e-03
3.840055291941903148e-03
1.297967802078256808e-03
-6.077596672404306927e-04
-9.264966855770844292e-04
8.748744128674115772e-04
4.800682299780993992e-03
1.033109274248522613e-02
1.654102112241664924e-02
2.230634522615785112e-02
2.655097170324560371e-02
2.847929657785277374e-02
2.774220541431187889e-02
2.450023746553142701e-02
1.937136852483183416e-02
1.327755087901235156e-02
7.227488094933034318e-03
2.087672525911889176e-03
-1.603935684639292217e-03
-3.737625691754791965e-03
-4.621854994663492089e-03
-4.866455993418727921e-03
-5.187867140236071539e-03
-6.184139975890278265e-03
-8.135369904747844286e-03
-1.088006759690080850e-02
-1.380093353932390979e-02
-1.592838344883635085e-02
-1.614272720337209602e-02
-1.343240785951826249e-02
-7.151550682328838837e-03
2.781468892573173840e-03
1.579122746625197596e-02
3.068297330170925014e-02
4.580788131839931554e-02
5.932554375784908351e-02
6.951246877467398555e-02
7.505535512635251594e-02
7.527093820219005194e-02
7.020950790497222649e-02
6.062337268100660703e-02
4.780930350797325812e-02
3.335936281716614382e-02
1.887215437059799536e-02
5.682845944300889823e-03
-5.335737792840900690e-03
-1.386543996301494580e-02
-2.011660600348377792e-02
-2.469667655806707593e-02
-2.840806428408824968e-02
-3.202284004314363830e-02
-3.608404213185505138e-02
-4.077498873437177679e-02
-4.588113706761730304e-02
-5.084782763902674640e-02
-5.491646226484032250e-02
-5.730573390415737156e-02
-5.739660208505996397e-02
-5.488102352749289758e-02
-4.984416733127224053e-02
-4.276537242656797133e-02
-3.444076631332413513e-02
-2.584637422101256771e-02
-1.797147116727244517e-02
-1.165593360536750292e-02
-7.462125034441928484e-03
-5.602661410060848224e-03
-5.932679661666322157e-03
-8.001958144331919667e-03
-1.115124866285519510e-02
-1.463055980645264730e-02
-1.771581775512572413e-02
-1.980400655080240963e-02
-2.047416725910483973e-02
-1.951046685713076628e-02
-1.689175512801364964e-02
-1.275782110864980001e-02
-7.364924252167737335e-03
-1.042042321217640996e-03
5.844538333982390171e-03
1.291574825467445460e-02
1.979557712109087167e-02
2.612346818797105230e-02
3.156904792756885791e-02
3.585302511082172350e-02
3.877437918937216843e-02
4.023972646930985830e-02
4.028741546444521843e-02
3.909763999062230988e-02
3.698128748711457942e-02
3.434423159729901170e-02
3.162946660543736188e-02
2.924546766304743015e-02
2.749385829460136363e-02
2.651150665508185400e-02
2.624076720718953107e-02
2.643676053262298056e-02
2.671321737186293718e-02
2.662006050099590890e-02
2.573845260380046643e-02
2.377428874614612164e-02
2.063031045074412845e-02
1.644055919392163612e-02
1.155817951031381900e-02
6.497151242421606715e-03
1.838332074673848515e-03
-1.881933716968382797e-03
-4.278216838025320629e-03
-5.195519132493785913e-03
-4.745191222566086386e-03
-3.289306689401866844e-03
-1.376038812231893289e-03
3.614393151273862827e-04
1.322666458309001980e-03
1.051161751215937655e-03
-6.822360293500407541e-04
-3.839542715224468668e-03
-8.126002741803719370e-03
-1.304738148149027499e-02
-1.800193448197774659e-02
-2.238863321093653366e-02
-2.571093463317666514e-02
-2.765721803556095426e-02
-2.814436112350975766e-02
-2.731850869687792865e-02
-2.551527923793306396e-02
-2.318885912463411123e-02
-2.082439788674497749e-02
-1.885014310352314121e-02
-1.756476224218729218e-02
-1.709175915064694434e-02
-1.736764718314966899e-02
-1.816459246500868804e-02
-1.914255844259273726e-02
-1.992136213382350585e-02
-2.016004799830944938e-02
-1.962990298560614300e-02
-1.826835752899992962e-02
-1.620382524548556746e-02
-1.374592342287424621e-02
-1.134098641707787306e-02
-9.498636203442862788e-03
-8.700542156790700560e-03
-9.306440495918208433e-03
-1.147412312731847621e-02
-1.510885129589726976e-02
-1.985337939349633013e-02
-2.512297179061316610e-02
-3.018155894646454632e-02
-3.424707386931104963e-02
-3.660777126500489032e-02
-3.672847029585199485e-02
-3.432706736583882035e-02
-2.940731399660951456e-02
-2.224271726887064662e-02
-1.331662001422200675e-02
-3.232727769546181462e-03
7.383655505187783352e-03
1.797218768307105169e-02
2.809430174033419186e-02
3.745098582478804949e-02
4.586277153198467516e-02
5.322325622657794741e-02
5.944441868053524508e-02
6.441379790386086990e-02
6.797963290639273681e-02
6.997121225446775727e-02
7.025026941114390078e-02
6.877844644320711687e-02
6.567882262060073528e-02
6.126859040787505095e-02
5.604591164377561996e-02
5.062565735165278080e-02
4.563326264558965201e-02
4.157939735361708411e-02
3.874660167744900519e-02
3.711955793330240505e-02
3.638231246171458322e-02
3.598996700977000890e-02
3.530277850931284878e-02
3.375230099490549029e-02
3.099738279721819117e-02
2.702643810563601715e-02
2.217291612162781977e-02
1.703164849160399355e-02
1.229014164578693356e-02
8.514245640137011253e-03
5.944897016462285730e-03
4.366163900499864942e-03
3.092094955352044094e-03
1.092490509815108313e-03
-2.758590925233596336e-03
-9.364222730319806537e-03
-1.909529388733620381e-02
-3.157860133325617047e-02
-4.565659143503282558e-02
-5.955741239892409916e-02
-7.126333827499585494e-02
-7.901136585298770831e-02
-8.181547776750602852e-02
-7.987830023542838442e-02
-7.476890743435771203e-02
-6.928468967636561282e-02
-6.698192986865632303e-02
-7.143837873258516991e-02
-8.538370335752402951e-02
-1.098819477510340342e-01
-1.437600348171657882e-01
-1.834418237076295144e-01
-2.232724427632770403e-01
-2.563166379095057623e-01
-2.755091052684357500e-01
-2.749482795601380647e-01
-2.510789637940777919e-01
-2.035164871453751800e-01
-1.353270275304338521e-01
-5.268397563411052198e-02
3.605311673422045837e-02
1.216699919700685584e-01
1.955853142263065392e-01
2.512063449252044944e-01
2.848921764321038497e-01
2.963473789471072761e-01
2.883893491845518353e-01
2.661630695370565958e-01
2.359882121095211172e-01
2.040911964904300047e-01
1.754850938534815719e-01
1.532129171371629517e-01
1.380779210953819169e-01
1.288709481399369916e-01
1.229965169184872725e-01
1.173206360917911223e-01
1.090303634728536919e-01
9.631235498160847786e-02
7.871737536891751374e-02
5.716273666363697048e-02
3.361286792606965612e-02
1.054855659238426724e-02
-9.627332290159856809e-03
-2.510156610948046513e-02
-3.497017007421322071e-02
-3.931555611354626417e-02
-3.905553153246944798e-02
-3.563230299024434250e-02
-3.063988476066360767e-02
-2.548992180279254990e-02
-2.119151814846103807e-02
-1.827945994779791444e-02
-1.688008204324593572e-02
-1.686767896189355145e-02
-1.804599722290125413e-02
-2.029236193631511059e-02
-2.362344541491330149e-02
-2.817352889744105526e-02
-3.410776516005674386e-02
-4.151449439621091031e-02
-5.032569494668449883e-02
-6.030206558358072039e-02
-7.109346475425400158e-02
-8.235505192936659613e-02
-9.387463957508551671e-02
-1.056561524049751677e-01
-1.179122505199163007e-01
-1.309449954526046844e-01
-1.449302275439141863e-01
-1.596584843490694849e-01
-1.743112111966760303e-01
-1.873563890196633941e-01
-1.966283817195539352e-01
-1.996153704786612360e-01
-1.939233150307345666e-01
-1.778316005812253242e-01
-1.508171681500605488e-01
-1.139129801435469491e-01
-6.978892938032202342e-02
-2.249634096932184163e-02
2.310953937096445199e-02
6.217779488090252604e-02
9.074771556339204792e-02
1.065285923527739542e-01
1.093998045561178495e-01
1.015083775967669244e-01
8.692283281531913708e-02
7.089690404429950521e-02
5.888300443958444791e-02
5.549294852443273363e-02
6.361837063436451278e-02
8.389128694868161484e-02
1.145930150539243575e-01
1.520233558625265768e-01
1.912434217711694862e-01
2.270271624883149486e-01
2.548161358266284315e-01
2.714781340593748760e-01
2.757207574398160554e-01
2.680935102594705910e-01
2.506068552954589523e-01
2.260817799397601968e-01
1.973994156014206025e-01
1.668349429776754822e-01
1.356311530640245400e-01
1.039025785692325732e-01
7.087714321748112001e-02
3.539904564765235240e-02
-3.446314511739448361e-03
-4.575278323468831565e-02
-9.041430152042598256e-02
-1.350518943321858123e-01
-1.762785545492181472e-01
-2.102528031013720933e-01
-2.334026679713195607e-01
-2.431604765573472660e-01
-2.385442293876281483e-01
-2.204538375320334032e-01
-1.916121249198795007e-01
-1.561568265414719214e-01
-1.189635880739138840e-01
-8.483506487361136550e-02
-5.771622971028290972e-02
-4.008661350751987346e-02
-3.263982448717001050e-02
-3.429929466561059542e-02
-4.255077265434392686e-02
-5.401129570529328294e-02
-6.511334628655354728e-02
-7.276872251519198032e-02
-7.489024377322310577e-02
-7.068581922418101793e-02
-6.068938145785378324e-02
-4.654556454062252352e-02
-3.060925410563029858e-02
-1.544949692358026094e-02
-3.356025359354988802e-03
4.063570078504212535e-03
6.132998979991997890e-03
3.173107151433325612e-03
-3.610590227405022223e-03
-1.238389206620688771e-02
-2.102811610908467480e-02
-2.750804600754377938e-02
-3.020117752406051292e-02
-2.813728844804190901e-02
-2.111544035130529656e-02
-9.686990685870339179e-03
4.985130854019748092e-03
2.136160273986614441e-02
3.781307170367258219e-02
5.290722831532522485e-02
6.564680419573121206e-02
7.561734274737427763e-02
8.301922179341629515e-02
8.857883093427665333e-02
9.335579622197576199e-02
9.848283247681244301e-02
1.048883563540977670e-01
1.130564204849919263e-01
1.228724377954942271e-01
1.335872494818299838e-01
1.439091805671830759e-01
1.522083276179864997e-01
1.567946990678616148e-01
1.562168367297125660e-01
1.495234933953693002e-01
1.364387592032430263e-01
1.174190065830119228e-01
9.358416923474363602e-02
6.654084426597661750e-02
3.813508100778512100e-02
1.018425805014992053e-02
-1.576192829866581574e-02
-3.859114160819282491e-02
-5.770590705973389911e-02
-7.300665603800809977e-02
-8.479695128686851047e-02
-9.364074367239096086e-02
-1.002066375423193434e-01
-1.051309313431177811e-01
-1.089214273557125301e-01
-1.119108554697128416e-01
-1.142559046333941758e-01
-1.159684790393157860e-01
-1.169617890395002469e-01
-1.170954693573870026e-01
-1.162097190961312587e-01
-1.141460348504801936e-01
-1.107587310649682105e-01
-1.059249325343852854e-01
-9.956009836319153206e-02
-9.164187332918913298e-02
-8.223892069052364528e-02
-7.153582880498191021e-02
-5.984254975963182455e-02
-4.757855857804811628e-02
-3.522800423442912915e-02
-2.327099743713045149e-02
-1.210512937153136043e-02
-1.977265880767520301e-03
7.053846257117919738e-03
1.510957290383385318e-02
2.243482173320104217e-02
2.930382229322717885e-02
3.591191196489060267e-02
4.228431377937399982e-02
4.823190213566630469e-02
5.337388595099180899e-02
5.723004882933418330e-02
5.936486029716649127e-02
5.954795176826073455e-02
5.788556527545125202e-02
5.487938544732575558e-02
5.138350461214207660e-02
4.845457567475092847e-02
4.711888261235466779e-02
4.810575595888783029e-02
5.161223577218208153e-02
5.716397042839222592e-02
6.362050740920888181e-02
6.934218500737231172e-02
7.249748940880482162e-02
7.145314861907631210e-02
6.516375549319650129e-02
5.347052028414844838e-02
3.723287033370482196e-02
1.824992176205320754e-02
-1.025629885199830227e-03
-1.793121476327911440e-02
-3.010754431342675674e-02
-3.597355331842727599e-02
-3.505977839837151611e-02
-2.812463341575881931e-02
-1.702346862832224139e-02
-4.353254075578186916e-03
7.055723372571019031e-03
1.469658096761244925e-02
1.687603319511503386e-02
1.303772739481416469e-02
3.854509700059020189e-03
-8.925252894392648323e-03
-2.284068477922669704e-02
-3.521178638570451186e-02
-4.365992601612300045e-02
-4.655054328301956590e-02
-4.327366209495248084e-02
-3.431504265075075583e-02
-2.111597050132888592e-02
-5.762698501205892887e-03
9.421640246450185135e-03
2.229533218918250403e-02
3.124402951631877201e-02
3.539340859110617910e-02
3.466025754890814797e-02
2.964955721070336447e-02
2.143624443975465643e-02
1.129047852106128402e-02
4.109835239394163398e-04
-1.027758836413879794e-02
-2.022724084255099475e-02
-2.925907846914356514e-02
-3.746141048039147714e-02
-4.502957391061969405e-02
-5.209427249025057327e-02
-5.858484999091258250e-02
-6.416326948510105155e-02
-6.824653855085752174e-02
-7.011407655448580190e-02
-6.907660028979771549e-02
-6.466851734991385658e-02
-5.681933985338569193e-02
-4.596239088318183202e-02
-3.305044482696734703e-02
-1.946572993126903170e-02
-6.832597051610735800e-03
3.238765087795358877e-03
9.433704178246057892e-03
1.098787336517959186e-02
7.865309022168325351e-03
8.209326079529951498e-04
-8.672207472507003495e-03
-1.862659925400841562e-02
-2.684585995271525707e-02
-3.128271398227863709e-02
-3.038745908776042948e-02
-2.338373593257348990e-02
-1.041907790370127929e-02
7.441074605858955665e-03
2.837903005771448203e-02
5.012332410924786458e-02
7.032721845976638853e-02
8.695782814681339568e-02
9.862297486382945455e-02
1.047736644100552561e-01
1.057435508291501847e-01
1.026185465350187842e-01
9.696362889358633996e-02
9.046296539114573321e-02
8.454758089694029699e-02
8.008787691127078334e-02
7.721538993944103424e-02
7.531161794337212778e-02
7.316688370404249298e-02
6.927626448820986549e-02
6.221019343340693231e-02
5.098075951835816244e-02
3.532467150762776814e-02
1.584048701668918507e-02
-6.052347891150944292e-03
-2.832810358992354088e-02
-4.870219870766150094e-02
-6.504273499480889287e-02
-7.576372798736094594e-02
-8.012099397658339894e-02
-7.835128976969286951e-02
-7.162701253353040420e-02
-6.183587847919276570e-02
-5.122980152136259735e-02
-4.201258031654937775e-02
-3.594694894423375309e-02
-3.405611093851799998e-02
-3.647452727679494078e-02
-4.247194970049656543e-02
-5.063996717026118810e-02
-5.919876076488611583e-02
-6.635957844817243212e-02
-7.066979019491038960e-02
-7.127355688323852578e-02
-6.804042684937566809e-02
-6.154229204981687823e-02
-5.289020746782110982e-02
-4.347032244548165031e-02
-3.463716052843629489e-02
-2.742917013313890193e-02
-2.236483116177534480e-02
-1.935928399923825260e-02
-1.777537747137705390e-02
-1.659462720273248773e-02
-1.466865770743027049e-02
-1.099534597636532551e-02
-4.959408078146165105e-03
3.514545014627421665e-03
1.392916686349560465e-02
2.530820968888254641e-02
3.639590498055234741e-02
4.591774410460656985e-02
5.284509483758865339e-02
5.660529418241292549e-02
5.719098403308632561e-02
5.514494611397249835e-02
5.142462723971204935e-02
4.717769333114731761e-02
4.348014780677889046e-02
4.109711333107991804e-02
4.032121155144995778e-02
4.092561826125312718e-02
4.224230725348315785e-02
4.334678875618440397e-02
4.330556013044745134e-02
4.142740845458258575e-02
3.745826420000034074e-02
3.167198520687428132e-02
2.483343515888557229e-02
1.804001795329655128e-02
1.247652717971097988e-02
9.139044680479709720e-03
8.591717789078533868e-03
1.081355269899656954e-02
1.517231803993634304e-02
2.053383126430426836e-02
2.548396072465622386e-02
2.861481454060080254e-02
2.881184686774412862e-02
2.547845382602563144e-02
1.864910400101652682e-02
8.967761506637604574e-03
-2.460729521274070825e-03
-1.430979425579061853e-02
-2.530432477345754411e-02
-3.446498584496989620e-02
-4.126920047647590628e-02
-4.569571648022312249e-02
-4.814856994115562783e-02
-4.928569263096657660e-02
-4.980016037721933519e-02
-5.021257528740293713e-02
-5.072874737946302809e-02
-5.119878598978000461e-02
-5.118645735978170214e-02
-5.012809207167427672e-02
-4.753598156129139329e-02
-4.318842032585895607e-02
-3.725083583661772252e-02
-3.028954116733443419e-02
-2.316750384026318790e-02
-1.684325740340726629e-02
-1.212161798149672190e-02
-9.420955300586529579e-03
-8.621817513652221820e-03
-9.045014147495308160e-03
-9.577278092185366812e-03
-8.926235376267334376e-03
-5.952316619053533292e-03
-1.906603179280264015e-06
8.840386274656809873e-03
1.964960959153103093e-02
3.074777470666791718e-02
3.997892814999822603e-02
4.512732317467376547e-02
4.439860510677251515e-02
3.686428436029915573e-02
2.277085665878523374e-02
3.637294647260674862e-03
-1.789572701255787851e-02
-3.845236027460795930e-02
-5.448261101042854021e-02
-6.289831796475137127e-02
-6.166479538735662735e-02
-5.023215446987294719e-02
-2.971661006637752248e-02
-2.786720019370830803e-03
2.673585017319219520e-02
5.449723140226488821e-02
7.634682988390618930e-02
8.905641692233540185e-02
9.089223105899149613e-02
8.193428289638421402e-02
6.408177150829462432e-02
4.073986429775171281e-02
1.624055242970189050e-02
-4.901807109715241445e-03
-1.877012141975303861e-02
-2.272334258931320641e-02
-1.585696033022351153e-02
8.329217974888392106e-04
2.460749073674201037e-02
5.143458996618170687e-02
7.664954568843651561e-02
9.571318963985292472e-02
1.049393551127131285e-01
1.020730944487989456e-01
8.662980898111698191e-02
5.994847830449574755e-02
2.496109834231306432e-02
-1.427345107311404904e-02
-5.318731673321724918e-02
-8.736992238349003403e-02
-1.131776390835552842e-01
-1.281975702174858456e-01
-1.315049450643415441e-01
-1.236897921068081246e-01
-1.066656152084039799e-01
-8.330471981597169229e-02
-5.696709820120451906e-02
-3.099990184732730192e-02
-8.282225198742689670e-03
9.123134294767635405e-03
2.017001431992566235e-02
2.486501434018678278e-02
2.414773317160012756e-02
1.964472358198377303e-02
1.334220505717142319e-02
7.230703296607257635e-03
2.975199323043173361e-03
1.657617254555312711e-03
3.625881852306594294e-03
8.467232509970362697e-03
1.510523708743266233e-02
2.200236837125255085e-02
2.743531744797418626e-02
2.980027575850397251e-02
2.790148075047367213e-02
2.117889176421300368e-02
9.839612025996188893e-03
-5.128539134748921757e-03
-2.206588769280498630e-02
-3.885882178107104984e-02
-5.323692947257922803e-02
-6.310690716786207521e-02
-6.687392870438807480e-02
-6.370129130227511483e-02
-5.366659840827592287e-02
-3.778681151889923262e-02
-1.790348275210414813e-02
3.559244902571701008e-03
2.393091422059907131e-02
4.067622880738906710e-02
5.176369193492701137e-02
5.596352377752471241e-02
5.302672292359680156e-02
4.371530983381047286e-02
2.967759776743737407e-02
1.318780404372850434e-02
-3.208032996456632036e-03
-1.708215081293185805e-02
-2.648765857032829574e-02
-3.023531026223340995e-02
-2.804143771585382999e-02
-2.052662468028483220e-02
-9.070428558592986273e-03
4.448381909902520900e-03
1.797830133410002057e-02
2.963114272930948007e-02
3.797145464006573129e-02
4.221367249938836469e-02
4.229932676723428819e-02
3.884842736319795570e-02
3.300078939604554618e-02
2.618082397712605952e-02
1.983035842449703406e-02
1.515687247563237555e-02
1.293913460066743737e-02
1.341997819196768041e-02
1.629932075888532172e-02
2.082254753105390252e-02
2.594317042039245846e-02
3.052691270260311784e-02
3.355888430074391304e-02
3.431700257650410757e-02
3.248276181075990948e-02
2.817322711846760586e-02
2.189326141442261842e-02
1.442163072540914893e-02
6.656048631980782289e-03
-5.516578100769947354e-04
-6.539256394452163008e-03
-1.093189057900463904e-02
-1.367985060179062635e-02
-1.503506846336246858e-02
-1.547717957498778371e-02
-1.560884211570785080e-02
-1.604386726940759678e-02
-1.731008206111234529e-02
-1.978252566281374358e-02
-2.365345590516741703e-02
-2.893618411933772394e-02
-3.549237262779068869e-02
-4.306885173994919741e-02
-5.133086462191861071e-02
-5.988331308351876880e-02
-6.827840663763704021e-02
-7.601491334069507277e-02
-8.253885407605410229e-02
-8.725652763179195248e-02
-8.956783559539890915e-02
-8.892180221904366633e-02
-8.488870518376354091e-02
-7.723654383839356763e-02
-6.599569229413142224e-02
-5.149579091625859639e-02
-3.436338880402026175e-02
-1.547656523425969613e-02
4.118168123252663460e-03
2.331324209800881425e-02
4.105310756642781972e-02
5.643362386510773765e-02
6.877206130400762008e-02
7.763926908446172614e-02
8.285450021118351271e-02
8.445174005303945908e-02
8.263204578021993152e-02
7.771796236328398777e-02
7.012318096150006730e-02
6.034402732208485332e-02
4.897083413402935487e-02
3.670901063931451824e-02
2.439391148537099763e-02
1.298211581373898138e-02
3.505192346390427482e-03
-3.019974695525604047e-03
-5.719221263819580792e-03
-4.010770195938102856e-03
2.249798393310999123e-03
1.266064631598213738e-02
2.623098374554178394e-02
4.142666848286166714e-02
5.631219460453003312e-02
6.877947957837146631e-02
7.683572940306601651e-02
7.890777841850718510e-02
7.411205326987266306e-02
6.244005007998698620e-02
4.481966490721098900e-02
2.303168230965610408e-02
-5.148274790178347660e-04
-2.311890739271778294e-02
-4.218488760796348935e-02
-5.561587718723234874e-02
-6.213702900934135742e-02
-6.149223397257046198e-02
-5.447889421956346456e-02
-4.281348845493634231e-02
-2.885050866136306541e-02
-1.520325638992842815e-02
-4.331878496251957006e-03
1.831384168908652826e-03
2.158251841443453029e-03
-3.540034236023292119e-03
-1.453272342391834573e-02
-2.933196061088111026e-02
-4.596026125128597345e-02
-6.227024434740541931e-02
-7.625947398983004555e-02
-8.633006324569773848e-02
-9.145826125313878674e-02
-9.125952187633812329e-02
-8.595485525795470982e-02
-7.626040394120267574e-02
-6.323139701529620349e-02
-4.809307741643339268e-02
-3.208593228713351592e-02
-1.634305553563467767e-02
-1.806810302320535633e-03
1.081705771854834380e-02
2.107524205481869917e-02
2.876156393093546454e-02
3.389776783893239109e-02
3.670434315301062539e-02
3.756218075285035207e-02
3.696442956115031375e-02
3.545876373588247032e-02
3.358305526090398646e-02
3.180101765431669891e-02
3.044721881495013327e-02
2.969158624486720882e-02
2.953140645757973415e-02
2.981401104788120732e-02
3.028689143516386309e-02
3.066554416591227641e-02
3.070470463918973519e-02
3.025718026463793467e-02
2.930684330481006863e-02
2.796808917544916714e-02
2.645188897410970588e-02
2.500656152974404384e-02
2.384756682631802502e-02
2.309341815053483557e-02
2.272350366728833129e-02
2.256850414706623384e-02
2.233644085212674324e-02
2.166905426285299641e-02
2.021621067530328733e-02
1.771200844731698337e-02
1.403609596866980253e-02
9.247347647773018764e-03
3.583490772099840599e-03
-2.572083256529716921e-03
-8.748090706445114245e-03
-1.445471954571582451e-02
-1.925006770425524705e-02
-2.279101658689220225e-02
-2.486054919411394282e-02
-2.536968604057523655e-02
-2.433834890674125076e-02
-2.186411529080775629e-02
-1.808995434845478076e-02
-1.318122974961660407e-02
-7.318803967918206116e-03
-7.098743329939528196e-04
6.387506344038038769e-03
1.363504546772835793e-02
2.059148112833327979e-02
2.670793279121724123e-02
3.134977272286470357e-02
3.384812057264273422e-02
3.357744451742622482e-02
3.004923845487322137e-02
2.300674713567475715e-02
1.250336938180363067e-02
-1.051690064514443357e-03
-1.689274757163611307e-02
-3.394737583158381061e-02
-5.093375779470756676e-02
-6.649468430908551941e-02
-7.935052351948457261e-02
-8.844947732701476106e-02
-9.309284908679246739e-02
-9.301604962919832187e-02
-8.841226249669284498e-02
-7.989416884861801071e-02
-6.839862685329023417e-02
-5.504824970508812032e-02
-4.099098103596794662e-02
-2.724279265886318802e-02
-1.455870449869132999e-02
-3.353200572893386133e-03
6.316788198763724493e-03
1.470373864858415258e-02
2.226520122154426393e-02
2.952279614225580481e-02
3.691155557703772183e-02
4.464943287168810643e-02
5.265402317376970120e-02
6.052530760111059227e-02
6.760077834257921525e-02
7.307482712923824009e-02
7.616059465161456599e-02
7.626246559837092376e-02
7.312339538140161244e-02
6.691451681180211886e-02
5.824478053581100268e-02
4.808397509990311458e-02
3.761031975388440252e-02
2.801019681133195410e-02
2.026884892848729303e-02
1.499428261460800452e-02
1.231105910742894168e-02
1.184693804131150066e-02
1.281617371868483402e-02
1.418272457023097774e-02
1.486930130473133015e-02
1.396808626538792800e-02
1.090862866015365404e-02
5.548195770419647038e-03
-1.832291208347915090e-03
-1.062170719209135430e-02
-2.003570741520126208e-02
-2.929669471012689291e-02
-3.779136247430248119e-02
-4.516681692954594568e-02
-5.134263678637519118e-02
-5.643866559585915960e-02
-6.064130999646228509e-02
-6.404873320183940288e-02
-6.654280059571848760e-02
-6.773054952871351841e-02
-6.698102493164941051e-02
-6.355833783609943222e-02
-5.682483259409468190e-02
-4.646620506099866099e-02
-3.267934395233462741e-02
-1.626716472487133719e-02
1.397131034040356712e-03
1.854471432273261527e-02
3.329936667831556035e-02
4.402391301401843010e-02
4.965070522086013904e-02
4.991982152608696877e-02
4.546452930312262775e-02
3.771470501057026109e-02
2.862869246088141709e-02
2.030352957102657396e-02
1.454331936041439871e-02
1.247841830353301970e-02
1.432044230983695390e-02
1.931090716479286901e-02
2.588023603011160856e-02
3.198783542416339110e-02
3.557325189705052432e-02
3.502235105694061906e-02
2.954713346462087969e-02
1.939475682842055348e-02
5.837127859328966606e-03
-9.060629104332938721e-03
-2.284666218408280824e-02
-3.317941163119240283e-02
-3.831049541389307256e-02
-3.745108408096676361e-02
-3.094374739810728386e-02
-2.020290137157752797e-02
-7.435974273764946185e-03
4.796373692102201547e-03
1.408914962287697789e-02
1.866554942509227738e-02
1.771647880263071267e-02
1.153965757699064974e-02
1.453840627246530404e-03
-1.048907621771554000e-02
-2.192997495615506623e-02
-3.067564634723847147e-02
-3.512150082622307601e-02
-3.454014990681415070e-02
-2.918313249361439293e-02
-2.018385388403039216e-02
-9.291302871920941245e-03
1.502570799002216767e-03
1.036051671310346534e-02
1.594101876517913310e-02
1.761781530949968477e-02
1.554232476096516213e-02
1.054818777100477098e-02
3.929603580658493772e-03
-2.851494490024024386e-03
-8.464414656526265610e-03
-1.195430599593725468e-02
-1.288857840327105493e-02
-1.138560396460333753e-02
-8.032034552843774627e-03
-3.716849938656184398e-03
5.762688103568792616e-04
3.973360261764050973e-03
5.872828604189295892e-03
6.040988902713281469e-03
4.631510324410415338e-03
2.135190486420582984e-03
-7.220848807526335927e-04
-3.109580706116015295e-03
-4.226431701562241572e-03
-3.421326939633571179e-03
-2.840523678273934594e-04
5.297725502392621952e-03
1.311799794698888244e-02
2.266679657967991465e-02
3.317654801016749894e-02
4.369679253610533193e-02
5.319247361177648070e-02
6.065865674947205910e-02
6.524105578731480282e-02
6.634797828448341095e-02
6.373668379474065060e-02
5.755723314162938808e-02
4.834080826648860102e-02
3.692739410970964642e-02
2.433865985169241658e-02
1.161378861757365530e-02
-3.638673554544075844e-04
-1.101586232411131891e-02
-2.016107907805249344e-02
-2.802751835458085206e-02
-3.517425150402409689e-02
-4.233285184876654089e-02
-5.019607623095001525e-02
-5.919577037437463718e-02
-6.931831032486342192e-02
-8.000223908900322423e-02
-9.014907959960079264e-02
-9.825682471444177613e-02
-1.026604406843668604e-01
-1.018400654099936714e-01
-9.474059211138774472e-02
-8.103996710790642433e-02
-6.130964468062782835e-02
-3.702848604501354085e-02
-1.043771535382664178e-02
1.574574662478245984e-02
3.871304907921797878e-02
5.598049751706654642e-02
6.576871199127623524e-02
6.727840623817303578e-02
6.081522855581349141e-02
4.774257054674715950e-02
3.027118512980925269e-02
1.112223837120825294e-02
-6.878969759393806921e-03
-2.121141956065884099e-02
-3.000376358882850258e-02
-3.226467036508416653e-02
-2.796745903106816547e-02
-1.798380961069757922e-02
-3.886249108309720174e-03
1.234071345724837773e-02
2.862860879446023007e-02
4.313707849870208888e-02
5.450124781713840127e-02
6.197961674285389078e-02
6.548645484504364567e-02
6.551287004820466331e-02
6.295893704153288084e-02
5.891267108343821446e-02
5.441831887897800868e-02
5.027568951612231690e-02
4.690456038110712988e-02
4.429513150515312220e-02
4.204941127637681908e-02
3.950203073729925685e-02
3.589499987901919459e-02
3.057159365672268425e-02
2.315137410639426380e-02
1.365182067705052876e-02
2.531599942468473752e-03
-9.355376991575733298e-03
-2.088958843977918589e-02
-3.087781952480157799e-02
-3.827332660592092095e-02
-4.238321025511757739e-02
-4.302213512217967217e-02
-4.057930577132875388e-02
-3.598007608607339813e-02
-3.054255516748841451e-02
-2.574986417194835911e-02
-2.297653428161651468e-02
-2.321925353188999258e-02
-2.688493216351545145e-02
-3.368151464913039794e-02
-4.263971526884728636e-02
-5.226953467111041668e-02
-6.082839868161540875e-02
-6.665341368509750120e-02
-6.849387037400708755e-02
-6.577585601924457182e-02
-5.874053442642757777e-02
-4.842034916290320623e-02
-3.644922736472865077e-02
-2.473764281320806058e-02
-1.507385812676030612e-02
-8.731944557026348822e-03
-6.170388571622210244e-03
-6.890556278527422418e-03
-9.494110567971643724e-03
-1.193832926672299885e-02
-1.194632287455096864e-02
-7.494377175618011436e-03
2.721123504568680879e-03
1.893463036673577460e-02
4.015697619610963942e-02
6.425481490394109596e-02
8.825655453733326217e-02
1.088312841513088686e-01
1.228515360713097054e-01
1.279332221814385717e-01
1.228505406774892533e-01
1.077490674871286885e-01
8.412102383812286588e-02
5.455392226478512213e-02
2.230723620134716229e-02
-9.197723969916513087e-03
-3.687791812208295050e-02
-5.839071416797041170e-02
-7.237636850090393981e-02
-7.851599374420073496e-02
-7.741872223520818164e-02
-7.038341538792748653e-02
-5.909856450752346002e-02
-4.534618885505915103e-02
-3.076284735851172319e-02
-1.668810245449124652e-02
-4.104704869013903190e-03
6.347635495204697470e-03
1.431645196435856263e-02
1.967230412623567626e-02
2.246136500700004340e-02
2.288501573189578170e-02
2.130040048862915508e-02
1.822380694914002217e-02
1.431464146806840990e-02
1.032287237553896654e-02
6.995420822137216402e-03
4.953031307901989595e-03
4.563452099314718735e-03
5.844482746490590498e-03
8.428589361115004439e-03
1.160905459203572486e-02
1.446860180873018979e-02
1.606992910507122618e-02
1.566938724932925506e-02
1.290531828487728738e-02
7.914495587531083370e-03
1.343893449262976297e-03
-5.752198914070012423e-03
-1.211320768176991740e-02
-1.653114720659216996e-02
-1.811187847077844887e-02
-1.648071524427086737e-02
-1.188526165320892905e-02
-5.170442399986751106e-03
2.371152528557893269e-03
9.242812777936235819e-03
1.402962722113328294e-02
1.566629923951295272e-02
1.363115302790605769e-02
8.027855850372021471e-03
-4.581330315704505718e-04
-1.071369627024959525e-02
-2.142465170057650942e-02
-3.132276945235422383e-02
-3.939966674602350671e-02
-4.504479313699850940e-02
-4.808472759749309045e-02
-4.872517437586551536e-02
-4.741948866531162099e-02
-4.470305423606765055e-02
-4.103801523934734463e-02
-3.670698058902356620e-02
-3.177930335606325013e-02
-2.615343788149693954e-02
-1.965880587871636845e-02
-1.218546858594927486e-02
-3.803241868364887548e-03
5.164926588329642188e-03
1.413852367641004609e-02
2.234955091776600830e-02
2.897379117357665873e-02
3.329435566978851402e-02
3.486001283215559021e-02
3.360111870168364795e-02
2.987497833864382127e-02
2.442792813182147887e-02
1.827966856921307143e-02
1.255219554450986812e-02
8.277337542185079014e-03
6.220971668868823662e-03
6.757833451707891126e-03
9.819685330013896291e-03
1.492418325805684558e-02
2.127558252060341229e-02
2.791490640788963154e-02
3.388900373832958585e-02
3.840634712184588101e-02
4.095226953776566481e-02
4.134607597918754651e-02
3.973471460119000487e-02
3.652980796295410976e-02
3.230452042582848682e-02
2.767242852722717056e-02
2.317169190944497192e-02
1.917474906754725386e-02
1.583754399726940848e-02
1.309436037686804652e-02
1.069617521525900380e-02
8.283305267003441413e-03
5.477911229662487183e-03
1.979163684844771967e-03
-2.356263801177715250e-03
-7.463319804889645762e-03
-1.305765790275385980e-02
-1.866870575057048148e-02
-2.371345725914769664e-02
-2.760039639432995684e-02
-2.984671659715514361e-02
-3.018801268278716379e-02
-2.865891148278738171e-02
-2.562628101213411391e-02
-2.176367112112816832e-02
-1.796565218247098139e-02
-1.521212311504172368e-02
-1.440330240876801574e-02
-1.619370408341400461e-02
-2.085601486373629687e-02
-2.820237724981208491e-02
-3.758131217906715560e-02
-4.795486681467203693e-02
-5.804513443650395621e-02
-6.652525698944820876e-02
-7.222049457257806448e-02
-7.428222571115269957e-02
-7.230272197365136821e-02
-6.635041840162070326e-02
-5.692177107779169964e-02
-4.482312619503173168e-02
-3.101044691649789548e-02
-1.642293406554799079e-02
-1.846573215356250852e-03
1.216464395671727761e-02
2.529677659488117208e-02
3.741790873756424551e-02
4.847513896760171498e-02
5.837891689687151747e-02
6.691024913990005485e-02
7.368052862013657611e-02
7.816025659877451348e-02
7.977488220033140953e-02
7.804772303575771564e-02
7.275595751937000144e-02
6.405957323864014397e-02
5.256668412195455303e-02
3.931128477137277311e-02
2.563858446284700277e-02
1.301424764274247692e-02
2.792246190398653405e-03
-4.012772746027244708e-03
-6.901476220580300691e-03
-5.976355814080243356e-03
-1.918852031226755961e-03
4.140130205791035800e-03
1.083112065410263627e-02
1.679606480802184332e-02
2.092704910113069722e-02
2.254636599830842081e-02
2.149372076117938082e-02
1.810686571623879026e-02
1.310506798296352804e-02
7.405347172701101308e-03
1.914754387545960883e-03
-2.654818750762308853e-03
-5.910271220532208741e-03
-7.816535173146250265e-03
-8.649571366914141426e-03
-8.881923412749671148e-03
-9.035026653067516553e-03
-9.538912206236302427e-03
-1.063596931835958034e-02
-1.235212296405904103e-02
-1.453956958410216813e-02
-1.697502427480016007e-02
-1.948150711336791088e-02
-2.203427456569978168e-02
-2.481473477413013995e-02
-2.818953751384568537e-02
-3.261233823479074007e-02
-3.846793214163461705e-02
-4.589678739056070322e-02
-5.464747861309535160e-02
-6.400218467063895078e-02
-7.280619244754006625e-02
-7.960916851638955016e-02
-8.289913051118466547e-02
-8.138601903160141982e-02
-7.427656347996758335e-02
-6.147984441258918381e-02
-4.369467372468776450e-02
-2.235338462025171849e-02
5.732912994202768453e-04
2.287570836366575183e-02
4.245182901430310379e-02
5.763308759244638313e-02
6.742634951368213503e-02
7.162695710480526667e-02
7.078564026076181182e-02
6.604299476964857474e-02
5.887225207311352210e-02
5.078818368621055429e-02
4.308364174722115192e-02
3.664509363766522282e-02
3.187743549108980334e-02
2.874167984047635085e-02
2.688323136749396283e-02
2.580937704781303965e-02
2.506647388824444558e-02
2.437152275554333586e-02
2.366779550346339786e-02
2.309585973874876338e-02
2.289419656748183790e-02
2.326201206451737613e-02
2.422642030348238010e-02
2.555477833410996907e-02
2.674111904022274944e-02
2.707638712178463483e-02
2.579029535389116418e-02
2.223342183324727300e-02
1.605632549436179085e-02
7.340872160525804477e-03
-3.351870977770957799e-03
-1.503491439258106827e-02
-2.644495188681026537e-02
-3.626130926202997262e-02
-4.335062875702445223e-02
-4.698640701433302175e-02
-4.699632641623226192e-02
-4.380451417751865528e-02
-3.835740247688593924e-02
-3.194609611341263367e-02
-2.595984539730205806e-02
-2.161970393754062553e-02
-1.974564250486546962e-02
-2.060345213815877041e-02
-2.386126077708797255e-02
-2.866299376554368172e-02
-3.380243653725480135e-02
-3.796167910058759198e-02
-3.996570122768790256e-02
-3.900300059750802517e-02
-3.477056959271836167e-02
-2.751811411356400866e-02
-1.798743952096819310e-02
-7.263855295959078043e-03
3.427080993844342643e-03
1.293537046889223913e-02
2.037314734809643132e-02
2.523909123700026833e-02
2.746272754136528174e-02
2.736817418362197385e-02
2.557298782801224746e-02
2.284906249088549529e-02
1.997695065292957178e-02
1.762212911899690981e-02
1.625293694299272118e-02
1.610778681767908310e-02
1.720701380505567854e-02
1.939538617588843980e-02
2.239693131558940023e-02
2.586497810764842170e-02
2.941631667307464254e-02
3.264701773109537908e-02
3.513598365371163601e-02
3.644807894343811416e-02
3.614989952784893046e-02
3.384741288278931420e-02
2.924684407790138080e-02
2.223054321715330420e-02
1.293104358974129196e-02
1.781869523068829730e-03
-1.047527070059800502e-02
-2.284009535624108300e-02
-3.416137650789539265e-02
-4.328975456665493105e-02
-4.925032407239511578e-02
-5.140187280005520387e-02
-4.954926052058955532e-02
-4.398304563910923615e-02
-3.543481478857368749e-02
-2.495465573044632762e-02
-1.373464446134389783e-02
-2.914803099473235737e-03
6.587575048919318277e-03
1.418946888976275675e-02
1.967258393414145212e-02
2.313014548884549659e-02
2.484781390911324633e-02
2.515280933173924885e-02
2.427339701145357631e-02
2.224843301270100493e-02
1.891398280718652875e-02
1.397395580222402303e-02
7.139050908982057242e-03
-1.701295551786757149e-03
-1.232075917962884015e-02
-2.405871373445123140e-02
-3.581873857669012201e-02
-4.617695098216365035e-02
-5.358805667751569829e-02
-5.665239468582076998e-02
-5.439002775090679559e-02
-4.646251702655609939e-02
-3.329115271576031654e-02
-1.604065524613639687e-02
3.534621191304772314e-03
2.335542671525581149e-02
4.134246212717641866e-02
5.573712605059803066e-02
6.535469460567805422e-02
6.972129399060575383e-02
6.907164909374902129e-02
6.421517660245590342e-02
5.630651266750141132e-02
4.657644171980136749e-02
3.608584260637109908e-02
2.555720795919964178e-02
1.531751624039198734e-02
5.357767853345744152e-03
-4.514781877113040881e-03
-1.447864580393792844e-02
-2.451241299660924383e-02
-3.427577920754817237e-02
-4.309428151768117388e-02
-5.005760984473296010e-02
-5.421124216795560058e-02
-5.479548187853075514e-02
-5.147125964920137159e-02
-4.447220868951329287e-02
-3.463785720498556431e-02
-2.330990918310791443e-02
-1.210615607555193263e-02
-2.616779705222942176e-03
3.911700435927912417e-03
6.833964634722017664e-03
6.244958689210167342e-03
2.965706978415951801e-03
-1.625156888160768018e-03
-5.880605609927218660e-03
-8.234260495480521386e-03
-7.534483736393732256e-03
-3.291613729983828250e-03
4.214636629726056793e-03
1.398996564634614678e-02
2.452944016726727600e-02
3.412549132350789494e-02
4.121304270426713601e-02
4.467809612899534960e-02
4.406553897859054325e-02
3.964514978038347071e-02
3.232633449028998740e-02
2.344488922361804770e-02
1.447184736971655547e-02
6.709542825907681418e-03
1.040447990692996288e-03
-2.219535219415540335e-03
-3.336373088989393228e-03
-3.044640059290220670e-03
-2.336750202611571903e-03
-2.206136519489090668e-03
-3.404156407908882215e-03
-6.265221663628427889e-03
-1.063730812813178106e-02
-1.592978900825499367e-02
-2.126332956211493888e-02
-2.568358987362449539e-02
-2.838685429347244035e-02
-2.890437377671626479e-02
-2.720324502139140690e-02
-2.368228214703847756e-02
-1.906659807627145153e-02
-1.422851585609819121e-02
-9.979366399880958138e-03
-6.882784523320028235e-03
-5.133987607271294461e-03
-4.532820048741390169e-03
-4.555197483243867210e-03
