6.261588123248812421e-03
-1.911949008040236819e-02
-4.129584852779326354e-02
-5.772392680883714489e-02
-6.688306019999862295e-02
-6.849653042941868109e-02
-6.349532082855323389e-02
-5.373968695960037317e-02
-4.156680582050268496e-02
-2.926937812244160761e-02
-1.862185296451849409e-02
-1.055560923298540232e-02
-5.046138990799180907e-03
-1.223653209157841981e-03
2.333743221643560378e-03
7.205451577405184299e-03
1.473234614930109959e-02
2.571273469930056982e-02
4.025423945435539080e-02
5.780133956716301813e-02
7.731132282262354050e-02
9.751402347672469273e-02
1.171727171020977704e-01
1.352693972756010554e-01
1.510654110860462640e-01
1.640301412660009894e-01
1.736742462155478894e-01
1.793573000194741696e-01
1.801525612016400824e-01
1.748395222310493713e-01
1.620601548878879972e-01
1.406260904266871115e-01
1.099143564018717767e-01
7.025265468149798076e-02
2.318263684401651592e-02
-2.849354637161199966e-02
-8.093427149046114599e-02
-1.297365196479869365e-01
-1.705962249039870426e-01
-2.000250986151661525e-01
-2.159739137455645996e-01
-2.182222679186691383e-01
-2.084384323015238960e-01
-1.898810945328469613e-01
-1.667924157548821285e-01
-1.436009376180235886e-01
-1.240971566362439604e-01
-1.107532069345203291e-01
-1.043284065561018575e-01
-1.038406698131948136e-01
-1.069037187350116297e-01
-1.103497331682020133e-01
-1.109948072534068936e-01
-1.063745030892779275e-01
-9.528573760124121883e-02
-7.801712105092965810e-02
-5.622218039500113951e-02
-3.247214445519364806e-02
-9.598418399870890794e-03
1.001714560885655358e-02
2.503442791661444206e-02
3.548721598635458385e-02
4.277297240669553080e-02
4.929703515587648827e-02
5.784864228018619936e-02
7.084986774025303635e-02
8.965097189161408409e-02
1.140393329080084533e-01
1.420851386957489026e-01
1.703748057052849041e-01
1.945983096750553420e-01
2.103777223900409887e-01
2.141684822779559572e-01
2.040445586021678581e-01
1.801983703745244636e-01
1.450421754696226972e-01
1.028780174554267957e-01
5.919137237260302387e-02
1.970095256390536065e-02
-1.065239259376329906e-02
-2.858147102105314252e-02
-3.302352354925366940e-02
-2.529680178780849970e-02
-8.815670017559708305e-03
1.157665294681508097e-02
3.052520401260518795e-02
4.315183764017983814e-02
4.592703830169906493e-02
3.726415837647921447e-02
1.773337146922567692e-02
-1.013094162422203959e-02
-4.237663260889674988e-02
-7.441540942415300619e-02
-1.018807879963775503e-01
-1.213959717390045850e-01
-1.311105908217969906e-01
-1.309170795134733112e-01
-1.223244243527427944e-01
-1.080351148824253010e-01
-9.132675918341370824e-02
-7.537245491780664164e-02
-6.263818280568049512e-02
-5.447174511954220449e-02
-5.095226991147731171e-02
-5.101235118574522914e-02
-5.278867259491748509e-02
-5.411293440875544758e-02
-5.303149268875453903e-02
-4.824308584179980847e-02
-3.936787910291799503e-02
-2.700160223167367285e-02
-1.255638826403692593e-02
2.065428455617294989e-03
1.488608634751943660e-02
2.426361822792929071e-02
2.921409332990618571e-02
2.958380612098458762e-02
2.604597340494155602e-02
1.993496468970437641e-02
1.296384188956930736e-02
6.891308957949336678e-03
3.208585508223213423e-03
2.905556373684375221e-03
6.352644870793369009e-03
1.330642699963273390e-02
2.302003648971878008e-02
3.441997336265473217e-02
4.630278889014537158e-02
5.750900123028893085e-02
6.704521516149676563e-02
7.414425561147816590e-02
7.827170159130585059e-02
7.910054607510155766e-02
7.648058548254867139e-02
7.042484698982576230e-02
6.112376810264802396e-02
4.898281647092152247e-02
3.466553348712479721e-02
1.911593542615010882e-02
3.534542559105641885e-03
-1.070858380838736121e-02
-2.222461670479198431e-02
-2.980290948010599211e-02
-3.262028562146858379e-02
-3.041951117058074028e-02
-2.361431429525806189e-02
-1.328933286081152368e-02
-1.082900719834972367e-03
1.103553813149906263e-02
2.105875813868036267e-02
2.725472048967996289e-02
2.844195752928329463e-02
2.417605089176585662e-02
1.481272515521503234e-02
1.437263100164763024e-03
-1.432382719875618243e-02
-3.057046206580680409e-02
-4.542361727313985048e-02
-5.729217524714030896e-02
-6.506641310294787595e-02
-6.821091072598248206e-02
-6.675261633968626596e-02
-6.118190587405099301e-02
-5.230064852322659219e-02
-4.105809639433245783e-02
-2.841181729765640887e-02
-1.523845860063449340e-02
-2.301588983120540083e-03
9.733897898214667610e-03
2.026452870730564154e-02
2.871701954854678079e-02
3.454782652320275566e-02
3.728612067943206515e-02
3.661620979745620202e-02
3.247910304745279392e-02
2.516173612563072162e-02
1.533995199361351362e-02
4.049012266993296666e-03
-7.428180929768456175e-03
-1.774371356287195514e-02
-2.570605264552321134e-02
-3.049378257595038513e-02
-3.181167199524408129e-02
-2.994811161537191263e-02
-2.571336014641964832e-02
-2.026539006287270128e-02
-1.485790373376980229e-02
-1.056617044345990047e-02
-8.054821601461632438e-03
-7.444589108363439470e-03
-8.312970786684041949e-03
-9.831640024525984539e-03
-1.100870865415940099e-02
-1.097548960876194510e-02
-9.242939897154901080e-03
-5.857133134195885785e-03
-1.406031907306177532e-03
3.133230826351270700e-03
6.675081329835249634e-03
8.365820428254957045e-03
7.893489490942566175e-03
5.677714891808169351e-03
2.874003426031428859e-03
1.170125595908119015e-03
2.404815524722606762e-03
8.088240901553925277e-03
1.893671728078765229e-02
3.454134883326963334e-02
5.326794517303611032e-02
7.243717100889895955e-02
8.876969257228049803e-02
9.901595906454149776e-02
1.006402025577395054e-01
9.240644277968193543e-02
7.472765865416491904e-02
4.968642941551945635e-02
2.070647594523212370e-02
-8.066445925097309733e-03
-3.254760890303566578e-02
-4.949291082644622503e-02
-5.710492410767017968e-02
-5.533234444854941148e-02
-4.579849395258817762e-02
-3.137905191207880640e-02
-1.552951435484292708e-02
-1.519746676693160478e-03
8.247395961257283220e-03
1.267888376507617966e-02
1.210043420167769557e-02
8.017693538441693357e-03
2.599776217274609585e-03
-1.978764713736364325e-03
-4.169421509990625663e-03
-3.495993490923623992e-03
-7.051536617916458194e-04
2.414429707416398951e-03
3.497589720392626361e-03
2.359041817572432587e-04
-8.978683910503514054e-03
-2.455873329440534658e-02
-4.549634798401722136e-02
-6.946409301645598000e-02
-9.321937822839233834e-02
-1.132189441497760407e-01
-1.263031837379672284e-01
-1.302976716728887208e-01
-1.244031141711528787e-01
-1.092977676276434690e-01
-8.694429016825297452e-02
-6.015912050464405914e-02
-3.205131040141658005e-02
-5.458845386146479739e-03
1.749921677532018799e-02
3.567245374175783551e-02
4.890007216435302700e-02
5.782670482385138255e-02
6.357997702095402603e-02
6.740035722969235643e-02
7.031380715918819635e-02
7.291656397055426564e-02
7.530627911426615584e-02
7.715461206410995088e-02
7.788310201848583358e-02
7.688411941183181941e-02
7.372528955043912424e-02
6.828787946223847938e-02
6.081242228112414272e-02
5.185137596836214557e-02
4.215177951081300334e-02
3.250524355400928600e-02
2.360562122856283210e-02
1.594699284171446213e-02
9.779517972867649012e-03
5.123164273038830624e-03
1.824319358513314115e-03
-3.684028312439108221e-04
-1.733600977988872249e-03
-2.529758832204406088e-03
-2.978190680368725252e-03
-3.271609592865791158e-03
-3.594907149574905897e-03
-4.141444124920515973e-03
-5.111082187433627078e-03
-6.684155318784950478e-03
-8.975887730195111075e-03
-1.198502349005638005e-02
-1.555556371054969689e-02
-1.936964024624336297e-02
-2.298257927413686896e-02
-2.589982838110450186e-02
-2.768270983104526711e-02
-2.805953347424409300e-02
-2.701362188802082509e-02
-2.482210681385010193e-02
-2.202891877050240296e-02
-1.935024991478827630e-02
-1.752747348469371746e-02
-1.715694268679811979e-02
-1.853451331365033039e-02
-2.155258119136957765e-02
-2.567838136068229665e-02
-3.002586977549502600e-02
-3.351311885745360264e-02
-3.507728989389190255e-02
-3.390444790390041707e-02
-2.962534298729415858e-02
-2.243258494875285600e-02
-1.308892964401344242e-02
-2.818010738226957995e-03
6.906572088966562994e-03
1.463552612593759308e-02
1.922794277586005462e-02
2.008700199627401484e-02
1.729658328866761144e-02
1.162650066138937698e-02
4.400031602034663869e-03
-2.754314117019067074e-03
-8.220115408513532090e-03
-1.071693885245116398e-02
-9.564979260736168262e-03
-4.834897246416489970e-03
2.650537389653997988e-03
1.146669966326365267e-02
1.986179237601090261e-02
2.610236074839974996e-02
2.882056756946142079e-02
2.729280623316836588e-02
2.159252543781015055e-02
1.258549190044673527e-02
1.767918214169571234e-03
-9.019809123929457134e-03
-1.794548713006216892e-02
-2.353182225762602900e-02
-2.492744600913407785e-02
-2.204845862605114143e-02
-1.556421340446494626e-02
-6.733766032632919341e-03
2.869657534110262379e-03
1.168625638340048054e-02
1.847989921838178590e-02
2.256699303874963591e-02
2.391878885949522832e-02
2.311990599739345911e-02
2.119675564377655405e-02
1.935669447026240608e-02
1.869645491696790909e-02
1.994320233916773225e-02
2.328287113733261068e-02
2.831054865535607978e-02
3.411120225683264562e-02
3.945175757275894146e-02
4.304309396983339170e-02
4.381727769903393660e-02
4.116351966633559345e-02
3.507569973096191784e-02
2.618242051394758033e-02
1.565349818266668913e-02
5.000021224059342587e-03
-4.195606076233799817e-03
-1.057102157815697704e-02
-1.324460262441356714e-02
-1.199883020814723061e-02
-7.352593458420693048e-03
-5.069340341919276183e-04
6.830609248913072085e-03
1.271782356517639836e-02
1.530398158695639096e-02
1.315786103653398403e-02
5.542298107630176662e-03
-7.414158250107688586e-03
-2.468348440176237890e-02
-4.445585311418642771e-02
-6.439672111961325385e-02
-8.200571744937504293e-02
-9.501875966375614158e-02
-1.017829949742066753e-01
-1.015347675462957427e-01
-9.452506017812091488e-02
-8.196324787356748520e-02
-6.578425125570884491e-02
-4.827981005258602520e-02
-3.166413400180781434e-02
-1.766076064273628538e-02
-7.196452863193536498e-03
-2.683672429005592996e-04
3.984376140744354949e-03
7.017309866977940180e-03
1.048100206681193414e-02
1.577326504210103952e-02
2.364524711705025956e-02
3.395483935463221303e-02
4.563045942689315793e-02
5.686214242639677646e-02
6.548491068653813918e-02
6.947336263554487745e-02
6.743720023804647412e-02
5.900243658307557926e-02
4.498438851456754151e-02
2.730234145126745823e-02
8.642733475500853635e-03
-8.064746518958589017e-03
-2.024874639117356379e-02
-2.624432127368671319e-02
-2.566336230378130079e-02
-1.949848731806611349e-02
-9.927752001310331809e-03
1.472237624355228480e-04
7.737245956302447186e-03
1.044212806436755486e-02
7.021624274518106779e-03
-2.266506616532052570e-03
-1.564136362595433538e-02
-3.010130561999793675e-02
-4.199879954816537753e-02
-4.777374860858757399e-02
-4.469613676665535468e-02
-3.146504404471735239e-02
-8.539641710578284306e-03
2.186742919820456460e-02
5.613461724374327333e-02
8.984533997571826636e-02
1.185485799966888298e-01
1.385157972161105422e-01
1.473475983891719687e-01
1.443176533264240446e-01
1.303977174214835666e-01
1.079738143819965190e-01
8.032535957348876932e-02
5.098333618342726359e-02
2.310180059966681146e-02
-1.033823418685339557e-03
-2.027441762223346211e-02
-3.461620299135316492e-02
-4.497339969987663305e-02
-5.278531670297369888e-02
-5.955875466814115199e-02
-6.645270955371557209e-02
-7.399460168610451360e-02
-8.198106045818290277e-02
-8.957091168967436234e-02
-9.553418458052989615e-02
-9.858838297420401131e-02
-9.773846949882569746e-02
-9.254203834140004026e-02
-8.324341165039098045e-02
-7.075357472524290703e-02
-5.648865345240589031e-02
-4.210977873611766731e-02
-2.922537168748026021e-02
-1.912005770520226744e-02
-1.256319357361407318e-02
-9.728207829799814799e-03
-1.022750263369206353e-02
-1.324294273192563529e-02
-1.771433817936251404e-02
-2.254101236921547680e-02
-2.675502753665164046e-02
-2.963685481542379513e-02
-3.076135498156358158e-02
-2.997930314991294892e-02
-2.735322788899442401e-02
-2.307332209175420520e-02
-1.737880587183103162e-02
-1.050346923811297170e-02
-2.653715184539073325e-03
5.983561662140490095e-03
1.521452312524422014e-02
2.480880890960786983e-02
3.448139380662656323e-02
4.389524863125664200e-02
5.268652082868073572e-02
6.050621517069765254e-02
6.706676807883403535e-02
7.217998135132400184e-02
7.577494507513363176e-02
7.789013177425124779e-02
7.864117996913433384e-02
7.817295257632678185e-02
7.660929888245587849e-02
7.401521140602736193e-02
7.038332827244295209e-02
6.565059687542826317e-02
5.974287079061418870e-02
5.263725635540332515e-02
4.442618450611369313e-02
3.536502526022149151e-02
2.588731463599162549e-02
1.657802593188163753e-02
8.104505120213535002e-03
1.114707393107677857e-03
-3.879052633528896898e-03
-6.607529270716325231e-03
-7.119568567433922496e-03
-5.806002171993663447e-03
-3.362881947426357709e-03
-6.962678541795799120e-04
1.217323171481337132e-03
1.491157037224579221e-03
-5.195572267400246774e-04
-5.101865237175371923e-03
-1.212777916088822114e-02
-2.106705765441949096e-02
-3.106862033055192776e-02
-4.109638447420840834e-02
-5.009528424589310830e-02
-5.715791181351004280e-02
-6.166257226643903633e-02
-6.335936833711525162e-02
-6.239093635151651829e-02
-5.924657307319836086e-02
-5.466034194362243137e-02
-4.947313462394112987e-02
-4.448401580221989643e-02
-4.031680133164439184e-02
-3.732394775330112602e-02
-3.554248414700644093e-02
-3.470740998760677570e-02
-3.431838403479114952e-02
-3.374715061085205303e-02
-3.236712717082373958e-02
-2.968357329822523746e-02
-2.544297229591610532e-02
-1.970348590467152841e-02
-1.285409336433464625e-02
-5.577574741053754892e-03
1.239059265722181058e-03
6.634806649488650399e-03
9.726726913940341585e-03
9.860433572597845919e-03
6.734547880053155799e-03
4.775016005654844631e-04
-8.338147997788931953e-03
-1.874886003896714115e-02
-2.951427318886255813e-02
-3.927509571023345830e-02
-4.672933325509934233e-02
-5.079798372160199832e-02
-5.075344929471041489e-02
-4.629142694149643994e-02
-3.753845677990280683e-02
-2.500013456095335346e-02
-9.466269802436262648e-03
8.103697266625006779e-03
2.669062076410531892e-02
4.530157614070760841e-02
6.302221126592658096e-02
7.903763142829826893e-02
9.263412985621455320e-02
1.031996788752108929e-01
1.102402042687618822e-01
1.134212304299522245e-01
1.126324645753235126e-01
1.080598332003532558e-01
1.002396221274600985e-01
9.006642385384540372e-02
7.873262187484587893e-02
6.759175105620722490e-02
5.795825923058429280e-02
5.087689435415801431e-02
4.691023325768583357e-02
4.599754546219929352e-02
4.742930084881724628e-02
4.995958801898488233e-02
5.204756616666439406e-02
5.218587075138349934e-02
4.924712008317621431e-02
4.276715355671533575e-02
3.309037718455343224e-02
2.132912881279286701e-02
9.130713122743997628e-03
-1.706383518802383550e-03
-9.683290190610781278e-03
-1.400953729291038070e-02
-1.486101331301803788e-02
-1.340654430984627304e-02
-1.157454128011233679e-02
-1.159594144819876826e-02
-1.542184556018701830e-02
-2.415748738762418801e-02
-3.766529512672689428e-02
-5.446252892043505767e-02
-7.197621138407143959e-02
-8.713209714811495643e-02
-9.716472668186447448e-02
-1.004645954905374339e-01
-9.724610471599712258e-02
-8.983847018311344468e-02
-8.247183294555764099e-02
-8.054032129621176150e-02
-8.944971626165845735e-02
-1.132704543020943422e-01
-1.534882802899036613e-01
-2.081539086751825751e-01
-2.716719561916650649e-01
-3.353468900899838068e-01
-3.886439004514239404e-01
-4.209601772012580567e-01
-4.235746877512789332e-01
-3.913838588701057386e-01
-3.240542706857665323e-01
-2.263303424702609312e-01
-1.074042454057401452e-01
2.054930036842519958e-02
1.443926890325792356e-01
2.521991220617401108e-01
3.351465322904206845e-01
3.887595255069939970e-01
4.132701776667043747e-01
4.130604720301542798e-01
3.953459977782697310e-01
3.684173398642315300e-01
3.398373030557197971e-01
3.149818493580044398e-01
2.962154946673566380e-01
2.828333602937578850e-01
2.717212881659856194e-01
2.585254638348943312e-01
2.390202459982806171e-01
2.103385423839958523e-01
1.717845295699293451e-01
1.250660253635904606e-01
7.393169182294728747e-02
2.333930775088324805e-02
-2.161765022720960050e-02
-5.675836018399763039e-02
-7.959820243458512468e-02
-8.970981211957060331e-02
-8.861688692783284416e-02
-7.928990166912860960e-02
-6.539986269829017873e-02
-5.052726632821919611e-02
-3.751244297961739416e-02
-2.807793248089558366e-02
-2.277151650643674530e-02
-2.119330160510996680e-02
-2.240390332901012749e-02
-2.537863943276116169e-02
-2.937973801591668016e-02
-3.415911050962824186e-02
-3.996392557222416819e-02
-4.737767314141438924e-02
-5.707344947664438201e-02
-6.957249903524079238e-02
-8.508697764980764633e-02
-1.034878203414535958e-01
-1.243896948112486467e-01
-1.473012888123008679e-01
-1.717646957313119227e-01
-1.974104941439328575e-01
-2.238849466879330730e-01
-2.506538769715661585e-01
-2.767395350924526376e-01
-3.004855853599749382e-01
-3.194575955149363544e-01
-3.305654234844797035e-01
-3.304423259749996178e-01
-3.160451957512674936e-01
-2.853692050123828872e-01
-2.381182174047469235e-01
-1.761560224910696248e-01
-1.035909350961553427e-01
-2.641484483870411293e-02
4.828627143054622928e-02
1.134317759972462147e-01
1.631545673841426347e-01
1.938748320566135996e-01
2.050073640259449936e-01
1.991353838817989663e-01
1.815898435922747023e-01
1.594974833696296557e-01
1.404753971638939003e-01
1.312280910053879313e-01
1.363264511700287285e-01
1.574106424801656190e-01
1.929687648455833682e-01
2.387203916616876809e-01
2.885066610505856444e-01
3.354850848664260310e-01
3.733705714843987833e-01
3.974661194771936801e-01
4.052853256166452089e-01
3.966693349294763693e-01
3.734189251207467586e-01
3.385703992384538341e-01
2.955172808239501236e-01
2.472026338638157461e-01
1.955755634353263939e-01
1.414292557944756834e-01
8.463625632494428674e-02
2.469451851322029823e-02
-3.858044728751516828e-02
-1.044179963532811950e-01
-1.706959334588888377e-01
-2.339118090680286088e-01
-2.895573949222147170e-01
-3.328316794054024252e-01
-3.595423635418278363e-01
-3.669952724321153270e-01
-3.546669747752426716e-01
-3.244989559527392542e-01
-2.807317800612070258e-01
-2.292963642052270323e-01
-1.768744537728622612e-01
-1.298106172600894670e-01
-9.308859516487838492e-02
-6.956987977191096684e-02
-5.963639122331536313e-02
-6.129525885882891600e-02
-7.071069932121373802e-02
-8.304558700378394942e-02
-9.344004348896139955e-02
-9.793608397673708721e-02
-9.417757908681824441e-02
-8.176700768061417879e-02
-6.223215372853882488e-02
-3.863161657584762709e-02
-1.489290367255817482e-02
4.980374898538086903e-03
1.768103300238541009e-02
2.121285908237033335e-02
1.524602516218108439e-02
1.163223517232109261e-03
-1.819801435333158468e-02
-3.905065517500869859e-02
-5.731664183533326240e-02
-6.932273868428401320e-02
-7.241566935651616577e-02
-6.539436124305370024e-02
-4.868826263873804461e-02
-2.425250440588103129e-02
4.802709323059192736e-03
3.478630445709257613e-02
6.210580615522563741e-02
8.393244563418821025e-02
9.873041203147862876e-02
1.065482181095533110e-01
1.090092760335018979e-01
1.089920473954088809e-01
1.100486237594837102e-01
1.156633541127517761e-01
1.284892363923741121e-01
1.497107224501731670e-01
1.786634097054112247e-01
2.127957715636011327e-01
2.479935551406751981e-01
2.792163349432016939e-01
3.013326366301586345e-01
3.099985914349683847e-01
3.024145380676164785e-01
2.778171019469221070e-01
2.376164516672664428e-01
1.851586308682359183e-01
1.251660917090766656e-01
6.297026744574148183e-02
3.685672662466402127e-03
-4.852111833824392095e-02
-9.094171167125159050e-02
-1.225408531114315358e-01
-1.438646839800350186e-01
-1.566914319297803004e-01
-1.635189639811309437e-01
-1.670051620055401087e-01
-1.694723204487535995e-01
-1.725592975510027993e-01
-1.770633948472300212e-01
-1.829687967964200024e-01
-1.896204689496342466e-01
-1.959794657172773957e-01
-2.008909558249458438e-01
-2.033083856092648134e-01
-2.024405008848506049e-01
-1.978146739706713175e-01
-1.892724378727619894e-01
-1.769257728949076292e-01
-1.611034899421485700e-01
-1.423077711998976813e-01
-1.211862934368781453e-01
-9.851141045579381306e-02
-7.514996535953824552e-02
-5.200839346207196401e-02
-2.994748022070456428e-02
-9.675877089622086924e-03
8.354346318542149596e-03
2.401898167317681465e-02
3.753107778429189828e-02
4.937310226722779749e-02
6.015776567702803279e-02
7.044644261368171456e-02
8.057156871611326210e-02
9.051483757391880214e-02
9.988317124775308864e-02
1.080004340316656625e-01
1.141003474427258607e-01
1.175738955221241194e-01
1.182023669973762819e-01
1.163027700798246189e-01
1.127289492025537049e-01
1.087068149175797055e-01
1.055275770252313700e-01
1.041669089390050568e-01
1.049280183267982391e-01
1.072128551271343683e-01
1.095040484448545487e-01
1.095937944127826913e-01
1.050349386091302128e-01
9.372875352863339893e-02
7.451932623185553162e-02
4.764889533762525775e-02
1.494813047920213328e-02
-2.031217461111504974e-02
-5.390708912058320146e-02
-8.140087783432053969e-02
-9.900196436182280568e-02
-1.043489103200711671e-01
-9.705204483239997237e-02
-7.886111124911210357e-02
-5.340621670308675489e-02
-2.555060645230033609e-02
-4.788223477102775127e-04
1.729670164216188730e-02
2.480723906169252785e-02
2.119782312370050228e-02
7.878410354398509424e-03
-1.177382204520215775e-02
-3.309791394354986982e-02
-5.107650629042660706e-02
-6.131781813553257438e-02
-6.089587142206973058e-02
-4.888662620389645774e-02
-2.650426629688526145e-02
3.174114176062670101e-03
3.582402551348380648e-02
6.669298253008329458e-02
9.145351989812393334e-02
1.069221487775885021e-01
1.115133259646830105e-01
1.053589409203778832e-01
9.009582483793311669e-02
6.839081374609802533e-02
4.332136300374681698e-02
1.775069747319021202e-02
-6.172681998957534055e-03
-2.729690102465915508e-02
-4.548884926035838550e-02
-6.141392047134289212e-02
-7.614233481825152805e-02
-9.068540925582943557e-02
-1.055760373199002428e-01
-1.205938072508123127e-01
-1.347003755971075689e-01
-1.462026742254953771e-01
-1.531103553842546872e-01
-1.536100114033989716e-01
-1.465509667315937348e-01
-1.318314379461987262e-01
-1.105909877367379363e-01
-8.515239728782188211e-02
-5.870635495289638905e-02
-3.478601685259129217e-02
-1.662489439771842187e-02
-6.521056287831575315e-03
-5.336614333209279554e-03
-1.224157664847238744e-02
-2.476813651028638569e-02
-3.918285120463842197e-02
-5.112103624283979852e-02
-5.637264782224749721e-02
-5.167355721502700505e-02
-3.534860640365403150e-02
-7.676023802489745362e-03
2.910668295450561521e-02
7.116653503927714008e-02
1.137462709160429464e-01
1.520172584938994376e-01
1.819487558899164081e-01
2.010210958663580794e-01
2.086385320342972749e-01
2.061561008745358137e-01
1.965125921827233779e-01
1.835428560575985690e-01
1.711102897441822424e-01
1.622399093260234182e-01
1.584349516463159080e-01
1.593241453353708703e-01
1.627194332174252689e-01
1.650786702133663630e-01
1.622823714255847705e-01
1.505659845466830737e-01
1.274139083128816019e-01
9.222637384880849609e-02
4.661470687274677643e-02
-5.744612550630343040e-03
-5.967677008187338705e-02
-1.093897656865164547e-01
-1.494986946262120975e-01
-1.759922436359786790e-01
-1.869516737622675673e-01
-1.828820989814725906e-01
-1.665932832527164120e-01
-1.426563810721472869e-01
-1.165457778390638216e-01
-9.363484217080630945e-02
-7.823943133773497705e-02
-7.288915396296238858e-02
-7.795744164000584231e-02
-9.170815596251609414e-02
-1.107340857932865852e-01
-1.306879135640582057e-01
-1.471535922360118209e-01
-1.564851689070419494e-01
-1.564538299272089650e-01
-1.465882515052578661e-01
-1.281582627612223579e-01
-1.038237501780891747e-01
-7.703522216422900581e-02
-5.131713129099436943e-02
-2.958193033029555413e-02
-1.360969817397452569e-02
-3.788776029955143176e-03
8.440005246590567833e-04
2.287251811199507434e-03
3.062160604486503790e-03
5.618837229643718761e-03
1.179009412741456944e-02
2.240594881515845654e-02
3.714416193944395511e-02
5.463932683127611933e-02
7.281682009416713675e-02
8.937026735743200390e-02
1.022721494701199774e-01
1.102028177625053174e-01
1.128042023682401529e-01
1.107060463583675602e-01
1.053252108994550962e-01
9.849059584417893531e-02
9.198574388683614100e-02
8.711924617297849005e-02
8.442548341841714377e-02
8.356670890497633342e-02
8.345923291510969066e-02
8.259266433053358281e-02
7.946436666036893470e-02
7.302255235785919119e-02
6.300773082228840194e-02
5.010472404585469830e-02
3.586122215406304520e-02
2.238386931783781925e-02
1.187636982460376495e-02
6.123480612843193449e-03
6.040533870680750428e-03
1.139622230081652893e-02
2.077910799994367105e-02
3.182396939450124473e-02
4.165506415763249592e-02
4.745330013136242475e-02
4.702489297636522347e-02
3.924738628099511822e-02
2.429556852272548445e-02
3.598882420032086665e-03
-2.045785693736595912e-02
-4.502117740431597903e-02
-6.733255877928075173e-02
-8.524292876569490585e-02
-9.756599443929792059e-02
-1.041983760520471536e-01
-1.059909969815895359e-01
-1.044155465127644122e-01
-1.011177153205875534e-01
-9.747366460397313692e-02
-9.426177880798626563e-02
-9.152927735270088849e-02
-8.868082568385389497e-02
-8.475708798779114928e-02
-7.882028503637600325e-02
-7.033447004973282513e-02
-5.942837209200352300e-02
-4.695885075544647957e-02
-3.434611422838677874e-02
-2.321463671130042511e-02
-1.493004220161783108e-02
-1.015710353407666550e-02
-8.567415765120794946e-03
-8.794881622017650113e-03
-8.679029737450872500e-03
-5.763735958609211840e-03
2.050373384016208889e-03
1.585025327247167881e-02
3.521690618805463358e-02
5.803514987674883441e-02
8.068805227603516317e-02
9.863419966573923336e-02
1.072774370161805463e-01
1.029648109915473897e-01
8.390649075790720945e-02
5.081223264315001126e-02
7.084244275125148316e-03
-4.151172846051451315e-02
-8.767248938150756787e-02
-1.237531395198916973e-01
-1.431231601274504661e-01
-1.414302290106722593e-01
-1.175244250337905694e-01
-7.384972647450735450e-02
-1.620364401339596111e-02
4.711790901493911887e-02
1.066568965341958553e-01
1.533827343199201110e-01
1.802538740765995684e-01
1.834684118575137801e-01
1.631718621995508489e-01
1.234851885460571813e-01
7.183753938639249326e-02
1.771341700827737398e-02
-2.897005561807393381e-02
-5.957308931276669023e-02
-6.823184894530992528e-02
-5.288505579695813169e-02
-1.565213152233678462e-02
3.749876865623222311e-02
9.773032615444504634e-02
1.547896681594880253e-01
1.986840768602616825e-01
2.212943112623229625e-01
2.176587997562155208e-01
1.867252512702443357e-01
1.314622952325475991e-01
5.833445812455700236e-02
-2.375083601834068747e-02
-1.048335301114396156e-01
-1.753920205961886081e-01
-2.276949595787033653e-01
-2.568100915546692731e-01
-2.611341103015043519e-01
-2.423928071543409168e-01
-2.051480984450318734e-01
-1.559232368239188427e-01
-1.021084300826048813e-01
-5.083005038894120031e-02
-7.957022425647143626e-03
2.261771042695690653e-02
3.933634772471389374e-02
4.295314545976817305e-02
3.616528460876678591e-02
2.298204450883956085e-02
7.947920891091690698e-03
-4.652978805876853419e-03
-1.149144794871105948e-02
-1.069050591835019395e-02
-2.064520712751406750e-03
1.292022251616216366e-02
3.144345480208664279e-02
4.983234585804115213e-02
6.418587436881484365e-02
7.102799019375687084e-02
6.789459101112135797e-02
5.377067437055046278e-02
2.931561414160381226e-02
-3.156520526069954424e-03
-3.994181627805734602e-02
-7.642374704778850947e-02
-1.077006284919607287e-01
-1.292789117751234340e-01
-1.377358295186337234e-01
-1.312550701653748542e-01
-1.099525361783075666e-01
-7.593522380346563738e-02
-3.307240160531953188e-02
1.349976240469898114e-02
5.807706357531791652e-02
9.519144234365649326e-02
1.204005020384795593e-01
1.309388245085129632e-01
1.261244520823723292e-01
1.074499012472031334e-01
7.833704910071723204e-02
4.359098038754741916e-02
8.639495231012983556e-03
-2.131724303113360919e-02
-4.210597712805778242e-02
-5.119606794421549534e-02
-4.803143213490453090e-02
-3.402873418764170571e-02
-1.225074470988705977e-02
1.317973823129382077e-02
3.781640973582430648e-02
5.764456482061105363e-02
6.972451475578343716e-02
7.261799277351338455e-02
6.653510265417511560e-02
5.319153487878593156e-02
3.541726689785316962e-02
1.659941498459835060e-02
6.630507563135101812e-05
-1.147630265256122106e-02
-1.636208653538970270e-02
-1.417151770655724480e-02
-5.708405595747551714e-03
7.233152889644770683e-03
2.225428256798361176e-02
3.680892959970614303e-02
4.864612327744821663e-02
5.615892031965469267e-02
5.858529293413774347e-02
5.603810004152645630e-02
4.937524085836644816e-02
3.995045411744986563e-02
2.930448763880215413e-02
1.886225183289486074e-02
9.693680222483520847e-03
2.376848287482928937e-03
-3.023724408462540036e-03
-6.876683995189930218e-03
-9.834965201192895010e-03
-1.266263305598129205e-02
-1.608050552424117319e-02
-2.066183540456414947e-02
-2.679065177984883001e-02
-3.467518878296887291e-02
-4.439279865382785017e-02
-5.593523815427266233e-02
-6.922618337362308749e-02
-8.409524912521104678e-02
-1.002109317280235889e-01
-1.169933071061912411e-01
-1.335403201540820151e-01
-1.486047734977412604e-01
-1.606509519428927502e-01
-1.680016726233074520e-01
-1.690627974545182433e-01
-1.625890649607798499e-01
-1.479388771973041417e-01
-1.252612868622149933e-01
-9.556786866941892333e-02
-6.066391549138345357e-02
-2.294272117410058043e-02
1.492327075857972918e-02
5.033724900683170245e-02
8.111058436828104401e-02
1.057094408319303735e-01
1.233708524395230460e-01
1.340731018062091828e-01
1.383780986525566803e-01
1.371919624679853733e-01
1.315073520754382053e-01
1.221930619746664920e-01
1.098824512512854568e-01
9.498558814208452050e-02
7.781682200099046542e-02
5.879767955480297292e-02
3.867218311541993636e-02
1.866363477098431645e-02
5.110903169496527898e-04
-1.365119994230923339e-02
-2.157216389839793080e-02
-2.128165283959927712e-02
-1.153528525768410251e-02
7.786425587023748651e-03
3.541929286772257240e-02
6.867304163073714718e-02
1.036447537465592234e-01
1.356796867541341101e-01
1.600207388627112315e-01
1.725455103429874293e-01
1.704646133685865927e-01
1.528527045164402853e-01
1.209063540006361376e-01
7.786708346666482150e-02
2.860598714011219207e-02
-2.107247763132617802e-02
-6.529743562350558139e-02
-9.902570282805631119e-02
-1.188118958480184617e-01
-1.233235513260451943e-01
-1.135146449861082485e-01
-9.243114100753688223e-02
-6.468682091462620021e-02
-3.570432921362051704e-02
-1.085449966845655756e-02
5.360207523231470816e-03
9.946544353189396004e-03
1.791387310642933439e-03
-1.827914999084059855e-02
-4.773791863925504197e-02
-8.282847698614523302e-02
-1.191733259027212832e-01
-1.524093235417919856e-01
-1.787499395756986798e-01
-1.954000002384569390e-01
-2.007842399549512602e-01
-1.945878010634373989e-01
-1.776372046046208741e-01
-1.516692163153595674e-01
-1.190408492437938226e-01
-8.242821269049704913e-02
-4.454916721461608942e-02
-7.929842310688030305e-03
2.527751644547464316e-02
5.342548395302569586e-02
7.545344486666277772e-02
9.092127086781753853e-02
9.999273739581132636e-02
1.033660920256448401e-01
1.021523591319723617e-01
9.770910642094474130e-02
9.144686556879619288e-02
8.463426296011433703e-02
7.823290783948518012e-02
7.279167501586414346e-02
6.842130778127621105e-02
6.485541121490229211e-02
6.158595466830461135e-02
5.804457021921970855e-02
5.378951599190489458e-02
4.865538730799182782e-02
4.282973550859553447e-02
3.683652397127368250e-02
3.142744296487666456e-02
2.740371997791964109e-02
2.540812050200654329e-02
2.573521396149933832e-02
2.820553068591758611e-02
3.213631970531027893e-02
3.642103776793712694e-02
3.970604954856733065e-02
4.063160100693764820e-02
3.808972230357789840e-02
3.144748490151297315e-02
2.069082298299051992e-02
6.460310082216428468e-03
-1.002780662582689053e-02
-2.715919936384752348e-02
-4.316273388940668199e-02
-5.636948044069811647e-02
-6.544236444797577046e-02
-6.953785937291166730e-02
-6.837701371976331877e-02
-6.222263584758017801e-02
-5.177827627461853433e-02
-3.803874981379219700e-02
-2.212854020716047143e-02
-5.162505062417218488e-03
1.184624820306586640e-02
2.802104317642377385e-02
4.260462274330545362e-02
5.490979180069401056e-02
6.426502806699156689e-02
6.998288235663407963e-02
7.137199683170822317e-02
6.780083000540912397e-02
5.880582997438750514e-02
4.422262967271470280e-02
2.430938843253175816e-02
-1.708792418912141731e-04
-2.793649014758939342e-02
-5.725678316298707382e-02
-8.610361472359387425e-02
-1.123657442376845561e-01
-1.340932270334836696e-01
-1.497312651065279554e-01
-1.583032774071259086e-01
-1.595112237245788211e-01
-1.537357941402840711e-01
-1.419370660973620357e-01
-1.254741291468324527e-01
-1.058765766342027181e-01
-8.460899793898397914e-02
-6.287021275667852016e-02
-4.146193127034760589e-02
-2.074814243694383595e-02
-7.092767536785726801e-04
1.892282421925454983e-02
3.847862312074510488e-02
5.815297441494339525e-02
7.783818963431510252e-02
9.702560354339288817e-02
1.148007498834528739e-01
1.299395084924250265e-01
1.410925668460301929e-01
1.470268991307525364e-01
1.468793354287338260e-01
1.403716174782122794e-01
1.279402649942997516e-01
1.107480265985158197e-01
9.056470063146192240e-02
6.953004791273695306e-02
4.983564259219270404e-02
3.338084626332312593e-02
2.146645741344513011e-02
1.458554703857314894e-02
1.235454574106642500e-02
1.360146264892207746e-02
1.659716417849291942e-02
1.938628866379900340e-02
2.015306649218977925e-02
1.754912147123063870e-02
1.091767303576007299e-02
3.704739020909154912e-04
-1.329406551858679231e-02
-2.880777083091682483e-02
-4.473034717817118977e-02
-5.975525970030325096e-02
-7.295012226748404105e-02
-8.387459861382152992e-02
-9.255007933656377028e-02
-9.929399962037378791e-02
-1.044682116211103212e-01
-1.082159261105720416e-01
-1.102683487588284189e-01
-1.098874923017026106e-01
-1.059782304550797166e-01
-9.735791610394771423e-02
-8.312665444481398547e-02
-6.304730869307197116e-02
-3.783118073402295251e-02
-9.238073486019217351e-03
2.006309253372137724e-02
4.687229757543640019e-02
6.801483138878293422e-02
8.096605069544446365e-02
8.440729461919499466e-02
7.857953911698109528e-02
6.533728219868126241e-02
4.786667744914485656e-02
3.010599824270972918e-02
1.597634298580068862e-02
8.579481364502029167e-03
9.535450470538286288e-03
1.860977952444380773e-02
3.372266183395029177e-02
5.135182007545927019e-02
6.725473642505860883e-02
7.736363236045400160e-02
7.866474103544568441e-02
6.987215868612756120e-02
5.174707310804421007e-02
2.698725229756015684e-02
-2.965178894461378833e-04
-2.541086377810748004e-02
-4.404350963407242803e-02
-5.315629271640771869e-02
-5.161732581605389669e-02
-4.043717338556958307e-02
-2.255837206803167766e-02
-2.243105711319352824e-03
1.581050126547256865e-02
2.743583079259821408e-02
2.984494058472830780e-02
2.217914673242275814e-02
5.652063324275310302e-03
-1.673752333947389065e-02
-4.085380845361869656e-02
-6.228886609830810994e-02
-7.725752915488737216e-02
-8.333424156034074937e-02
-7.988313629472543198e-02
-6.810272687166649130e-02
-5.069139260806045100e-02
-3.122029537569427290e-02
-1.335904323114549958e-02
-1.242826677784504563e-04
6.691637224240556958e-03
6.801242157945967814e-03
1.369207779908536080e-03
-7.342420804900252895e-03
-1.653691241465256659e-02
-2.352052021812808813e-02
-2.627473834284034526e-02
-2.384624594015356813e-02
-1.648489306649301295e-02
-5.518975212721656878e-03
6.986320174482581885e-03
1.869938493294864834e-02
2.751431209560340624e-02
3.196293331143039429e-02
3.147179045479780307e-02
2.642885756775800385e-02
1.806733758462266554e-02
8.209273233898632671e-03
-1.066931096393917283e-03
-7.766420733590496950e-03
-1.026715843166434161e-02
-7.521095906466497560e-03
8.462985167904495121e-04
1.453094898801577523e-02
3.261911292925892547e-02
5.370575760386810810e-02
7.604109906677611330e-02
9.769130289986702187e-02
1.167063442098282972e-01
1.312913465010091540e-01
1.399758999771463785e-01
1.417697925808393822e-01
1.362861562862281162e-01
1.238080942280277569e-01
1.052758940599929083e-01
8.218079455117054122e-02
5.636736628527962839e-02
2.976678555518210562e-02
4.102671671444627771e-03
-1.937580618469483124e-02
-4.007674319512365829e-02
-5.811850322981264999e-02
-7.423051519171394719e-02
-8.951088363524560554e-02
-1.050827136052618072e-01
-1.217177539967325972e-01
-1.395096739237168815e-01
-1.576757129276304403e-01
-1.745440294792729996e-01
-1.877483442357730792e-01
-1.946084520116292127e-01
-1.926339055076460860e-01
-1.800577412931314569e-01
-1.562945911706638269e-01
-1.222262991849937808e-01
-8.024713656051150890e-02
-3.404442350746528234e-02
1.185982042741905162e-02
5.273466211905139533e-02
8.432913448734442874e-02
1.035066554306859898e-01
1.087162752134378102e-01
1.002209631442493309e-01
8.004626213990669037e-02
5.166149306535756935e-02
1.945103181994604566e-02
-1.193317085234980868e-02
-3.823029335047230942e-02
-5.613604260892102182e-02
-6.369101170435420567e-02
-6.044213856542741264e-02
-4.736766007066615936e-02
-2.659521389506311340e-02
-9.743588470481449881e-04
2.641605808658138016e-02
5.274088168269749910e-02
7.578720886184893424e-02
9.419547512911635723e-02
1.075189329359361734e-01
1.161182142237928566e-01
1.209251927682660765e-01
1.231302914210313237e-01
1.238569461805938826e-01
1.238852096854470286e-01
1.234743594241704268e-01
1.223143518538032798e-01
1.196116105656044037e-01
1.142900345496694892e-01
1.052672245249474947e-01
9.175203853217368810e-02
7.350487934240988730e-02
5.100737997542137414e-02
2.550270679353477260e-02
-1.110538526433335615e-03
-2.652210469096802359e-02
-4.835716056821409703e-02
-6.457087760181393077e-02
-7.382165787663824696e-02
-7.575229648030470941e-02
-7.111917472588134836e-02
-6.173239841868133349e-02
-5.020173372246385102e-02
-3.951929047578123244e-02
-3.254373885374174658e-02
-3.147557674240509390e-02
-3.742265114508809554e-02
-5.014611659340956207e-02
-6.804902649928068481e-02
-8.842648786718187992e-02
-1.079451445401247434e-01
-1.232706197878826182e-01
-1.317250438595749529e-01
-1.318418963231593466e-01
-1.236972753478959991e-01
-1.089351591985016215e-01
-9.046317566550349243e-02
-7.186371969224794598e-02
-5.662884393613831779e-02
-4.737201691444752061e-02
-4.518455169357095402e-02
-4.928405356397175252e-02
-5.704884001572442520e-02
-6.445558369377347996e-02
-6.685275602503386316e-02
-5.992773506851550858e-02
-4.067732828094631353e-02
-8.181516187200463253e-03
3.598787757754359773e-02
8.782349675704309577e-02
1.414122899019805701e-01
1.898519963777198782e-01
2.263881311660914109e-01
2.455592349869845925e-01
2.441352506182731252e-01
2.216747954011741295e-01
1.806029206755985772e-01
1.258052482985688447e-01
6.382693896082125562e-02
1.836387398474706445e-03
-5.345034796585683423e-02
-9.669352974378275789e-02
-1.245543206719658402e-01
-1.359414690664740022e-01
-1.318805378781600646e-01
-1.150769337851218488e-01
-8.929219964959861366e-02
-5.867051137903787905e-02
-2.713880071547343856e-02
2.033569070282480185e-03
2.647913753523552238e-02
4.479222185220144148e-02
5.645081926457292537e-02
6.166229553386660261e-02
6.118965283641122216e-02
5.619511935313348250e-02
4.811156072616720736e-02
3.852955061147202154e-02
2.907654596801961464e-02
2.126790225087276179e-02
1.632569937728445622e-02
1.498433650698695330e-02
1.732293718915783182e-02
2.267538750419101010e-02
2.966381064532479239e-02
3.637967655521373578e-02
4.070293808526472684e-02
4.071208752318998536e-02
3.510721870786798898e-02
2.355344107828581668e-02
6.859018608810336926e-03
-1.306835505927377017e-02
-3.349823179401943685e-02
-5.134630218698953141e-02
-6.374894102097955484e-02
-6.862837547496421220e-02
-6.512991183767684322e-02
-5.383579334055966364e-02
-3.670543954906306527e-02
-1.674906290368231854e-02
2.501982785799029829e-03
1.762211971943535016e-02
2.589041453386674296e-02
2.574424226107913105e-02
1.700394044636752144e-02
8.351209461696165737e-04
-2.052893408580115306e-02
-4.423403850770099566e-02
-6.731994930670656685e-02
-8.719586649517298282e-02
-1.019869340782544181e-01
-1.106984839912036334e-01
-1.131901745996712061e-01
-1.099953880823016650e-01
-1.020522163324612819e-01
-9.042456883683111513e-02
-7.608380618045709753e-02
-5.979634042502913333e-02
-4.212830105852988227e-02
-2.354400262262692015e-02
-4.549414903829370610e-03
1.417871830173147302e-02
3.173099586538422751e-02
4.700249501867063973e-02
5.883102458841316801e-02
6.620835965513643950e-02
6.851347181754656457e-02
6.570715500061534431e-02
5.843344150481302735e-02
4.799322073823492074e-02
3.618447931947191276e-02
2.503443422458219783e-02
1.647409147571892579e-02
1.201951213478764241e-02
1.252328224731479728e-02
1.804485531963849129e-02
2.786331036493368621e-02
4.062661146167610704e-02
5.460433821663009113e-02
6.799186157951550569e-02
7.920667309569283387e-02
8.712279579404974550e-02
9.120487438062072072e-02
9.152553996668733038e-02
8.867289904189931682e-02
8.357472394726728204e-02
7.727865035784026171e-02
7.073183891261677902e-02
6.459950625313075345e-02
5.915138812037747801e-02
5.423131654223808940e-02
4.931050900038358442e-02
4.361219122928444714e-02
3.628527871056835830e-02
2.659865564748973080e-02
1.412514165106324923e-02
-1.114716980164034976e-03
-1.857459371980791502e-02
-3.718821944703853272e-02
-5.546691772180333685e-02
-7.168382722904984017e-02
-8.412557858701147362e-02
-9.137839091747967935e-02
-9.260466215644480581e-02
-8.776089122733270187e-02
-7.771052911341382041e-02
-6.419728858645204483e-02
-4.966494258144950324e-02
-3.693604203559045646e-02
-2.878978326502600049e-02
-2.750286771967436206e-02
-3.443111480004665270e-02
-4.970969594728673335e-02
-7.213458435519323753e-02
-9.925880345300672203e-02
-1.276991354596043182e-01
-1.536093288013312685e-01
-1.732426727339660411e-01
-1.835074003822256827e-01
-1.824174864471953539e-01
-1.693599725258620181e-01
-1.451347085472394216e-01
-1.117663897036995924e-01
-7.213278885822871356e-02
-2.948769475478640878e-02
1.302525784086522309e-02
5.277477348835997450e-02
8.789005236285869771e-02
1.173225195948739280e-01
1.407322593427890178e-01
1.582496196351369511e-01
1.701885051740699983e-01
1.767946958942988867e-01
1.780987411306418355e-01
1.739121273341983076e-01
1.639651474632968231e-01
1.481451489139256616e-01
1.267644556820523294e-01
1.007756429582000873e-01
7.186112407429535998e-02
4.235227748717751428e-02
1.497404852939700215e-02
-7.545544737303289118e-03
-2.292576388315795133e-02
-2.974880068065615529e-02
-2.774833980580231757e-02
-1.790230931846262252e-02
-2.301171329867297832e-03
1.618938482318776559e-02
3.440834433300980072e-02
4.942818403307064345e-02
5.902872250973419110e-02
6.202466914400628362e-02
5.838784651273656867e-02
4.914958642368152941e-02
3.611524603288016749e-02
2.146055764106179556e-02
7.300229602216660313e-03
-4.681337693482008622e-03
-1.346821808091138058e-02
-1.878638401085909806e-02
-2.101951502485193551e-02
-2.101024167458587916e-02
-1.981228464679189033e-02
-1.846281830506265459e-02
-1.782959939689576778e-02
-1.855872034417017924e-02
-2.111464601495807725e-02
-2.587423845611593401e-02
-3.321932472114683121e-02
-4.357306107908377052e-02
-5.734400340313361433e-02
-7.477345649543620798e-02
-9.571754612730642986e-02
-1.194251696007600783e-01
-1.443873659407579613e-01
-1.683272794816980944e-01
-1.883727253870312590e-01
-2.014110112290846410e-01
-2.045781764839022521e-01
-1.957942459789924206e-01
-1.742334766635857402e-01
-1.406209863166015539e-01
-9.727572434646261645e-02
-4.786913456926796678e-02
3.071661220031982054e-03
5.083138268261681858e-02
9.122084744992668692e-02
1.212011385298664423e-01
1.392978354451601675e-01
1.457287892621010328e-01
1.422288828130022775e-01
1.316181810589778789e-01
1.172115576052463193e-01
1.021967522817238683e-01
8.910781245793455985e-02
7.949277227100869092e-02
7.382553608616429508e-02
7.165422940910984306e-02
7.192545899757608885e-02
7.338811429560536392e-02
7.496927348852241990e-02
7.603006500315023786e-02
7.644627024792960412e-02
7.650730053438498102e-02
7.667563476636599096e-02
7.728498777967406086e-02
7.827076348651351712e-02
7.901733294199478341e-02
7.837589634553845941e-02
7.486189190968794982e-02
6.699315601308050705e-02
5.369101407990942154e-02
3.464576710693940964e-02
1.055086421927906720e-02
-1.686389226734834323e-02
-4.502622367616364307e-02
-7.091726295107152189e-02
-9.159720752254035814e-02
-1.047561356038934216e-01
-1.091753680874757992e-01
-1.049996253228696053e-01
-9.375700172688630762e-02
-7.811465504821613060e-02
-6.141220344380302065e-02
-4.706060708081748895e-02
-3.792211052939617466e-02
-3.579089962121576735e-02
-4.107384764804709876e-02
-5.273059891935841931e-02
-6.848084070663168488e-02
-8.523467761934309939e-02
-9.966010662539596943e-02
-1.087778767695839199e-01
-1.104726731871988887e-01
-1.038300204043437064e-01
-8.924554772729025032e-02
-6.829907610015682751e-02
-4.343077757625711521e-02
-1.749151685355467001e-02
6.741994390121332226e-03
2.699710369464340676e-02
4.180819111961350809e-02
5.065151241208095539e-02
5.390688861041723762e-02
5.267485328026658142e-02
4.850215696435317830e-02
4.307918658490314523e-02
3.796891280298696214e-02
3.441078244322531149e-02
3.321946637330426555e-02
3.477379307055242230e-02
3.907154500028806043e-02
4.581541731743205004e-02
5.449606282660542783e-02
6.444857141215723506e-02
7.487524147351680426e-02
8.484489584629643921e-02
9.329197516595687245e-02
9.904320559701314253e-02
1.008941483373567288e-01
9.774358960849734157e-02
8.877428707024094534e-02
7.364945185722181209e-02
5.268115928396105430e-02
2.692403066328415834e-02
-1.843097052362824284e-03
-3.126444403670500249e-02
-5.867333578296866914e-02
-8.143931044248346740e-02
-9.733740502606216816e-02
-1.048716139854649620e-01
-1.034903813112604404e-01
-9.365221703270112941e-02
-7.672989086764955835e-02
-5.477523500078586294e-02
-3.019542762914297074e-02
-5.408706974620987318e-03
1.745149235630939766e-02
3.673033680788376221e-02
5.131764982769489170e-02
6.059409765461658964e-02
6.429590650340813451e-02
6.235605400602357851e-02
5.478315744739510607e-02
4.162516962641526347e-02
2.303691977963800638e-02
-5.642567885248764292e-04
-2.830277309238334038e-02
-5.867752888858010496e-02
-8.949439538322535859e-02
-1.179524230422547421e-01
-1.409036286035882934e-01
-1.552629036385077266e-01
-1.585025233691429447e-01
-1.491356684284098066e-01
-1.270836894405862616e-01
-9.383638690736020860e-02
-5.235150014516392475e-02
-6.691564199769475807e-03
3.854798192506293797e-02
7.891876115734991481e-02
1.107801011989692358e-01
1.318131909965303272e-01
1.412896495780538442e-01
1.400457522103979446e-01
1.301753328142939425e-01
1.145138049212708758e-01
9.602926594029917440e-02
7.725413574980573295e-02
5.987797770177442913e-02
4.458182620026543419e-02
3.113578643270686203e-02
1.871860932981518275e-02
6.365361351925225009e-03
-6.580132756430712160e-03
-2.013044946243633393e-02
-3.352839501316184218e-02
-4.536632657459898493e-02
-5.392376307048462464e-02
-5.763803720599916525e-02
-5.558523083582055102e-02
-4.784140816971665239e-02
-3.561966034505421874e-02
-2.113110637080822113e-02
-7.185355535426948478e-03
3.388257753232392679e-03
8.369331121163867820e-03
6.677555197776980506e-03
-1.323978756531580397e-03
-1.383487790530071870e-02
-2.794496130732270628e-02
-4.022107093160563057e-02
-4.742980648652633108e-02
-4.723898207598542509e-02
-3.874239937467973544e-02
-2.268983561212428723e-02
-1.368559194161282633e-03
2.184046847396069885e-02
4.313677886293103975e-02
5.905961575152528231e-02
6.716902320914786007e-02
6.650420710976233385e-02
5.772501105718150227e-02
4.291299526096789552e-02
2.508341489528152085e-02
7.521601432081165273e-03
-6.906834298666054278e-03
-1.632053091444254922e-02
-2.014194391256730193e-02
-1.911012132737231750e-02
-1.499541692903045773e-02
-1.009204925007900662e-02
-6.613103481486730210e-03
-6.132009822797237358e-03
-9.200681286460744499e-03
-1.523090685305043476e-02
-2.266256043817317309e-02
-2.937436518465495749e-02
-3.323603342254442816e-02
-3.266771055968098469e-02
-2.707133733151127070e-02
-1.702903836884125249e-02
-4.218781455868410302e-03
8.935587685930373308e-03
1.979992855570465032e-02
2.612684327723058600e-02
2.657499966913173806e-02
2.102927250200010284e-02
1.064647294991256238e-02
-2.384717523310042608e-03
