2.004280045943406208e+01
1.999851728098569481e+01
2.001321395008875470e+01
2.005941317740419549e+01
2.005493369531168213e+01
2.004968152866241837e+01
2.004411089067557583e+01
2.001386655528871117e+01
2.008456719223138620e+01
2.006507256969823416e+01
2.007015766941631085e+01
2.006132400542967531e+01
2.005881800146183380e+01
2.013938080818627796e+01
2.011514566148062855e+01
2.009987992064320750e+01
2.009023180536702569e+01
2.009433016602276112e+01
2.009070168111099619e+01
2.015190038634227676e+01
2.016749504020047823e+01
2.015540357105565406e+01
2.013651456614806179e+01
2.019040409313981499e+01
2.019266471755246783e+01
2.019212697086770447e+01
2.016384045108071277e+01
2.014603216038425515e+01
2.017806202359820489e+01
2.017247572308655990e+01
2.019377153597159946e+01
2.013056802756604213e+01
2.012211548501618452e+01
2.015873968883784073e+01
2.020205179074866919e+01
2.011621593400856156e+01
2.005377466847655654e+01
2.002322752427691199e+01
2.004746267098256141e+01
2.004900804009606219e+01
2.005196303644147449e+01
2.003357001148584970e+01
2.003133549128119384e+01
2.007822386968779327e+01
2.009061814764540088e+01
2.008308447321708101e+01
2.007210504333298573e+01
2.005597786363161816e+01
2.008858724026313070e+01
2.010123733945912150e+01
2.008377362430823965e+01
2.006020152448574834e+01
2.005851519264905392e+01
2.009742612509136350e+01
2.008734467996240980e+01
2.011176255612404518e+01
2.010903727680902264e+01
2.013172183355957046e+01
2.017293515714733232e+01
2.017170303852980950e+01
2.018826876892554978e+01
2.013433747520100070e+01
2.013254672653231481e+01
2.017275764853294362e+01
2.016795447426125065e+01
2.017570220319515428e+01
2.016656050955413804e+01
2.019175107027252736e+01
2.021045212488252929e+01
2.021612717970136686e+01
2.022318575754411540e+01
2.020193171139187527e+01
2.017338937036650393e+01
2.024279001775085973e+01
2.020819150046987644e+01
2.029144826145974534e+01
2.016469144826145765e+01
2.014098882739897789e+01
2.016417980578469127e+01
2.014200689151090984e+01
2.016739584421008757e+01
2.016309387073196291e+01
2.015260519995823429e+01
2.016775608228046224e+01
2.018815391041035667e+01
2.019937871984964062e+01
2.018598204030489640e+01
2.016860185861960986e+01
2.022275242769134351e+01
2.021221154850161739e+01
2.020697504437715253e+01
2.019764017959695224e+01
2.016276495771118249e+01
2.019534300929309723e+01
2.017188576798579902e+01
2.015828025477706831e+01
2.014777070063694353e+01
2.013678082906964661e+01
2.019072778531899459e+01
2.022833350736138769e+01
2.022334238279210439e+01
2.020572204239323355e+01
2.019055027670460589e+01
2.022707006369426708e+01
2.023836796491594470e+01
2.025262086248303106e+01
2.021107340503289151e+01
2.019450245379555042e+01
2.024342173958442004e+01
2.022250704813615840e+01
2.023598726114649793e+01
2.020214054505586176e+01
2.018113709930040756e+01
2.023788764748877611e+01
2.033400856218022312e+01
2.021480630677665147e+01
2.017000104416831974e+01
2.017766001879503079e+01
2.024264905502766965e+01
2.023023389370366587e+01
2.025497024120288003e+01
2.023421739584420820e+01
2.021084890884410612e+01
2.023256238905711513e+01
2.020967421948418163e+01
2.022167171348021242e+01
2.020548710452125007e+01
2.021806933277644447e+01
2.022096167902265762e+01
2.025943406077059450e+01
2.025462566565730427e+01
2.020085099718074417e+01
2.020702203195154922e+01
2.023514148480735031e+01
2.022711183042706296e+01
2.024116111517176364e+01
2.022627649577111697e+01
2.019695102850579360e+01
2.023143468727158734e+01
2.021684765584211974e+01
2.022399498799206441e+01
2.018299049806828904e+01
2.019256552156207363e+01
2.018909366189829768e+01
2.019504020048031734e+01
2.019862691865928639e+01
2.014689359924819811e+01
2.016013887438655061e+01
2.020173331941108685e+01
2.020674010650516905e+01
2.018062023598204036e+01
2.017429257596324632e+01
2.015082489297274648e+01
2.019847029341129740e+01
2.020276704604782125e+01
2.017179701367860289e+01
2.014240367547248667e+01
2.011989140649472674e+01
2.015689151091156006e+01
2.016051999582332499e+01
2.015544533778844993e+01
2.015408269813093867e+01
2.014632452751383340e+01
2.016324005429675381e+01
2.016194006473843459e+01
2.016650830113814408e+01
2.012615641641432518e+01
2.011932755560196284e+01
2.015911036859141703e+01
2.016831993317322613e+01
2.016056698339772169e+01
2.015048553826876798e+01
2.013479690926177312e+01
2.016809021614284347e+01
2.016060352928892030e+01
2.016593400856217855e+01
2.014473217082593592e+01
2.015007831262399307e+01
2.020174898193588930e+01
2.017622950819671956e+01
2.018861334447112910e+01
2.014294142215725003e+01
2.014993212905920217e+01
2.017331105774250588e+01
2.016193484389683732e+01
2.015373812258535935e+01
2.013001983919807714e+01
2.012228255194737514e+01
2.017483032264800968e+01
2.018728725070481289e+01
2.017944032578051505e+01
2.014392294037798692e+01
2.014748877519055981e+01
2.017317531586091661e+01
2.018291218544429455e+01
2.018464028401378130e+01
2.015371723921896319e+01
2.015261042079983156e+01
2.017677247572308730e+01
2.018382061188263421e+01
2.018201420068914942e+01
2.014508196721311606e+01
2.014750965855695952e+01
2.019484702934112974e+01
2.018878563224391698e+01
2.018019734781246655e+01
2.013543907277853151e+01
2.013393547039782661e+01
2.015198391980787207e+01
2.017119139605304312e+01
2.015670878145557054e+01
2.014083220215098535e+01
2.015314294664299766e+01
2.026684765584212045e+01
2.018131982875639352e+01
2.016372559256551966e+01
2.012632348334551580e+01
2.010967421948418021e+01
2.015332045525738636e+01
2.012881382478855485e+01
2.013152866242038286e+01
2.010158713584629808e+01
2.007017855278270702e+01
2.013151299989558396e+01
2.013729769238801381e+01
2.014483658765793095e+01
2.012691865928787749e+01
2.012960739271170496e+01
2.015363370575336788e+01
2.016368382583272378e+01
2.016388221781351220e+01
2.013346559465385610e+01
2.011851832515401384e+01
2.016792837005325367e+01
2.015866659705544350e+01
2.014826668058891102e+01
2.011412759736869660e+01
2.012142633392502944e+01
2.025613970972120725e+01
2.021913438446277667e+01
2.010256865406703497e+01
2.008121541192440063e+01
2.006599143781977546e+01
2.009143781977654797e+01
2.008476558421217462e+01
2.012873029132295954e+01
2.010699070690195356e+01
2.016552156207580637e+01
2.016537537851101547e+01
2.016928056802756686e+01
2.019166231596533478e+01
2.017500783126239838e+01
2.017039260728829575e+01
2.019863213950088721e+01
2.019104103581497256e+01
2.020853607601545221e+01
2.018728202986321207e+01
2.018939124986947675e+01
2.024622011068183980e+01
2.022923149211652927e+01
2.023167484598517163e+01
2.018619087396888290e+01
2.020589433016602143e+01
2.022314921165291679e+01
2.020995614493056181e+01
2.019891928578886819e+01
2.019089485225018166e+01
2.019986947896000729e+01
2.021470711078625726e+01
2.018299571890988631e+01
2.019485747102432782e+01
2.019179805784692405e+01
2.016279628276078029e+01
2.020841599665866184e+01
2.018175837945076623e+01
2.020408269813093938e+01
2.016794403257805257e+01
2.017778009815182116e+01
2.020686018586195942e+01
2.018474470084577632e+01
2.018957920016706709e+01
2.017856322439177319e+01
2.015511120392607225e+01
2.017544638195677109e+01
2.018975148793985497e+01
2.020361804322856969e+01
2.015590999269081962e+01
2.016849222094601757e+01
2.020642163516759027e+01
2.019002819254463788e+01
2.018224391771953563e+01
2.015206745327346738e+01
2.016583481257178789e+01
2.019451811632034932e+01
2.020687584838675832e+01
2.020540357105565477e+01
2.015766941630990772e+01
2.015479273258849346e+01
2.021766732797327037e+01
2.017644356270230688e+01
2.019642372350422832e+01
2.015408269813093867e+01
2.014316069750443816e+01
2.017594758275033939e+01
2.019556750548188262e+01
2.018825310640075088e+01
2.017899133340294426e+01
2.017553513626396366e+01
2.020790435418189190e+01
2.018257283074031605e+01
2.018693745431763631e+01
2.014689882008979893e+01
2.016384045108071277e+01
2.021263965751279201e+01
2.018975670878145579e+01
2.019099926908217668e+01
2.015964811527618039e+01
2.014440847864675632e+01
2.018029654380286075e+01
2.019942048658243650e+01
2.018166962514357365e+01
2.015824370888587325e+01
2.015947060666179169e+01
2.018895792001670486e+01
2.020143051059830697e+01
2.019908113187845800e+01
2.017653753785110027e+01
2.016670147227733167e+01
2.020894852250182794e+01
2.021508823222303519e+01
2.018412342069541410e+01
2.016327660018794887e+01
2.013963140858306389e+01
2.016917093035397102e+01
2.016058786676412140e+01
2.016830949149002805e+01
2.013240576380912472e+01
2.014500365458911801e+01
2.017637569176151047e+01
2.018164874177717394e+01
2.018977237130625468e+01
2.015410880233893565e+01
2.013879085308551709e+01
2.019990602485120590e+01
2.017269499843374803e+01
2.019040931398141225e+01
2.015434374021092268e+01
2.014764540043854879e+01
2.018623264070168233e+01
2.020205179074866919e+01
2.019933695311684119e+01
2.015066826772475750e+01
2.014412655320037615e+01
2.018790331001357430e+01
2.017210504333298360e+01
2.015412446486373454e+01
2.013034875221885756e+01
2.008289652291949423e+01
2.017227733110577503e+01
2.014078521457658866e+01
2.012483554348960979e+01
2.011633601336535548e+01
2.013478646757857149e+01
2.015860394695624791e+01
2.015071525529915419e+01
2.013385715777383211e+01
2.013825832724235099e+01
2.015251644565103817e+01
2.016370470919912350e+01
2.013973060457345809e+01
2.014700845776339122e+01
2.011639344262295026e+01
2.010525216664926518e+01
2.013790331001357359e+01
2.013029132296125923e+01
2.013879085308551709e+01
2.009122898611256147e+01
2.009997389579200089e+01
2.012467369740001999e+01
2.012792106087501409e+01
2.014449201211235163e+01
2.014237235042288887e+01
2.014597473112665682e+01
2.016793881173645175e+01
2.017519056071838790e+01
2.018606035292889089e+01
2.014696669103059534e+01
2.014367756082280536e+01
2.016849744178761483e+01
2.017819254463819689e+01
2.018085517385402383e+01
2.016669625143573086e+01
2.016300511642476678e+01
2.020323170095019094e+01
2.018283387282029651e+01
2.029003863422783738e+01
2.020154014827189926e+01
2.016315129998955769e+01
2.021214889840242179e+01
2.019688837840659801e+01
2.019491490028192615e+01
2.018187845880756015e+01
2.020237026208624798e+01
2.020856218022345274e+01
2.019793776756813131e+01
2.018909888273989850e+01
2.016242038216560317e+01
2.014742612509136421e+01
2.020607183878041013e+01
2.020138352302391027e+01
2.027223034353137621e+01
2.015449514461731084e+01
2.014363579409000593e+01
2.018563224391771982e+01
2.018749086352719857e+01
2.020935052730500203e+01
2.018587240263130411e+01
2.020547666283804844e+01
2.023504228881695610e+01
2.023092304479482095e+01
2.023974626709825486e+01
2.022907486686854028e+01
2.021556332880860296e+01
2.026475409836065467e+01
2.023208207162994654e+01
2.029274303017646375e+01
2.024933695311684190e+01
2.018472903832097742e+01
2.018545995614492838e+01
2.017303435313772653e+01
2.018634227837527462e+01
2.017063798684347731e+01
2.015190560718387758e+01
2.018630573248407600e+01
2.017449096794403118e+01
2.018094392816121996e+01
2.015239114545264698e+01
2.013078208207162945e+01
2.015003654589119719e+01
2.014305105983084587e+01
2.016949984337475144e+01
2.013255716821551644e+01
2.014391249869478884e+01
2.017294037798893314e+01
2.016528140336222208e+01
2.017270021927534529e+01
2.013953743343427050e+01
2.014457032473634612e+01
2.019436149107236034e+01
2.019674219484180711e+01
2.019379241933799563e+01
2.016536493682781739e+01
2.015748668685392175e+01
2.019242977968048436e+01
2.018406077059621850e+01
2.018401900386342263e+01
2.018527200584734160e+01
2.016204448157042961e+01
2.021208624830322620e+01
2.017633914587031541e+01
2.020914691448261280e+01
2.018117364519160617e+01
2.019543176360029335e+01
2.021447217291427378e+01
2.021545369113501067e+01
2.020963245275138220e+01
2.020308029654380277e+01
2.019935783648324090e+01
2.022103999164665211e+01
2.022194319724339451e+01
2.024735303330896841e+01
2.021425289756708565e+01
2.020170721520308987e+01
2.022596846611673627e+01
2.022089380808186121e+01
2.023934948313668158e+01
2.021746371515088114e+01
2.019982771222721141e+01
2.026828338728202894e+01
2.023008771013887497e+01
2.022487731022240709e+01
2.019384462775399314e+01
2.018481779262817000e+01
2.023359089485224871e+01
2.022216769343217990e+01
2.023054192335804657e+01
2.020027670460478220e+01
2.021161637255925569e+01
2.023784588075597668e+01
2.021021718701054581e+01
2.021136055132087250e+01
2.019372454839720277e+01
2.019226793359089456e+01
2.021743761094288416e+01
2.025122689777592200e+01
2.021857053357001277e+01
2.020979429884097200e+01
2.020160279837109840e+01
2.024650203612822352e+01
2.025400960634854286e+01
2.024221572517489776e+01
2.024485747102432853e+01
2.021887334238279266e+01
2.025238592461104759e+01
2.021596533361177706e+01
2.022186488461940002e+01
2.020031325049598081e+01
2.020319515505899588e+01
2.026542758692701085e+01
2.023027566043646175e+01
2.021637255925655197e+01
2.022194841808499532e+01
2.022863631617416758e+01
2.023425916257700763e+01
2.024133340294455508e+01
2.022625039156311999e+01
2.021735929831888967e+01
2.021318262503915619e+01
2.025766419546830832e+01
2.024453899968674975e+01
2.021538059935261344e+01
2.020974731126657531e+01
2.020234415787825100e+01
2.025387908530855086e+01
2.024025268873342398e+01
2.023955831680066808e+01
2.019548919285788813e+01
2.021119348438968188e+01
2.022505481883679579e+01
2.020750757022031863e+01
2.021212801503602208e+01
2.017667327973269309e+01
2.019577111830427185e+01
2.021310431241516170e+01
2.020486582437088785e+01
2.018224391771953563e+01
2.015064216351675697e+01
2.015816017542027794e+01
2.019662733632661400e+01
2.020231805367025046e+01
2.018591939020570081e+01
2.015813407121227741e+01
2.018587762347290493e+01
2.029024746789182387e+01
2.021890466743239045e+01
2.021537537851101618e+01
2.019083220215098606e+01
2.020752323274511753e+01
2.021913438446277667e+01
2.019903414430406130e+01
2.020862483032264834e+01
2.019053461417980699e+01
2.021787616163725687e+01
2.019561449305627931e+01
2.019764017959695224e+01
2.018657721624725809e+01
2.017066409105147784e+01
2.017213114754098413e+01
2.021419546830949088e+01
2.017551947373916477e+01
2.017959695102850404e+01
2.014370888587240316e+01
2.013283387282029935e+01
2.017545682363996917e+01
2.014033100135741705e+01
2.016267620340398992e+01
2.011567296648219738e+01
2.014712331627858433e+01
2.017245483972016373e+01
2.015105461000313269e+01
2.012553513626396651e+01
2.011442518533987567e+01
2.010646340190038472e+01
2.015789913334029393e+01
2.012294559883052969e+01
2.011814242455883672e+01
2.008846194006473951e+01
2.007865719954056516e+01
2.013296961470188862e+01
2.011028505795134080e+01
2.010937663151300114e+01
2.007799415265740706e+01
2.007566043646235698e+01
2.012238696877936661e+01
2.010237026208624656e+01
2.007495562284640300e+01
2.006121958859768029e+01
2.006979221050433182e+01
2.009174062858932786e+01
2.009646026939542551e+01
2.008482301346976939e+01
2.004349483136681442e+01
2.007599457032473467e+01
2.004481048344993255e+01
2.001663882217813395e+01
2.001748981935887883e+01
1.999776547979534413e+01
2.001219588597681920e+01
2.004784379241933578e+01
2.000688629006995711e+01
1.998515192649054839e+01
2.006285893285997801e+01
2.022122272110264163e+01
2.045231283282865320e+01
2.057912707528453566e+01
2.064612613553304854e+01
2.058136159548919153e+01
2.053620131565208240e+01
2.050034979638717658e+01
2.044424663255716723e+01
2.043428004594340663e+01
2.035662524798997453e+01
2.035710556541714311e+01
2.038442100866659601e+01
2.052713271379346338e+01
2.048629006995927782e+01
2.037049180327868925e+01
2.036226375691761348e+01
2.036853398767881274e+01
2.033562180223452032e+01
2.029576589746266890e+01
2.025073613866555178e+01
2.025896940586822481e+01
2.027977445964289416e+01
2.026546413281820946e+01
2.025104938916153330e+01
2.022504959799519497e+01
2.021862796282760755e+01
2.024760885454735160e+01
2.024650725696982434e+01
2.021856009188681114e+01
2.020149838153910338e+01
2.018069332776443403e+01
2.021433121019108370e+01
2.020184295708468269e+01
2.022166127179701434e+01
2.018728202986321207e+01
2.019600083533465451e+01
2.022275242769134351e+01
2.019824579722251201e+01
2.020234937871984826e+01
2.016906129268037873e+01
2.016742716925968537e+01
2.022229821447217191e+01
2.018127806202359764e+01
2.018288608123629402e+01
2.016030072047614041e+01
2.013730291322961108e+01
2.019038320977341527e+01
2.015642685600918682e+01
2.014591730186906204e+01
2.013467160906338194e+01
2.014523859246110504e+01
2.016231596533361170e+01
2.017881382478855556e+01
2.018344993212905791e+01
2.021783961574605826e+01
2.023704187114962849e+01
2.029094183982457977e+01
2.027479899759841331e+01
2.029561971389788155e+01
2.028441578782499732e+01
2.036457658974626739e+01
2.049889840242246919e+01
2.065093975148793959e+01
2.064873655633288152e+01
2.059194946225331435e+01
2.054057638091260429e+01
2.060122689777591987e+01
2.057832306567818748e+01
2.055682363997076223e+01
2.054352093557481496e+01
2.054344784379241773e+01
2.071462357732066195e+01
2.068387804114023254e+01
2.078227524276913485e+01
2.088864466952072618e+01
2.090067348856635476e+01
2.091019108280254812e+01
2.093190456301555713e+01
2.093343949044585983e+01
2.091656573039573885e+01
2.091651874282134216e+01
2.095738227002192744e+01
2.094696669103059250e+01
2.095675054818836713e+01
2.093388848282343062e+01
2.090296543802860896e+01
2.092637047091991320e+01
2.087192231387699692e+01
2.084898715672966318e+01
2.084247154641328237e+01
2.083293306881069284e+01
2.084920643207685131e+01
2.080896418502662470e+01
2.077067453273467734e+01
2.072606766210713047e+01
2.072369217917928452e+01
2.076816330792523857e+01
2.078245275138352355e+01
2.082750861438863765e+01
2.085901639344262293e+01
2.089245588388848063e+01
2.093884828234311257e+01
2.093486478020256669e+01
2.095750234937871781e+01
2.097485120601441011e+01
2.096332358776234628e+01
2.096552156207580708e+01
2.094148480735094608e+01
2.093919807873028915e+01
2.091894121332358836e+01
2.094947269499843401e+01
2.098726636733841389e+01
2.094481570429153194e+01
2.095957502349378743e+01
2.096760989871567205e+01
2.095942883992899652e+01
2.101036337057533743e+01
2.096386655528871046e+01
2.093606035292889089e+01
2.091859663777800904e+01
2.093346037381225955e+01
2.095782604155789741e+01
2.092176046778740783e+01
2.093056802756604284e+01
2.091522397410462375e+01
2.087603111621593399e+01
2.089006473843583578e+01
2.086795447426124994e+01
2.086576172078938995e+01
2.086137621384566998e+01
2.090290278792941336e+01
2.090034979638717871e+01
2.089641850266263035e+01
2.088856113605513087e+01
2.085552887125404453e+01
2.087079983293306995e+01
2.087205805575858619e+01
2.084409522815077764e+01
2.081850266262921423e+01
2.080251644565103675e+01
2.079164665344053375e+01
2.077144199644982692e+01
2.076358985068392826e+01
2.071515610316382805e+01
2.074773937558734360e+01
2.082319097838571409e+01
2.077976401795969608e+01
2.065970032369217790e+01
2.061624203821655854e+01
2.057497650621280272e+01
2.058420695416101154e+01
2.057489297274720741e+01
2.054455988305314662e+01
2.050446904040931528e+01
2.046651352197974205e+01
2.045196303644147306e+01
2.045643729769238917e+01
2.036697817688211387e+01
2.034139083220215127e+01
2.034123420695416229e+01
2.033791375169677451e+01
2.037009501931711242e+01
2.033692701263443681e+01
2.028916153283909196e+01
2.028552260624412540e+01
2.025769029967630885e+01
2.029511851310431325e+01
2.024979638717761432e+01
2.023119452855800304e+01
2.022183355956980222e+01
2.021995405659392375e+01
2.025676621071316674e+01
2.034871567296648109e+01
2.024209042497650657e+01
2.021422679335908867e+01
2.022707006369426708e+01
2.027445442205283399e+01
2.027421426333924970e+01
2.028727680902161268e+01
2.030058995510076159e+01
2.029630364414743582e+01
2.033193066722355624e+01
2.033165918346037415e+01
2.030279837109742047e+01
2.030677143155476472e+01
2.030212488253106429e+01
2.032728411819985226e+01
2.033694267515923570e+01
2.034511329226271314e+01
2.031919181372037286e+01
2.032192753471859703e+01
2.037535240680797699e+01
2.037101910828025453e+01
2.036060875013052041e+01
2.036733841495248853e+01
2.040891197661062861e+01
2.039469562493473731e+01
2.037090947060666224e+01
2.034629842330583571e+01
2.035629633496919766e+01
2.037386968779367180e+01
2.041455570637986838e+01
2.038954787511746858e+01
2.038414430406181310e+01
2.042511224809439341e+01
2.043846194006473738e+01
2.053530855173853809e+01
2.041781351153806057e+01
2.033195677143155322e+01
2.032594236190874071e+01
2.032193275556019429e+01
2.034884619400647310e+01
2.035748668685392104e+01
2.039622011068184193e+01
2.038564790644251801e+01
2.039476871671713454e+01
2.043499008040096143e+01
2.038171139187636882e+01
2.038986112561345010e+01
2.037266889422575034e+01
2.036753158609167613e+01
2.040615537224600473e+01
2.038279732692910073e+01
2.034672131147540952e+01
2.031769343218126878e+01
2.033219170930354025e+01
2.034724861647697480e+01
2.034689882008979822e+01
2.033032786885245713e+01
2.034418920329957103e+01
2.035019839198078628e+01
2.037373916675367980e+01
2.034764017959695082e+01
2.030667223556437406e+01
2.031783961574605613e+01
2.032016289025790812e+01
2.037015766941630801e+01
2.031710869792210516e+01
2.028353868643625191e+01
2.029377675681319815e+01
2.026377780098151860e+01
2.029247154641328166e+01
2.032841704082698087e+01
2.023065678187323613e+01
2.018489088441056722e+01
2.021302077894956639e+01
2.024527513835230152e+01
2.021945285580035545e+01
2.020470397828129805e+01
2.022474678918241509e+01
2.020969510285057780e+01
2.024433016602276325e+01
2.023421217500261093e+01
2.020569593818523657e+01
2.021869583376840396e+01
2.021067140022971742e+01
2.023369009084264292e+01
2.020238592461104687e+01
2.015455257387490917e+01
2.024215829591730298e+01
2.027227211026417564e+01
2.018078208207163016e+01
2.015214054505586105e+01
2.013635794090007280e+01
2.016818941213323413e+01
2.019381852354599616e+01
2.020260519995823145e+01
2.016747415683408207e+01
2.017360342487208769e+01
2.020495457867808398e+01
2.020836900908426514e+01
2.023409731648741783e+01
2.020770596220110704e+01
2.022027774877310335e+01
2.021676934321812524e+01
2.025234937871984897e+01
2.027364519160488499e+01
2.024854338519369179e+01
2.023375796178343933e+01
2.021826772475722933e+01
2.021431554766628480e+01
2.024736347499217004e+01
2.022265845254255012e+01
2.019969197034561859e+01
2.022176568862900581e+01
2.027461626814242379e+01
2.027602067453273449e+01
2.020421321917093138e+01
2.014164143259893436e+01
2.017528453586718129e+01
2.016262399498799240e+01
2.019530646340189861e+01
2.015906338101702033e+01
2.014572935157147171e+01
2.015829591730186721e+01
2.015718909888273913e+01
2.016268664508718800e+01
2.014880442727367438e+01
2.014888273989767242e+01
2.017712227211026388e+01
2.024209564581810383e+01
2.018551738540252671e+01
2.015515819150046894e+01
2.012480421844001199e+01
2.015549232536284663e+01
2.016029549963453960e+01
2.019057116007100205e+01
2.014977028296961592e+01
2.012298214472172830e+01
2.015049597995196606e+01
2.014671086979220860e+01
2.017489819358880609e+01
2.013738644669520639e+01
2.010037590059517498e+01
2.015735094497232893e+01
2.012976923880129476e+01
2.016695207267411405e+01
2.015507987887647445e+01
2.014298840973164673e+01
2.014451811632034861e+01
2.016003445755455559e+01
2.016434165187428107e+01
2.014162577007413546e+01
2.012098256238905591e+01
2.015431241516132488e+01
2.016812154119244127e+01
2.018701576694163080e+01
2.015928265636420491e+01
2.017420382165605020e+01
2.024377675681319744e+01
2.017857366607497127e+01
2.017229299363057393e+01
2.012111308342904792e+01
2.010483972016288945e+01
2.015682363997076365e+01
2.016404928474469926e+01
2.016345410880233757e+01
2.014384984859559324e+01
2.012430301764644369e+01
2.014745745014096201e+01
2.017477289339041491e+01
2.017122272110264092e+01
2.011871149629320144e+01
2.012499216873759877e+01
2.015625978907799976e+01
2.016281716612718000e+01
2.013293828965229082e+01
2.011584525425498526e+01
2.010142006891510746e+01
2.014094706066617846e+01
2.014770282969614712e+01
2.017450140962723282e+01
2.015123211861752139e+01
2.014376631512999793e+01
2.016603320455257276e+01
2.013422261668580759e+01
2.013049493578364846e+01
2.012846402840137827e+01
2.012280463610733960e+01
2.014462253315234364e+01
2.013010859350527326e+01
2.014965020361282200e+01
2.011951550589954962e+01
2.008625874490967789e+01
2.008955309595906868e+01
2.011358985068392968e+01
2.014649159444502402e+01
2.018876474887751726e+01
2.008883784065991307e+01
2.012618774146392298e+01
2.012593714106714060e+01
2.013354912811945141e+01
2.012146287981622450e+01
2.011811632035083974e+01
2.013796073927116836e+01
2.014755142528975540e+01
2.018774668476558531e+01
2.014581810587866784e+01
2.016731753158608953e+01
2.022684556750548168e+01
2.020174376109428849e+01
2.019313459329643834e+01
2.015656259789077964e+01
2.015186906129267896e+01
2.016380390518951771e+01
2.016289547875117449e+01
2.016881069228359635e+01
2.020403048971494187e+01
2.027279941526574092e+01
2.025620235982040285e+01
2.019451811632034932e+01
2.019685183251539939e+01
2.013124673697399913e+01
2.012130625456823552e+01
2.014959277435522722e+01
2.018027043959486377e+01
2.015914691448261564e+01
2.013071421113083304e+01
2.011899864258118242e+01
2.011117782186488512e+01
2.011655528871254006e+01
2.013693223347603478e+01
2.013290174376109221e+01
2.010515819150046823e+01
2.019205909992690806e+01
2.026870105461000193e+01
2.022311266576172173e+01
2.012203717239219003e+01
2.009968674950401990e+01
2.011398663464550296e+01
2.011235251122480960e+01
2.012480943928161281e+01
2.007334238279210581e+01
2.006624203821656138e+01
2.008808603946956239e+01
2.009016915526783009e+01
2.009959799519682377e+01
2.006188263548083839e+01
2.002752427691343939e+01
2.006428422261668487e+01
2.016132922627127400e+01
2.017146810065782603e+01
2.007100344575545492e+01
1.998447843792419221e+01
1.998370575336744182e+01
1.996785527827085716e+01
1.998940691239427636e+01
1.993619087396888290e+01
1.989911767776965590e+01
1.991768821133966583e+01
1.989355226062441062e+01
1.991230030280881280e+01
1.990158713584629879e+01
1.990401482719014226e+01
1.992803069854860709e+01
1.996410149316069749e+01
1.996379346350631678e+01
1.992734676829904927e+01
1.994520204656990714e+01
1.998654589119766101e+01
1.998868643625352348e+01
2.002323796596011363e+01
2.000349274303017566e+01
1.999566670147227754e+01
2.001833559569802645e+01
1.998343426960425973e+01
1.997962827607810254e+01
1.996920747624517034e+01
1.994203821656050835e+01
2.000379555184295555e+01
2.008873342382792160e+01
2.010173854025268980e+01
2.000764331210190861e+01
1.998754829278479761e+01
2.000304897149420569e+01
2.001589746267098135e+01
2.002079983293306853e+01
1.999407434478438006e+01
1.998111621593400855e+01
2.000958546517698622e+01
2.003262503915631143e+01
2.002028296961470133e+01
1.998182625039156335e+01
2.002057011590268232e+01
2.007778009815182330e+01
2.006518220737182645e+01
2.008643103268246932e+01
2.005358671817896976e+01
2.004706588702098813e+01
2.015366503080296567e+01
2.020029236712958109e+01
2.013955309595906940e+01
2.008675994570324619e+01
2.005494935783648103e+01
2.006485851519264685e+01
2.007676725488148506e+01
2.008845671922313869e+01
2.004996867495040291e+01
2.005897984755142360e+01
2.011284849117677709e+01
2.009785423410253813e+01
2.010438550694371784e+01
2.008022867286206647e+01
2.008437924193379942e+01
2.011364727994152446e+01
2.013145557063798563e+01
2.012498172705440069e+01
2.009598517280985774e+01
2.008506317218335724e+01
2.011691552678291828e+01
2.009563015558108034e+01
2.010290278792941265e+01
2.008695311684243379e+01
2.010007831262399591e+01
2.012045525738749063e+01
2.012253315234415751e+01
2.010031847133758021e+01
2.006612717970136828e+01
2.005656781873237904e+01
2.008929727472068549e+01
2.013507361386655603e+01
2.016153805993526049e+01
2.006712958128850488e+01
2.004791166336013220e+01
2.005849430928265420e+01
2.007675159235668616e+01
2.008001983919807998e+01
2.003060457345723933e+01
2.003852981100553521e+01
2.005202046569906926e+01
2.003508405554975269e+01
2.006057742508092190e+01
2.004105669833977288e+01
2.002404719640805908e+01
2.005951759423619052e+01
2.004922209460164950e+01
2.005136263965751198e+01
2.002736765166544686e+01
2.001447217291427449e+01
2.004724339563537683e+01
2.003980891719745117e+01
2.005907382270022055e+01
2.002611464968152788e+01
2.005530959590685924e+01
2.007579617834394980e+01
2.006332358776234770e+01
2.004114545264696545e+01
2.004127075284535664e+01
2.004409000730917612e+01
2.011391876370471010e+01
2.008870731961992107e+01
2.011851832515401384e+01
2.011852354599561465e+01
2.012887647488775045e+01
2.019790122167693269e+01
2.022314399081131953e+01
2.024446590790435252e+01
2.021769865302286817e+01
2.021404928474469997e+01
2.027306567818732219e+01
2.025193171139187598e+01
2.027553513626396509e+01
2.026616372559256618e+01
2.027657930458389757e+01
2.030932442309700292e+01
2.026514044063902986e+01
2.023346559465385752e+01
2.025263130416623270e+01
2.023386759945703162e+01
2.018401900386342263e+01
2.019295708468204964e+01
2.021598621697817677e+01
2.023225958024433524e+01
2.027989453899968453e+01
2.030184817792628138e+01
2.025478229090529325e+01
2.021498903623264098e+01
2.019809439281612029e+01
2.024358358567400984e+01
2.028380494935783673e+01
2.026703038529810996e+01
2.026322961261355360e+01
2.020691761511955775e+01
2.016498381539103946e+01
2.019566148063067601e+01
2.016427900177508548e+01
2.012342591625770183e+01
2.012420382165604948e+01
2.010030802965437857e+01
2.012052312832828704e+01
2.010667745640597204e+01
2.010001044168319950e+01
2.005412446486373668e+01
2.007617729978072418e+01
2.008918241620549239e+01
2.012246528140336110e+01
2.016255612404719599e+01
2.008062023598203893e+01
2.005408791897253806e+01
2.007744074344784480e+01
2.003646235773206641e+01
2.000730395739793366e+01
1.996227419860081298e+01
1.995938707319619709e+01
1.996735407747728885e+01
1.997310222407852009e+01
1.997370262086248260e+01
1.995939229403779791e+01
1.994182416205492103e+01
1.995098151822073618e+01
1.993273989767150312e+01
1.994429362013156393e+01
1.992841704082698229e+01
1.994953534509762960e+01
1.998016080192126864e+01
1.994626709825623934e+01
1.995498590372768177e+01
1.996157982666805708e+01
1.993990811318784395e+01
1.996931711391876263e+01
1.995427586927012698e+01
1.993083951132922493e+01
1.990938185235459912e+01
1.993112665761720592e+01
1.996758379450767507e+01
1.994678396157460654e+01
1.992542027774877411e+01
1.992549336953116779e+01
1.995736660749712854e+01
1.999209042497650657e+01
1.999228881695729143e+01
1.996771431554766707e+01
1.997260624412655261e+01
1.995861438863944670e+01
1.999605826459225355e+01
1.999227315443249253e+01
1.997801503602380535e+01
1.998729769238801168e+01
1.998840973164874057e+01
2.000663046883157392e+01
1.999680484494100341e+01
1.999206432076850604e+01
1.996237861543280800e+01
2.005654171452438206e+01
2.005222407852145849e+01
2.000175420277748728e+01
1.996827294559883015e+01
1.996786049911245797e+01
1.999629842330583784e+01
2.002948209251331235e+01
2.005699070690195285e+01
2.005505899551007687e+01
2.004377153597159733e+01
2.002810379033100219e+01
2.006291114127597197e+01
2.004285266785005604e+01
2.005241724966064609e+01
2.003129894538999523e+01
2.004857471024329030e+01
2.008062023598203893e+01
2.011353242142633491e+01
2.009832933068810590e+01
2.007182833872820282e+01
2.008799728516236627e+01
2.011032682468414023e+01
2.010969510285057993e+01
2.007596846611673769e+01
2.008459851728098400e+01
2.014838675994570139e+01
2.020978907799937474e+01
2.008312623994988044e+01
2.005063694267515828e+01
2.002632870418711519e+01
2.004354703978281194e+01
2.008138769969719206e+01
2.006213323587762432e+01
2.004492012112352484e+01
2.001128745953847599e+01
2.003484911767776921e+01
2.003645713689046559e+01
2.003221781351153652e+01
2.003944867912707650e+01
2.001143364310326689e+01
2.006394486791270637e+01
2.010414012738853629e+01
2.008647802025686602e+01
2.007798893181580979e+01
2.005892763913542964e+01
2.007532108175837848e+01
2.012861021196616917e+01
2.010060039678396038e+01
2.011234206954160797e+01
2.008091782395322156e+01
2.010411402318053575e+01
2.013055236504124323e+01
2.012154641328181981e+01
2.010747624517071941e+01
2.010127388535031656e+01
2.013441578782499519e+01
2.014309282656364175e+01
2.012487208938080840e+01
2.012696042602067337e+01
2.009419964498276912e+01
2.011958859768194685e+01
2.012814555706379949e+01
2.010405137308134016e+01
2.010223452020465729e+01
2.006841390832202165e+01
2.008068288608123453e+01
2.010797744596428771e+01
2.010574292575963185e+01
2.006932755560196213e+01
2.006646653440534678e+01
2.006851310431241586e+01
2.014118721937976275e+01
2.014918554871045231e+01
2.005172287772789019e+01
2.003671295812884878e+01
2.004771849222094460e+01
2.007282551947373861e+01
2.005917823953221202e+01
2.005162890257909680e+01
2.001298423305836849e+01
2.003041140231805173e+01
2.005687584838675974e+01
2.003010337266367458e+01
2.005699592774355011e+01
2.001907695520517905e+01
2.005221363683825686e+01
2.007643834186070819e+01
2.007862587449096736e+01
2.005034979638717729e+01
2.002941944241411676e+01
2.006346455048553779e+01
2.010414012738853629e+01
2.012462148898402248e+01
2.014951968257282999e+01
2.012625039156311857e+01
2.012811945285579895e+01
2.015125822282551837e+01
2.013198287563955091e+01
2.013074553618043083e+01
2.011573039573979216e+01
2.010771640388430725e+01
2.012890779993734824e+01
2.012175524694580631e+01
2.012639135428631221e+01
2.012623994987992049e+01
2.018875430719431918e+01
2.016579826668058928e+01
2.009913856113605490e+01
2.009102537329017224e+01
2.006971389788033733e+01
2.009506108384671563e+01
2.013019734781246584e+01
2.008017646444606896e+01
2.006219066513521909e+01
2.006947373916675303e+01
2.005523128328286475e+01
2.007876161637256018e+01
2.008218648846193943e+01
2.006789182416205364e+01
2.006961992273154394e+01
2.007653231700950158e+01
2.017604155789913278e+01
2.011849744178761412e+01
2.006517698653022919e+01
2.005464654902370114e+01
2.007735198914064867e+01
2.009652291949462111e+01
2.007157251748981963e+01
2.005344053461417886e+01
2.001972433956353825e+01
2.005580557585882673e+01
2.008815913125195607e+01
2.006450349796387300e+01
2.008584107758170489e+01
2.006590268351258288e+01
2.007542549859037351e+01
2.007603633705753410e+01
2.006495771118304106e+01
2.007066409105147642e+01
2.003195155058995525e+01
2.002929936305732284e+01
2.004969719118721727e+01
2.001869061292680385e+01
1.998400334133862444e+01
1.998722982144721527e+01
2.006634645504855285e+01
2.006616894643416416e+01
2.002205805575858832e+01
2.000568549650203565e+01
2.001006056176255399e+01
2.001972956040513552e+01
2.005251644565103675e+01
2.002328495353451032e+01
2.000743969927952293e+01
2.003751174689359971e+01
2.003704187114962920e+01
2.006704604782290957e+01
2.003414430406181523e+01
2.003993943823744317e+01
2.005960112770178583e+01
2.006367338414952428e+01
2.010328390936619058e+01
2.009603216038425444e+01
2.009966064529602292e+01
2.008890571160070948e+01
2.011970867703873722e+01
2.015649994779158405e+01
2.013195155058995311e+01
2.011648741777174365e+01
2.010613970972120512e+01
2.011796491594444802e+01
2.014409000730917754e+01
2.014061814764540159e+01
2.011818941213323697e+01
2.011779262817166014e+01
2.012875639553096008e+01
2.017070063694267645e+01
2.014658034875222015e+01
2.011423723504228889e+01
2.011343844627753796e+01
2.015194737391667346e+01
2.019047718492220866e+01
2.018420173331941214e+01
2.016874282134279994e+01
2.015326302599979158e+01
2.018420173331941214e+01
2.019242455883888354e+01
2.016640388430614905e+01
2.018407121227942014e+01
2.024063381017019836e+01
2.026807455361804244e+01
2.028939647071107899e+01
2.032263756917615183e+01
2.036551634123420484e+01
2.036628902579095879e+01
2.037668372141589046e+01
2.041017542027774923e+01
2.038442100866659601e+01
2.036494204865824287e+01
2.036041557899133281e+01
2.038316278584107621e+01
2.040833768403466664e+01
2.036671191396052905e+01
2.034478437924193273e+01
2.035764331210191003e+01
2.038063067766523773e+01
2.041638822178135015e+01
2.039568236399707502e+01
2.040667745640597275e+01
2.045344575545577825e+01
2.049247154641328095e+01
2.052938811736451896e+01
2.047500783126239909e+01
2.046148585151926369e+01
2.047553513626396438e+01
2.051600187950297638e+01
2.053011381434687266e+01
2.049296230552365117e+01
2.043290696460269373e+01
2.044829278479690871e+01
2.047369217917928452e+01
2.049433016602276325e+01
2.046861230030280865e+01
2.044917510702725139e+01
2.042708572621906526e+01
2.044534300929309723e+01
2.047877205805575684e+01
2.044341651874282206e+01
2.043130938707319544e+01
2.039976506212801510e+01
2.043004072256447756e+01
2.043669207476245120e+01
2.041813720371724017e+01
2.041575127910619258e+01
2.043187323796595933e+01
2.041128745953847812e+01
2.041195050642163622e+01
2.041669103059413004e+01
2.039273780933486435e+01
2.038438446277539740e+01
2.041111517176568668e+01
2.043572621906651321e+01
2.041736451916048978e+01
2.037862065364936726e+01
2.038265114336430983e+01
2.035219275347185786e+01
2.036771953638926647e+01
2.035976297379137634e+01
2.035559152135324013e+01
2.037974835543489505e+01
2.040108071421112967e+01
2.040441161115171553e+01
2.040143573143990707e+01
2.035824370888587254e+01
2.036584525425498526e+01
2.039089485225018095e+01
2.041385089276391440e+01
2.040694894016915484e+01
2.035149838153910196e+01
2.035608750130521116e+01
2.039315547666283734e+01
2.042528453586718129e+01
2.040258431659183458e+01
2.040402526887334034e+01
2.040098673906233628e+01
2.042624517072151846e+01
2.047120705857784273e+01
2.046122480943927968e+01
2.042555079878876256e+01
2.046161115171765488e+01
2.039255507987887484e+01
2.037252793150255670e+01
2.031020152448574834e+01
2.025922000626501074e+01
2.025592043437401912e+01
2.027462148898402461e+01
2.028466116738018243e+01
2.026984441892032862e+01
2.024979638717761432e+01
2.025216142842226219e+01
2.023294351049388951e+01
2.024775503811214250e+01
2.025278270857262086e+01
2.029757752949775451e+01
2.026514044063902986e+01
2.024872089380808049e+01
2.027550381121436729e+01
2.029638195677143031e+01
2.030018272945598667e+01
2.029227837527409406e+01
2.032646444606870517e+01
2.032187010546099870e+01
2.028956875848386687e+01
2.028121019108280265e+01
2.027134802130103353e+01
2.027368173749608360e+01
2.028179492534196626e+01
2.026555288712540559e+01
2.023218648846193801e+01
2.025323692179179247e+01
2.027954474261250795e+01
2.029818314712331428e+01
2.028665030802965319e+01
2.025798266680588711e+01
2.024565625978907590e+01
2.025802965438028735e+01
2.029175629111412604e+01
2.025986739062336639e+01
2.022055445337788271e+01
2.023394591208102611e+01
2.022943510493891495e+01
2.025916257700741241e+01
2.024523337161950565e+01
2.021990706901952706e+01
2.026616372559256618e+01
2.028311579826668165e+01
2.030784692492429855e+01
2.026055132087292421e+01
2.020593087605722005e+01
2.022961261355330365e+01
2.024743134593296290e+01
2.026203403988722940e+01
2.021630990915735637e+01
2.019596951028505671e+01
2.017183355956980151e+01
2.019819358880651450e+01
2.026345932964393981e+01
2.020275660436462317e+01
2.018264592252270972e+01
2.020282447530541958e+01
2.019043541818941279e+01
2.019287877205805515e+01
2.019129163621175849e+01
2.017805158191500325e+01
2.021002923671295903e+01
2.021301033726636831e+01
2.023792941422157199e+01
2.020732484076432911e+01
2.018514670564895042e+01
2.018977759214785550e+01
2.019742090424976411e+01
2.024055549754620387e+01
2.020841077581706102e+01
2.017394277957606619e+01
2.020441683199331706e+01
2.019722251226897569e+01
2.019691970345619580e+01
2.015481361595489318e+01
2.014582854756186592e+01
2.014877310222407658e+01
2.016805889109324212e+01
2.020063694267516041e+01
2.018238488044272572e+01
2.016057220423932250e+01
2.018112665761720592e+01
2.017339981204970201e+01
2.020462566565730356e+01
2.016651874282134216e+01
2.016262399498799240e+01
2.017694476349587518e+01
2.016186697295604091e+01
2.018647279941526662e+01
2.015222407852145636e+01
2.011958859768194685e+01
2.013203508405554842e+01
2.013544429362013233e+01
2.015938185235459912e+01
2.012150464654902393e+01
2.010539312937245526e+01
2.011933799728516092e+01
2.011923880129476672e+01
2.012941944241411818e+01
2.012501305210399849e+01
2.009265427586926833e+01
2.011681110995092325e+01
2.012045525738749063e+01
2.014001253001983827e+01
2.010921478542341134e+01
2.007822386968779327e+01
2.010665657303957232e+01
2.011066095854651792e+01
2.015052208415996660e+01
2.012969614701889753e+01
2.009488879607392775e+01
2.011107340503289009e+01
2.010811840868748135e+01
2.012905920434373996e+01
2.011766210713166814e+01
2.010637986843479297e+01
2.012284640284013904e+01
2.011746893599248054e+01
2.013625874490967860e+01
2.009617834394904534e+01
2.008461940064738371e+01
2.010702725279314862e+01
2.014198078730291286e+01
2.013850892763913336e+01
2.013968361699906140e+01
2.015477184922209375e+01
2.015786780829069613e+01
2.018806515610316410e+01
2.020027148376318138e+01
2.019098360655737778e+01
2.015968988200897982e+01
2.019099926908217668e+01
2.022331627858410741e+01
2.022385402526887432e+01
2.021286937454317467e+01
2.017669938394069007e+01
2.027803069854860496e+01
2.026633079252375325e+01
2.021651352197974205e+01
2.019505064216351542e+01
2.019391771953639036e+01
2.021424245588388757e+01
2.019551529706588511e+01
2.019689882008979964e+01
2.018668163307925312e+01
2.018209773415474473e+01
2.019588597681946140e+01
2.019060248512059985e+01
2.022295081967213193e+01
2.020431241516132204e+01
2.020528349169886084e+01
2.020719431972434066e+01
2.018844627753993848e+01
2.024337997285162416e+01
2.021629946747415474e+01
2.020313772580139755e+01
2.018565312728411598e+01
2.022523232745118449e+01
2.023384149524903464e+01
2.018302704395948410e+01
2.019646549023702420e+01
2.020611882635480683e+01
2.018944345828547426e+01
2.022914273780933314e+01
2.018758483867599551e+01
2.016544847029340914e+01
2.020102328495353561e+01
2.017035084055549632e+01
2.020023493787198277e+01
2.018008771013887426e+01
2.014061814764540159e+01
2.016743761094288345e+01
2.016719745222929916e+01
2.017490341443040691e+01
2.012971180954369643e+01
2.011766732797326895e+01
2.012551425289756679e+01
2.013408165396261751e+01
2.016020674532734702e+01
2.013015558107966996e+01
2.010582645922522715e+01
2.010670878145556983e+01
2.011053565834812673e+01
2.012842226166857884e+01
2.010512164560927317e+01
2.010922522710660942e+01
2.015512686645087115e+01
2.022583794507674426e+01
2.020110159757753010e+01
2.017522188576798570e+01
2.018140336222198883e+01
2.018574710243291292e+01
2.019400125300198212e+01
2.019757752949775309e+01
2.017438133027043889e+01
2.013211339667954292e+01
2.017255925655215520e+01
2.020040722564477420e+01
2.016072360864571422e+01
2.014701889944658930e+01
2.014214785423410348e+01
2.016183042706484230e+01
2.014064947269499939e+01
2.016376735929831909e+01
2.011993839406912343e+01
2.011827816644042954e+01
2.015859872611465065e+01
2.015511642476767307e+01
2.017012634436671092e+01
2.015453169050850946e+01
2.011970345619713996e+01
2.016397619296230559e+01
2.016365250078312599e+01
2.017679857993108428e+01
2.014447112874595192e+01
2.012302913229612500e+01
2.014961365772162338e+01
2.012256969823535613e+01
2.015511642476767307e+01
2.011965646862274326e+01
2.008656155372246133e+01
2.009796909261773123e+01
2.011867495040200282e+01
2.014926386133444680e+01
2.012677769656468740e+01
2.010959068601858490e+01
2.015057429257596411e+01
2.014964498277122118e+01
2.016780829069645975e+01
2.011530750757021835e+01
2.011734885663569017e+01
2.011944763495875321e+01
2.014807873029132423e+01
2.015626500991959702e+01
2.014111412759736908e+01
2.010677143155476543e+01
2.012090424976506142e+01
2.013026521875326225e+01
2.016998538164352084e+01
2.015909992690821539e+01
2.015942361908739500e+01
2.017930458389892578e+01
2.016269186592878881e+01
2.018764748877519111e+01
2.015086143886394510e+01
2.014860081445128870e+01
2.017218857679857891e+01
2.017523232745118378e+01
2.019400125300198212e+01
2.017406285893286011e+01
2.013430615015140290e+01
2.016374647593191938e+01
2.014474783335073482e+01
2.016532317009501796e+01
2.014273780933486435e+01
2.014413177404197342e+01
2.017185444293620122e+01
2.015794090007308981e+01
2.017628693745431789e+01
2.016813198287563935e+01
2.012968048449409864e+01
2.016559987469980086e+01
2.013926072882948759e+01
2.015381121436775658e+01
2.013490654693536541e+01
2.011215934008562201e+01
2.013506317218335440e+01
2.012122272110264021e+01
2.014975462044481702e+01
2.012132713793463523e+01
2.010131043124151518e+01
2.013543907277853151e+01
2.010558630051164286e+01
2.010719431972433924e+01
2.010818627962827421e+01
2.017744596428944348e+01
2.016029549963453960e+01
2.016716612717970136e+01
2.021377258013991707e+01
2.020685496502036216e+01
2.017129059204343733e+01
2.018911454526469740e+01
2.020804009606348473e+01
2.022414117155685531e+01
2.022905920434374138e+01
2.018553304792732561e+01
2.023181058786676445e+01
2.020318993421739506e+01
2.024075911036858955e+01
2.019193379972851687e+01
2.021737496084368857e+01
2.024235668789808784e+01
2.023996032160384217e+01
2.022902265845254277e+01
2.018809126031116108e+01
2.015830113814346802e+01
2.019100448992377395e+01
2.021575127910618974e+01
2.023324631930667294e+01
2.022506003967839661e+01
2.021759423619087315e+01
2.026585047509658466e+01
2.025262608332463188e+01
2.024300407225644705e+01
2.022973269291009757e+01
2.022254881486895783e+01
2.032633914587031398e+01
2.025683408165396315e+01
2.021802756604364504e+01
2.019187637047091854e+01
2.019174062858932928e+01
2.021145452646966589e+01
2.019990080400960508e+01
2.019005951759423567e+01
2.015680275660436394e+01
2.013172183355957046e+01
2.016369426751592187e+01
2.016572517489819205e+01
2.016123003028087979e+01
2.011450871880547098e+01
2.010207267411506749e+01
2.012640179596951029e+01
2.010103894747833309e+01
2.012664717552469540e+01
2.008029132296126207e+01
2.007830740315338858e+01
2.012536806933277589e+01
2.012934112979012014e+01
2.022681424245588389e+01
2.016131356374647510e+01
2.011675890153492574e+01
2.014445024537955575e+01
2.015204134906547040e+01
2.015349274303017424e+01
2.013523545995614583e+01
2.012857366607497056e+01
2.016573561658139369e+01
2.015551320872924634e+01
2.020511120392607296e+01
2.015254254985903515e+01
2.016277539939438057e+01
2.018208207162994583e+01
2.016847655842121867e+01
2.016973478124673491e+01
2.016085412968570623e+01
2.013378406599143844e+01
2.019198600814451083e+01
2.017132713793463594e+01
2.017632870418711377e+01
2.015442727367651443e+01
2.013790331001357359e+01
2.015977863631617240e+01
2.015824370888587325e+01
2.018207162994674775e+01
2.013069854860603414e+01
2.013366920747624533e+01
2.017165605095541281e+01
2.017164560927221473e+01
2.016656573039573885e+01
2.012949775503811267e+01
2.012675159235668687e+01
2.016840346663882144e+01
2.015266262921582907e+01
2.018021301033726544e+01
2.014017437610942807e+01
2.015141484807350736e+01
2.015138874386551038e+01
2.013317322752427785e+01
2.019934739480004282e+01
2.026796491594445015e+01
2.025233371619505007e+01
2.020760676621071283e+01
