2.030177919708029322e+01
2.027928832116788271e+01
2.030436001042752991e+01
2.037724191866527690e+01
2.044556178310740435e+01
2.048153675703857957e+01
2.045455552659019816e+01
2.039374348279457649e+01
2.042944473409801986e+01
2.041261079249217758e+01
2.040549400417101111e+01
2.038480187695516221e+01
2.039749739311783117e+01
2.046256517205422298e+01
2.041968847758081296e+01
2.042819994786235682e+01
2.041893899895724829e+01
2.041432481751824923e+01
2.044891162669447127e+01
2.044419316996871672e+01
2.046326903023983235e+01
2.045327815432742469e+01
2.043193430656934240e+01
2.048224713242961315e+01
2.046492440041710026e+01
2.047551485922836179e+01
2.043143248175182336e+01
2.040134254431699645e+01
2.043630735140771648e+01
2.042740484880083329e+01
2.043207116788321187e+01
2.040460766423357697e+01
2.039600495307611894e+01
2.042031412930135659e+01
2.042561261730969591e+01
2.047034019812304351e+01
2.041542622523461858e+01
2.040600886339937503e+01
2.044622002085505841e+01
2.047564520333680704e+01
2.049515771637122086e+01
2.049317648592283447e+01
2.048285974973931189e+01
2.051640380604796476e+01
2.052679223149113596e+01
2.053162148070907023e+01
2.049775156412930244e+01
2.049258993743482904e+01
2.051831334723670608e+01
2.049356100104275313e+01
2.047614051094890542e+01
2.042185218978102057e+01
2.041684697601668219e+01
2.045005213764337881e+01
2.044684567257559848e+01
2.046204379562043840e+01
2.046070125130344053e+01
2.044791449426485741e+01
2.049249869655891487e+01
2.051418795620437763e+01
2.052706595411887491e+01
2.046492440041710026e+01
2.046918665276329463e+01
2.049994134515119981e+01
2.046452033368091605e+01
2.047423096976016765e+01
2.046826772679874651e+01
2.044955031282585978e+01
2.044811001042752707e+01
2.046074687174139584e+01
2.045552659019812225e+01
2.041069473409801915e+01
2.039141684045880965e+01
2.044404979144942658e+01
2.044006126173096760e+01
2.042717022940562899e+01
2.039467544316996950e+01
2.042834332638164696e+01
2.041937565172054292e+01
2.040462721584984251e+01
2.037954900938477465e+01
2.036325599582898960e+01
2.036157455683003192e+01
2.039689781021897730e+01
2.041229796663190754e+01
2.041105318039624450e+01
2.040907194994786167e+01
2.037851929092805037e+01
2.044279848800834287e+01
2.046788321167883140e+01
2.047879953076120785e+01
2.045703206465067581e+01
2.044966110531803949e+01
2.047638164754953038e+01
2.047078336809176236e+01
2.045933915537017711e+01
2.044537930135557957e+01
2.043729796663190612e+01
2.047844108446298250e+01
2.048822992700729984e+01
2.048291840458811208e+01
2.049094760166840246e+01
2.047842805005213762e+01
2.052074426485922842e+01
2.050555265901981272e+01
2.051315172054223268e+01
2.046296923879040719e+01
2.044115615224191984e+01
2.048873826903023954e+01
2.047778936392074911e+01
2.048318561001042681e+01
2.044637643378519343e+01
2.041147028154327359e+01
2.043530370177267841e+01
2.045963894681960227e+01
2.042430917622523268e+01
2.041547836287799811e+01
2.039471454640250059e+01
2.042756126173096831e+01
2.044534019812304493e+01
2.046952554744525443e+01
2.045844629822731875e+01
2.044999348279457863e+01
2.045534410844629747e+01
2.047045750782064744e+01
2.047967935349322133e+01
2.044781673618352258e+01
2.042872132429614140e+01
2.047028154327424332e+01
2.047002085505734925e+01
2.049273983315953984e+01
2.046062304483837124e+01
2.047051616266944762e+01
2.046957768508863396e+01
2.048351147028154173e+01
2.048499739311782974e+01
2.046611053180396311e+01
2.042942518248175077e+01
2.044644160583941428e+01
2.043918795620437834e+01
2.046681438998957248e+01
2.040659541188738046e+01
2.038123696558915654e+01
2.039736704900938591e+01
2.038119786235662190e+01
2.038214285714285623e+01
2.035063868613138638e+01
2.031858706986444219e+01
2.036267596454640127e+01
2.035003258602711185e+01
2.035771637122002176e+01
2.032889077163711988e+01
2.031034280500521305e+01
2.034597888425443202e+01
2.035592413972888437e+01
2.033709593326381437e+01
2.032329249217935185e+01
2.032321428571428612e+01
2.033523201251303547e+01
2.034028936392074982e+01
2.033757168925964365e+01
2.029197080291970678e+01
2.029331334723670466e+01
2.029807090719499385e+01
2.030307612095933223e+01
2.032771115745568125e+01
2.031541319082377584e+01
2.027032716371219934e+01
2.031767466110531828e+01
2.032220411887382738e+01
2.034947210636079262e+01
2.034168404588112722e+01
2.032463503649634973e+01
2.037977059436913407e+01
2.038406543274243887e+01
2.038742831074035422e+01
2.037488920750782029e+01
2.037556047966631922e+01
2.040784019812304351e+01
2.038934436913451620e+01
2.041098800834202365e+01
2.036276068821689123e+01
2.036887382690302317e+01
2.038725234619395010e+01
2.039638295099061338e+01
2.037968587069864412e+01
2.035101668404588082e+01
2.035465980187695578e+01
2.041515901981230385e+01
2.040612617309697541e+01
2.042412669447340789e+01
2.040660192909280468e+01
2.039944603753910357e+01
2.043074817518247954e+01
2.042570385818561007e+01
2.042367049009384772e+01
2.039567909280500402e+01
2.039530109489050957e+01
2.039305917622523268e+01
2.041073383733055380e+01
2.040029327424400307e+01
2.035498566214807070e+01
2.034902241918665311e+01
2.037788712200208607e+01
2.035763164754953181e+01
2.040479014598540175e+01
2.033693300312825869e+01
2.032808263816475502e+01
2.035330422314911303e+01
2.035098409801877040e+01
2.035111444212721565e+01
2.033117831074035564e+01
2.034464937434827903e+01
2.035026720542231615e+01
2.033022679874869709e+01
2.034720411887382596e+01
2.033233837330552518e+01
2.030787278415015606e+01
2.035265250260688319e+01
2.037072471324296075e+01
2.036895203336809246e+01
2.035877867570385646e+01
2.031528284671532703e+01
2.034720411887382596e+01
2.035109489051095011e+01
2.036604535974973729e+01
2.033040928050052187e+01
2.034170359749739276e+01
2.037106360792492055e+01
2.038174530761209624e+01
2.039259645464024828e+01
2.036096845672575384e+01
2.034258993743482691e+01
2.040129040667361693e+01
2.040064520333680775e+01
2.041087069864441972e+01
2.035538972888425491e+01
2.037409410844629676e+01
2.040274374348279451e+01
2.040123175182481674e+01
2.040114702815432679e+01
2.036468978102189809e+01
2.037498696558915512e+01
2.041933654848800828e+01
2.042818691345151194e+01
2.042021637122002176e+01
2.039098018769551501e+01
2.039822732012513029e+01
2.041141162669447340e+01
2.043108055265901868e+01
2.040400156412930244e+01
2.038961157455683093e+01
2.037104405630865500e+01
2.040250260688216954e+01
2.037994004171011397e+01
2.037374869655891629e+01
2.034889207507820430e+01
2.029698253388946938e+01
2.031934306569343107e+01
2.030649113660062355e+01
2.030940432742439938e+01
2.027844760166840388e+01
2.028031152241918633e+01
2.028948774765380492e+01
2.028957247132429487e+01
2.031453336809176236e+01
2.030830943691345070e+01
2.028593587069864412e+01
2.032857142857142918e+01
2.033026590198122818e+01
2.035142726798748569e+01
2.032548227320124923e+01
2.031908889468196122e+01
2.035918925964546489e+01
2.034161235662147860e+01
2.038014207507820430e+01
2.035621741397288886e+01
2.034603102189780799e+01
2.034861835245046890e+01
2.037013816475495176e+01
2.037311001042752778e+01
2.034969369134515205e+01
2.034596584984358714e+01
2.036031673618352400e+01
2.036322992700729984e+01
2.038214285714285623e+01
2.034186001042752778e+01
2.034816214807090518e+01
2.038987226277372145e+01
2.038897288842544242e+01
2.039661105318039702e+01
2.038882299270072807e+01
2.036151590198122818e+01
2.038242309697601584e+01
2.039004822732012556e+01
2.037828467153284606e+01
2.034839025026068882e+01
2.036132038581856207e+01
2.039629822732012343e+01
2.040048879040667273e+01
2.041013425443169993e+01
2.039801876955161575e+01
2.040536366006256586e+01
2.041302137643378600e+01
2.039362617309697612e+01
2.041782455683003050e+01
2.039446037539103074e+01
2.036699035453597517e+01
2.038478884254431733e+01
2.037895594369134500e+01
2.037778284671532703e+01
2.033834723670490163e+01
2.033795620437956231e+01
2.038774765380604848e+01
2.034083029197080350e+01
2.036485922836287799e+01
2.036459202294056325e+01
2.034626564129301229e+01
2.038189520333680704e+01
2.040157716371220076e+01
2.039615484880083329e+01
2.035356491136600710e+01
2.033987877997914495e+01
2.037568430656934382e+01
2.036668404588112580e+01
2.037528675703858028e+01
2.037662278415015749e+01
2.035396897810218775e+01
2.038577945776850697e+01
2.039496871741397399e+01
2.038807351407716340e+01
2.036071428571428399e+01
2.034384775808133483e+01
2.037744395203336722e+01
2.037392466110531686e+01
2.038890119916579735e+01
2.036873696558915370e+01
2.037834984358707047e+01
2.041274765380604705e+01
2.040244395203336580e+01
2.040868743482794656e+01
2.038916840458811208e+01
2.037498696558915512e+01
2.041961678832116789e+01
2.041294968717414093e+01
2.042923618352450532e+01
2.041279979144942658e+01
2.039515771637121944e+01
2.042936001042752991e+01
2.041779197080292008e+01
2.042329249217935327e+01
2.039484489051094940e+01
2.038004431699686947e+01
2.042380735140771719e+01
2.041568691345151265e+01
2.043068300312825869e+01
2.040596324296141617e+01
2.039547705943691369e+01
2.045484228362877843e+01
2.043845151199165855e+01
2.041130083420229369e+01
2.042289494264859329e+01
2.043308133472367061e+01
2.044163842544316978e+01
2.043538842544316836e+01
2.042680526590197942e+01
2.043844499478623433e+01
2.041320385818561078e+01
2.043610531803962260e+01
2.040019551616266824e+01
2.041667101147028163e+01
2.040430787278414826e+01
2.040298488008341948e+01
2.044511209593326484e+01
2.044252476538060392e+01
2.044752346193951809e+01
2.043115224191866375e+01
2.042593196037539016e+01
2.044293534932220879e+01
2.043255344108446181e+01
2.042436131386861220e+01
2.041974713242961315e+01
2.038199296141814187e+01
2.041415537017726578e+01
2.042077685088634098e+01
2.042029457768508749e+01
2.039688477580813242e+01
2.037737877997914282e+01
2.037567127215849894e+01
2.038537539103232632e+01
2.036955813347236699e+01
2.035143378519290991e+01
2.033367440041710239e+01
2.034197732012512816e+01
2.032291449426485741e+01
2.032194343065693332e+01
2.030205943691344928e+01
2.027835636079249326e+01
2.029962200208550627e+01
2.025765771637122015e+01
2.026337330552658855e+01
2.022777632950990423e+01
2.023145203336808962e+01
2.026741397288842350e+01
2.027020985401459896e+01
2.029162539103232632e+01
2.027250391032325183e+01
2.028013555787278221e+01
2.034401720542231473e+01
2.031635818561001017e+01
2.032524765380604848e+01
2.032980969760166801e+01
2.032597106360792338e+01
2.035178571428571459e+01
2.032862356621480515e+01
2.033078076120959210e+01
2.027934697601668290e+01
2.029118873826902814e+01
2.031549139728884157e+01
2.031555656934306597e+01
2.030564389989572405e+01
2.028977450469238875e+01
2.029037408759123906e+01
2.032520203336808962e+01
2.030563738269030338e+01
2.033652241918665382e+01
2.029337200208550485e+01
2.030518117831073965e+01
2.031980578727841547e+01
2.029956986444212674e+01
2.031979275286757058e+01
2.030664754953076212e+01
2.027578858185609789e+01
2.033392857142857224e+01
2.032011861313868550e+01
2.031586287799791535e+01
2.030252867570385789e+01
2.029362617309697470e+01
2.033718065693430432e+01
2.031715328467153370e+01
2.033774113660062355e+01
2.029601798748696595e+01
2.031019942648592291e+01
2.030419708029197068e+01
2.029360662148070915e+01
2.029136470281543225e+01
2.026889989572471151e+01
2.025944994786235753e+01
2.030725364963503665e+01
2.030707768508863253e+01
2.030712330552659139e+01
2.027743743482794514e+01
2.027471324296141830e+01
2.031332768508863396e+01
2.028720020855057271e+01
2.029745177267987444e+01
2.030513555787278435e+01
2.030591110531803878e+01
2.033285323253388910e+01
2.033098279457768598e+01
2.033101538060479641e+01
2.031382299270072878e+01
2.032249739311783188e+01
2.035988660062565003e+01
2.035916970802919579e+01
2.036267596454640127e+01
2.034167752867570300e+01
2.033672445255474415e+01
2.035078206465067652e+01
2.033285323253388910e+01
2.035224191866527477e+01
2.031621480709072003e+01
2.031700338894681934e+01
2.036334723670490021e+01
2.033489311783107212e+01
2.033866657977059234e+01
2.030501824817518042e+01
2.031371220020854906e+01
2.034870307612095885e+01
2.032105709071949917e+01
2.032602320125130291e+01
2.031206334723670537e+01
2.031828076120959281e+01
2.034508602711157366e+01
2.034464937434827903e+01
2.034981100104275242e+01
2.032852580813347032e+01
2.033110662148070702e+01
2.034603753910323221e+01
2.034487095933263845e+01
2.037022288842544171e+01
2.035812043795620241e+01
2.032337721584984180e+01
2.033703727841501419e+01
2.035185088633993544e+01
2.035367570385818681e+01
2.034320907194994632e+01
2.033670490093847860e+01
2.038637904066736084e+01
2.035897419186652613e+01
2.039846193952033460e+01
2.034188607924921754e+01
2.035387122002085292e+01
2.037265380604796761e+01
2.038627476538060534e+01
2.036008211678831969e+01
2.033564911366006100e+01
2.033744134515119839e+01
2.036494395203336794e+01
2.037577554744525443e+01
2.036009515119916458e+01
2.034806438998957034e+01
2.034172966631908253e+01
2.035845281543274155e+01
2.037122653806047978e+01
2.035995177267987444e+01
2.037198905109488933e+01
2.035677137643378387e+01
2.038517335766423244e+01
2.037490224191866517e+01
2.035050834202294112e+01
2.034457116788320974e+01
2.032567778936391889e+01
2.036865224191866375e+01
2.033103493222106195e+01
2.033156282586027075e+01
2.031899765380604705e+01
2.031667752867570442e+01
2.035092544316996666e+01
2.035755995828988318e+01
2.035463373305526602e+01
2.033066996871741239e+01
2.036055787278414897e+01
2.036172445255474273e+01
2.037427659019812154e+01
2.037876694473409600e+01
2.036655370177268054e+01
2.036121611053180303e+01
2.041700990615224143e+01
2.041150286757038401e+01
2.043033759124087467e+01
2.040441866527632797e+01
2.040368873826902885e+01
2.043860792492179357e+01
2.041927789363920809e+01
2.039417361835245046e+01
2.036652763295099078e+01
2.035472497393117663e+01
2.037939911366006029e+01
2.036009515119916458e+01
2.035640641293013431e+01
2.036577163712200189e+01
2.036816345151198959e+01
2.039883342022940482e+01
2.036540667361835233e+01
2.037782846715328589e+01
2.036546532846715252e+01
2.037736574556830149e+01
2.038396115745568338e+01
2.040656934306569426e+01
2.037561913451511941e+01
2.035330422314911303e+01
2.033962460896767510e+01
2.038127606882168763e+01
2.034677398331595199e+01
2.036102059436913336e+01
2.033110662148070702e+01
2.032732012513034192e+01
2.033877737226277205e+01
2.033920099061522535e+01
2.033674400417100969e+01
2.033970281543274083e+01
2.030706465067778765e+01
2.032374217935349137e+01
2.031268248175182478e+01
2.029381517205422369e+01
2.027467413972888366e+01
2.027342935349322062e+01
2.030377997914494159e+01
2.028830813347236628e+01
2.027922966631908253e+01
2.026356230448383755e+01
2.024348931178310806e+01
2.027863660062565287e+01
2.026916710114702624e+01
2.027219108446298179e+01
2.025610662148070773e+01
2.024857924921793639e+01
2.027150026068821731e+01
2.027602320125130220e+01
2.026466371220020690e+01
2.025653675703858170e+01
2.028319212721584819e+01
2.030186392075078317e+01
2.030591110531803878e+01
2.032099191866527477e+01
2.029229014598540104e+01
2.029283759124087538e+01
2.034706725755995649e+01
2.034673488008342090e+01
2.037111574556830007e+01
2.039321558915537125e+01
2.045817909280500402e+01
2.051832638164754741e+01
2.048553832116788342e+01
2.042995307612095957e+01
2.036105318039624734e+01
2.034646115745568196e+01
2.034636339937434713e+01
2.032619264859228281e+01
2.032792622523462001e+01
2.028358315954118751e+01
2.025980839416058288e+01
2.028597497393117877e+01
2.027893639207507803e+01
2.025217022940563183e+01
2.021682090719499314e+01
2.022524765380604705e+01
2.024653284671532916e+01
2.020812695516162449e+01
2.019341110531803807e+01
2.020291970802919579e+01
2.020084071949947813e+01
2.021470281543274083e+01
2.020762513034410901e+01
2.018837330552658926e+01
2.016946689259645353e+01
2.016183524504692315e+01
2.019054353493222109e+01
2.016584332638164767e+01
2.015780109489050886e+01
2.012024244004171081e+01
2.013357012513034405e+01
2.017960766423357555e+01
2.015988660062565074e+01
2.018291840458811137e+01
2.016874999999999929e+01
2.018483446298227335e+01
2.022817387904066777e+01
2.022159150156412721e+01
2.022372914494264862e+01
2.023350495307612107e+01
2.022772419186652826e+01
2.029024374348279380e+01
2.026534150156413006e+01
2.027964676746611161e+01
2.025452945776850910e+01
2.025270464025026129e+01
2.029072601668404374e+01
2.029928962460896713e+01
2.029967413972888224e+01
2.029111053180396240e+01
2.029137773722627713e+01
2.033727841501563915e+01
2.035955422314911445e+01
2.035098409801877040e+01
2.033446298227320170e+01
2.036642987486965595e+01
2.040389728884254339e+01
2.046343196037539158e+01
2.065267857142857011e+01
2.076141814389989548e+01
2.111250651720542137e+01
2.131386861313868408e+01
2.110542231491136533e+01
2.089747784150156207e+01
2.083442387904066706e+01
2.084017205422314944e+01
2.093380474452554552e+01
2.090703858185609931e+01
2.089354144942648617e+01
2.086749217935349421e+01
2.081557612095933152e+01
2.086926485922836250e+01
2.081750521376433838e+01
2.077352711157455545e+01
2.070295229405630977e+01
2.062523461939520431e+01
2.057827163712200047e+01
2.058510818561001088e+01
2.059328727841501561e+01
2.061980578727841618e+01
2.062993352450469331e+01
2.069381517205422227e+01
2.072015771637121873e+01
2.077818691345150981e+01
2.077580161626694277e+01
2.080116006256517025e+01
2.083557090719499527e+01
2.082745698644421140e+01
2.082947080291970821e+01
2.081770724713242871e+01
2.082507820646506858e+01
2.082108967674660960e+01
2.082765250260688106e+01
2.078709593326381722e+01
2.077571689259645282e+01
2.072053571428571317e+01
2.071583029197080350e+01
2.063284671532846559e+01
2.057335114702815204e+01
2.048607924921793355e+01
2.034094760166840388e+01
2.039745177267987586e+01
2.040978232533889525e+01
2.040212460896767510e+01
2.039571819603753866e+01
2.038970933263816576e+01
2.040540276329509695e+01
2.036590849843587137e+01
2.035586548488008418e+01
2.035341501564129274e+01
2.037144160583941499e+01
2.038668534932221021e+01
2.038568169968717214e+01
2.040940432742440080e+01
2.040144030239833128e+01
2.040291970802919508e+01
2.043861444212721423e+01
2.044792101147028163e+01
2.041368613138686072e+01
2.041596063607924805e+01
2.041564781021897801e+01
2.045899374348279309e+01
2.042316214807090802e+01
2.041975364963503736e+01
2.038345281543274368e+01
2.039661105318039702e+01
2.044846193952033175e+01
2.041914103232533861e+01
2.041310610010427595e+01
2.039981100104275313e+01
2.041324947862356609e+01
2.042945776850886119e+01
2.044975234619395010e+01
2.042726798748696382e+01
2.043503649635036368e+01
2.042622523461939466e+01
2.045046923879040790e+01
2.042889728884254552e+01
2.041185479666318869e+01
2.041566084462982289e+01
2.038805396246089785e+01
2.042438086548488130e+01
2.042001433785192788e+01
2.037656412930135374e+01
2.035950860271115559e+01
2.035396246089676708e+01
2.038074165797705817e+01
2.037405500521376212e+01
2.035893508863399148e+01
2.033963764337851998e+01
2.036895203336809246e+01
2.039325469238790234e+01
2.036661235662148073e+01
2.035151199165797564e+01
2.031017335766423315e+01
2.032160453597497352e+01
2.034623957247132253e+01
2.030138164754952967e+01
2.029714546402502506e+01
2.028065693430657035e+01
2.031390771637121873e+01
2.032703336809176164e+01
2.031472888425443202e+01
2.032206074035453369e+01
2.031777893639207377e+01
2.031150286757038614e+01
2.034126042752867392e+01
2.031037539103232348e+01
2.029214676746611090e+01
2.030252215849843367e+01
2.028860140771637077e+01
2.032564520333680846e+01
2.031798748696558832e+01
2.030918274244003996e+01
2.032952945776850839e+01
2.033069603753910215e+01
2.035098409801877040e+01
2.034042622523461930e+01
2.031894551616266753e+01
2.029223149113660085e+01
2.031893248175182265e+01
2.033531021897810120e+01
2.034201642335766280e+01
2.033095020855057200e+01
2.032664233576642232e+01
2.033055917622523268e+01
2.034653284671532703e+01
2.034975886339937290e+01
2.034811652763294987e+01
2.035490745568300142e+01
2.035401459854014661e+01
2.037551485922836392e+01
2.037063998957247080e+01
2.034125391032325325e+01
2.035046272158498226e+01
2.035639989572471364e+01
2.037049009384775644e+01
2.036692518248175077e+01
2.036851538060479783e+01
2.036499608967674746e+01
2.036594760166840246e+01
2.040370177267987373e+01
2.041840458811261527e+01
2.038327685088633956e+01
2.039382168925964578e+01
2.039228362877997824e+01
2.044514468196037527e+01
2.045331725755995933e+01
2.042264728884254410e+01
2.043147810218978222e+01
2.042237356621480515e+01
2.045358446298227406e+01
2.043330943691345070e+01
2.043937043795620312e+01
2.042713112617309790e+01
2.041434436913451478e+01
2.045254822732012556e+01
2.044433654848800685e+01
2.044406934306569212e+01
2.042731360792492268e+01
2.044095411887382596e+01
2.048307481751824710e+01
2.043835375391032372e+01
2.041197210636079262e+01
2.042639468196037456e+01
2.040525286757038614e+01
2.042369004171011326e+01
2.041226538060479712e+01
2.037965980187695436e+01
2.040145333680917616e+01
2.036872393117830882e+01
2.037275808133472310e+01
2.034762773722627571e+01
2.033033107403545259e+01
2.035217022940562970e+01
2.035503128258602601e+01
2.040675834202293970e+01
2.036580422314911232e+01
2.036364051094890470e+01
2.037514337851929014e+01
2.037826511991658052e+01
2.041238920750782171e+01
2.040448383733055238e+01
2.039690432742440152e+01
2.038196037539103145e+01
2.039941345151198959e+01
2.041414885297184512e+01
2.040183785192909127e+01
2.039107794577684984e+01
2.040827685088633814e+01
2.041728362877998038e+01
2.043695255474452566e+01
2.044253779979144880e+01
2.040800964546402341e+01
2.043388295099061480e+01
2.038242309697601584e+01
2.040970411887382596e+01
2.039836418143899976e+01
2.037094629822732017e+01
2.037447210636079120e+01
2.040185088633993615e+01
2.040405370177267841e+01
2.040302398331595413e+01
2.034552919708029251e+01
2.037951642335766422e+01
2.038003128258602814e+01
2.039046532846715110e+01
2.038261861313868550e+01
2.035409280500521234e+01
2.038654197080292008e+01
2.036060349322210428e+01
2.038456725755995791e+01
2.036883472367048853e+01
2.031885427528675692e+01
2.033363529718456775e+01
2.033150417101147056e+01
2.035518117831074036e+01
2.034359358706986498e+01
2.029643508863399148e+01
2.030771637122002105e+01
2.031585636079249113e+01
2.034081074035453440e+01
2.031422705943691298e+01
2.027795229405630906e+01
2.030058003128258548e+01
2.031157455683003121e+01
2.032340328467153157e+01
2.031436392075078246e+01
2.030388425443170064e+01
2.032641423357664223e+01
2.029674139728884086e+01
2.034657846715328589e+01
2.036403154327424403e+01
2.031574556830031142e+01
2.034880083420229369e+01
2.036648201251303547e+01
2.036726407716371057e+01
2.036662539103232561e+01
2.035377997914494230e+01
2.036063607924921826e+01
2.034509906152241854e+01
2.036300182481751619e+01
2.035086678832116647e+01
2.033179092805005084e+01
2.033150417101147056e+01
2.035654327424400378e+01
2.037841501564129132e+01
2.035417101147028163e+01
2.033434567257559777e+01
2.034693039624609057e+01
2.032756126173097044e+01
2.035314781021897801e+01
2.032393769551616103e+01
2.028827554744525585e+01
2.033937695516162592e+01
2.031767466110531828e+01
2.034396506777893521e+01
2.032989442127215796e+01
2.028483446298227122e+01
2.032014468196037527e+01
2.033181047966631994e+01
2.035626955161626483e+01
2.035108185610010523e+01
2.033608576642335564e+01
2.035486835245047033e+01
2.035080161626694562e+01
2.035716892596454741e+01
2.036542622523461787e+01
2.035570255474452495e+01
2.037206074035453440e+01
2.039135818561000946e+01
2.039907455683002979e+01
2.039704118873826744e+01
2.035516162669447127e+01
2.041173096976016765e+01
2.041843717413972925e+01
2.043144551616266824e+01
2.040561783107403571e+01
2.038846454640250272e+01
2.044611574556829936e+01
2.045447732012512887e+01
2.047204770594369094e+01
2.042220411887382525e+01
2.043432612095933365e+01
2.047913842544317120e+01
2.048108706986444005e+01
2.050172705943691298e+01
2.048731100104275171e+01
2.044883342022940553e+01
2.048901199165797493e+01
2.050525286757038401e+01
2.052876694473409813e+01
2.049832507820646299e+01
2.049664363920750887e+01
2.052666188738269071e+01
2.053319212721584819e+01
2.054682612095933081e+01
2.053392205422314731e+01
2.050999087591240766e+01
2.051279979144942445e+01
2.053239051094890399e+01
2.052800443169968503e+01
2.051376433785192788e+01
2.048831465067778979e+01
2.051506777893639111e+01
2.052708550573514046e+01
2.055627606882168834e+01
2.053048748696558690e+01
2.049444734098018728e+01
2.050842674661105391e+01
2.051179614181438993e+01
2.054923748696558761e+01
2.053809958289885174e+01
2.048468456725755971e+01
2.051493091762252163e+01
2.054580291970802719e+01
2.056469629822731804e+01
2.053083289885297091e+01
2.051599322210635989e+01
2.054364572471324379e+01
2.054272679874869567e+01
2.058707638164754883e+01
2.056553701772679688e+01
2.054075860271115772e+01
2.057022288842544100e+01
2.055512904066736013e+01
2.058310088633993828e+01
2.057638816475495247e+01
2.052750260688216954e+01
2.056032325338894751e+01
2.056717935349321991e+01
2.059683915537017640e+01
2.055037148070907094e+01
2.052591892596454670e+01
2.053376564129301229e+01
2.054670229405630977e+01
2.055486835245046962e+01
2.053874478623566091e+01
2.049489702815432679e+01
2.053290537017726791e+01
2.051317127215849823e+01
2.053695907194994774e+01
2.050325860271115630e+01
2.048629431699687231e+01
2.049123435870698628e+01
2.049346324296141830e+01
2.050624348279457720e+01
2.048519290928049941e+01
2.047412017726798794e+01
2.050014337851929014e+01
2.050394290928050012e+01
2.050491397288842421e+01
2.047664885297184512e+01
2.048761079249218042e+01
2.051607794577684984e+01
2.050465980187695436e+01
2.050587200208550698e+01
2.048588373305526389e+01
2.044767335766423244e+01
2.044487095933263632e+01
2.046511991657976992e+01
2.045389077163711988e+01
2.042472627737226176e+01
2.041691214807090660e+01
2.043166058394160700e+01
2.042208029197080066e+01
2.043811261730969875e+01
2.042409410844629747e+01
2.039277893639207306e+01
2.042299270072992812e+01
2.040467283628779782e+01
2.043067648592283447e+01
2.041678832116788200e+01
2.036094890510948829e+01
2.038556438998957177e+01
2.038933785192909198e+01
2.039614181438998841e+01
2.038583159541188650e+01
2.035167492179353488e+01
2.039681960375391157e+01
2.039862486965589028e+01
2.045699947862356538e+01
2.046746611053180231e+01
2.044285714285714306e+01
2.048398722627737101e+01
2.046069473409801986e+01
2.045949556830031213e+01
2.041876955161626483e+01
2.038246220020855048e+01
2.039500130344108442e+01
2.036852841501563915e+01
2.037254953076120856e+01
2.037105057351407567e+01
2.034321558915537054e+01
2.036373826903023954e+01
2.035193561001042539e+01
2.038154327424400236e+01
2.035431438998957177e+01
2.033310088633993828e+01
2.036383602711157437e+01
2.038023331595411847e+01
2.037340980187695294e+01
2.034208811261730787e+01
2.033526459854014590e+01
2.034744525547445093e+01
2.036824817518247954e+01
2.039216631908237787e+01
2.036306047966631994e+01
2.035989311783107425e+01
2.037389207507820643e+01
2.037309045881126224e+01
2.039958289885297305e+01
2.035720151199165784e+01
2.033488660062565145e+01
2.035241136600625467e+01
2.036320385818561007e+01
2.037433524504692173e+01
2.034817518248175006e+01
2.035221584984358500e+01
2.038510818561001159e+01
2.037831725755995649e+01
2.038820385818560865e+01
2.038390901981230385e+01
2.036699035453597517e+01
2.040976277372262615e+01
2.039033498435870584e+01
2.039818169968717498e+01
2.037097236704900993e+01
2.038574035453597588e+01
2.043277502606882123e+01
2.040422314911365831e+01
2.041495698644421353e+01
2.040108185610010239e+01
2.040928701772679688e+01
2.042221063607924947e+01
2.043669838373305581e+01
2.041533498435870797e+01
2.038649635036496122e+01
2.038697210636079049e+01
2.039530761209593379e+01
2.040507038581856136e+01
2.040922184567257602e+01
2.037848018769551572e+01
2.034451903023983377e+01
2.036940823774765263e+01
2.038760427528675478e+01
2.038787148070907307e+01
2.034617440041710168e+01
2.033175834202294041e+01
2.036462460896767368e+01
2.035087330552659068e+01
2.037299921793534807e+01
2.035210505735140885e+01
2.030974973931178340e+01
2.036970802919708134e+01
2.038124999999999787e+01
2.039861835245046962e+01
2.037907977059436959e+01
2.036188086548488130e+01
2.040890250260688177e+01
2.042748957247132324e+01
2.043664624608967628e+01
2.040050182481751762e+01
2.039372393117831095e+01
2.043678962460896642e+01
2.040684306569342965e+01
2.042923618352450532e+01
2.041348409801877040e+01
2.041610401459853819e+01
2.044114963503649562e+01
2.040752737226277347e+01
2.042175443169968574e+01
2.039804483837330551e+01
2.039994786235662261e+01
2.043740875912408583e+01
2.044761470281543225e+01
2.045718196037539016e+01
2.042519551616267037e+01
2.043917492179353346e+01
2.048950729927007330e+01
2.046773331595411705e+01
2.048614442127215796e+01
2.046863920750782029e+01
2.046091631908237574e+01
2.049242049009384559e+01
2.050056699687173989e+01
2.047039885297184370e+01
2.044912017726798581e+01
2.043810610010427453e+01
2.043745437956204469e+01
2.042230839416058430e+01
2.042976407716371057e+01
2.040233967674661031e+01
2.043785192909280468e+01
2.047569734098018657e+01
2.048397419186652613e+01
2.049901590198123102e+01
2.047661626694473469e+01
2.047538451511991653e+01
2.051480057351407638e+01
2.049378910323253322e+01
2.047854535974973800e+01
2.045185740354535753e+01
2.044974582898852944e+01
2.049580943691345070e+01
2.049287017726798865e+01
2.046411626694473185e+01
2.046085114702815488e+01
2.042520203336809104e+01
2.047165667361835162e+01
2.048995698644421282e+01
2.048748696558915583e+01
2.048051355578727950e+01
2.049592022940563041e+01
2.052085505735140813e+01
2.051814389989572263e+01
2.051442909280500615e+01
2.048498435870698486e+01
2.045877867570385789e+01
2.047781543274243887e+01
2.044721715328467226e+01
2.046482012513034476e+01
2.043476929092804895e+01
2.043637904066736155e+01
2.044635036496350367e+01
2.043196689259645282e+01
2.043963112617309719e+01
2.044539233576642445e+01
2.043658107403545188e+01
2.046053832116788129e+01
2.043639207507820643e+01
2.042837591240875739e+01
2.042375521376433767e+01
2.041894551616266895e+01
2.042119395203336651e+01
2.040589807090719532e+01
2.039345672575599622e+01
2.038541449426485741e+01
2.037527372262773540e+01
2.040068430656934240e+01
2.039023722627737101e+01
2.036132038581856207e+01
2.035893508863399148e+01
2.035063868613138638e+01
2.041534801876955285e+01
2.039416058394160558e+01
2.040248305526590045e+01
2.039458420229405533e+01
2.040462069864442185e+01
2.045021506777893450e+01
2.045422314911365902e+01
2.043562304483837266e+01
2.044708029197080279e+01
2.043287278415015606e+01
2.043995698644421211e+01
2.041981230448383755e+01
2.039772549530761125e+01
2.038650286757038543e+01
2.037297966631908253e+01
2.037521506777893521e+01
2.037164363920750887e+01
2.035036496350364743e+01
2.033276199165797493e+01
2.029759515119916458e+01
2.034024374348279451e+01
2.034495568300312840e+01
2.031006908237747766e+01
2.029473409801876826e+01
2.029076511991657839e+01
2.035170099061522464e+01
2.033415015641292811e+01
2.033002476538060321e+01
2.033665276329509908e+01
2.032075078206464980e+01
2.034862486965588957e+01
2.033280109489050957e+01
2.034121480709071861e+01
2.030726668404588153e+01
2.029347627737226389e+01
2.030414494264859115e+01
2.030718847758081225e+01
2.030367570385818610e+01
2.027951642335766280e+01
2.029842283628779853e+01
2.033720672575599409e+01
2.037277111574556798e+01
2.033107403545359659e+01
2.031051225234619295e+01
2.032558654848800828e+01
2.034934176225234737e+01
2.035207247132429487e+01
2.034077815432742398e+01
2.029760166840458879e+01
2.030714285714285694e+01
2.034438868613138496e+01
2.030963242961417947e+01
2.030971715328466942e+01
2.028880344108446110e+01
2.029659801876955072e+01
2.033672445255474415e+01
2.033394812304483779e+01
2.035199426485922913e+01
2.030145333680917474e+01
2.032616657977059305e+01
2.036004953076120927e+01
2.033939650677789146e+01
2.034267466110531686e+01
2.030830291970803003e+01
2.031158759124087609e+01
2.032653154327424261e+01
2.031959071949947671e+01
2.031133342022940624e+01
2.029267466110531615e+01
2.028424791449426579e+01
2.031119655891553677e+01
2.033473670490093710e+01
2.033177137643378529e+01
2.034354144942648546e+01
2.034191866527632797e+01
2.037113529718456562e+01
2.038630083420229511e+01
2.037535192909280468e+01
2.037251694473409813e+01
2.038523201251303263e+01
2.039940041710114826e+01
2.040193561001042610e+01
2.041830031282585978e+01
2.039638946819603760e+01
2.038220151199165642e+01
2.043344629822732017e+01
2.042099843587069685e+01
2.041066214807090518e+01
2.041157455683002908e+01
2.039874869655891487e+01
2.043660714285714164e+01
2.044575729927007401e+01
2.040660844629822535e+01
2.038728493222106408e+01
2.039397158498435658e+01
2.043716110531804020e+01
2.040707768508863396e+01
2.039648070907194821e+01
2.037643378519290849e+01
2.041410974973931047e+01
2.041071428571428470e+01
2.038733706986444005e+01
2.041278675703858170e+01
2.039199035453597375e+01
2.038261861313868550e+01
2.041371220020855048e+01
2.042515641293013573e+01
2.038832768508863325e+01
2.037571037539103358e+01
2.039839025026068597e+01
2.041259775808133270e+01
2.042194343065693474e+01
2.040821819603753795e+01
2.042670099061522393e+01
2.041814389989572476e+01
2.046302137643378316e+01
2.048173879040667344e+01
2.048238399374348262e+01
2.049877476538060250e+01
2.047020985401459825e+01
2.051053180396246134e+01
2.052327294056308560e+01
2.050448383733055380e+01
2.049259645464024970e+01
2.049472758081334689e+01
2.053260557872783920e+01
2.048583811261730858e+01
2.047906021897810191e+01
2.044032194994786167e+01
2.044640250260688319e+01
2.046370568300312698e+01
2.043062434827945850e+01
2.041983185610010310e+01
2.041750521376433625e+01
2.043452815432742398e+01
2.046300834202293828e+01
2.047716371220020903e+01
2.045090589155370253e+01
2.043692648592283589e+01
2.044644160583941428e+01
2.049823383733055238e+01
2.049575729927007117e+01
2.046775286757038614e+01
2.046046663190823622e+01
2.047362486965588957e+01
2.048907064650677867e+01
2.046818300312825656e+01
2.046566736183524426e+01
2.046816345151199101e+01
2.045643248175182549e+01
2.047209984358707047e+01
2.045115354535974816e+01
2.046319082377476661e+01
2.046527632950990494e+01
2.046999478623566304e+01
2.050091240875912391e+01
2.049064781021897730e+01
2.049146246089676637e+01
2.046315172054223197e+01
2.043217544316996737e+01
2.047975104275286640e+01
2.047221715328467084e+01
2.045345411887382525e+01
2.044776459854014661e+01
2.043410453597497423e+01
2.046769421272158596e+01
2.043268378519290707e+01
2.043942257559958264e+01
2.042355318039624734e+01
2.043707638164755025e+01
2.045553310740354647e+01
2.045084071949947813e+01
2.045827033368091818e+01
2.046646897810218846e+01
2.044443430656934169e+01
2.047523461939520217e+01
2.047752867570385860e+01
2.047566475495307614e+01
2.045922836287799740e+01
2.045662799791449515e+01
2.048916188738268929e+01
2.047245828988529581e+01
2.045775547445255427e+01
2.044922445255474486e+01
2.044165145985401466e+01
2.050537017726798794e+01
2.049342413972888366e+01
2.048288581856100166e+01
2.047959462982273138e+01
2.048763034410844597e+01
2.052992049009384701e+01
2.050739051094890542e+01
2.049081725755995720e+01
2.048605318039624734e+01
2.050329770594369094e+01
2.054400417101146914e+01
2.052528675703858241e+01
2.052030761209593379e+01
2.052469369134514920e+01
2.056700338894681934e+01
2.063110662148070773e+01
2.065413842544316836e+01
2.069260948905109387e+01
2.072295359749739418e+01
2.071811131386861149e+01
2.072808263816475360e+01
2.071435088633993615e+01
2.071775286757038614e+01
2.071989702815432821e+01
2.071623435870698415e+01
2.069514468196037527e+01
2.066494395203336865e+01
2.064330683003128186e+01
2.062274504692387822e+01
2.060631517205422369e+01
2.064129301355578505e+01
2.065276981230448428e+01
2.062340980187695294e+01
2.060461418143899692e+01
2.061488529718456775e+01
2.071433785192909127e+01
2.075301094890511067e+01
2.082625782064650721e+01
2.085154457768508962e+01
2.091733576642335635e+01
2.123151068821689336e+01
2.132349452554744573e+01
2.128565563086548451e+01
2.125101016684045874e+01
2.124387382690302317e+01
2.129061522419186758e+01
2.127415276329509908e+01
2.123180396246089785e+01
2.126034932221063656e+01
2.125179223149113739e+01
2.125478362877997895e+01
2.121172445255474415e+01
2.117024244004170797e+01
2.117623175182481532e+01
2.117931438998957105e+01
2.116878910323253393e+01
2.115068430656934240e+01
2.114522940563086451e+01
2.109592674661105249e+01
2.112054223149113596e+01
2.114922445255474415e+01
2.112683133472366848e+01
2.111193300312825727e+01
2.113710896767465997e+01
2.112718326381647671e+01
2.113900547445255285e+01
2.112050312825860132e+01
2.110711678832116789e+01
2.109285714285714164e+01
2.107165015641292882e+01
2.109881386861313857e+01
2.108965067778936486e+01
2.109296793534932135e+01
2.109723018769551572e+01
2.110756647549530740e+01
2.114468847758081438e+01
2.115002606882168834e+01
2.113644421272158525e+01
2.113672445255474486e+01
2.110459462982273138e+01
2.112949035453597446e+01
2.110138816475495105e+01
2.107809567257559991e+01
2.111038842544316907e+01
2.109189259645463821e+01
2.112431569343065618e+01
2.110875260688216670e+01
2.109146246089676779e+01
2.109227711157455687e+01
2.109773201251303476e+01
2.111884124087591275e+01
2.112501303441084488e+01
2.107265380604796690e+01
2.106253910323253464e+01
2.104956334723670608e+01
2.109157325338894751e+01
2.107133081334723457e+01
2.104493613138686214e+01
2.104492961418143793e+01
2.104701511991657981e+01
2.108330943691344928e+01
2.103405891553701679e+01
2.102253649635036581e+01
2.102122002085505770e+01
2.101502215849843580e+01
2.104882038581856207e+01
2.103376564129301229e+01
2.098906412930135446e+01
2.099965458811261598e+01
2.096498957247132466e+01
2.097724191866527477e+01
2.091658628779979168e+01
2.085787278415015678e+01
2.079124739311783188e+01
2.060502476538060534e+01
2.059824687174139513e+01
2.056796793534932277e+01
2.053342674661105249e+01
2.055413842544317049e+01
2.056569994786235611e+01
2.059482533889468314e+01
2.060185740354535966e+01
2.056627346193952022e+01
2.060115354535975030e+01
2.061085114702815346e+01
2.065286105318039489e+01
2.061830683003128328e+01
2.062170881126172972e+01
2.062924270072992528e+01
2.063503649635036297e+01
2.065127737226277205e+01
2.065735140771636935e+01
2.066579118873826815e+01
2.068205813347236699e+01
2.068723279457768527e+01
2.072488269030239749e+01
2.071211548488008347e+01
2.073271637122002176e+01
2.072934697601668219e+01
2.075827685088633956e+01
2.078121741397288957e+01
2.077200860271115701e+01
2.074902241918665169e+01
2.075027372262773540e+01
2.078297054223149232e+01
2.078654848800834287e+01
2.079168404588112651e+01
2.078660062565171884e+01
2.080353884254431662e+01
2.079182742440041665e+01
2.083834723670490163e+01
2.082005344108446110e+01
2.081979275286757058e+01
2.083875130344108229e+01
2.088280761209593450e+01
2.096276068821689265e+01
2.103764337851929156e+01
2.126556308654848593e+01
2.168116527632950863e+01
2.162357273201251218e+01
2.149162539103232561e+01
2.138061131386861291e+01
2.134302659019812154e+01
2.128652893639207377e+01
2.120886991657976850e+01
2.118171272158498297e+01
2.116294316996871672e+01
2.105986704900938378e+01
2.103855578727841547e+01
2.099585505735140600e+01
2.097769812304483850e+01
2.093081986444212816e+01
2.094464285714285623e+01
2.094503388946819555e+01
2.090899374348279238e+01
2.094577033368091534e+01
2.090161626694473185e+01
2.090864181438998770e+01
2.091638425443169780e+01
2.092033368091762213e+01
2.095550703858185670e+01
2.092584723670490021e+01
2.092960766423357555e+01
2.094563347236704942e+01
2.098528415015641357e+01
2.101053832116788200e+01
2.100750130344108513e+01
2.098771506777893592e+01
2.099844890510948758e+01
2.100345411887382596e+01
2.106208289885297091e+01
2.104096063607924805e+01
2.103030500521376212e+01
2.104376303441084417e+01
2.107710505735140671e+01
2.112294056308654788e+01
2.109008733055265949e+01
2.106869786235662190e+01
2.110235271115745448e+01
2.111569343065693261e+01
2.114481882168925964e+01
2.113883602711157295e+01
2.113213633993743557e+01
2.116068821689259494e+01
2.118174530761209695e+01
2.122992700729927051e+01
2.121339285714285694e+01
2.120105578727841333e+01
2.123416319082377512e+01
2.122689650677789430e+01
2.126574556830031071e+01
2.124892466110531686e+01
2.122348149113659943e+01
2.126065563086548593e+01
2.127550182481751762e+01
2.132099191866527477e+01
2.131893899895724687e+01
2.128018769551616174e+01
2.131113790406673658e+01
2.129921793534932206e+01
2.133623566214806999e+01
2.131960375391032159e+01
2.130601538060479783e+01
2.134396506777893521e+01
2.135467935349322133e+01
2.136862617309697399e+01
2.135600234619395010e+01
2.132978362877997824e+01
2.136757690302398416e+01
2.138678962460896571e+01
2.141657977059436746e+01
2.138183654848800685e+01
2.140162930135557673e+01
2.144351538060479712e+01
2.152325990615224072e+01
2.160881126173097044e+01
2.163175182481751690e+01
2.164485792492179428e+01
2.172904718456725703e+01
2.173856230448383542e+01
2.175119264859228352e+01
2.174087591240875739e+01
2.170356491136600496e+01
2.169575078206464980e+01
2.170039103232533861e+01
2.170849843587069827e+01
2.164782977059437030e+01
2.156116397288842634e+01
2.155687565172054221e+01
2.152595802919708134e+01
2.153226668404587940e+01
2.148540145985401395e+01
2.148641162669447269e+01
2.152342935349322062e+01
2.154554874869655734e+01
2.158531673618352542e+01
2.155389728884254552e+01
2.154753649635036439e+01
2.157333159541188650e+01
2.156970151199165642e+01
2.160941084462982076e+01
2.157905370177267912e+01
2.155871350364963490e+01
2.156296272158498439e+01
2.157103102189780941e+01
2.159429744525547434e+01
2.157768508863399148e+01
2.157821949947862450e+01
2.160682351407716340e+01
2.161965589155370182e+01
2.165968456725756042e+01
2.163791710114702838e+01
2.160623044838373374e+01
2.163095020855057271e+01
2.161789624608967486e+01
2.165804223149113739e+01
2.162651199165797777e+01
2.160735792492179286e+01
2.162223018769551430e+01
2.161919968717413809e+01
2.164345672575599622e+01
2.162128519290927997e+01
2.159947210636079262e+01
2.160333029197080279e+01
2.160686261730969804e+01
2.164260297184567250e+01
2.160285453597497352e+01
2.157937304483837337e+01
2.159575078206464838e+01
2.160669968717413880e+01
2.162035974973931118e+01
2.157625130344108300e+01
2.158194734098018586e+01
2.159190563086548309e+01
2.161057090719499385e+01
2.165634775808133483e+01
2.165120568300312698e+01
2.162589285714285836e+01
2.166580422314911303e+01
2.167982273201251076e+01
2.171259124087591275e+01
2.168664624608967628e+01
2.165531152241918633e+01
2.169148201251303476e+01
2.168254040667361693e+01
2.167664233576642374e+01
2.165271767466110475e+01
2.160456204379562095e+01
2.162693561001042752e+01
2.162185870698644408e+01
2.164550964546402412e+01
2.160729275286756845e+01
2.158085896767466139e+01
2.161530239833159328e+01
2.160819864442127169e+01
2.162659671532846772e+01
2.161918665276329321e+01
2.157842153284671483e+01
2.162228884254431804e+01
2.162085505735140600e+01
2.165688868613138496e+01
2.161929744525547292e+01
2.159000260688216954e+01
2.162485010427528564e+01
2.160887643378519130e+01
2.164195125130343911e+01
2.160885036496350153e+01
2.157533237747653843e+01
2.162403545359749657e+01
2.161936913451511799e+01
2.165313477580813384e+01
2.161407064650677867e+01
2.161040145985401395e+01
2.162884515119916529e+01
2.162374869655891629e+01
2.167435479666319154e+01
2.161692518248175077e+01
2.161891944734097848e+01
2.163993091762252163e+01
2.165756647549530811e+01
2.166481360792491984e+01
2.163495828988529723e+01
2.163704379562043911e+01
2.162497393117831024e+01
2.164778415015641144e+01
2.166644290928050154e+01
2.163313998957247009e+01
2.163620307612096028e+01
2.165449035453597304e+01
2.163813216892596358e+01
2.167504562043795602e+01
2.165387122002085363e+01
2.161727711157455545e+01
2.164848149113660014e+01
2.166099452554744431e+01
2.167887773722627642e+01
2.164122784150156420e+01
2.162123957247132466e+01
2.163245568300312627e+01
2.163214937434828045e+01
2.164205552659019816e+01
2.160241136600625467e+01
2.161340589155370040e+01
2.163352450469238875e+01
2.164585505735140813e+01
2.165450338894681792e+01
2.163533628779979168e+01
2.160578076120959423e+01
2.164612877997914353e+01
2.163271637122002033e+01
2.164225755995828848e+01
2.162470020855057129e+01
2.160643899895724829e+01
2.163753258602710972e+01
2.163646376433785079e+01
2.167636861313868479e+01
2.165439259645463821e+01
2.163914885297184654e+01
2.164743873826903098e+01
2.164833159541188579e+01
2.162097236704900993e+01
2.159762773722627571e+01
2.157041188738269000e+01
2.161664494264859115e+01
2.161737486965589028e+01
2.166927137643378387e+01
2.162840849843587065e+01
2.160292622523461858e+01
2.162191736183524426e+01
2.162032064650677654e+01
2.164901590198122960e+01
2.161837851929092835e+01
2.158897288842544171e+01
2.161675573514077087e+01
2.161261730969760109e+01
2.165523983315954126e+01
2.161837851929092835e+01
2.159434306569342965e+01
2.160869395203336651e+01
2.159056308654848877e+01
2.162833680917622559e+01
2.160626955161626483e+01
2.156435088633993757e+01
2.158134124087591132e+01
2.156013425443169851e+01
2.156583029197080137e+01
2.155837460896767510e+01
2.149634384775808016e+01
2.154232273201251147e+01
2.152339676746611019e+01
2.153482142857142634e+01
2.151642335766423386e+01
2.149775156412930244e+01
2.153667883211678813e+01
2.154042622523461858e+01
2.152817387904066848e+01
2.143491266944733908e+01
2.129344369134514992e+01
2.111705552659019602e+01
2.093989833159541192e+01
2.079385427528675478e+01
2.064472758081334547e+01
2.059768639207507945e+01
2.060851147028154173e+01
2.059983706986444219e+01
2.058671793534931993e+01
2.055812043795620525e+01
2.054069994786235753e+01
2.058022028154327288e+01
2.056708811261730929e+01
2.057855187695516008e+01
2.057715719499478624e+01
2.054666970802919579e+01
2.060807481751824710e+01
2.063477580813347245e+01
2.064582247132429416e+01
2.063483446298227264e+01
2.063168013555787184e+01
2.067442648592283660e+01
2.067585375391032443e+01
2.069514468196037527e+01
2.067447210636079191e+01
2.066622132429614211e+01
2.068077424400416930e+01
2.067656412930135446e+01
2.069266162669447340e+01
2.067008602711157295e+01
2.064898331595411918e+01
2.065361704900938378e+01
2.065534410844629676e+01
2.066725104275286640e+01
2.068965067778936273e+01
2.064702163712200189e+01
2.069881386861313644e+01
2.068383081334723528e+01
2.071828727841501561e+01
2.070063868613138780e+01
2.069669577685088413e+01
2.071979275286756916e+01
2.073229275286756845e+01
2.073626824817518255e+01
2.071987095933263845e+01
2.070424270072992812e+01
2.072433524504692315e+01
2.073126955161626483e+01
2.074283759124087467e+01
2.071706856100104233e+01
2.070087330552658855e+01
2.072519551616266753e+01
2.072795229405630835e+01
2.075252215849843651e+01
2.074319603753910357e+01
2.073351147028154173e+01
2.075158368091762284e+01
2.075785974973931047e+01
2.077567127215849752e+01
2.076085114702815204e+01
2.076953858185610002e+01
2.078150417101146985e+01
