2.753436289247707114e-03
-3.276566517298616990e-03
-8.639549618355672062e-03
-1.278966562253711428e-02
-1.538974744081511060e-02
-1.635349582160034593e-02
-1.583297655810471383e-02
-1.415635711971334650e-02
-1.173261310442763605e-02
-8.947403345743070932e-03
-6.075605934666572852e-03
-3.230866071626958477e-03
-3.623264383212487089e-04
2.703810561129314088e-03
6.191797607007019921e-03
1.029439076407483167e-02
1.510444244905118777e-02
2.057823769465215447e-02
2.653895075764634709e-02
3.271652264563371798e-02
3.880935561043008519e-02
4.454665922097884867e-02
4.973008970522278804e-02
5.423977134529402860e-02
5.800124503238945212e-02
6.092319404176620851e-02
6.282707554226443780e-02
6.339550381758382591e-02
6.216421052224264249e-02
5.857252552545058610e-02
5.207167905331445967e-02
4.227271206096115674e-02
2.910112877494160089e-02
1.291797280430366859e-02
-5.430496667938475297e-03
-2.465959770761558256e-02
-4.319391011835085198e-02
-5.939633230881610076e-02
-7.183752421968453428e-02
-7.955129037941122139e-02
-8.221988302523461356e-02
-8.024468270857057495e-02
-7.468028048410971231e-02
-6.703890000914930480e-02
-5.900088768393784572e-02
-5.208896694167109570e-02
-4.737377564060796242e-02
-4.527323860433130759e-02
-4.548929315092185149e-02
-4.709637193410293188e-02
-4.876323311270397420e-02
-4.906053568510913149e-02
-4.678757661828320674e-02
-4.124717369238420361e-02
-3.240887817185082731e-02
-2.092511086682803667e-02
-7.997049656822734220e-03
4.879970161895414577e-03
1.623541286109567508e-02
2.493670255215212420e-02
3.042777725822030585e-02
3.284057016428798548e-02
3.295464962597742520e-02
3.201322902195098685e-02
3.143487071220076728e-02
3.248279616090168909e-02
3.596302684999162780e-02
4.201675349501785006e-02
5.005272182245408541e-02
5.883625821232291164e-02
6.671898875431714337e-02
7.196408868255606273e-02
7.310199659572295949e-02
6.924490330760543766e-02
6.029618695322338379e-02
4.701158626204725993e-02
3.089803194535010664e-02
1.396782241062840407e-02
-1.606054317715117224e-03
-1.386864490472877742e-02
-2.142467624489805336e-02
-2.367940983918982029e-02
-2.093449641091381375e-02
-1.432227720788205663e-02
-5.592357411221627120e-03
3.208456200854513732e-03
1.010272294091238074e-02
1.352793535711879769e-02
1.259900277878507613e-02
7.242463161262156605e-03
-1.817875536222295779e-03
-1.321619449408177258e-02
-2.520748380015521220e-02
-3.598600966604011825e-02
-4.399934571247460929e-02
-4.820132767243524852e-02
-4.820127503750537556e-02
-4.428826296893648151e-02
-3.733368400699425133e-02
-2.859793743382986822e-02
-1.948350187760315017e-02
-1.128396523340868818e-02
-4.975834526560508897e-03
-1.088231222615001353e-03
3.322347966013237952e-04
-3.359406013880988917e-04
-2.418565593795836410e-03
-5.114331164739183838e-03
-7.665124001828995878e-03
-9.494117116848665994e-03
-1.028786800818875385e-02
-1.001283750227876558e-02
-8.871547710877258561e-03
-7.215771565757284067e-03
-5.441271476947127754e-03
-3.889581389392542110e-03
-2.777527192177224775e-03
-2.166256288398237667e-03
-1.970953684336334676e-03
-2.002789586882589880e-03
-2.028149524661212837e-03
-1.828087281198994586e-03
-1.243298400567316182e-03
-1.957253573325380171e-04
1.314614496264762764e-03
3.231918598013014832e-03
5.475526451980699053e-03
7.967581392816825564e-03
1.064770105398597788e-02
1.346994879203876339e-02
1.638375599263026255e-02
1.930630157625588122e-02
2.209751094559789936e-02
2.454917860292032267e-02
2.639651658982287985e-02
2.735441475765817282e-02
2.717339251431627120e-02
2.570357002653090445e-02
2.295086455514504936e-02
1.910933891090800529e-02
1.455758177742518325e-02
9.814499744036000312e-03
5.459311888951210931e-03
2.029635896354537589e-03
-8.194242795987911887e-05
-7.102910562785912096e-04
4.034284575108945670e-05
1.806600134842983353e-03
4.029206644949237699e-03
6.058133333798754530e-03
7.279010422146122566e-03
7.234652183795091396e-03
5.715837432567854454e-03
2.801615042412797588e-03
-1.159887133197258849e-03
-5.626231087922029667e-03
-9.974847489644732973e-03
-1.363171342350598565e-02
-1.618642084871890069e-02
-1.746865455348808188e-02
-1.756986925491063611e-02
-1.680638009101882713e-02
-1.563331746896027413e-02
-1.452991352880731238e-02
-1.388286599961461622e-02
-1.389464832752894397e-02
-1.453761039030996259e-02
-1.556396673926838982e-02
-1.656880318257065304e-02
-1.709104474131195595e-02
-1.672871266845257082e-02
-1.524170267413857416e-02
-1.261839823279605963e-02
-9.090917638911299309e-03
-5.095665595047043847e-03
-1.188338981480139070e-03
2.067271240286347109e-03
4.211764167670890846e-03
4.979245476616735860e-03
4.344362251514598261e-03
2.518651248442228818e-03
-1.006053854123410696e-04
-3.015185637467636057e-03
-5.723615180060038533e-03
-7.809284240762472129e-03
-9.000395163552469754e-03
-9.191385887457499682e-03
-8.425871570577347230e-03
-6.850936703679531489e-03
-4.659226869480962742e-03
-2.037035966407577635e-03
8.669087331136240623e-04
3.944925388248577552e-03
7.108679216716072731e-03
1.025358529474937330e-02
1.322581509504901741e-02
1.580845337861214173e-02
1.773797115405701882e-02
1.875269928094761007e-02
1.866399947383045113e-02
1.743152974212355821e-02
1.521931692019814521e-02
1.241109812651420771e-02
9.571703052438238629e-03
7.354407402839752313e-03
6.368990811301567315e-03
7.037763676313658553e-03
9.473478112641695037e-03
1.341150697584676983e-02
1.821867234449984704e-02
2.298455906269552748e-02
2.668182880647672339e-02
2.836467777137245683e-02
2.736364621904559952e-02
2.343356670207432171e-02
1.682032932894069605e-02
8.229568220372983356e-03
-1.297663340517212632e-03
-1.057592461338513826e-02
-1.849153220780404283e-02
-2.419672516526915479e-02
-2.724050006889564349e-02
-2.761039408677395945e-02
-2.568114564930597254e-02
-2.208842534895179982e-02
-1.756311196976831357e-02
-1.276955647521574484e-02
-8.187982775305649441e-03
-4.067577836790714149e-03
-4.565611265666125185e-04
2.706025268152341401e-03
5.469171905396851344e-03
7.759861779544055885e-03
9.321465653506333382e-03
9.724314567353703476e-03
8.451691871049826776e-03
5.042507795966801043e-03
-7.456476976261255940e-04
-8.797728866742182685e-03
-1.856808279351557581e-02
-2.909988867350014885e-02
-3.914217692018090444e-02
-4.734533372263265150e-02
-5.249589091146248526e-02
-5.374038717377611213e-02
-5.074900089690514982e-02
-4.378234426018633857e-02
-3.364619454791684117e-02
-2.154382845880723971e-02
-8.858041047208576116e-03
3.090389048615835993e-03
1.325734928845422045e-02
2.102057547490731107e-02
2.622993317262234045e-02
2.915944450163230478e-02
3.037937871904752493e-02
3.058300558444005876e-02
3.041004521367162913e-02
3.030625397722052153e-02
3.044720091549378907e-02
3.073732976919352558e-02
3.087717493123651180e-02
3.047641270996111901e-02
2.918157547886702716e-02
2.678631356020950982e-02
2.329867713330957546e-02
1.895190512154355800e-02
1.415944850680167684e-02
9.427954138199478445e-03
5.250785545752128386e-03
2.007644014113220410e-03
-1.072483874888698757e-04
-1.113937121124158186e-03
-1.228697064470613692e-03
-8.060674182088882478e-04
-2.561584455655317727e-04
4.333806893864599469e-05
-1.785689527226365023e-04
-1.040026148514179571e-03
-2.495452928264367716e-03
-4.358888068197340135e-03
-6.353428354047703855e-03
-8.174025686472739458e-03
-9.549560329088968222e-03
-1.029192889251734529e-02
-1.032409059852775098e-02
-9.684373832254941639e-03
-8.509520126021043879e-03
-7.002816281183154266e-03
-5.395571939597713917e-03
-3.910024091081253442e-03
-2.729878475704694205e-03
-1.981856318396698485e-03
-1.728643893174341972e-03
-1.971275648570186903e-03
-2.657680621827336089e-03
-3.694001145318016443e-03
-4.956140931282947831e-03
-6.300377806175433935e-03
-7.573260466871483375e-03
-8.621934011942649495e-03
-9.306214661063415966e-03
-9.513104037976068128e-03
-9.173178551783791115e-03
-8.276776149691024778e-03
-6.886593521773675362e-03
-5.142652341203019992e-03
-3.255925386031794863e-03
-1.488358740343958403e-03
-1.194533717265959527e-04
5.974151564921061780e-04
4.827613230118602689e-04
-5.256084469002298212e-04
-2.342870489710427960e-03
-4.729442513896806553e-03
-7.310532759598261689e-03
-9.623611678285501347e-03
-1.118885080699686535e-02
-1.159216969848907847e-02
-1.056653563843676022e-02
-8.055653748594938934e-03
-4.245828607070170277e-03
4.433984438660613231e-04
5.411920393263902965e-03
9.968660425214385251e-03
1.344381722925662437e-02
1.530393495766669588e-02
1.524815662838565483e-02
1.326659575943670705e-02
9.648446986802847528e-03
4.937027895247754483e-03
-1.605401260096617211e-04
-4.892092413398028278e-03
-8.584843441780797696e-03
-1.075154824122431622e-02
-1.115839294035518917e-02
-9.842778832429021491e-03
-7.079826223136645447e-03
-3.307214349342465706e-03
9.735135557379440141e-04
5.296708120393273274e-03
9.311726828351980095e-03
1.282532766323673037e-02
1.580041652282545422e-02
1.831473249704734102e-02
2.049248829317536907e-02
2.242817571463131751e-02
2.412330954203662989e-02
2.545351053768389951e-02
2.617584600937456624e-02
2.597650459147589699e-02
2.454894029965436902e-02
2.168483165110597632e-02
1.735631070984074154e-02
1.176879469423615723e-02
5.369229210120620224e-03
-1.196518328121268585e-03
-7.172847438757415373e-03
-1.181595906566250929e-02
-1.452611348873534582e-02
-1.496567733970134706e-02
-1.313947625048731381e-02
-9.419964040931635973e-03
-4.509195054353009637e-03
6.591508411373098175e-04
5.063407201847959158e-03
7.760122889332633084e-03
8.044746750247650652e-03
5.578560048914040989e-03
4.584688816206619610e-04
-6.784559170445831830e-03
-1.526058197330028461e-02
-2.385854839415927492e-02
-3.142468088310894359e-02
-3.695112786726374027e-02
-3.974180689123128773e-02
-3.952546121803002244e-02
-3.649471574301030308e-02
-3.126298563307973455e-02
-2.474619512544208588e-02
-1.799059682816169653e-02
-1.197871354744805411e-02
-7.450273392955038612e-03
-4.772749396816907200e-03
-3.886905976666635981e-03
-4.338196435871109063e-03
-5.387738975829009166e-03
-6.180376162683909325e-03
-5.935401366974655396e-03
-4.120536929749122473e-03
-5.729040967726722888e-04
4.458449032398066614e-03
1.035755134379716391e-02
1.626467564592981932e-02
2.125166555840447141e-02
2.451222633623015984e-02
2.552672173331507754e-02
2.416647680937560744e-02
2.071564941720451317e-02
1.580660311667290985e-02
1.028350986875171610e-02
5.024515020448245758e-03
7.617661188184798871e-04
-2.061062857038118215e-03
-3.362540770648509217e-03
-3.412684990518085118e-03
-2.740677127075824213e-03
-1.982504743149718363e-03
-1.703636730451898312e-03
-2.237817738173279031e-03
-3.579945164606504818e-03
-5.359378745933663507e-03
-6.902408267228616473e-03
-7.372789751758557567e-03
-5.961584907362550353e-03
-2.085896675209551743e-03
4.446911410602282649e-03
1.334655550763684355e-02
2.384132915275458467e-02
3.477688876200975970e-02
4.479512094931389909e-02
5.255902947551691073e-02
5.697980586913174716e-02
5.740163132692022163e-02
5.370839981678196540e-02
4.633256660737906235e-02
3.616625749083916819e-02
2.439435917835007864e-02
1.228441491345221188e-02
9.756617963219346712e-04
-8.691950292267554279e-03
-1.627786684542322643e-02
-2.175529983260245104e-02
-2.544347450156759366e-02
-2.787823703300397471e-02
-2.965320398650563016e-02
-3.126783997332080456e-02
-3.301498194808801662e-02
-3.492960240731728810e-02
-3.680569539831024528e-02
-3.827256049975515106e-02
-3.890892954714345042e-02
-3.836602971624204772e-02
-3.647016159067586333e-02
-3.328146579349169909e-02
-2.909657322666108284e-02
-2.439608641688450347e-02
-1.975026403733312272e-02
-1.570515246040071061e-02
-1.267492453195767817e-02
-1.086382040322040818e-02
-1.023364196238944410e-02
-1.052212127697109770e-02
-1.130616895517099797e-02
-1.209454465710999883e-02
-1.242888049273763174e-02
-1.197127989549002722e-02
-1.056082365519366191e-02
-8.229091195281635490e-03
-5.174340486587038386e-03
-1.703076425868873568e-03
1.845627564530202824e-03
5.174867391169909493e-03
8.086951728690172647e-03
1.051115299231463601e-02
1.249809479449003578e-02
1.418477042027388446e-02
1.574090872579893621e-02
1.731127853664943261e-02
1.896875562683506683e-02
2.068964328227554730e-02
2.235674392894156787e-02
2.378853299561558415e-02
2.478623511026007212e-02
2.518622327004272493e-02
2.490398996010149968e-02
2.395823012262030330e-02
2.246874441643569031e-02
2.062863151733560982e-02
1.865790944480106434e-02
1.675061559039750167e-02
1.502932635141757817e-02
1.351938259079496496e-02
1.215025150372187578e-02
1.078454922993844246e-02
9.267981330598178830e-03
7.487653608769106670e-03
5.423372867303516420e-03
3.177509298201625088e-03
9.736279555701415900e-04
-8.785974617155078992e-04
-2.046398326438292684e-03
-2.251798000981148490e-03
-1.346858850306043714e-03
6.317139103501276387e-04
3.442892586138908591e-03
6.663665790297498490e-03
9.751412099018565149e-03
1.213539325433627032e-02
1.331969281274092420e-02
1.297688787502594004e-02
1.101313703967515475e-02
7.590918214365144877e-03
3.104157598257309761e-03
-1.889879032532189307e-03
-6.768862316569199296e-03
-1.095481738029922478e-02
-1.401363658162142409e-02
-1.572587859468671523e-02
-1.611598026520977278e-02
-1.543533743645588915e-02
-1.410370568126211033e-02
-1.262124702229672213e-02
-1.146882387442011396e-02
-1.101590963936021836e-02
-1.145354747884546123e-02
-1.276464135213424556e-02
-1.473655997393429236e-02
-1.701296169352925491e-02
-1.917436800300430927e-02
-2.083161594007809994e-02
-2.171382654512713298e-02
-2.173336127019317651e-02
-2.101427407530889399e-02
-1.987735003447604898e-02
-1.878286303315985020e-02
-1.824031496260375071e-02
-1.870118487447183092e-02
-2.045481659757766163e-02
-2.354808853013784856e-02
-2.774610495742491079e-02
-3.254419864918638161e-02
-3.723213250558170956e-02
-4.100121269638842825e-02
-4.307606833746784047e-02
-4.284703519148358453e-02
-3.997783507815071136e-02
-3.446714320315669156e-02
-2.665118222435541515e-02
-1.714610694245680481e-02
-6.741273415392268209e-03
3.735175700192305479e-03
1.355104195719573218e-02
2.217774410906777835e-02
2.934969615054133091e-02
3.506519450960237511e-02
3.953208736976718957e-02
4.307422301596499498e-02
4.602353976527166074e-02
4.862540132759602535e-02
5.098059681320464553e-02
5.303725155207966724e-02
5.463224754562569230e-02
5.556813827843574277e-02
5.570158727830096246e-02
5.501585324318450376e-02
5.365395798901734931e-02
5.190006432748690834e-02
5.011152439130781705e-02
4.861904472618076845e-02
4.762322123772389643e-02
4.711899532334238444e-02
4.687391823560248943e-02
4.647243545399222520e-02
4.541998571206250224e-02
4.328240965811584740e-02
3.982321217440355776e-02
3.509780602141316513e-02
2.947187505720950604e-02
2.354930478952063644e-02
1.801962327071192707e-02
1.345933109262054117e-02
1.013901003166811123e-02
7.893021291754974411e-03
6.098140785862578295e-03
3.782756385456845227e-03
-1.455840932378001107e-04
-6.601242042529723020e-03
-1.602346156646447875e-02
-2.816427514741644961e-02
-4.203290239583114263e-02
-5.603601053859208481e-02
-6.830629483671610269e-02
-7.716075014849646529e-02
-8.158754805949069988e-02
-8.163860002164932683e-02
-7.861168696153962576e-02
-7.494305151274727184e-02
-7.379269666395188443e-02
-7.837773073000373070e-02
-9.117718809513675193e-02
-1.131777095198454736e-01
-1.433399949563488318e-01
-1.784351928458982328e-01
-2.133319810053680710e-01
-2.417219599823744736e-01
-2.571729108927860441e-01
-2.543188047118797313e-01
-2.299518700191338638e-01
-1.837876900799838564e-01
-1.187305418216744179e-01
-4.056267622548108409e-02
4.290208181424920442e-02
1.230485674010747266e-01
1.918411684901703551e-01
2.430895974133110427e-01
2.733576186976723332e-01
2.823480636578378222e-01
2.727073190913844591e-01
2.493123359964916907e-01
2.182064438806606832e-01
1.854144896291342881e-01
1.558800648631267216e-01
1.327270973567210022e-01
1.169661869469825061e-01
1.076631030488963137e-01
1.024870546309730734e-01
9.848193768578496210e-02
9.286987631399880316e-02
8.370780217239094656e-02
7.026850888601657297e-02
5.309277572915882537e-02
3.373934106679540856e-02
1.432561547556619741e-02
-3.010151269251346018e-03
-1.659125098982724977e-02
-2.552411380481781067e-02
-2.980432195373458604e-02
-3.021016329883691870e-02
-2.803723678293227467e-02
-2.475887261185987995e-02
-2.170356873046856705e-02
-1.982344494936760099e-02
-1.959398380103981319e-02
-2.104573683533787765e-02
-2.389435859243892873e-02
-2.771488763933165761e-02
-3.210359741239587894e-02
-3.678463199813095802e-02
-4.164312907941186692e-02
-4.669317238109402246e-02
-5.200930428889003615e-02
-5.765854072046013024e-02
-6.366405018585227782e-02
-7.001457394047928828e-02
-7.671153360728026616e-02
-8.382646558187982488e-02
-9.153198518551586282e-02
-1.000739378935207730e-01
-1.096703863288478742e-01
-1.203497963665833143e-01
-1.317681812054959101e-01
-1.430640082926951384e-01
-1.528130048114060835e-01
-1.591292425323388438e-01
-1.599260012264154263e-01
-1.533070985949603893e-01
-1.380174929695476560e-01
-1.138528191747412710e-01
-8.192068183146672400e-02
-4.466653932918856346e-02
-5.621713354683956221e-03
3.110836298803267008e-02
6.153477835577272903e-02
8.252419031337941691e-02
9.243263589016903481e-02
9.149126118182135392e-02
8.184563103607914170e-02
6.721997419319435119e-02
5.225758722966261649e-02
4.166055487235953425e-02
3.929904513555672330e-02
4.747114093122000583e-02
6.646516255643532267e-02
9.451361306808477025e-02
1.281450769688113611e-01
1.628561988245576242e-01
1.939592230131315653e-01
2.174263790167022259e-01
2.305579980913876892e-01
2.323447990577185152e-01
2.234657734364138004e-01
2.059449287591149647e-01
1.825640689649119242e-01
1.561782943581695449e-01
1.290954776842847540e-01
1.026583732031051688e-01
7.711456471168301463e-02
5.178835574983887968e-02
2.549680131411949380e-02
-2.904091328003885475e-03
-3.398496179106813564e-02
-6.735665220198656933e-02
-1.015305049628652256e-01
-1.340646391882220345e-01
-1.619678709411939976e-01
-1.822729206769277410e-01
-1.926514993799632869e-01
-1.919340919126943101e-01
-1.804182589979230755e-01
-1.598956380118494724e-01
-1.333886552927811275e-01
-1.046495493080008832e-01
-7.752324128869175768e-02
-5.530174018059021146e-02
-4.019635099903971082e-02
-3.302634878255047285e-02
-3.317592286222269260e-02
-3.881579171342935952e-02
-4.733388466693343871e-02
-5.588143167384151955e-02
-6.192367612797230331e-02
-6.369039275280484469e-02
-6.044768597157240686e-02
-5.255242175782155051e-02
-4.129512005836115385e-02
-2.857703158206192223e-02
-1.649499125971910091e-02
-6.919113442263917502e-03
-1.142761304911997511e-03
3.358133097217663732e-04
-2.129991855474321072e-03
-7.438489356278190495e-03
-1.397231594715324723e-02
-1.990913626512137366e-02
-2.354973707143613593e-02
-2.360476693721497848e-02
-1.939327669256706368e-02
-1.092503107006228234e-02
1.139514628341962987e-03
1.563651605265119204e-02
3.112119615789699437e-02
4.612274911210737655e-02
5.938609355277388313e-02
7.005966003698926858e-02
7.779969714008366788e-02
8.277731100407631493e-02
8.559190996456397804e-02
8.711097694356714771e-02
8.826841756368403180e-02
8.986006342404201375e-02
9.237420169141208337e-02
9.588745283361012339e-02
1.000433815239110125e-01
1.041153768462839552e-01
1.071396195963509601e-01
1.080913790997804075e-01
1.060708142305746282e-01
1.004641132664014086e-01
9.105201571568505292e-02
7.804899409082202699e-02
6.207012958145515652e-02
4.403608426197977432e-02
2.503690025732914493e-02
6.180819307110001215e-03
-1.154572637823065434e-02
-2.738575293685194950e-02
-4.087406582551381812e-02
-5.185084607299376980e-02
-6.043159404653225542e-02
-6.694462238179252345e-02
-7.185011787738271316e-02
-7.565450316556528165e-02
-7.883128050881892113e-02
-8.175596696284648246e-02
-8.465933320180960009e-02
-8.760074858557924393e-02
-9.046223213191825763e-02
-9.296344455605090595e-02
-9.469757436747106016e-02
-9.518705884635021708e-02
-9.395582808829333610e-02
-9.061132791677628529e-02
-8.492568389964547104e-02
-7.690225018546564817e-02
-6.681285174946458016e-02
-5.519339354203096210e-02
-4.279155052486473265e-02
-3.046931262214849084e-02
-1.907353305458787257e-02
-9.296864922103159623e-03
-1.556946986056011173e-03
4.078655532143586615e-03
7.901282094912955023e-03
1.049621647899105087e-02
1.261269186691399771e-02
1.499366185622467984e-02
1.820183021185185421e-02
2.248235279520679683e-02
2.769698623918273248e-02
3.334974899396946774e-02
3.870324816753653585e-02
4.296243224648142039e-02
4.548417220637382408e-02
4.596170147749675111e-02
4.453561544484022777e-02
4.179807130952859634e-02
3.868116805077873033e-02
3.624876911995438683e-02
3.543643815874907010e-02
3.680015741957273767e-02
4.033652147391866838e-02
4.542381388071520948e-02
5.090720028090973265e-02
5.531795824578539245e-02
5.718400827139513698e-02
5.536499201036548107e-02
4.933594573964544816e-02
3.935202440404785007e-02
2.645133629670575262e-02
1.228838195047334686e-02
-1.171249665805590423e-03
-1.203229788465822250e-02
-1.884649799709177051e-02
-2.090352464002614985e-02
-1.837336511214247500e-02
-1.226949643844357091e-02
-4.241136437479633634e-03
3.760470138702929482e-03
9.870518584179636956e-03
1.267251036386568205e-02
1.145997530705403222e-02
6.347977588424235859e-03
-1.782293041395304617e-03
-1.148702507000086415e-02
-2.106279280581380142e-02
-2.888266274270550812e-02
-3.369633885773999638e-02
-3.483742267539499671e-02
-3.230415306755351351e-02
-2.670856583575673820e-02
-1.911626221746434359e-02
-1.081909736607213068e-02
-3.092358304793259988e-03
3.014595025283464680e-03
6.817957361562584917e-03
8.052083040252171198e-03
6.838166199222148883e-03
3.589225998497917736e-03
-1.117928258793893237e-03
-6.670848782770171653e-03
-1.252228566928060075e-02
-1.824722818193191126e-02
-2.355288885899836648e-02
-2.825049725482587856e-02
-3.220610794938418009e-02
-3.529066888610105091e-02
-3.734723368977282271e-02
-3.818658001418908515e-02
-3.761359981261525043e-02
-3.547793557223932748e-02
-3.173548685089075394e-02
-2.650399457289036656e-02
-2.009646095559533552e-02
-1.302035729601454944e-02
-5.937396372417202278e-03
4.133337053478514100e-04
5.318417618460405047e-03
8.202993290663922188e-03
8.734038898098291440e-03
6.894945843664708821e-03
3.015965748488200898e-03
-2.248280206461460845e-03
-7.994529629452667291e-03
-1.319105081023150619e-02
-1.682529216754814413e-02
-1.805625774977500514e-02
-1.634663915857846594e-02
-1.155174900323312909e-02
-3.948520343139569344e-03
5.802538229091902880e-03
1.675802005100788042e-02
2.783910856629189662e-02
3.800092612746922005e-02
4.639386053032543145e-02
5.248749290026991088e-02
5.613395022962348879e-02
5.755851826702267082e-02
5.727924556943099488e-02
5.597138808402014887e-02
5.430400590231745928e-02
5.278233046668298623e-02
5.162911745145905285e-02
5.073087606227817681e-02
4.966187518742322393e-02
4.778269829998697815e-02
4.439416055626853319e-02
3.891501111928244439e-02
3.104576744749772826e-02
2.088273692160707781e-02
8.955612191972259217e-03
-3.822819162483732935e-03
-1.628840882898516945e-02
-2.721544243341898067e-02
-3.552867654655687130e-02
-4.049650088520015401e-02
-4.186709687230708021e-02
-3.992017328692555600e-02
-3.542313372554679179e-02
-2.949908131017507998e-02
-2.343116362384146945e-02
-1.844000068449542715e-02
-1.547592677632505728e-02
-1.506459394659147646e-02
-1.723384313119239591e-02
-2.153381911258312256e-02
-2.714426158468007111e-02
-3.304628367920428578e-02
-3.822395974806733904e-02
-4.185595446316632551e-02
-4.346014598290236230e-02
-4.296412558782806285e-02
-4.068961106323353005e-02
-3.725620866950876686e-02
-3.342618236626715422e-02
-2.992373410545419443e-02
-2.726738450960701152e-02
-2.565128269258183658e-02
-2.490111586170829991e-02
-2.451467394825597446e-02
-2.377915052410155619e-02
-2.194060772382244034e-02
-1.838923280097339019e-02
-1.281971450663798098e-02
-5.330428919837129978e-03
3.562503883163432861e-03
1.300226358518020292e-02
2.194562379166325322e-02
2.936327906448771285e-02
3.444401123999319553e-02
3.675857674400076491e-02
3.634703977433322020e-02
3.370941003015718446e-02
2.970044699045074413e-02
2.535071909634475235e-02
2.165262288254115458e-02
1.935817959431012855e-02
1.883302023398116670e-02
1.999843287086050525e-02
2.237343559099153056e-02
2.520607885624184114e-02
2.766282627101757791e-02
2.903166491547865338e-02
2.889167352784662718e-02
2.720985513828314689e-02
2.434325940055711776e-02
2.094675181592823079e-02
1.780898144303626890e-02
1.565592258301306758e-02
1.496884932298615280e-02
1.585998704523482183e-02
1.803525081392681403e-02
2.085273664092510484e-02
2.346293053397525974e-02
2.499735392491796507e-02
2.476114866525989944e-02
2.238456426674253694e-02
1.789852311908611895e-02
1.171790202711790393e-02
4.538397510287155850e-03
-2.826543836797677095e-03
-9.628232109392908383e-03
-1.534013878702582268e-02
-1.975254630751244883e-02
-2.298289177931437527e-02
-2.540160246876695810e-02
-2.749454185989728267e-02
-2.969918294331368863e-02
-3.225828019850213862e-02
-3.513038317564663726e-02
-3.798202044762245821e-02
-4.026531206726455259e-02
-4.136236792145053798e-02
-4.075975344587000337e-02
-3.820723636548864488e-02
-3.381749170218766726e-02
-2.807712268704160713e-02
-2.176111270033345702e-02
-1.576740840259899940e-02
-1.090964337440137460e-02
-7.718583568250067875e-03
-6.303261448811657217e-03
-6.310429493392397463e-03
-6.998486737708725647e-03
-7.414553487264630496e-03
-6.637393969578554709e-03
-4.030741646308958620e-03
5.541058479206079079e-04
6.678992248205721516e-03
1.335417704044470147e-02
1.920992041807859790e-02
2.277488043730961642e-02
2.280591083524603074e-02
1.859924152545603532e-02
1.021329500628828484e-02
-1.451104035849925394e-03
-1.473958820631506711e-02
-2.749422535219001734e-02
-3.742275386473326027e-02
-4.251892707872557270e-02
-4.145276968066743950e-02
-3.385267671706509995e-02
-2.042023791658478110e-02
-2.849866256899117808e-03
1.643733984480876334e-02
3.469994000777888027e-02
4.934940111594506018e-02
5.840313629029580261e-02
6.083310497591323113e-02
5.674481420730406039e-02
4.735310167400159920e-02
3.475895317086021008e-02
2.156847844571658027e-02
1.042398308147663918e-02
3.532438747677904556e-03
2.275879634621769815e-03
6.971823670760653874e-03
1.682322158275925683e-02
3.006240145414244835e-02
4.425877621703378645e-02
5.673217971155613409e-02
6.499749424749309834e-02
6.716417552451478534e-02
6.222599732401332129e-02
5.019885505745578375e-02
3.209293899745981060e-02
9.734367916081079763e-03
-1.452481663980448312e-02
-3.815444696438369254e-02
-5.879372422427167622e-02
-7.454639304087416762e-02
-8.418565484298501378e-02
-8.724940584242205088e-02
-8.402544128224392894e-02
-7.544242694490056744e-02
-6.289340964817349833e-02
-4.802355788441636797e-02
-3.251318066009357965e-02
-1.788232233955310002e-02
-5.336243016658227811e-03
4.336401456443348540e-03
1.080767619792323553e-02
1.419740760527111317e-02
1.500832879478552172e-02
1.401840923686533888e-02
1.214306447467322463e-02
1.028331826710668535e-02
9.178701129963601560e-03
9.284908605812167495e-03
1.069508483590883054e-02
1.311936201367470273e-02
1.592987757461195031e-02
1.826859691847498163e-02
1.920435225970725662e-02
1.791556693807063588e-02
1.386829295708582634e-02
6.957207752146820495e-03
-2.418953889390998077e-03
-1.336656271112279804e-02
-2.459603582211667902e-02
-3.459983128772230188e-02
-4.188367780817487535e-02
-4.521385519631292149e-02
-4.383808952259025948e-02
-3.763984592363160686e-02
-2.719550122618103610e-02
-1.371964375826152487e-02
1.097060992604047963e-03
1.533380334538485268e-02
2.713010202495894085e-02
3.497255782775984811e-02
3.792915676763038146e-02
3.579077725876514404e-02
2.909543704612421386e-02
1.903134318252399509e-02
7.236174238619424298e-03
-4.471798777338876346e-03
-1.438359652307415887e-02
-2.116049216073634387e-02
-2.402254821505700813e-02
-2.283547021916619915e-02
-1.808568128008829906e-02
-1.075382295742418476e-02
-2.114440648912894322e-03
6.498783727486802733e-03
1.391912857008482766e-02
1.932549319651060901e-02
2.234601710483207632e-02
2.307447350475320957e-02
2.200374974736645992e-02
1.989515142879638709e-02
1.761211753478770722e-02
1.595078865985334257e-02
1.549755939672206421e-02
1.653626187799471167e-02
1.901681688816972762e-02
2.258531552629737538e-02
2.666477446966745990e-02
3.056801386214506519e-02
3.362030342498679297e-02
3.526986458117336437e-02
3.516850188352896311e-02
3.321147867009721644e-02
2.953382228915507612e-02
2.446804366709177253e-02
1.847446120496507721e-02
1.205898241809212970e-02
5.693875062938873882e-03
-2.451404127213748993e-04
-5.516607554866286359e-03
-1.002271394099318522e-02
-1.379297910458920570e-02
-1.694959270800033835e-02
-1.966445627574039956e-02
-2.211825836896293834e-02
-2.446984859589519667e-02
-2.684038333515881974e-02
-2.931218939294536266e-02
-3.193817496018244023e-02
-3.475493201228081752e-02
-3.779207178179976728e-02
-4.107193329903714718e-02
-4.459715780211309655e-02
-4.832782869707134832e-02
-5.215381114360247150e-02
-5.587052214079051005e-02
-5.916689048394058181e-02
-6.163251638425862322e-02
-6.278737512452055303e-02
-6.213266538425796237e-02
-5.921667688852250144e-02
-5.370592169297462581e-02
-4.545003634548569482e-02
-3.452945664536184733e-02
-2.127741821918471832e-02
-6.271835577378679499e-03
9.702804144334296887e-03
2.571912231841318175e-02
4.078844560044526252e-02
5.395083909616850415e-02
6.436375900171900644e-02
7.138041403054144751e-02
7.461066635180466089e-02
7.395944080417814204e-02
6.963979255815287706e-02
6.215980096655428916e-02
5.228424946903505871e-02
4.097365474778734418e-02
2.930469029598955014e-02
1.837744850353274090e-02
9.216276497437215359e-03
2.672011977973610258e-03
-6.658069780450456832e-04
-5.379495953641601214e-04
2.942637116580448103e-03
9.283144340545182449e-03
1.764216760053137142e-02
2.690136495469062569e-02
3.577466556130737274e-02
4.294721573873426512e-02
4.723111755906334031e-02
4.772050442501652584e-02
4.392556863930495437e-02
3.586477485582214436e-02
2.409739475964154526e-02
9.684925862288969872e-03
-5.920537086373446611e-03
-2.105153414995064587e-02
-3.404324098792096964e-02
-4.346419436189409569e-02
-4.832476373168613504e-02
-4.822922461380176051e-02
-4.344436540950307596e-02
-3.487009554454860438e-02
-2.391352121980198919e-02
-1.228453118385746529e-02
-1.744884230409485260e-03
6.148725525298218836e-03
1.026595529594001230e-02
1.005324306442859084e-02
5.591065082981898360e-03
-2.447538222791045132e-03
-1.292547817571075390e-02
-2.443115422260366473e-02
-3.549427452579356768e-02
-4.479152844613473045e-02
-5.131084115985427851e-02
-5.445335336605993531e-02
-5.406532976491393999e-02
-5.040498241605265162e-02
-4.405915393306352595e-02
-3.583033533531981840e-02
-2.661520625694053024e-02
-1.729255397237329517e-02
-8.632636525530843624e-03
-1.233675776195885393e-03
4.514181684219902013e-03
8.440448346096576446e-03
1.058564268103266010e-02
1.117624945229462805e-02
1.058618205517838744e-02
9.287063249384920616e-03
7.790076007627880911e-03
6.583617891027403711e-03
6.072980395539004719e-03
6.529858278163686025e-03
8.059732832057912161e-03
1.059345892644513246e-02
1.390570261635266404e-02
1.765787507467925926e-02
2.145806406791052334e-02
2.492655297193869385e-02
2.775401202376739929e-02
2.974094629219687508e-02
3.081129709584572163e-02
3.099923814406202460e-02
3.041465124401166245e-02
2.919782713455936971e-02
2.747624784512809476e-02
2.533520695114573063e-02
2.280976371069266470e-02
1.989922489027958971e-02
1.659870457688673168e-02
1.293715543892515370e-02
9.009050880423800922e-03
4.988303676384055890e-03
1.117730975348344563e-03
-2.325799396702264710e-03
-5.083299154328844299e-03
-6.969973034818896865e-03
-7.920966530585851068e-03
-8.013261809871368574e-03
-7.455722882882695468e-03
-6.546955594688932782e-03
-5.608805425291871725e-03
-4.909922161267022897e-03
-4.597186735919949613e-03
-4.652008867585552890e-03
-4.883647718952102354e-03
-4.963833667418339306e-03
-4.497838156103006052e-03
-3.118798879464802949e-03
-5.864201089555457977e-04
3.130609750629608293e-03
7.806619160874429114e-03
1.295722433674057969e-02
1.788699369934707364e-02
2.178025077747573063e-02
2.382060040831324860e-02
2.331937848416343675e-02
1.983155652033637140e-02
1.323984717937190525e-02
3.793267982338078409e-03
-7.905942863806757898e-03
-2.096487593015654988e-02
-3.430230188548243769e-02
-4.677565435020399065e-02
-5.731462975770967166e-02
-6.504336173429056678e-02
-6.937559763278540459e-02
-7.007163232584093238e-02
-6.725115747746626682e-02
-6.136190110176089479e-02
-5.310932142243368626e-02
-4.335719259825938227e-02
-3.301231787116537530e-02
-2.290855017886733042e-02
-1.370556444283699098e-02
-5.816245883840975503e-03
6.269051451098378580e-04
5.761124734209508574e-03
9.939677351156884014e-03
1.364312021472105854e-02
1.736978480038586792e-02
2.152410906517192302e-02
2.632295356587438864e-02
3.173797293014721244e-02
3.748644727470706872e-02
4.307441639852011700e-02
4.788593006793184781e-02
5.130265547093779133e-02
5.283101740139704156e-02
5.221120650659478307e-02
4.948473015918306017e-02
4.500458836675512442e-02
3.938338011568956465e-02
3.338747579906177487e-02
2.779710089704368753e-02
2.326011272583528716e-02
2.016946475576443173e-02
1.859009459502620337e-02
1.825094666097771406e-02
1.860411775082970037e-02
1.893870401000742262e-02
1.852510909668401290e-02
1.675911615307221214e-02
1.327550666754681932e-02
8.008386125474440884e-03
1.187950530976243993e-03
-6.721786556728372164e-03
-1.512635734222552916e-02
-2.341854486856279755e-02
-3.108166458040821992e-02
-3.775488833104839737e-02
-4.324818261596506674e-02
-4.750851934677938898e-02
-5.055238886546883914e-02
-5.238874844204453873e-02
-5.295889770509940031e-02
-5.211465821672993382e-02
-4.964490504011082050e-02
-4.534591393447401364e-02
-3.911707362964587931e-02
-3.105414316321703297e-02
-2.151020130554117879e-02
-1.110066807520563789e-02
-6.420306142848712649e-04
8.968996954221621770e-03
1.691254707064513557e-02
2.260387736383145246e-02
2.581437804064893454e-02
2.672299503681285424e-02
2.588049434359002143e-02
2.408904871852896729e-02
2.222026893126489641e-02
2.101095854424922874e-02
2.088338618608396799e-02
2.183354540743875916e-02
2.341706144400039838e-02
2.484098479401023948e-02
2.514545545918640823e-02
2.343770104097525619e-02
1.912712309774702857e-02
1.210771847723497371e-02
2.843668851561486841e-03
-7.666229763658341523e-03
-1.804372845616666193e-02
-2.677797903848799094e-02
-3.251523409589755775e-02
-3.433169704280862600e-02
-3.193163170494876801e-02
-2.572712965158456197e-02
-1.677981329464624249e-02
-6.613224086029485631e-03
3.068328091797098076e-03
1.069886794002521992e-02
1.514388966928566400e-02
1.590856901908159135e-02
1.321935190551639695e-02
7.963131586620130972e-03
1.497328940731000937e-03
-4.629641467042273223e-03
-8.990267157815054130e-03
-1.055920561181709037e-02
-8.908270337933650931e-03
-4.278144916170165124e-03
2.484290836711745137e-03
1.010661798302980516e-02
1.714973586933431909e-02
2.229066291337073596e-02
2.457219295433742817e-02
2.357131420528283186e-02
1.945678675634041066e-02
1.293000144997928993e-02
5.067019010696106190e-03
-2.901448447152147822e-03
-9.825073727813701807e-03
-1.483688857894504762e-02
-1.748669268498293655e-02
-1.778396322212039832e-02
-1.614895095823260657e-02
-1.328901431455373205e-02
-1.003064289405060372e-02
-7.143706674687381152e-03
-5.192647936716820317e-03
-4.440756011324948488e-03
-4.820794438222226509e-03
-5.971193152767326207e-03
-7.324770473272896112e-03
-8.228747101368637240e-03
-8.071734728063120756e-03
-6.395262451289570466e-03
-2.973061146952386824e-03
2.151015251101867642e-03
8.667747796578997160e-03
1.604484366743827092e-02
2.359733358449490545e-02
3.057467862246787335e-02
3.625309110781165661e-02
4.002262166377092145e-02
4.146006112770469348e-02
4.038023519677180068e-02
3.685980352759339607e-02
3.122951677730198550e-02
2.403346977792900421e-02
1.595751541972061788e-02
7.733591444276512877e-03
3.167366233238107232e-05
-6.644645964347427672e-03
-1.204063776874792283e-02
-1.619346646755608771e-02
-1.942288617495776387e-02
-2.226494989761869034e-02
-2.535483016238750456e-02
-2.927611995556565067e-02
-3.440332171621363067e-02
-4.076923412937481089e-02
-4.798787218495655787e-02
-5.525583998914750800e-02
-6.144160393901658412e-02
-6.525517233124321359e-02
-6.547356834958256711e-02
-6.118381662952962485e-02
-5.199811973458555447e-02
-3.819744848771652879e-02
-2.077016784960535392e-02
-1.329972463495303348e-03
1.808087108712558982e-02
3.527533318401509382e-02
4.824753581703936089e-02
5.548636022500297305e-02
5.622270066933171551e-02
5.056660405077095105e-02
3.950890581520194456e-02
2.478504531585699194e-02
8.622272325292647255e-03
-6.588834353272086941e-03
-1.864521486860098651e-02
-2.584820125393805582e-02
-2.723674878982677156e-02
-2.270229739306858091e-02
-1.297088701488291473e-02
5.397729460757255682e-04
1.596061701655939261e-02
3.126670524074895430e-02
4.457873212607586788e-02
5.442292368324178065e-02
5.991094610082849797e-02
6.081653528531051622e-02
5.754365732641364417e-02
5.099897097688688846e-02
4.239622714871255083e-02
3.302972222071032249e-02
2.405674126495535581e-02
1.632495659029115087e-02
1.027096749263376602e-02
5.902455071905232664e-03
2.861214933185014450e-03
5.502078330869835526e-04
-1.702932593530636848e-03
-4.479050527029833015e-03
-8.129943218487105730e-03
-1.269651120305149983e-02
-1.789786798441096727e-02
-2.319281045554826004e-02
-2.790080850187344474e-02
-3.135766461849791298e-02
-3.307351835772782966e-02
-3.285950447502833383e-02
-3.089464567917184906e-02
-2.771577152012947090e-02
-2.412850983492300511e-02
-2.105387147170368484e-02
-1.933936424980631577e-02
-1.957281810237602310e-02
-2.193889494659913980e-02
-2.615168953011515196e-02
-3.148269738139559959e-02
-3.688421348168991615e-02
-4.118770621939987775e-02
-4.333924103888642243e-02
-4.262362807136932386e-02
-3.882840306940910091e-02
-3.230881357971477491e-02
-2.393416521603768804e-02
-1.492055092243133735e-02
-6.580046162031458548e-03
-3.640387353314594732e-05
4.032571898750008862e-03
5.568242656711169108e-03
5.177393726663323016e-03
4.034223226226562632e-03
3.651000355368213754e-03
5.559201926284863642e-03
1.096405940765342486e-02
2.044390903527164641e-02
3.375922942625968898e-02
4.981569306766808758e-02
6.679499522432873204e-02
8.243301623068077788e-02
9.439433040424488608e-02
1.006718352499347963e-01
9.993479730950502460e-02
9.175913570115042106e-02
7.669799441378591376e-02
5.618325312457941173e-02
3.228242511671995663e-02
7.363033089459972147e-03
-1.626781290178167666e-02
-3.668029809481579417e-02
-5.254083160364944605e-02
-6.320326715403654094e-02
-6.867192706236635580e-02
-6.946286201018039841e-02
-6.640828746574960195e-02
-6.045547781510576119e-02
-5.250496124153566924e-02
-4.331620305918210123e-02
-3.348705691862569750e-02
-2.349211959066723615e-02
-1.375023998139086184e-02
-4.686382042890790967e-03
3.241379030618357637e-03
9.564834935513008563e-03
1.387540647099320262e-02
1.592039721081802209e-02
1.569448528349386141e-02
1.349356695729778816e-02
9.906346378106585873e-03
5.735104560944702563e-03
1.856567870981280528e-03
-9.485780713534850209e-04
-2.158114479878783885e-03
-1.622307463476520533e-03
4.012209149596166272e-04
3.304503735405153741e-03
6.268831777672435879e-03
8.457101677193077510e-03
9.215197264684310552e-03
8.235129359232757143e-03
5.640491161246791174e-03
1.972289083114781016e-03
-1.923737311735842885e-03
-5.084090709539442268e-03
-6.646956047459069532e-03
-6.054360176311348284e-03
-3.190968890223803284e-03
1.572220899810027744e-03
7.439449314024029758e-03
1.334345128869919919e-02
1.815650515967661208e-02
2.091308352106923535e-02
2.099632679977866262e-02
1.824976469012530578e-02
1.299329073377375639e-02
5.944058421073893095e-03
-1.936380780297702886e-03
-9.632407128020209833e-03
-1.625972071720188997e-02
-2.120709599057385777e-02
-2.420802884306131122e-02
-2.533328160038619131e-02
-2.491377198726869163e-02
-2.341835088524867742e-02
-2.131946525645521742e-02
-1.897992028798697883e-02
-1.658635071946953921e-02
-1.414179678583800739e-02
-1.151435876154412001e-02
-8.525021001995229317e-03
-5.048595154334537677e-03
-1.099282977299900765e-03
3.123088287531682050e-03
7.239874447141624383e-03
1.075385443117012757e-02
1.315005678299544130e-02
1.401425063646294551e-02
1.314150076960518033e-02
1.060886146910969448e-02
6.793818173537252356e-03
2.331699825931487710e-03
-1.981644926583437001e-03
-5.323949189081240811e-03
-6.991655306626721675e-03
-6.527952968989793846e-03
-3.809030307380315353e-03
9.278328390215882793e-04
7.119318142713951247e-03
1.396721554617585265e-02
2.056832119666181236e-02
2.605913915319406707e-02
2.974961111512127235e-02
3.122313889175962545e-02
3.038722138403721074e-02
2.746854504497924648e-02
2.295644032332610010e-02
1.750738451608088719e-02
1.182921470974450211e-02
6.566049831347839545e-03
2.203455645249623694e-03
-9.913629714981501279e-04
-2.986558472991084935e-03
-3.959961408871132821e-03
-4.238311409969444492e-03
-4.214742309512086588e-03
-4.261048848115968866e-03
-4.651441498216694545e-03
-5.511735048204022616e-03
-6.802749546084565016e-03
-8.340046309505562069e-03
-9.845140355438221011e-03
-1.101725748413614168e-02
-1.161064735114872466e-02
-1.150121387642715973e-02
-1.072809781762007995e-02
-9.500595489510356428e-03
-8.167613799984076162e-03
-7.154486493248612793e-03
-6.878913619221335186e-03
-7.662585699504630837e-03
-9.656615791445661082e-03
-1.279673706538774283e-02
-1.679860487923160589e-02
-2.119550799371283656e-02
-2.541197176842935335e-02
-2.885902411071788326e-02
-3.103204711171469662e-02
-3.159135293732895367e-02
-3.040923100297566323e-02
-2.757454256944292387e-02
-2.335541429397144930e-02
-1.813005238785153628e-02
-1.230292269040511241e-02
-6.226728785797659531e-03
-1.488916925147555637e-04
5.805116246011552197e-03
1.160875872772031484e-02
1.727933805444345147e-02
2.280712466575317288e-02
2.808978572381211347e-02
3.289264547392160842e-02
3.684941535114918260e-02
3.950807162757893898e-02
4.041488921112944277e-02
3.921912736807166289e-02
3.577417919919154143e-02
3.020994992323607770e-02
2.295629267733556578e-02
1.470749520722636552e-02
6.330801618343684031e-03
-1.265237722820744884e-03
-7.277191121700386442e-03
-1.113845981505385239e-02
-1.260926157208228787e-02
-1.180639541293702563e-02
-9.166993940386915923e-03
-5.354456274002196425e-03
-1.126868485713180233e-03
2.804258504927623595e-03
5.895815426521803550e-03
7.851513327062393729e-03
8.643227259636778945e-03
8.474626257574785146e-03
7.699184733280527854e-03
6.714214882040128035e-03
5.856810050056032724e-03
5.325706057951861555e-03
5.145653469772379016e-03
5.179832775376167452e-03
5.183846417007046715e-03
4.884778580489873394e-03
4.063117394845799923e-03
2.615313175349255267e-03
5.803529750375560278e-04
-1.876447748404806715e-03
-4.517648461529034584e-03
-7.110641447350227184e-03
-9.505466049076111840e-03
-1.169048955582091542e-02
-1.380787481742355369e-02
-1.612062652286374090e-02
-1.893554094768538920e-02
-2.249853683914914554e-02
-2.688755295909468421e-02
-3.193111709689776256e-02
-3.717679713346751236e-02
-4.192363045362876989e-02
-4.531842472488408630e-02
-4.650074294077833487e-02
-4.476898623909491420e-02
-3.973332601996960173e-02
-3.142211375248393779e-02
-2.031688453708770103e-02
-7.305443221785478877e-03
6.440376596924389518e-03
1.963972226330591014e-02
3.109676389440522992e-02
3.987621705351092338e-02
4.542720845650667638e-02
4.763392990864768334e-02
4.678754815188940208e-02
4.349055864842932273e-02
3.851834077993168681e-02
3.267005947643564223e-02
2.664076719852587899e-02
2.093896132346045880e-02
1.586105587652000826e-02
1.151953260000374013e-02
7.908601472710002564e-03
4.983137088113046703e-03
2.725281828753948685e-03
1.178524424896515779e-03
4.396773830383730181e-04
6.121207236340041324e-04
1.735544568783858876e-03
3.715114272936621050e-03
6.274479958936217232e-03
8.951905230343469577e-03
1.114821590884678727e-02
1.222185563703665455e-02
1.161340486083382861e-02
8.972727849844205211e-03
4.258857348291856734e-03
-2.213232505618082865e-03
-9.794398188443510095e-03
-1.759253193200067261e-02
-2.461867253985512358e-02
-2.996072735534180409e-02
-3.295036003241923889e-02
-3.328879419213395807e-02
-3.110491569390446548e-02
-2.693255226282184264e-02
-2.161028342063258528e-02
-1.612303848642450410e-02
-1.141665932991890384e-02
-8.222008089754460208e-03
-6.922993459823230389e-03
-7.493631726527939969e-03
-9.515012069165428368e-03
-1.226688295535648988e-02
-1.487392922728006037e-02
-1.647666142559498989e-02
-1.639313484405532234e-02
-1.424097082783349483e-02
-9.998396785050614466e-03
-3.996068350611176566e-03
3.154592703116097796e-03
1.067884261517784705e-02
1.777651423209621398e-02
2.375304849079340128e-02
2.811999299245163814e-02
3.064942730185033284e-02
3.137732081024241504e-02
3.056137876875766879e-02
2.860725133014677818e-02
2.598149535665382828e-02
2.312977735117616868e-02
2.041490683391599878e-02
1.808267680705270136e-02
1.625596131141673895e-02
1.495094889943734788e-02
1.410527620406492114e-02
1.360696757847178889e-02
1.331542639068128593e-02
1.307039160906517047e-02
1.269032704705200590e-02
1.196650432744121931e-02
1.066164377492644436e-02
8.521544151757593291e-03
5.304634117792309672e-03
8.286418831401944074e-04
-4.972890148257507609e-03
-1.199689488056313036e-02
-1.993511741387057196e-02
-2.827046251951176661e-02
-3.631400311398901015e-02
-4.328285379402609795e-02
-4.840935183241271145e-02
-5.106326032422973948e-02
-5.086333610044725673e-02
-4.775428316300452114e-02
-4.203041930461324377e-02
-3.429753923969894314e-02
-2.537740981166996743e-02
-1.617217601961502479e-02
-7.515599279345197559e-03
-4.197637256776048931e-05
5.899473045989403822e-03
1.026664537689168412e-02
1.327921168818427949e-02
1.531776344546919438e-02
1.679263102618039696e-02
1.801519899030620125e-02
1.910442510120344967e-02
1.995313797875291825e-02
2.026423616041915510e-02
1.964944962721117475e-02
1.776702682377062983e-02
1.446361933731013169e-02
9.882670978238443024e-03
4.507819059170223991e-03
-8.759688797810669808e-04
-5.301704338890137272e-03
-7.798756517843168090e-03
-7.593572390952790796e-03
-4.288669860737729517e-03
2.021489002077811459e-03
1.072676336676072276e-02
2.077929736747526415e-02
3.086053614529403119e-02
3.960476533932505427e-02
4.583370440130563744e-02
4.875376348544059601e-02
4.807546824859139367e-02
4.403156546482861478e-02
3.729261794885019993e-02
2.880140014478100793e-02
1.956495834347002361e-02
1.045177030536369872e-02
2.039072184880896463e-03
-5.457294793643487421e-03
-1.215822153091233176e-02
-1.841222336585082373e-02
-2.463219682182226158e-02
-3.112086623846712155e-02
-3.792990985868541914e-02
-4.478909858077140954e-02
-5.112441171813922325e-02
-5.616219595734586040e-02
-5.909526460809968323e-02
-5.927146728891567046e-02
-5.635936633375483729e-02
-5.045062574383425702e-02
-4.207333470189714847e-02
-3.211123151412793864e-02
-2.164570434947255678e-02
-1.175532275083561451e-02
-3.317311016084564107e-03
3.145372633211672778e-03
7.538524787347147121e-03
1.017816067783068427e-02
1.168560290123958796e-02
1.282209773032622936e-02
1.430171406407953691e-02
1.662493533002741553e-02
1.996924088255825833e-02
2.415880563610408802e-02
2.871674663474787365e-02
3.298455509856788870e-02
3.627876879316381531e-02
3.804772687288477534e-02
3.799275942764887559e-02
3.612770377262924937e-02
3.276571839914616674e-02
2.843934026110229996e-02
2.377468154221459851e-02
1.935028752170311200e-02
1.557351166975055705e-02
1.260206061676661868e-02
1.032707644225740358e-02
8.419523602203217785e-03
6.427143194422208980e-03
3.898098872836817594e-03
5.020732733097615572e-04
-3.878985307196491927e-03
-9.110548972572317383e-03
-1.482364982644241921e-02
-2.048595021106126846e-02
-2.550832358165251029e-02
-2.936195424620672081e-02
-3.167934641419299646e-02
-3.231719371347310799e-02
-3.136859094292308858e-02
-2.912422951752121486e-02
-2.599409460225894294e-02
-2.240998199444400180e-02
-1.873286031197698986e-02
-1.518695081207101227e-02
-1.183503318056752622e-02
-8.598806899428157458e-03
