4.584482254779656540e-03
2.668277958767990149e-02
4.694195109819928463e-02
6.381039026057844232e-02
7.619839977441830725e-02
8.360641198421220333e-02
8.615233279542576506e-02
8.449777808152958425e-02
7.969211011560890789e-02
7.296774936614063012e-02
6.552737384900800266e-02
5.836218214664723458e-02
5.213115470695046938e-02
4.711662453305244525e-02
4.325491918035859196e-02
4.022601958031946090e-02
3.757612493511591767e-02
3.484347310108962259e-02
3.166092086460960131e-02
2.781731589040126879e-02
2.327118588945577618e-02
1.812187586706166809e-02
1.255236430645480065e-02
6.762778987557605676e-03
9.134569479605017528e-04
-4.908213583548794168e-03
-1.069047602692811683e-02
-1.647118293147070700e-02
-2.229218082291872099e-02
-2.814783956370123241e-02
-3.394252502849773312e-02
-3.946933438502783081e-02
-4.441718937405059187e-02
-4.840673767497044588e-02
-5.104896176766052923e-02
-5.201531296004151261e-02
-5.110554219817659699e-02
-4.829959638133486666e-02
-4.378281371683070966e-02
-3.793851599909109362e-02
-3.130796878872966343e-02
-2.452345613998037355e-02
-1.822487630301176248e-02
-1.297304382983524226e-02
-9.173378176094187236e-03
-7.021867613328318034e-03
-6.481495501220471689e-03
-7.292375353291677409e-03
-9.013507994987794009e-03
-1.108922666542843868e-02
-1.292980151179061454e-02
-1.399386897671690139e-02
-1.386055695539457899e-02
-1.228127675476789471e-02
-9.204723308429002548e-03
-4.773017397566040043e-03
7.086134650008870522e-04
6.822404764686689632e-03
1.310006466986950169e-02
1.908635150532043273e-02
2.439487078212720927e-02
2.874864035621659333e-02
3.200083296156801260e-02
3.413441517823988247e-02
3.524263649488938721e-02
3.549502871838319806e-02
3.509542633171975484e-02
3.423933014389377721e-02
3.307766866551868634e-02
3.169274538476196668e-02
3.009007763069601257e-02
2.820719998015715213e-02
2.593765920835873137e-02
2.316576045601948311e-02
1.980555212114071609e-02
1.583644943307391251e-02
1.132808371284702541e-02
6.448536024149680024e-03
1.452934375293356631e-03
-3.346944415732631614e-03
-7.627566300342799796e-03
-1.110523802308038648e-02
-1.358466396767218747e-02
-1.499462268142557481e-02
-1.540288756057315959e-02
-1.500627723740502635e-02
-1.409659368287500755e-02
-1.300819887225772298e-02
-1.205700746328861386e-02
-1.148280031253091915e-02
-1.140644064987057782e-02
-1.181078045123731303e-02
-1.254931560304251015e-02
-1.338097291602961120e-02
-1.402401175395596826e-02
-1.421807486090663486e-02
-1.378178644133434307e-02
-1.265431379594629882e-02
-1.091273187068362086e-02
-8.762079080169475967e-03
-6.500548136006594965e-03
-4.467121201276859008e-03
-2.982135878881091509e-03
-2.292173312820344061e-03
-2.529232494729759945e-03
-3.690842048787930894e-03
-5.643379608207644421e-03
-8.146397032590183690e-03
-1.089209550242105709e-02
-1.355190527663616834e-02
-1.582167510325153265e-02
-1.745815346516338060e-02
-1.830182316648422403e-02
-1.828412818186605365e-02
-1.742007539345758957e-02
-1.578957537250581800e-02
-1.351236502888814028e-02
-1.072180617897261490e-02
-7.542348717644398702e-03
-4.074199285536407589e-03
-3.870405858315065228e-04
3.477179900527813290e-03
7.494033977591965483e-03
1.164186230259742737e-02
1.588604961944602156e-02
2.016588574860867997e-02
2.438692126960684964e-02
2.842054665980097566e-02
3.211103288902469877e-02
3.528875598322224472e-02
3.778709229811517967e-02
3.945977632161181553e-02
4.019551529814298363e-02
3.992736266605531603e-02
3.863561170304011944e-02
3.634449304762836508e-02
3.311438240379090819e-02
2.903219577860017761e-02
2.420291440869837274e-02
1.874465040198922822e-02
1.278844294273148545e-02
6.482349500853079594e-03
-2.227691461997513556e-06
-6.465230001765555345e-03
-1.267729677592888821e-02
-1.838686205775856911e-02
-2.333655840314222477e-02
-2.728831614901717356e-02
-3.005416216092694076e-02
-3.152767755451107989e-02
-3.170988678240986569e-02
-3.072338723437310209e-02
-2.880991140438687523e-02
-2.630907863519119788e-02
-2.361940993765232824e-02
-2.114612990390264680e-02
-1.924318222332289940e-02
-1.815863210735999683e-02
-1.799281236881814308e-02
-1.867706808645750588e-02
-1.997796047302469180e-02
-2.152777877496118639e-02
-2.287785168693288324e-02
-2.356719548535194525e-02
-2.319617845097212555e-02
-2.149363883539175818e-02
-1.836652181377324694e-02
-1.392354679799904030e-02
-8.468324610066564270e-03
-2.462109154478491282e-03
3.538771049485696374e-03
8.961596960846092419e-03
1.330009912813464451e-02
1.618863080230299734e-02
1.745606236517768112e-02
1.715090815473026276e-02
1.553373809729001291e-02
1.303814015597156567e-02
1.020651070181260653e-02
7.610907961573440753e-03
5.771435019659325490e-03
5.084750103124566906e-03
5.773329955723340533e-03
7.862406225977825597e-03
1.118672950645543257e-02
1.542434699363750064e-02
2.015028759315569407e-02
2.490017466497644952e-02
2.923279991851775172e-02
3.278170305984087068e-02
3.528854739027621756e-02
3.661497872972037382e-02
3.673391666932332433e-02
3.570501667641143295e-02
3.364163716662958714e-02
3.067758162120407667e-02
2.694104257582660353e-02
2.254079837587297935e-02
1.756636298998398571e-02
1.210021486212484870e-02
6.237218501271572096e-03
1.045577150802293187e-04
-6.124690270753430435e-03
-1.222975652351641906e-02
-1.795479533566407201e-02
-2.303505353114272680e-02
-2.723229234475438645e-02
-3.037253984932501011e-02
-3.237805983670144494e-02
-3.328597053454172144e-02
-3.324818130081677592e-02
-3.251082707068816968e-02
-3.137548005847474314e-02
-3.014827672577386972e-02
-2.908591309222914242e-02
-2.834862113949606494e-02
-2.796944741812049454e-02
-2.784649555486060080e-02
-2.776071942413193758e-02
-2.741710222937448344e-02
-2.650251743799748178e-02
-2.475011351134187576e-02
-2.199838907864948984e-02
-1.823360926951673316e-02
-1.360684651598279525e-02
-8.421298025606475945e-03
-3.090885843565184532e-03
1.923480778081413517e-03
6.189214704241011167e-03
9.375630839743357564e-03
1.131236133811702044e-02
1.202155278473380530e-02
1.171732724218594798e-02
1.077188271055384838e-02
9.653769206747925616e-03
8.849118674816996988e-03
8.779884114835222880e-03
9.733767127551517032e-03
1.181830851640362431e-02
1.494697856701330402e-02
1.885893550822465708e-02
2.316766142291270744e-02
2.742825631037433196e-02
3.120989648464136956e-02
3.415951949776910995e-02
3.604525555171120971e-02
3.677292292305726906e-02
3.637496159220325598e-02
3.497713229211953101e-02
3.275282107404881710e-02
2.987686193670632123e-02
2.648999571656097257e-02
2.268167564180501028e-02
1.849378574087337870e-02
1.394224946048995724e-02
9.048864657913921472e-03
3.873156428007212132e-03
-1.465791300730170943e-03
-6.784751713556833735e-03
-1.185153284105018232e-02
-1.641704941047993083e-02
-2.025677053429561503e-02
-2.321131772619245900e-02
-2.521593286346782148e-02
-2.631115396486883098e-02
-2.663165424900187928e-02
-2.637562384812741981e-02
-2.576190317634562479e-02
-2.498507034270256583e-02
-2.417908277479216550e-02
-2.339779430577067915e-02
-2.261632656344106374e-02
-2.175200777349785286e-02
-2.069876556140731738e-02
-1.936569814259085989e-02
-1.770981997678101882e-02
-1.575480508375863911e-02
-1.359139006448741895e-02
-1.135989974126233246e-02
-9.219855122757223548e-03
-7.314673056399003358e-03
-5.740346487263138162e-03
-4.525576846996106836e-03
-3.627596040003389782e-03
-2.943800189653109078e-03
-2.335442363896409607e-03
-1.656995565736413961e-03
-7.840120669480301827e-04
3.665527315103952501e-04
1.826968494622487928e-03
3.580472626842615483e-03
5.571360217954670832e-03
7.718863642188197871e-03
9.930052137587633970e-03
1.210829849470930128e-02
1.415619744995438856e-02
1.597437344651451985e-02
1.745952775865843368e-02
1.850569719585898332e-02
1.901178300468635979e-02
1.889619589207849545e-02
1.811660831097829105e-02
1.669019940730243762e-02
1.470828841774728460e-02
1.233946437377388822e-02
9.817353881793750014e-03
7.412622337853846249e-03
5.392841005221634537e-03
3.977414938362730697e-03
3.296855417966751932e-03
3.365628439032986897e-03
4.075476528183195717e-03
5.211938299970820046e-03
6.491714258103659964e-03
7.613752545681379963e-03
8.313629175144532021e-03
8.409821344052829245e-03
7.832120069402093154e-03
6.626365919816619952e-03
4.935022111492345584e-03
2.958574079241739745e-03
9.070650493176127954e-04
-1.046789062249191271e-03
-2.802026810777985110e-03
-4.343659320700104208e-03
-5.733866377304051506e-03
-7.082920531676371693e-03
-8.507446114875531068e-03
-1.008661845007818858e-02
-1.182735220092459745e-02
-1.364733994226778255e-02
-1.538053515472222708e-02
-1.680436550839935553e-02
-1.768287581445517412e-02
-1.781631656191075969e-02
-1.708623361953820474e-02
-1.548615411841692407e-02
-1.313119117455439043e-02
-1.024450393643810270e-02
-7.123466508038158590e-03
-4.092520412945195932e-03
-1.452148023547757821e-03
5.662348910403392638e-04
1.831362644909080573e-03
2.324326872721311707e-03
2.131068563372926286e-03
1.418187538430951307e-03
3.980322262956623169e-04
-7.095093439043933387e-04
-1.711279499331503674e-03
-2.465570149930069489e-03
-2.894258632308208210e-03
-2.982209572453929300e-03
-2.766324068356169376e-03
-2.318287573012865928e-03
-1.725608782811392534e-03
-1.074971637382657590e-03
-4.405181438713616417e-04
1.221079744760373946e-04
5.767947656704439791e-04
9.050323642631769722e-04
1.103310016071219800e-03
1.181658983323959512e-03
1.164107127397670700e-03
1.090551853367351977e-03
1.018517943453018000e-03
1.022795241247066549e-03
1.191221827815863721e-03
1.615838136300189534e-03
2.380020384461155672e-03
3.543603867841541022e-03
5.129001373607909586e-03
7.111582554175133707e-03
9.416975494647483735e-03
1.192658805329800675e-02
1.449084293863784137e-02
1.694782588286693897e-02
1.914372082593576718e-02
2.095089935465832900e-02
2.227999092650986834e-02
2.308359219477342655e-02
2.335116837011628338e-02
2.309671022165311199e-02
2.234236504528068490e-02
2.110217672164829694e-02
1.937004636827446488e-02
1.711508070111679089e-02
1.428585921511641224e-02
1.082320032607697949e-02
6.679171122433661539e-03
1.838748589536905696e-03
-3.660045377014146256e-03
-9.711472462451714582e-03
-1.613584606516018510e-02
-2.268327820280722010e-02
-2.904734704666210240e-02
-3.488717695268109265e-02
-3.985535183374572243e-02
-4.362850533769718764e-02
-4.593733885401615757e-02
-4.659310526911453892e-02
-4.550810910581813695e-02
-4.270836636054227420e-02
-3.833714717986631826e-02
-3.264867370120562440e-02
-2.599181366546703120e-02
-1.878428092252921663e-02
-1.147869328527875710e-02
-4.522846931998848394e-03
1.682352604387175529e-03
6.822906336168900118e-03
1.070471718899751110e-02
1.327467367575850543e-02
1.462583671694884027e-02
1.498451125771150909e-02
1.467944800043910307e-02
1.409622441261864506e-02
1.362250243821821159e-02
1.359181532811925067e-02
1.423433783452236062e-02
1.564247443018623035e-02
1.775706090835962175e-02
2.037680797843546138e-02
2.318985852697853789e-02
2.582266123781823408e-02
2.789846198776385969e-02
2.909611974634923603e-02
2.919995174981218633e-02
2.813288140385433733e-02
2.596798410273356422e-02
2.291706358833171114e-02
1.929850601463607360e-02
1.548974231743272673e-02
1.187173788216861273e-02
8.773774206606861636e-03
6.426377329496028162e-03
4.928771590316496400e-03
4.235018238155599524e-03
4.160412157674832877e-03
4.407111068208702589e-03
4.605645037380439247e-03
4.367098561611743902e-03
3.339494969426712659e-03
1.261314507226891056e-03
-1.994812315185793584e-03
-6.394347110800596874e-03
-1.173354584396276920e-02
-1.765487214600736099e-02
-2.368456054882610989e-02
-2.928868441583299537e-02
-3.394111940235579328e-02
-3.719442906565443435e-02
-3.874342613530933760e-02
-3.847137860571275825e-02
-3.647072623776519140e-02
-3.303364809534611174e-02
-2.861244323123782879e-02
-2.375472929348559567e-02
-1.902302229452925222e-02
-1.491142237835676315e-02
-1.177317288699635325e-02
-9.771428848446226875e-03
-8.861790675642994275e-03
-8.809644783637195220e-03
-9.239112421753637935e-03
-9.704646268626715422e-03
-9.772183597363023888e-03
-9.095114515417963147e-03
-7.471508455182066487e-03
-4.872834277304517389e-03
-1.440040244873351701e-03
2.550819045090958054e-03
6.745493316626677976e-03
1.077907417064853310e-02
1.434074426427878537e-02
1.722352997294129481e-02
1.935042096515007110e-02
2.077333373748209422e-02
2.164694768526762361e-02
2.218429173347905015e-02
2.260417198237903158e-02
2.308155890892151993e-02
2.371082430959738779e-02
2.448861695023659205e-02
2.531891763860821126e-02
2.603831342465641463e-02
2.645564897545547856e-02
2.639763574132672486e-02
2.575111528026859109e-02
2.449353656403884319e-02
2.270556610526196228e-02
2.056312221811135155e-02
1.830990059075767243e-02
1.621500418867341531e-02
1.452304045044897594e-02
1.340557364869372249e-02
1.292287427382412396e-02
1.300345394518668748e-02
1.344609467129677903e-02
1.394536229755044543e-02
1.413749394644589659e-02
1.365973493290970238e-02
1.221335574680110919e-02
9.619291120634787182e-03
5.855981017398848541e-03
1.071608986374750910e-03
-4.432796537812829993e-03
-1.024769220790853336e-02
-1.591981588551900223e-02
-2.102625408823104516e-02
-2.524431734803742056e-02
-2.840405004155397914e-02
-3.051314751927750035e-02
-3.174918653050663730e-02
-3.242041782201508793e-02
-3.290262252936633491e-02
-3.356435151561548702e-02
-3.469516781186367249e-02
-3.645074502313022657e-02
-3.882496987282152423e-02
-4.165336309187040592e-02
-4.464548335050736588e-02
-4.743803038183570797e-02
-4.965647204587923802e-02
-5.097204856299590581e-02
-5.114310779915259147e-02
-5.003429846088375266e-02
-4.761299005453433625e-02
-4.392789734632519122e-02
-3.907884595904994457e-02
-3.318795757797428359e-02
-2.638098990217677825e-02
-1.878363595094633548e-02
-1.053239946672209632e-02
-1.794678093333152910e-03
7.210695840234428514e-03
1.620202048973588480e-02
2.483993492539048054e-02
3.275245544869938297e-02
3.957747144828845098e-02
4.501508633960871197e-02
4.887867332078622840e-02
5.113272876894736640e-02
5.190783847032327120e-02
5.148782409406207905e-02
5.027024557307407937e-02
4.870737325304486109e-02
4.723902279923463537e-02
4.623020490039103647e-02
4.592502622457586559e-02
4.642413103457999901e-02
4.768731412469295189e-02
4.955725951193591661e-02
5.179613132585279139e-02
5.412500512955152610e-02
5.625721568443815129e-02
5.792015295923076679e-02
5.886473998288993537e-02
5.886630489766139784e-02
5.772341902571434535e-02
5.526159806351316206e-02
5.134640407670708340e-02
4.590612867661530982e-02
3.895924095435966683e-02
3.063780708045580475e-02
2.119661213622983306e-02
1.099957759768832762e-02
4.801570649817640465e-04
-9.920415763533162179e-03
-1.982576598162408277e-02
-2.899127299860649459e-02
-3.734714818108252066e-02
-4.500311519064354587e-02
-5.220827283497565807e-02
-5.927090333837423120e-02
-6.645448907371052927e-02
-7.387487287213144460e-02
-8.142657641241721200e-02
-8.876219852651989761e-02
-9.533772635943071894e-02
-1.005205943148832354e-01
-1.037400745856789375e-01
-1.046455036501224567e-01
-1.032310451954067537e-01
-9.988882554387823465e-02
-9.536572327914008551e-02
-9.062058922253085624e-02
-8.660363882777426248e-02
-8.400225005727347816e-02
-8.301148994845923557e-02
-8.318898719512078654e-02
-8.344065280443109522e-02
-8.215804285781236338e-02
-7.749493390230730028e-02
-6.773727463356135625e-02
-5.169502740725522710e-02
-2.903315497803597017e-02
-4.657616939566580627e-04
3.223829307647423092e-02
6.645277064329947747e-02
9.906665036953096748e-02
1.269663406605646694e-01
1.475371243296313417e-01
1.590876204392784876e-01
1.611157170470216005e-01
1.543664631392505648e-01
1.406746388717757812e-01
1.226276778807285084e-01
1.031187901112710914e-01
8.487826868617960596e-02
7.006973831761992288e-02
6.001881883251858341e-02
5.510978010672473726e-02
5.484933250766704099e-02
5.806432333286309921e-02
6.317874115283222958e-02
6.850872863634771548e-02
7.252195134449850034e-02
7.402575971201813543e-02
7.227095938026634192e-02
6.697814231650751904e-02
5.830639309725726971e-02
4.678756330121829066e-02
3.324425036905884201e-02
1.869985623150222098e-02
4.279663952834692614e-03
-8.902681368560448616e-03
-1.987607569251994416e-02
-2.795334048682599978e-02
-3.286310726599692145e-02
-3.484116038304672924e-02
-3.464673184898980907e-02
-3.347716117140663028e-02
-3.277406579739595982e-02
-3.394213710235507997e-02
-3.803085307444230290e-02
-4.545100062197748175e-02
-5.580384852233211818e-02
-6.788628184339762228e-02
-7.990054234829657709e-02
-8.984857356397177308e-02
-9.603937634000205004e-02
-9.759671951080334251e-02
-9.483654615131820176e-02
-8.939651144381141612e-02
-8.404513693789308904e-02
-8.216766745688297569e-02
-8.700523946469636283e-02
-1.007945871537258564e-01
-1.239986344211041897e-01
-1.548203740845856546e-01
-1.891487752220044616e-01
-2.210023196722023520e-01
-2.434295947156882578e-01
-2.497205064178165124e-01
-2.347010846909638182e-01
-1.958500532392940530e-01
-1.339971296789877475e-01
-5.343930181424745574e-02
3.857301066462981431e-02
1.328979422580602587e-01
2.199150678041073559e-01
2.910178607735455225e-01
3.398987521638378584e-01
3.633863529539095305e-01
3.616923298055525482e-01
3.380519822744249003e-01
2.978685514179045257e-01
2.475681446246426609e-01
1.934188806807266570e-01
1.405558852286633020e-01
9.238871629268521901e-02
5.046762131786024230e-02
1.477515483913457994e-02
-1.568349489163495258e-02
-4.217377371154315546e-02
-6.559857826149938231e-02
-8.609010572163092179e-02
-1.029066408551604361e-01
-1.146296940728714769e-01
-1.195813695218075068e-01
-1.163332068197635849e-01
-1.041657961929752796e-01
-8.336298882487497286e-02
-5.527608999514923432e-02
-2.215653077501399809e-02
1.318696458795293874e-02
4.781298199490086054e-02
7.905001097222925932e-02
1.047908531233157914e-01
1.236306749936918331e-01
1.348469419775196187e-01
1.382610892031422289e-01
1.340478280872030581e-01
1.225627557670288664e-01
1.042429593233402396e-01
7.960474092351693676e-02
4.932714691145199948e-02
1.438006609024436444e-02
-2.386049616263717643e-02
-6.356578279029781453e-02
-1.025138801286574197e-01
-1.382638386493033056e-01
-1.684205606515705167e-01
-1.909405813733731638e-01
-2.044154673646467191e-01
-2.082720509888651428e-01
-2.028460841401832082e-01
-1.893133838672629854e-01
-1.694931135351487317e-01
-1.455640546438259908e-01
-1.197506114744907729e-01
-9.403773633671197452e-02
-6.996326546639763944e-02
-4.851571261428180154e-02
-3.014082811936243111e-02
-1.483723055226190274e-02
-2.305286623044931760e-03
7.892770736407490884e-03
1.619927668188661518e-02
2.297933239645707365e-02
2.849888900549805287e-02
3.295382462386506339e-02
3.652834051534797899e-02
3.945523375700053098e-02
4.205269308525992622e-02
4.472107501641517380e-02
4.789595357730531966e-02
5.196710264494319026e-02
5.718355509640254963e-02
6.356996580433255106e-02
7.087808927211297627e-02
7.858976643342976964e-02
8.597628704102341923e-02
9.220612325692613409e-02
9.648179352421124011e-02
9.817952256597772820e-02
9.696392485546628803e-02
9.285439006078152757e-02
8.622916111854182775e-02
7.776525607124852579e-02
6.832486368646838171e-02
5.880913519665803557e-02
5.000642122409146295e-02
4.246287371638506752e-02
3.639891073138724897e-02
3.168629642805275565e-02
2.788926230144201865e-02
2.436134552185691138e-02
2.037960669394630470e-02
1.529138945491463966e-02
8.646892132123207980e-03
2.937800063346485135e-04
-9.582749872050117662e-03
-2.048099431719254543e-02
-3.166034547923067544e-02
-4.226088650053538842e-02
-5.144312432026890147e-02
-5.852279688504753719e-02
-6.307708125087456430e-02
-6.500419039781143993e-02
-6.452716950609926894e-02
-6.214299810441684113e-02
-5.852792796975408995e-02
-5.441751159061408716e-02
-5.048364768797711233e-02
-4.723056481766524373e-02
-4.492719926742284875e-02
-4.358589790663351671e-02
-4.298835045179418002e-02
-4.275092098165947374e-02
-4.241476226082099149e-02
-4.154245348528085718e-02
-3.980291840715558666e-02
-3.702982690264296217e-02
-3.324467460556466275e-02
-2.864295246696981628e-02
-2.354879877557822590e-02
-1.834896512694294407e-02
-1.341992010077184758e-02
-9.062096788771841632e-03
-5.452862455489954074e-03
-2.625422187791378453e-03
-4.755350280209527658e-04
1.207317780540544810e-03
2.691869531228817392e-03
4.250147755105487812e-03
6.106193834923239264e-03
8.397437552916940315e-03
1.115473817843201307e-02
1.430323560807084116e-02
1.768218469011685959e-02
2.107860174412572868e-02
2.426740413693219758e-02
2.705009060676391228e-02
2.928491493673197540e-02
3.090368388385579534e-02
3.191326937993159418e-02
3.238304561930009651e-02
3.242212171211009131e-02
3.215193844446288807e-02
3.168024939950851715e-02
3.108169722524380466e-02
3.038837287652394054e-02
2.959135715940611894e-02
2.865183324269045609e-02
2.751844151853351933e-02
2.614649885734780105e-02
2.451467979212272261e-02
2.263567392549920010e-02
2.055890323877225534e-02
1.836519428005091784e-02
1.615492877678852135e-02
1.403230806368605497e-02
1.208879228458196661e-02
1.038853422268529343e-02
8.957900049957679897e-03
7.780225234346582058e-03
6.796062859653550017e-03
5.908531473608950521e-03
4.993018552508183411e-03
3.910372347904710749e-03
2.522664187979455769e-03
7.104622162859165063e-04
-1.609766072709904391e-03
-4.469978937139167802e-03
-7.838929262674692450e-03
-1.161708787969211072e-02
-1.564031000373787561e-02
-1.969344498014330425e-02
-2.353346918377065972e-02
-2.691972312643242660e-02
-2.964689543292316903e-02
-3.157504415576065093e-02
-3.265065113784940826e-02
-3.291373821436328895e-02
-3.248839690415680770e-02
-3.155731622013303872e-02
-3.032437382133157389e-02
-2.897228136111967833e-02
-2.762389731550975169e-02
-2.631564264751117682e-02
-2.498937624656706949e-02
-2.350545791812293922e-02
-2.167528701611019792e-02
-1.930732392323460112e-02
-1.625745225766132146e-02
-1.247326421176874964e-02
-8.022778840529491001e-03
-3.101064717954030159e-03
1.987396149461128150e-03
6.867940878427139517e-03
1.114964225395924727e-02
1.448420714528357578e-02
1.661936220930294167e-02
1.743751582771208009e-02
1.697347087214813241e-02
1.540893721681138584e-02
1.304569026135690701e-02
1.026263405999915113e-02
7.464181849205121441e-03
5.028026103613279091e-03
3.259640355526680425e-03
2.359102435344389084e-03
2.403544618314502543e-03
3.346190534402500305e-03
5.030870778739607307e-03
7.219282035318834272e-03
9.627080488755275500e-03
1.196411723325209800e-02
1.397368560824686565e-02
1.546559325202621037e-02
1.633832008783712292e-02
1.658663663491665580e-02
1.629292760847015145e-02
1.560301248889026451e-02
1.469015540263584468e-02
1.371365914710787753e-02
1.278026355093193553e-02
1.191688815237560567e-02
1.106170003157081611e-02
1.007709914691859790e-02
8.783538441243556039e-03
7.008104648035104987e-03
4.637674867232150291e-03
1.664361714389160293e-03
-1.788387922204736843e-03
-5.467148862823631786e-03
-9.019639295806671994e-03
-1.205108812521640815e-02
-1.419506629622730755e-02
-1.518388916729479683e-02
-1.490288703847247181e-02
-1.341572966149416450e-02
-1.095407639528874454e-02
-7.872785357080993446e-03
-4.579905324545170686e-03
-1.456761238001460981e-03
1.213909516323412839e-03
3.295354127477046619e-03
4.808794883721917608e-03
5.907267845872983536e-03
6.817573550020645731e-03
7.764289205029379498e-03
8.894297274813939627e-03
1.022048938256608398e-02
1.159909844498412806e-02
1.274743199892060946e-02
1.329938681256998163e-02
1.288718767027768712e-02
1.123137662614846245e-02
8.218663635957901975e-03
3.949395860838185966e-03
-1.257362907969822308e-03
-6.904210873695917731e-03
-1.239462529366268731e-02
-1.713605053884666163e-02
-2.064663886698040948e-02
-2.264433340210227075e-02
-2.310021979861826003e-02
-2.224492319945389068e-02
-2.052587573534242482e-02
-1.852273010349532803e-02
-1.683623559294373032e-02
-1.597104036108066769e-02
-1.623423391169013380e-02
-1.766880126245608945e-02
-2.003503564292195144e-02
-2.284444822995240071e-02
-2.544130690423159272e-02
-2.711825640041849728e-02
-2.724602659388396936e-02
-2.539417709007163459e-02
-2.142076699589171712e-02
-1.551373605667790562e-02
-8.174917521865832093e-03
-1.476595923630870388e-04
7.700711503893269833e-03
1.452175353040845510e-02
1.962897952571650284e-02
2.261520039167409790e-02
2.342220402260943024e-02
2.234912070326111264e-02
1.999697750273749311e-02
1.715890749256088199e-02
1.467592654392624318e-02
1.328499209921006272e-02
1.348773994418575595e-02
1.546438275572574114e-02
1.904842409576076867e-02
2.376582357230959744e-02
2.892949255466875300e-02
3.376916394342077687e-02
3.757005487089297435e-02
3.979273599256182015e-02
4.015143025138879357e-02
3.863750629381906831e-02
3.548707601501034647e-02
3.110364255712113474e-02
2.595599801409581922e-02
2.047600671004712672e-02
1.497960956879996683e-02
9.627751707916102838e-03
4.433602845907672063e-03
-6.891101680809655350e-04
-5.851860517565208100e-03
-1.111249539795680641e-02
-1.641395419729381813e-02
-2.155797837661233007e-02
-2.622225521296674480e-02
-3.001829649500351374e-02
-3.257678011318199118e-02
-3.363965069086929938e-02
-3.313581381986212271e-02
-3.122041337528064578e-02
-2.826575954157621237e-02
-2.480310562256852341e-02
-2.142604772534301497e-02
-1.867561693198803441e-02
-1.693194669626124638e-02
-1.633656861608726724e-02
-1.676306794476107448e-02
-1.784343668993141827e-02
-1.904534923843924366e-02
-1.978448537710181254e-02
-1.954841773647604530e-02
-1.800612776399682438e-02
-1.508039782004921142e-02
-1.096836218901941357e-02
-6.106542787352878601e-03
-1.088285432139688216e-03
3.448859460378546349e-03
6.942600351688419866e-03
9.008358780487316433e-03
9.505180123111488244e-03
8.553719313075565031e-03
6.505011924493785992e-03
3.868564636774084967e-03
1.215827726540260516e-03
-9.210737096218913136e-04
-2.135919958889192019e-03
-2.205180660745596419e-03
-1.106921918313901777e-03
9.981618494589597837e-04
3.816195479794627296e-03
6.987408535150591016e-03
1.015641178274209050e-02
1.303163364960101267e-02
1.542381312098935198e-02
1.725885002181608979e-02
1.856609843733335319e-02
1.944809306445942701e-02
2.004076221120853693e-02
2.047392908914602919e-02
2.084040771568551609e-02
2.117882578721126674e-02
2.147135187902580664e-02
2.165377696350693354e-02
2.163278547226734488e-02
2.130431264972401650e-02
2.056774589219296026e-02
1.933305362631424634e-02
1.752101144777922642e-02
1.505963988237505810e-02
1.188189294278993620e-02
7.929907309926790757e-03
3.169518788783786192e-03
-2.384449120079335654e-03
-8.635683374420600328e-03
-1.537409905801799884e-02
-2.225376212515332505e-02
-2.879129972999473763e-02
-3.439264160781797808e-02
-3.841091148350025963e-02
-4.023150234557566762e-02
-3.937320730639078808e-02
-3.558841487320413277e-02
-2.894241097518405678e-02
-1.985287921798399233e-02
-9.076065505993354335e-03
2.364898585226940519e-03
1.330294303210569073e-02
2.258383844645051736e-02
2.923114292414051574e-02
3.259011998275188754e-02
3.242373621966668923e-02
2.894188713199585122e-02
2.275735614623161304e-02
1.477620253227538566e-02
6.043274012179836521e-03
-2.427533178120583335e-03
-9.805848695303568882e-03
-1.555187715242214302e-02
-1.945965065581387737e-02
-2.163212058715143979e-02
-2.239834207519921308e-02
-2.219504657607813958e-02
-2.144166821299807457e-02
-2.043791728306047079e-02
-1.930637967878277156e-02
-1.799100605063445185e-02
-1.630852776512099062e-02
-1.403706658320233100e-02
-1.101746563169778495e-02
-7.240144515593916093e-03
-2.894112838310584912e-03
1.635841024692831838e-03
5.825124500319193294e-03
9.106924824432678992e-03
1.098972899748120423e-02
1.116808355963565605e-02
9.601074241981420385e-03
6.540031946049162589e-03
2.498162062058138094e-03
-1.832455965245609331e-03
-5.699647791159910548e-03
-8.421328053015693024e-03
-9.500672334329699278e-03
-8.703624110621371521e-03
-6.084667690594495852e-03
-1.958165233260740143e-03
3.175894611444997351e-03
8.733719487087020922e-03
1.415425123588945518e-02
1.898797104168142846e-02
2.295088967484322853e-02
2.593556539441543851e-02
2.798131582806766965e-02
2.921510068613248148e-02
2.978073892319228755e-02
2.977585259987947444e-02
2.921293182981837475e-02
2.801403088858321969e-02
2.603957170634237095e-02
2.314276549345093553e-02
1.923444099974523647e-02
1.434020874934343118e-02
8.633578191202199298e-03
2.434465268064574250e-03
-3.828931993972686104e-03
-9.687729850608318982e-03
-1.471468706950046848e-02
-1.860241936776223237e-02
-2.121906816809212074e-02
-2.262788320904635803e-02
-2.306542035980741964e-02
-2.288269892535317596e-02
-2.246240047754936159e-02
-2.213091589519522451e-02
-2.208536105717454762e-02
-2.235224010658727958e-02
-2.278703732119746750e-02
-2.311441961589641436e-02
-2.299922282438886939e-02
-2.213125089400596809e-02
-2.030384517164330119e-02
-1.746790540063622790e-02
-1.374912854723693914e-02
-9.425183165765103205e-03
-4.869167998984973503e-03
-4.736642411129598357e-04
3.425955660320301535e-03
6.610601641802075698e-03
9.005416165545152701e-03
1.067127083738771132e-02
1.176391169346281511e-02
1.247315372674693418e-02
1.295956661246090366e-02
1.330655610914212479e-02
1.350145214286151661e-02
1.345119778961545096e-02
1.302850127269917536e-02
1.213536715126885095e-02
1.076514212053244698e-02
9.043250509581376301e-03
7.231147294013286209e-03
5.686847624198589600e-03
4.786696499926850791e-03
4.824093782573560425e-03
5.908880306888972603e-03
7.893813182353331612e-03
1.035096702961631025e-02
1.261141170956484210e-02
1.386798349902144609e-02
1.332628703524385561e-02
1.037656069297883052e-02
4.751697023993787031e-03
-3.363508457906394522e-03
-1.329945311534798738e-02
-2.395902362350605524e-02
-3.396151401277830439e-02
-4.185196869415701293e-02
-4.634062807676712914e-02
-4.652954561767977393e-02
-4.208407699529140289e-02
-3.331586343369594833e-02
-2.115950040054491096e-02
-7.044308447152732369e-03
7.318218103378019285e-03
2.019531081547303042e-02
3.009748956074801210e-02
3.600166553808531456e-02
3.749546852330597202e-02
3.481992107344841075e-02
2.880582468326188181e-02
2.071779959202443497e-02
1.203540973361622891e-02
4.210484384461468318e-03
-1.557915116753320547e-03
-4.494543663140579057e-03
-4.339962689102323107e-03
-1.353455963419427505e-03
3.767250415373559966e-03
1.002979500039672366e-02
1.632553875965759432e-02
2.161006090577707525e-02
2.505600299847211138e-02
2.615617806689993566e-02
2.476577454823365720e-02
2.108425506754301598e-02
1.558785727514871641e-02
8.930624664252616307e-03
1.834640572985216794e-03
-5.011404617930695013e-03
-1.103112936183610684e-02
-1.580951177621706116e-02
-1.911170380713726746e-02
-2.087679294870339528e-02
-2.119480557070116747e-02
-2.027561725862282033e-02
-1.841651155956044311e-02
-1.597190456724587385e-02
-1.332546199546480979e-02
-1.086258987392888301e-02
-8.940764375535960318e-03
-7.856463858090174598e-03
-7.810060635131671827e-03
-8.872976904301126469e-03
-1.096362601396009412e-02
-1.383925059501605812e-02
-1.710929141782444041e-02
-2.027252588850958839e-02
-2.277561643778847414e-02
-2.408599654603057333e-02
-2.376837181031259127e-02
-2.155247458215742151e-02
-1.738055572096111612e-02
-1.142630052219711229e-02
-4.081732403682475710e-03
4.085846044160110213e-03
1.239989766401740703e-02
2.015331919476196290e-02
2.668810188514815496e-02
3.146524967669397932e-02
3.411684855569047797e-02
3.447577139831711768e-02
3.258218345811333960e-02
2.866904204354257801e-02
2.313072108862653659e-02
1.647967163678773841e-02
9.295914125436195025e-03
2.173597272810048192e-03
-4.331693290528224050e-03
-9.751440369971966365e-03
-1.374498278135918503e-02
-1.612883694609861321e-02
-1.689085407651704646e-02
-1.618622819553430445e-02
-1.431398938795194059e-02
-1.167510347203202375e-02
-8.716297770929280070e-03
-5.866630856011021897e-03
-3.475902679129585365e-03
-1.764628888683108729e-03
-7.941224030813135229e-04
-4.622785135542824275e-04
-5.264121368502910556e-04
-6.497492945681049639e-04
-4.638905364191640845e-04
3.633619933428424223e-04
2.066371442353930402e-03
4.736563427813935377e-03
8.301072063597899134e-03
1.252801082310203186e-02
1.705658234489525887e-02
2.144618519293368594e-02
2.523596098267761809e-02
2.800524678161535677e-02
2.942614939207736577e-02
2.930157587556135590e-02
2.758494196423295908e-02
2.438077821201544565e-02
1.992800794533439862e-02
1.456944693040712613e-02
8.711998645940133290e-03
2.782238278028774728e-03
-2.818139474632998590e-03
-7.752924478767856536e-03
-1.178436891332589574e-02
-1.479528220253383680e-02
-1.679756403872970094e-02
-1.792543016793258365e-02
-1.841302595942383852e-02
-1.855806595165701914e-02
-1.867536897192758824e-02
-1.904626700282400012e-02
-1.987133209342857934e-02
-2.123420104042168452e-02
-2.308317785778064152e-02
-2.523475759373811078e-02
-2.739958991700682661e-02
-2.922733988152649565e-02
-3.036323261180609578e-02
-3.050660021808972860e-02
-2.946108290279713868e-02
-2.716750296273046789e-02
-2.371361827780477105e-02
-1.931934636485193452e-02
-1.430072476916953786e-02
-9.019852083024814532e-03
-3.830495347180331092e-03
9.705464496103759220e-04
5.177910044895837893e-03
8.692889319563069234e-03
1.151853966410363792e-02
1.373790963026366024e-02
1.548175846136543021e-02
1.689358952907431613e-02
1.809942959021409309e-02
1.918773871681617865e-02
2.020175676901056136e-02
2.114331023703990703e-02
2.198445351037767517e-02
2.268193001685302190e-02
2.318958044393121601e-02
2.346534933730591577e-02
2.347193324123207636e-02
2.317263687244839124e-02
2.252590082368206847e-02
2.148266016615060087e-02
1.998995262429245287e-02
1.800219017634253210e-02
1.549878191967308735e-02
1.250412690097957302e-02
9.104195410820154627e-03
5.453613923303731598e-03
1.768625508593354295e-03
-1.695683837327946475e-03
-4.681564079525097483e-03
-6.971952000800727550e-03
-8.431933649483146914e-03
-9.038378116271629167e-03
-8.889326798399297541e-03
-8.188540382872942780e-03
-7.206015063489026179e-03
-6.221108794564091105e-03
-5.459778533641886089e-03
-5.040038924281731170e-03
-4.939262391670681818e-03
-4.993175742421964922e-03
-4.929964793820998739e-03
-4.435057008991565367e-03
-3.234622522105112113e-03
-1.180381303273787472e-03
1.683660606583441480e-03
5.089691977214141558e-03
8.560712734877880606e-03
1.147308959765318444e-02
1.315867247841235113e-02
1.302899831750008869e-02
1.069813074973463909e-02
6.079272604726832993e-03
-5.660253285996973138e-04
-8.638989665965992118e-03
-1.727673610841307800e-02
-2.547692956560729943e-02
-3.225311061587236849e-02
-3.679318638001236041e-02
-3.859222120519423954e-02
-3.753492942670097476e-02
-3.391238923272459072e-02
-2.836968455149674329e-02
-2.179402931160845380e-02
-1.516389191332217536e-02
-9.386569579631253574e-03
-5.153251330058897933e-03
-2.836640437372792145e-03
-2.447591340905301213e-03
-3.655774342172231177e-03
-5.867452386523881909e-03
-8.343396063014938205e-03
-1.033366575410135657e-02
-1.120449957409701269e-02
-1.053587737774532712e-02
-8.175506987313445328e-03
-4.244278236384399668e-03
9.024073443201635625e-04
6.745534848147702323e-03
1.268948120325003211e-02
1.814860343720627739e-02
2.261994700278015941e-02
2.573399359591300659e-02
2.728146511652618927e-02
2.721936739048052417e-02
2.566243979620010801e-02
2.286643482563145355e-02
1.920749066863983168e-02
1.515833365841500260e-02
1.125864762124596276e-02
8.075159139699297425e-03
6.147826456091014247e-03
5.922175208746979780e-03
7.673522952085655435e-03
1.143497297416230622e-02
1.694559337924691697e-02
2.363620861322496269e-02
3.066650897418402369e-02
3.701869146135296912e-02
4.164090081158312862e-02
4.362084866163427888e-02
4.235933120187540535e-02
3.770803694991752691e-02
3.003822139900302543e-02
2.021711535889758604e-02
9.485978346986259982e-03
-7.456727594760646782e-04
-9.155359088433703135e-03
-1.476394326108386099e-02
-1.713963525490959372e-02
-1.650304503776005294e-02
-1.370422258837409278e-02
-1.006806877764969237e-02
-7.132612416343601068e-03
-6.329243617537461293e-03
-8.669268652312829559e-03
-1.450308419115066416e-02
-2.340568108165626271e-02
-3.421719655313164299e-02
-4.523493964211175444e-02
-5.452075670232237048e-02
-6.026218925962176926e-02
-6.111363670681645155e-02
-5.644782526673558509e-02
-4.646769961052051034e-02
-3.216002978024125325e-02
-1.510735317001376393e-02
2.794047276187101858e-03
1.964314642202812794e-02
3.380050455545832028e-02
4.405695001946473982e-02
4.967807479171522378e-02
5.033292937106519788e-02
4.594760645366900709e-02
3.654535307551984302e-02
2.213840765331800270e-02
2.721266021513429889e-03
-2.161609291193057614e-02
-5.047559215125621557e-02
-8.289632279667004389e-02
-1.171389323122938309e-01
-1.505939900151871402e-01
-1.798796633420475799e-01
-2.011544491473244989e-01
-2.106195118788401766e-01
-2.051343915992035194e-01
-1.828321633159831205e-01
-1.436058045777932612e-01
-8.935168642225556346e-02
-2.389725017043195510e-02
4.739994719462714556e-02
1.183283724771042045e-01
1.826626895737150369e-01
2.350207856282056917e-01
2.715845051745181538e-01
2.905566898950773247e-01
2.922790437670682584e-01
2.790020537568818071e-01
2.543651315254094047e-01
2.226979786386037163e-01
1.882821230102615928e-01
1.547097356661655820e-01
1.244471298222005473e-01
9.866076254133010481e-02
7.730605034896168015e-02
5.942682702084452206e-02
4.357674843609207066e-02
2.825992952854601559e-02
1.229754512550317730e-02
-4.944374994553885072e-03
-2.349151515903154935e-02
-4.284783531835596737e-02
-6.218627430163638226e-02
-8.058098328693422130e-02
-9.721859427593025627e-02
-1.115409578585239286e-01
-1.232961537666695112e-01
-1.325013326719670648e-01
-1.393432362603035379e-01
-1.440550646351717312e-01
-1.468095997189929613e-01
-1.476591371776142803e-01
-1.465363459482016406e-01
-1.433115758486766256e-01
-1.378863128679556627e-01
-1.302931891323271529e-01
-1.207719558995415110e-01
-1.097976911252031562e-01
-9.804995891094792082e-02
-8.632629618837493746e-02
-7.541673080863348089e-02
-6.596515487823252644e-02
-5.834662376705616882e-02
-5.258676382944159344e-02
-4.834143472248261797e-02
-4.494344034673997124e-02
-4.151062009949162135e-02
-3.709822039719264802e-02
-3.086982534608332523e-02
-2.225658712325324223e-02
-1.107476723037790524e-02
2.423139536466481850e-03
1.757855902255844177e-02
3.343966028801814705e-02
4.894284808618484806e-02
6.313395629545411059e-02
7.538842810853520204e-02
8.558411283212158382e-02
9.418305867764945050e-02
1.021909089169572293e-01
1.109834463010830330e-01
1.220165780299811986e-01
1.364637779072943591e-01
1.548476930243078975e-01
1.767443252527221564e-01
2.006344900859462765e-01
2.239566052330993207e-01
2.433794842298667993e-01
2.552697053130621452e-01
2.562841539443310723e-01
2.439844440088586031e-01
2.173548536130206488e-01
1.771144537695761301e-01
1.257474454367702998e-01
6.722789156703531943e-02
6.475745711493258172e-03
-5.136269616875954735e-02
-1.016779019467350387e-01
-1.410597433717586113e-01
-1.677343009211567093e-01
-1.816955664299743922e-01
-1.845165756825719039e-01
-1.788918036781150522e-01
-1.680180904747701209e-01
-1.549520860642071285e-01
-1.420810636833507168e-01
-1.308113774823768949e-01
-1.215228602562603288e-01
-1.137718379985745848e-01
-1.066663501118249868e-01
-9.929916965864186984e-02
-9.111659034484625996e-02
-8.212525664430113392e-02
-7.288892726410060863e-02
-6.432872800877034725e-02
-5.739761767439208878e-02
-5.273686253163321208e-02
-5.042876403589565543e-02
-4.993317239764070992e-02
-5.024182447216135605e-02
-5.021819215969677147e-02
-4.902938359549131875e-02
-4.653828045338209013e-02
-4.352089533895978080e-02
-4.160949266535013402e-02
-4.292970196946377381e-02
-4.948393938741942749e-02
-6.241269234965035606e-02
-8.131804204646381207e-02
-1.038438781075798484e-01
-1.256680751460388101e-01
-1.409790141736000924e-01
-1.433992411510821574e-01
-1.272076143265837289e-01
-8.862497433111612977e-02
-2.688971765975046307e-02
5.512897773212188657e-02
1.509524494333924494e-01
2.511970104062569709e-01
3.448692842211568688e-01
4.210328463526256115e-01
4.705417921084206201e-01
4.875143270976385890e-01
4.702652881403079355e-01
4.215214110809634707e-01
3.478847074155432262e-01
2.586569813940375884e-01
1.642607500281375033e-01
7.456315443470901139e-02
-2.583894749012896619e-03
-6.233140562666221463e-02
-1.031996061495813743e-01
-1.268050771131094268e-01
-1.370582125924944827e-01
-1.390370850643488088e-01
-1.377912354524568339e-01
-1.373204654720887596e-01
-1.399151162132073467e-01
-1.459517397180571385e-01
-1.541338600540353154e-01
-1.620748698237080010e-01
-1.670578957963657074e-01
-1.667864364184648285e-01
-1.599606087385062880e-01
-1.465685739338483951e-01
-1.278561346716795832e-01
-1.060118545532511419e-01
-8.366399308717079042e-02
-6.331763729399848828e-02
-4.686119529020971869e-02
-3.524378149662640847e-02
-2.837784904643867595e-02
-2.526704152560831085e-02
-2.431034039105537531e-02
-2.370037835766332368e-02
-2.182195846126673555e-02
-1.756672629538141156e-02
-1.050709786261942030e-02
-9.091106816377161892e-04
1.039924048107204041e-02
2.225856806168880625e-02
3.344625848765676868e-02
4.292057726410143659e-02
4.999231331539136236e-02
5.439791553407657965e-02
5.627343709962502605e-02
5.605089395152614007e-02
5.431313975344322781e-02
5.164761698167472798e-02
4.853351720535060976e-02
4.528343755596560966e-02
4.204355574863582329e-02
3.884015778270751007e-02
3.564896673982305420e-02
3.245964095660365534e-02
2.931163429571531989e-02
2.628800209747085559e-02
2.346781138196937094e-02
2.085186079883005056e-02
1.828676498728713795e-02
1.541632572824966005e-02
1.168523983555574963e-02
6.409149778065736242e-03
-1.090874650047694849e-03
-1.130858126896672200e-02
-2.436121403982471900e-02
-3.982857495468114517e-02
-5.666398920495810398e-02
-7.320904573925166026e-02
-8.732658381110898482e-02
-9.664446008130030130e-02
-9.888048123540568723e-02
-9.220103348054878301e-02
-7.555611140198038866e-02
-4.893378837204963305e-02
-1.348778563935659064e-02
2.848924115551988712e-02
7.375028536509849186e-02
1.184157236324877571e-01
1.583908724931831213e-01
1.898243930185258832e-01
2.095476563058083774e-01
2.154390972702739382e-01
2.066689535575559900e-01
1.837962577781919737e-01
1.487087977959720975e-01
1.044154288974699085e-01
5.471659406822972083e-02
3.791815089170605391e-03
-4.424855171251534935e-02
-8.579629031513705262e-02
-1.181133891169659500e-01
-1.395921059632815875e-01
-1.498755581272974424e-01
-1.498234341952645321e-01
-1.413266568713670845e-01
-1.269951004662288607e-01
-1.097609691140503801e-01
-9.245404384859320923e-02
-7.741087433448562427e-02
-6.617627562091685234e-02
-5.934192201417346629e-02
-5.654502978275113834e-02
-5.662350201641417474e-02
-5.789714557432075470e-02
-5.852270716181329907e-02
-5.685787721842130993e-02
-5.176877883041657025e-02
-4.282716667713271086e-02
-3.036546905432752422e-02
-1.538563436052450134e-02
6.540706769861334702e-04
1.612730188608965665e-02
2.954295860085295877e-02
3.980309456354211989e-02
4.636670395878896012e-02
4.929205168517035440e-02
4.915652508453386554e-02
4.687857315928432855e-02
4.348579158588380955e-02
3.988264666330438440e-02
3.666898696504263672e-02
3.404720663872900371e-02
3.183485865528379311e-02
2.957541546265724658e-02
2.671801221478801308e-02
2.282204290360997576e-02
1.773747670555657005e-02
1.171757956136094264e-02
5.435894523194501754e-03
-9.956990570103574356e-05
-3.719570766171825804e-03
-4.319929069763160656e-03
-1.094943609610397883e-03
6.269958544096228964e-03
1.748624759356997779e-02
3.165488948025323157e-02
4.736680821021517496e-02
6.289361446464791783e-02
7.643406469826985461e-02
8.637200883028625653e-02
9.150079407948925880e-02
9.117701334900132903e-02
8.538114531777056537e-02
7.468077331789374496e-02
6.010988842504601248e-02
4.299175145550516997e-02
2.474038241068192423e-02
6.675917448973174573e-03
-1.011760709956693871e-02
-2.487504774857715595e-02
-3.717011751528890434e-02
-4.688166269043751028e-02
-5.412431567701488089e-02
-5.916531519865285416e-02
-6.234756662764152219e-02
-6.403287604533720867e-02
-6.457071749903348090e-02
-6.428929898292067013e-02
-6.349931747875682542e-02
-6.249816076276212135e-02
-6.156388805182122503e-02
-6.093343297579813245e-02
-6.076652193186749679e-02
-6.110369061005088004e-02
-6.183146022954370130e-02
-6.266872651524121873e-02
-6.318519976840160368e-02
-6.285589777760766661e-02
-6.114679714545743355e-02
-5.761796778041052003e-02
-5.202411743674291433e-02
-4.439026640656724976e-02
-3.504314998306402168e-02
-2.458663484572763333e-02
-1.382050888458299237e-02
-3.614163809881377337e-03
5.242744302768588549e-03
1.218406804217866610e-02
1.697603436063544954e-02
1.976735491193296751e-02
2.106760824206110536e-02
2.165509098711169977e-02
2.242989696033362984e-02
2.423982442133748236e-02
2.771318742428529810e-02
3.313213658079535578e-02
4.037254829303175974e-02
4.892332015001409073e-02
5.798168899495891038e-02
6.660537158063631336e-02
7.389032533940409486e-02
7.913740587181022912e-02
8.197347720304726248e-02
8.240225514469053103e-02
8.077533741691805824e-02
7.769125745799204674e-02
7.384619233492364931e-02
6.987062444026020946e-02
6.618932433695015605e-02
6.293665009537495469e-02
5.994638554543231523e-02
5.681791015472424655e-02
5.304229762991660713e-02
4.815717859939324524e-02
4.189144002076920781e-02
3.426215725473849560e-02
2.559662398562406391e-02
1.646987935319244728e-02
7.568881491214021241e-03
-4.863717759094939724e-04
-7.321622799347400623e-03
-1.294080290381659747e-02
-1.777395498731048143e-02
-2.262034944790897867e-02
-2.849061870815072089e-02
-3.637662272351021436e-02
-4.699748282564215895e-02
-6.057970330814214932e-02
-7.672560174470891003e-02
-9.440744086386454459e-02
-1.120979104149309319e-01
-1.280167401019119966e-01
-1.404453602369001575e-01
-1.480434760001371197e-01
-1.500980099946321311e-01
-1.466476536295122368e-01
-1.384529797392647366e-01
-1.268169499958778090e-01
-1.132956719140243151e-01
-9.936595590807913159e-02
-8.612773495823505820e-02
-7.411225183117722826e-02
-6.324201429849082845e-02
-5.295121500232499723e-02
-4.243431436355234176e-02
-3.095590143879136530e-02
-1.813587910595559904e-02
-4.126245092715422752e-03
1.037992447226997531e-02
2.432490977891089978e-02
3.661598601238023193e-02
4.653023723938298079e-02
5.408672145546686988e-02
6.027333544588948933e-02
6.703934306293074519e-02
7.701332929703721963e-02
9.297062790390468734e-02
1.171397849206207431e-01
1.504886589784328599e-01
1.921538413080834951e-01
2.391643267468918088e-01
2.865617592419714699e-01
3.279434548114980030e-01
3.563660314271939189e-01
3.654658553179178648e-01
3.505961840718789801e-01
3.097636146892499553e-01
2.441738603591214196e-01
1.582648913161127935e-01
5.920089317522077288e-02
-4.409621464156046611e-02
-1.422114038862049568e-01
-2.265740554775266258e-01
-2.906326657534470947e-01
-3.306653773393860019e-01
-3.460983616894428572e-01
-3.393005799923181076e-01
-3.149225920982845484e-01
-2.789284830310346242e-01
-2.375177760833799834e-01
-1.961403481654818148e-01
-1.587730064832396093e-01
-1.275611584521817721e-01
-1.028484595183633554e-01
-8.353919540687677892e-02
-6.767839295755509466e-02
-5.310409132732650528e-02
-3.802860595630474377e-02
-2.143741630464956333e-02
-3.245985410227053558e-03
1.578653040484154224e-02
3.433529560548970183e-02
5.089253867505412476e-02
6.415517623417529847e-02
7.332779381181066258e-02
7.828030639885101560e-02
7.953876840596602049e-02
7.812759957859821691e-02
7.531311763724109209e-02
7.231557217568619633e-02
7.005746809459834079e-02
6.900137280952133023e-02
6.910533629938353517e-02
6.989508229660865157e-02
7.062604900756774828e-02
7.049068477455622261e-02
6.882028715623939030e-02
6.523642732957016244e-02
5.972229726798972821e-02
5.260493160591620670e-02
4.446016075680509633e-02
3.596867842110942209e-02
2.776043319590200051e-02
2.028431704886209455e-02
1.373155834961503619e-02
8.026847464049927106e-03
2.884643290545559069e-03
-2.086817234072245453e-03
-7.261319117259419642e-03
-1.288097499860561129e-02
-1.897973629229897027e-02
-2.536091258910916357e-02
-3.163222881614363019e-02
-3.728845368777522484e-02
-4.182097514210091765e-02
-4.482817507957825159e-02
-4.610112033360365402e-02
-4.566556168131296473e-02
-4.377184241163839529e-02
-4.083650673368004885e-02
