5.898869953407326339e-03
3.843036413682124341e-02
6.825601355741556242e-02
9.313923060731954529e-02
1.116178677900580701e-01
1.231914597175803178e-01
1.283165562278945626e-01
1.282182605165182454e-01
1.245658266774645195e-01
1.190882326401642849e-01
1.132158443447612572e-01
1.078247265125167748e-01
1.031335781991287587e-01
9.876630613073494880e-02
9.395474665115610691e-02
8.782493827954417076e-02
7.969354603896530720e-02
6.930189684485695001e-02
5.693273695898920517e-02
4.338454814558004996e-02
2.981273351755363635e-02
1.747807915526770894e-02
7.463591845793544899e-03
4.267573639864727375e-04
-3.555343006116935822e-03
-5.013008810066520160e-03
-4.977568382010699038e-03
-4.766210355605142446e-03
-5.706052337403948183e-03
-8.857676896834729835e-03
-1.479694719170492057e-02
-2.349977141984455412e-02
-3.435123222363659773e-02
-4.627355870396138854e-02
-5.794274902069550259e-02
-6.804641453972451459e-02
-7.552891555661608858e-02
-7.977493256784190523e-02
-8.069760194865102654e-02
-7.871857349750506494e-02
-7.465004415727855003e-02
-6.950817821198691793e-02
-6.429951142892618987e-02
-5.982485296506481059e-02
-5.653880390370571996e-02
-5.448920823962147275e-02
-5.334297002544918787e-02
-5.248667950376367797e-02
-5.117613189045960853e-02
-4.870083556214903353e-02
-4.452921783284610746e-02
-3.840699232485364489e-02
-3.039311660832091228e-02
-2.083202655925113153e-02
-1.027417171099109100e-02
6.335060080600168897e-04
1.126141070326096630e-02
2.109159691106466533e-02
2.977566130177639742e-02
3.714941111961637954e-02
4.320809742457678432e-02
4.805461178338869821e-02
5.183778361737993723e-02
5.469794997268882797e-02
5.673267148207050692e-02
5.798826682506041941e-02
5.847481752086192142e-02
5.819564015894759107e-02
5.717865298539430430e-02
5.549739784371769680e-02
5.327344759493574805e-02
5.065827553786683701e-02
4.779950229738684497e-02
4.480178011159137441e-02
4.169488104760304958e-02
3.842014465198098638e-02
3.484167669902490938e-02
3.078187755650139620e-02
2.607389654266841633e-02
2.061839717878357833e-02
1.443004613696089594e-02
7.661005092321048621e-03
5.939795576423850809e-04
-6.395277548015897845e-03
-1.289858413649950727e-02
-1.854586794296957455e-02
-2.306986208771018287e-02
-2.635047171095045854e-02
-2.842908863821482987e-02
-2.949014870484277864e-02
-2.981473841761137639e-02
-2.971723581523371890e-02
-2.947938363383031599e-02
-2.929614950298503259e-02
-2.924441129941344683e-02
-2.927987871706346640e-02
-2.926117786893837544e-02
-2.899423435201826590e-02
-2.828625030163078868e-02
-2.699736851534940280e-02
-2.507955521648381689e-02
-2.259570733903007098e-02
-1.971650562353279013e-02
-1.669699682272953595e-02
-1.383837819936115619e-02
-1.144242271746286586e-02
-9.766304843430273497e-03
-8.984524805185509222e-03
-9.162681913148900889e-03
-1.024557813023060059e-02
-1.206001644082108429e-02
-1.433098818069465478e-02
-1.670881109768260903e-02
-1.880411841191689110e-02
-2.022726191029515508e-02
-2.062853667331927127e-02
-1.973558410887082948e-02
-1.738439489482328931e-02
-1.354059896303794544e-02
-8.308310342498488946e-03
-1.924779239414244232e-03
5.259495476706963282e-03
1.281381886511524792e-02
2.027030932706919836e-02
2.717200589984469783e-02
3.312007795091166662e-02
3.781381638738495754e-02
4.107775933410794111e-02
4.287199405070668545e-02
4.328418905906521175e-02
4.250485482949255267e-02
4.079017399306298503e-02
3.841890730644237362e-02
3.565087953668529680e-02
3.269410079790233126e-02
2.968570488849649885e-02
2.668893438334091206e-02
2.370499293166333094e-02
2.069548291823920805e-02
1.760908208192116936e-02
1.440559735242591399e-02
1.107171612937643546e-02
7.625378279002245283e-03
4.109061706320566928e-03
5.755266754064840284e-04
-2.928193496646965682e-03
-6.372198447571374852e-03
-9.745511252318450959e-03
-1.304622523723714643e-02
-1.626185184603098216e-02
-1.934542021961161221e-02
-2.219532332226131777e-02
-2.464725020977063391e-02
-2.648445837020662469e-02
-2.746843165173355750e-02
-2.738655530730950416e-02
-2.610815235736559103e-02
-2.363649213345525926e-02
-2.014335555257944915e-02
-1.597497654985698123e-02
-1.162343941743461395e-02
-7.664873344441542127e-03
-4.673441197790447615e-03
-3.126348105860550508e-03
-3.318305607137965463e-03
-5.303128363376017479e-03
-8.875371015716247702e-03
-1.359705189696052037e-02
-1.886525186471440033e-02
-2.400780346117461356e-02
-2.838837647487017779e-02
-3.150041447592950850e-02
-3.303204494594669249e-02
-3.289067852776632328e-02
-3.118501047854446012e-02
-2.817145122790779346e-02
-2.417948375161123320e-02
-1.953435942947680942e-02
-1.449504236732913724e-02
-9.220594639371151868e-03
-3.770468577319205372e-03
1.864642094385633546e-03
7.712472631381478080e-03
1.376521380054891545e-02
1.993834257318374825e-02
2.605503021455592150e-02
3.186184784370863637e-02
3.707281285015438799e-02
4.143070344868229199e-02
4.476910289242731766e-02
4.705730558056994001e-02
4.841353179965733611e-02
4.907923376097556023e-02
4.935699430308247010e-02
4.952432368893684711e-02
4.974311795383617313e-02
4.998766403435983552e-02
5.001180691900579400e-02
4.936840621649304928e-02
4.748292742188998938e-02
4.377034034625998382e-02
3.777330786799489720e-02
2.929264524093688413e-02
1.848011232208974716e-02
5.869384338103231236e-03
-7.667342985837204139e-03
-2.103446305752107448e-02
-3.308152315133527921e-02
-4.279439290450775396e-02
-4.947154356345455362e-02
-5.284901023095929518e-02
-5.314652030147538897e-02
-5.102245065281996866e-02
-4.744371189146641410e-02
-4.349451303207657604e-02
-4.016138572269702806e-02
-3.813782451872773510e-02
-3.768892318032500410e-02
-3.860483483785167452e-02
-4.025398624523333913e-02
-4.172637822200648411e-02
-4.203831109383705800e-02
-4.035653753546947220e-02
-3.619508832321136071e-02
-2.954298517739656349e-02
-2.089484514156853684e-02
-1.117620404301612747e-02
-1.577142943604510628e-03
6.673056425838990932e-03
1.254500188340426821e-02
1.541359190585491097e-02
1.518607052692620349e-02
1.232743943306360661e-02
7.777668976213155186e-03
2.776946438456937179e-03
-1.366456872345351604e-03
-3.519975325664647867e-03
-2.934727505264128969e-03
6.219213539735519644e-04
6.833143139582548500e-03
1.490260075554785194e-02
2.371107780970137940e-02
3.202690889509704486e-02
3.872809984984551535e-02
4.299355734561465664e-02
4.442888551265472552e-02
4.310674156927728901e-02
3.951949731727881499e-02
3.445913600443048508e-02
2.885244103994421758e-02
2.358615649296699410e-02
1.935597712712642041e-02
1.656564337533861231e-02
1.529014803993526857e-02
1.530303763331665630e-02
1.615510806456731813e-02
1.728302201259931600e-02
1.812302496070292840e-02
1.820719808986965421e-02
1.722648167829339896e-02
1.505403049455267261e-02
1.173193137740613165e-02
7.431731831863450967e-03
2.403108609930538521e-03
-3.075141263009950610e-03
-8.731232346507286635e-03
-1.431884462342751865e-02
-1.961922198202582443e-02
-2.443305474396490623e-02
-2.857062384403450533e-02
-3.184814198328355522e-02
-3.409521788054419023e-02
-3.517395108326162867e-02
-3.500570740244345752e-02
-3.359842071382813933e-02
-3.106618302352999461e-02
-2.763415561021316524e-02
-2.362503716482859673e-02
-1.942753750817593356e-02
-1.545138854969068699e-02
-1.207634674335022855e-02
-9.603753747254343068e-03
-8.218403744141664080e-03
-7.966113537484890289e-03
-8.749259983395160992e-03
-1.033950063827970486e-02
-1.240463331584152479e-02
-1.454543187068381600e-02
-1.633824944542349583e-02
-1.737978674017049210e-02
-1.733109953168618378e-02
-1.595816262834550553e-02
-1.316590165406941910e-02
-9.021731923954660892e-03
-3.763848471846248898e-03
2.210481404973103914e-03
8.379924464197281708e-03
1.415753000634223727e-02
1.896818334050819760e-02
2.233550383285270308e-02
2.396427248237654323e-02
2.380230478871789984e-02
2.206681156317579287e-02
1.922513375057514212e-02
1.592778992318656314e-02
1.290159673979496442e-02
1.082009581557123387e-02
1.017532206802318484e-02
1.117712993646351530e-02
1.370282114771620777e-02
1.731092593622576142e-02
2.132024149019611653e-02
2.494124413945198598e-02
2.743487989368670332e-02
2.826639516032528054e-02
2.722126150711643572e-02
2.445689209126624200e-02
2.047661374885052787e-02
1.602866049095318449e-02
1.194928799971418758e-02
8.981833419448108022e-03
7.609716737200195730e-03
7.939449889662743981e-03
9.659921377494388312e-03
1.208855892840027084e-02
1.429678402692193331e-02
1.529040400850171545e-02
1.420889653868150429e-02
1.050346837509618519e-02
4.058165715101715552e-03
-4.769847546322616288e-03
-1.519809624577229262e-02
-2.614417189464874128e-02
-3.640308738578570263e-02
-4.484173164048439048e-02
-5.057379585814173600e-02
-5.308432972693664237e-02
-5.228476810977453898e-02
-4.849400635517436831e-02
-4.235556778327965316e-02
-3.471206867329286461e-02
-2.646397610866341871e-02
-1.843936438343902334e-02
-1.129570786862406709e-02
-5.465527804212440971e-03
-1.147361017151661555e-03
1.665558253710574393e-03
3.132492920292904992e-03
3.503866388841959945e-03
3.065173318426856960e-03
2.095328699160629166e-03
8.428504990261685009e-04
-4.820909687091364665e-04
-1.705353798493284244e-03
-2.683062588165370521e-03
-3.298123859093260533e-03
-3.461987049385339705e-03
-3.121294445273722126e-03
-2.266284874279404435e-03
-9.364353593014156617e-04
7.807945684087319940e-04
2.760307052597125044e-03
4.858152560046454654e-03
6.935309587099489428e-03
8.881139174314711671e-03
1.063086844550274399e-02
1.217280582487978956e-02
1.354363885332464205e-02
1.481333837884685027e-02
1.606394636507942758e-02
1.736802880659085030e-02
1.877236736254395827e-02
2.029059462925703397e-02
2.190550953725228442e-02
2.357865344970616617e-02
2.526237837143885390e-02
2.690887017000230877e-02
2.847171009659368868e-02
2.989829664495565614e-02
3.111501502836143060e-02
3.201033656953283790e-02
3.242297024924852694e-02
3.214202751817730325e-02
3.092373359956925027e-02
2.852502146267589869e-02
2.474943365322443065e-02
1.949647470864591253e-02
1.280316841839626574e-02
4.866909295779202338e-03
-3.958103063488408249e-03
-1.319311667770249261e-02
-2.229160694302490670e-02
-3.071058307810989665e-02
-3.798266837165880511e-02
-4.377455990704792743e-02
-4.792020989852135981e-02
-5.042260619277829509e-02
-5.142506811425105739e-02
-5.115982008792292757e-02
-4.988658842124220338e-02
-4.783586262210522133e-02
-4.516980701410325955e-02
-4.196901588539845435e-02
-3.824656844293870123e-02
-3.398383166164594543e-02
-2.917691740794983377e-02
-2.387999697891843298e-02
-1.823248100492653317e-02
-1.246119144298746088e-02
-6.855078803577465546e-03
-1.717201328862215035e-03
2.695169494124221438e-03
6.227835520940701308e-03
8.869698726145494941e-03
1.076425615279029586e-02
1.218748935324436879e-02
1.349469604545320417e-02
1.504611975628812777e-02
1.712654752050320889e-02
1.987612252886124947e-02
2.324793000086602252e-02
2.700276531087299897e-02
3.074395274214398663e-02
3.398674878353248607e-02
3.624951192054863547e-02
3.714902080020812680e-02
3.648109967049982527e-02
3.427032873309043826e-02
3.077853146594516226e-02
2.646970941514809397e-02
2.193749095161742768e-02
1.780826852235146973e-02
1.463761645093271391e-02
1.281849786717329485e-02
1.251712054719495912e-02
1.364675719508168412e-02
1.588263867130840917e-02
1.871366617859167303e-02
2.152061593243083382e-02
2.366680442661905914e-02
2.458634523750882067e-02
2.385702040643651947e-02
2.124871883550791610e-02
1.674332571479850151e-02
1.052677658911359629e-02
2.957809851363646728e-03
-5.479758441117782430e-03
-1.423371794785149858e-02
-2.274215451466981425e-02
-3.048846821113840311e-02
-3.704843614810230529e-02
-4.212615654995188752e-02
-4.557643827177348950e-02
-4.741171075792706413e-02
-4.779217780533714932e-02
-4.699908064312456613e-02
-4.539274587856448329e-02
-4.335944069803444878e-02
-4.125349046943822817e-02
-3.934296817035237703e-02
-3.776786174930302914e-02
-3.651850095877044733e-02
-3.543911771641211628e-02
-3.425714217006797097e-02
-3.263403587670708761e-02
-3.022919227434751541e-02
-2.676570111339021674e-02
-2.208626160545280187e-02
-1.618940404419185602e-02
-9.240032348223780126e-03
-1.553247542656404842e-03
6.444671652624377189e-03
1.427044586099741191e-02
2.144349301433581823e-02
2.754166484996156336e-02
3.224551234316068438e-02
3.536665609870924543e-02
3.685913958702379672e-02
3.681534129048176507e-02
3.544959990409920353e-02
3.307307154645777736e-02
3.006280003953986507e-02
2.682710762153409784e-02
2.376880307805476211e-02
2.124776214420274340e-02
1.954521795557060543e-02
1.883328591541076624e-02
1.915424350527066694e-02
2.041423361529570712e-02
2.239488501276963237e-02
2.478375677050940334e-02
2.722090280654625161e-02
2.935502460901111277e-02
3.089966105303234428e-02
3.167861362564862449e-02
3.165092362585496255e-02
3.090923393137413877e-02
2.965067507411849393e-02
2.812538151021375110e-02
2.657297374297206208e-02
2.516052544445196090e-02
2.393579091720097335e-02
2.280659064376668391e-02
2.155178879748896603e-02
1.986243632435928663e-02
1.740495141223144526e-02
1.389321177804707201e-02
9.154301853764290273e-03
3.173888577201267394e-03
-3.888494197543310854e-03
-1.171758316556683124e-02
-1.989025490003731161e-02
-2.794334540807291364e-02
-3.544777613302572961e-02
-4.207446022920583589e-02
-4.763961358986838757e-02
-5.212166159382349701e-02
-5.564781025174860007e-02
-5.845423231608341819e-02
-6.082850532442553304e-02
-6.304559477150915858e-02
-6.530897926531686881e-02
-6.770666800414233688e-02
-7.018848061154010776e-02
-7.256688342044495532e-02
-7.453974841947294538e-02
-7.573028714814251938e-02
-7.573748998401971799e-02
-7.418974127970187626e-02
-7.079470261557511968e-02
-6.537973761911763937e-02
-5.791874499479774535e-02
-4.854299088068737833e-02
-3.753521672841601819e-02
-2.530787528619904414e-02
-1.236779977448700281e-02
7.290818349899377826e-04
1.342828980120325255e-02
2.522717221887462585e-02
3.571951936385876769e-02
4.462932603973158996e-02
5.182988332534449460e-02
5.734630264688811430e-02
6.134187599246042344e-02
6.409094355707205259e-02
6.594270976749161406e-02
6.728132413162571379e-02
6.848731632781059064e-02
6.990420849829721839e-02
7.181217212738513767e-02
7.440852222609914413e-02
7.779329448698940608e-02
8.195766752726124649e-02
8.677381574244744100e-02
9.198673968624181130e-02
9.721112719781331568e-02
1.019384501472085092e-01
1.055603251394757192e-01
1.074129105803550699e-01
1.068435298574760967e-01
1.032952382870991753e-01
9.639882105219205188e-02
8.605635212104145726e-02
7.249771761643865331e-02
5.629281659606120980e-02
3.830808672975595519e-02
1.960601712061144780e-02
1.298667493105472998e-03
-1.562176295920124358e-02
-3.044364365497984407e-02
-4.285369255651585996e-02
-5.298277454609693488e-02
-6.136338220227527396e-02
-6.880070381256087053e-02
-7.617922978678187684e-02
-8.424402497935970513e-02
-9.340553134373566491e-02
-1.036157749486728286e-01
-1.143511234523152953e-01
-1.247140776218155223e-01
-1.336384798108532501e-01
-1.401553513291988184e-01
-1.436571749770753081e-01
-1.440924705011703832e-01
-1.420328764336791505e-01
-1.385807937725027361e-01
-1.351221688439204760e-01
-1.329682629118013604e-01
-1.329628797576051236e-01
-1.351488397243733042e-01
-1.385837911479264051e-01
-1.413696553973822212e-01
-1.409163170770240947e-01
-1.344074934408282240e-01
-1.193868221476239860e-01
-9.434708757985585392e-02
-5.919447295656762864e-02
-1.547697366374056749e-02
3.369060350651101321e-02
8.401178884794753554e-02
1.306450921378008445e-01
1.689781576767550586e-01
1.953929586588081246e-01
2.078737436140510042e-01
2.063392358045731401e-01
1.926356421875494718e-01
1.701951890476895712e-01
1.434310466029342368e-01
1.169891633372138612e-01
9.500031430493918738e-02
8.046766620413775550e-02
7.488969820053251181e-02
7.816488801726280411e-02
8.876628048842416518e-02
1.041242277702045804e-01
1.211244826940178210e-01
1.366212746964592661e-01
1.478796008120098482e-01
1.528909646676818723e-01
1.505423463544965645e-01
1.406493212384194724e-01
1.238837043552669520e-01
1.016311834605455183e-01
7.580738699894844224e-02
4.864780111135320190e-02
2.247549745430505591e-02
-5.528894771648501516e-04
-1.871531767789785111e-02
-3.098308946238158973e-02
-3.722828426393928747e-02
-3.832577036823355682e-02
-3.609780697439884944e-02
-3.307018305561457150e-02
-3.204733921536622593e-02
-3.556237236211587383e-02
-4.530365434095154353e-02
-6.164859918860649685e-02
-8.343478377365716459e-02
-1.080633608325568956e-01
-1.319626900489853927e-01
-1.513539738036911997e-01
-1.631752928607994868e-01
-1.659584314469644550e-01
-1.604338675252991453e-01
-1.496742066781639180e-01
-1.386734451774755406e-01
-1.333833944624455703e-01
-1.393628456811845939e-01
-1.603075352626679995e-01
-1.967897287011377283e-01
-2.455251934433120842e-01
-2.993982254825025002e-01
-3.483261916437789263e-01
-3.808639189906249944e-01
-3.862753379681204136e-01
-3.566760050022148576e-01
-2.888072942160751500e-01
-1.850555698817226424e-01
-5.347017611024204586e-02
9.326572605174454633e-02
2.397409002700477965e-01
3.702432907234949333e-01
4.712433235800363440e-01
5.334569600715859394e-01
5.531036010449996709e-01
5.321465589354639203e-01
4.775180097656074318e-01
3.995373877432980558e-01
3.098859980116942525e-01
2.195686787125911144e-01
1.372641028138844588e-01
6.835031216508305474e-02
1.472232113324994929e-02
-2.466368107610933391e-02
-5.273712470659851215e-02
-7.305743500667498391e-02
-8.867266202118231910e-02
-1.013444112693140664e-01
-1.112736019392787656e-01
-1.173240803010357491e-01
-1.176187726406803108e-01
-1.103043944407543081e-01
-9.426107515070426823e-02
-6.957195747472480485e-02
-3.764966572718770471e-02
-1.016709191561868120e-03
3.717194747793872711e-02
7.371648280630931083e-02
1.059073024437238164e-01
1.318744826488912336e-01
1.506811565594788349e-01
1.621670941976035007e-01
1.666179273491195656e-01
1.643792467814976510e-01
1.555430666566983144e-01
1.398067656745225484e-01
1.165507532173955529e-01
8.511631015610605921e-02
4.520684250585940700e-02
-2.700910082054905348e-03
-5.705563567083413168e-02
-1.151356574464038884e-01
-1.732057351585356009e-01
-2.269139623300116260e-01
-2.718599893278884072e-01
-3.042260574088294089e-01
-3.213476890019333343e-01
-3.221136333657972917e-01
-3.071207126180923175e-01
-2.785594586701742870e-01
-2.398592329431566972e-01
-1.951655002229439329e-01
-1.487484871458486790e-01
-1.044474391353925474e-01
-6.523890447512462054e-02
-3.298606106556048467e-02
-8.387008378097998706e-03
8.898063751213991512e-03
1.999024461464372904e-02
2.647094711524015931e-02
3.006241741537332701e-02
3.236301734203021058e-02
3.466948950867355939e-02
3.789451637241564308e-02
4.256684291084705807e-02
4.888729033370284305e-02
5.680916574404996922e-02
6.611545985118849611e-02
7.647536124340487129e-02
8.747531805509436986e-02
9.863128081010053005e-02
1.093958048759652579e-01
1.191748273431437188e-01
1.273643883359420192e-01
1.334091444767651624e-01
1.368750151895995470e-01
1.375206884619949166e-01
1.353493477468345751e-01
1.306239942210885852e-01
1.238367659528896714e-01
1.156329743405484223e-01
1.067015786490540658e-01
9.765268991001260779e-02
8.890713781342278466e-02
8.062193094261303761e-02
7.266873866665439496e-02
6.467177637864204853e-02
5.609907621016707591e-02
4.638982266982037694e-02
3.509269389724561927e-02
2.198761000217341194e-02
7.166420054276680107e-03
-8.943893825500828787e-03
-2.562071178451780229e-02
-4.194116695889069102e-02
-5.691619782280138429e-02
-6.963916034212702666e-02
-7.942275461738163012e-02
-8.590077762082516666e-02
-8.907809522508276789e-02
-8.932172916901423565e-02
-8.729619508258432137e-02
-8.385533676460736607e-02
-7.990937610548112802e-02
-7.628884545648670357e-02
-7.362630937733881387e-02
-7.227279594305524579e-02
-7.225961224116997372e-02
-7.330892586232623520e-02
-7.488935576903993363e-02
-7.630681832126408326e-02
-7.681666890771562950e-02
-7.574106002679796557e-02
-7.257539475739452350e-02
-6.706957989308952317e-02
-5.927316030636677752e-02
-4.953798609262005659e-02
-3.847743260983515351e-02
-2.688689974049154885e-02
-1.563579123689724792e-02
-5.545729430136404903e-03
2.727359762028792878e-03
8.789145566400959064e-03
1.256493847623492421e-02
1.430920091699568186e-02
1.456330252493211880e-02
1.406696861495543294e-02
1.363721075817092565e-02
1.403485972569630535e-02
1.584168859172381191e-02
1.936966337161988294e-02
2.461811032280389333e-02
3.128552288228229200e-02
3.883213956373980646e-02
4.657954666836289920e-02
5.382657626464568135e-02
5.995827283287844672e-02
6.452728332873938766e-02
6.729409425340027173e-02
6.822242870728506547e-02
6.743646654784898886e-02
6.515488012427281261e-02
6.162100081324299594e-02
5.704776218317619829e-02
5.159067604537737051e-02
4.535345511373109484e-02
3.842129193828444644e-02
3.090876703559973862e-02
2.300500430894565976e-02
1.499917249335716921e-02
7.274640812848329197e-03
2.686947697445804528e-04
-5.595526091598492652e-03
-9.989840400197128739e-03
-1.275479786814023159e-02
-1.394678773350642442e-02
-1.384404018271932421e-02
-1.290612251016093684e-02
-1.169231815840795358e-02
-1.075424195187856501e-02
-1.052480064829502092e-02
-1.122750755202273423e-02
-1.282667765512824146e-02
-1.503087090597165706e-02
-1.735087587918322447e-02
-1.920193824452414919e-02
-2.003034241258788359e-02
-1.943890695145762681e-02
-1.728563032822508921e-02
-1.373468893611020855e-02
-9.248213674731832826e-03
-4.518868355434729062e-03
-3.548870265292353166e-04
2.461407264195282496e-03
3.315301921072617147e-03
1.875111980108073312e-03
-1.840317791779257778e-03
-7.454707852369816742e-03
-1.428943508296803833e-02
-2.147057593099153255e-02
-2.806842645312782394e-02
-3.324436975159382468e-02
-3.637910515244397597e-02
-3.716028571839541383e-02
-3.561567634956370326e-02
-3.208841314681378648e-02
-2.716173234598047784e-02
-2.154952395361357798e-02
-1.597452345241096375e-02
-1.105690224678572246e-02
-7.232418291168741034e-03
-4.712056042416472301e-03
-3.485879737710822004e-03
-3.364686160795464162e-03
-4.045939826375940032e-03
-5.186861685074052250e-03
-6.468046047435232690e-03
-7.635259722659069881e-03
-8.513922004329203819e-03
-8.998390799436796483e-03
-9.024666501192038157e-03
-8.538877568520196470e-03
-7.474055018461179915e-03
-5.744296060102085065e-03
-3.259439106783608257e-03
4.352110753043196556e-05
4.161945381308834561e-03
8.994875698104431300e-03
1.432860648499760525e-02
1.984876693831812144e-02
2.518027087332680436e-02
2.994859626050701967e-02
3.384909239133394865e-02
3.670730883195286176e-02
3.851392245145417170e-02
3.942286653944165886e-02
3.970973276498303978e-02
3.969744858769502782e-02
3.966515020346297882e-02
3.976170639828852799e-02
3.994586562466810598e-02
3.997005372469256135e-02
3.941536666536252231e-02
3.777340135313722591e-02
3.455907722799998055e-02
2.943037058573526321e-02
2.228805946378355912e-02
1.333203817511906600e-02
3.059857381391542508e-03
-7.794177828468851904e-03
-1.836774113692513088e-02
-2.780473093434504550e-02
-3.538714917191177617e-02
-4.063764934412499724e-02
-4.337292883772918967e-02
-4.369972373755657419e-02
-4.195833444307148219e-02
-3.863015566332217432e-02
-3.423284546399954498e-02
-2.922792821017314649e-02
-2.396070181774934832e-02
-1.864275427959159737e-02
-1.337576145668890534e-02
-8.204560200001955600e-03
-3.180456569838332678e-03
1.585986989463335217e-03
5.899579839544980692e-03
9.491182887414205405e-03
1.206269632839811548e-02
1.335486003394658130e-02
1.321975220460200849e-02
1.167801631143409839e-02
8.944130357291739386e-03
5.410533985248716302e-03
1.591214540111606998e-03
-1.964995692649920689e-03
-4.773929134808703803e-03
-6.507719571977215942e-03
-7.059312340365089290e-03
-6.566151705573708940e-03
-5.387654550266927911e-03
-4.040250608530929211e-03
-3.101887739308958891e-03
-3.103430297897898094e-03
-4.426444898472796027e-03
-7.225350140413486569e-03
-1.138735465943151344e-02
-1.653703243388337032e-02
-2.208500036809886088e-02
-2.731315170563273012e-02
-3.148323855347542888e-02
-3.395198010694779056e-02
-3.427469108811886933e-02
-3.228078887650717016e-02
-2.810830472917633452e-02
-2.219030576093176249e-02
-1.519329108625615959e-02
-7.915272075804759278e-03
-1.158294249364569609e-03
4.404575474192673826e-03
8.345382123668408994e-03
1.055938397020961955e-02
1.128910928881409967e-02
1.108688972129916531e-02
1.071908718243204557e-02
1.102624856513702463e-02
1.276261783135643896e-02
1.644379184476102776e-02
2.223139940987438681e-02
2.987806713917162335e-02
3.874535085123092387e-02
4.789363143279538187e-02
5.622888482584861153e-02
6.267968921812377969e-02
6.637139478545750482e-02
6.676462139494733494e-02
6.373232215080334995e-02
5.756218831464800234e-02
4.888653283569954766e-02
3.855662391164639546e-02
2.748944241360036858e-02
1.651952685304752810e-02
6.285895115708959452e-03
-2.825348833454810471e-03
-1.067596026784057781e-02
-1.731628260361329705e-02
-2.289253332967316340e-02
-2.754849237093860703e-02
-3.134935397186369016e-02
-3.424833893694628761e-02
-3.610426199479872117e-02
-3.674378028729986811e-02
-3.604923632699211233e-02
-3.404519619193618896e-02
-3.095608374083322692e-02
-2.721404767656138146e-02
-2.340878991438016116e-02
-2.018641296948885111e-02
-1.811851964778801727e-02
-1.757213041871262191e-02
-1.861292522149224707e-02
-2.096812912035916909e-02
-2.406233505382801216e-02
-2.712271883172207368e-02
-2.933348383950807464e-02
-3.000702289313081708e-02
-2.873426439231615767e-02
-2.548029810692631347e-02
-2.060290193054194890e-02
-1.478837943378679375e-02
-8.917293882794097987e-03
-3.888071352793344773e-03
-4.355626778243699981e-04
1.017476250930307580e-03
4.454495666776307067e-04
-1.775130591922489953e-03
-4.940393535912003531e-03
-8.156690401593195625e-03
-1.051186841639848747e-02
-1.124545617085131663e-02
-9.884815899076658530e-03
-6.322813209174980333e-03
-8.254795309480230173e-04
6.027529644371962259e-03
1.345424127786286686e-02
2.060951792916870112e-02
2.672516100954063639e-02
3.122661282870273225e-02
3.380880574740423306e-02
3.446299110339653970e-02
3.345582086166127428e-02
3.126961023785716776e-02
2.851734533941511357e-02
2.584728572661375984e-02
2.385046818674203123e-02
2.298114834643644189e-02
2.349651391875291415e-02
2.541894758463403986e-02
2.852227764133380417e-02
3.234277164959527967e-02
3.621550561046181504e-02
3.933630638214025144e-02
4.084792176396539326e-02
3.994603345071491562e-02
3.599642572689071285e-02
2.864993145070476865e-02
1.793802682802725021e-02
4.330575478270638073e-03
-1.126064611177420016e-02
-2.754294689717220329e-02
-4.296905285635214261e-02
-5.591808807962053707e-02
-6.490917310755542347e-02
-6.881682618994305889e-02
-6.705330473278858783e-02
-5.968510420693819152e-02
-4.745928127570464561e-02
-3.172902382131553151e-02
-1.428471084297664936e-02
2.886444983478508863e-03
1.787545105537311635e-02
2.911697100295962404e-02
3.560105064364688793e-02
3.699540462591431600e-02
3.365777785828670543e-02
2.653734317522941574e-02
1.698413381906002662e-02
6.502271065888201584e-03
-3.507111086625483085e-03
-1.196594636715674065e-02
-1.826280249702078723e-02
-2.229595290483940909e-02
-2.441224899586916935e-02
-2.525904459272144270e-02
-2.558379035654694683e-02
-2.602609223979073655e-02
-2.694785755231163260e-02
-2.833840557428831189e-02
-2.981487887765148920e-02
-3.071740516926900824e-02
-3.027763294782761377e-02
-2.782293228335451160e-02
-2.297023110215982641e-02
-1.576498443213923337e-02
-6.731899421050371174e-03
3.177534413339466041e-03
1.273379612821590526e-02
2.064676184335351508e-02
2.580906947278662628e-02
2.751630839401299211e-02
2.561869344516448307e-02
2.057204153144817638e-02
1.337570735116883416e-02
5.407567814920062263e-03
-1.813424120931867931e-03
-6.892315733559677832e-03
-8.800781728654255565e-03
-7.051925592618978750e-03
-1.775498572592735733e-03
6.318539652859877891e-03
1.607849236683918381e-02
2.612245660352874657e-02
3.508076997596519531e-02
4.182273213087023267e-02
4.562582538896987894e-02
4.625866831787102396e-02
4.396723958267208243e-02
3.937364181998537910e-02
3.331376365444409238e-02
2.665120320103748011e-02
2.010763353430656403e-02
1.414406652871972800e-02
8.914655049875389037e-03
4.297688756901191925e-03
-8.950695058757701661e-06
-4.354612163073808689e-03
-8.999325994671882045e-03
-1.400789116656466632e-02
-1.920051012577348587e-02
-2.417195773943244322e-02
-2.837473137170552773e-02
-3.124626306070711623e-02
-3.234959359650715904e-02
-3.149335618218926380e-02
-2.880131612776199584e-02
-2.471307114550799766e-02
-1.991324890030293088e-02
-1.520304886946382758e-02
-1.134147578624792804e-02
-8.890986743742996037e-03
-8.101798128419471570e-03
-8.860838231958073630e-03
-1.071713662005650304e-02
-1.297852734884460436e-02
-1.485875541411316343e-02
-1.564300644456648182e-02
-1.483603844608071681e-02
-1.226132778438742549e-02
-8.090935486509293409e-03
-2.801515118228799228e-03
2.931629030191061289e-03
8.377070063806599243e-03
1.289365633574386313e-02
1.604842190830517087e-02
1.768150117139264538e-02
1.790687837795937321e-02
1.705334346147062072e-02
1.556398480090152858e-02
1.388156985018164369e-02
1.234913062278833809e-02
1.114962665455967138e-02
1.029719171461335528e-02
9.678146358222247322e-03
9.126379949709313363e-03
8.508391534824348568e-03
7.790677456694598997e-03
7.067017797089999998e-03
6.534391948266869178e-03
6.420953267388345917e-03
6.883955710339673129e-03
7.905952550342144197e-03
9.221087079794274693e-03
1.029862208694139539e-02
1.039875564143122669e-02
8.698849222539963705e-03
4.470324186548210385e-03
-2.728093039348275517e-03
-1.288276412339105573e-02
-2.542379054046830372e-02
-3.922001885230058660e-02
-5.268274246515523840e-02
-6.396903364393408120e-02
-7.125499921042369178e-02
-7.303369982094377877e-02
-6.838529249247574104e-02
-5.716972270037330717e-02
-4.010456660312100574e-02
-1.871008283643357806e-02
4.873518784059491238e-03
2.816944846285463627e-02
4.870393310697821582e-02
6.434825623544634943e-02
7.360948727030593164e-02
7.582530710188303824e-02
7.123473942573393947e-02
6.091714963915342840e-02
4.661290212378019215e-02
3.045700783022058447e-02
1.466911604432933822e-02
1.247660410821936627e-03
-8.287395765167543393e-03
-1.306887766117753764e-02
-1.295417061778768135e-02
-8.491464895158274545e-03
-7.932275105334441606e-04
8.657900672461672775e-03
1.823805960623452530e-02
2.641131616347246885e-02
3.192769104583642603e-02
3.396628347751086408e-02
3.220977989411404063e-02
2.684741866268482852e-02
1.851330046282489983e-02
8.174499667905768888e-03
-3.011983027930629359e-03
-1.385292566117014498e-02
-2.326404936190219416e-02
-3.039080877747135992e-02
-3.469356068586030434e-02
-3.599087298723802758e-02
-3.445955670912759228e-02
-3.059425930857277709e-02
-2.513299104892951705e-02
-1.895774716543918714e-02
-1.298144809987056454e-02
-8.033701646414139960e-03
-4.758250137594392803e-03
-3.534187170678411774e-03
-4.430910954044261704e-03
-7.203257288685007559e-03
-1.132849878329804730e-02
-1.608138222431586273e-02
-2.063785334168888319e-02
-2.419350192842657787e-02
-2.607994803756215341e-02
-2.586205503412519757e-02
-2.340126582079916570e-02
-1.887527481217017924e-02
-1.275093027467590935e-02
-5.714593386988127757e-03
1.429114945014109059e-03
7.874350279234616778e-03
1.292878516424416160e-02
1.610871479416960475e-02
1.720070185110774558e-02
1.628151890445934252e-02
1.369477780684219548e-02
9.989186922673407021e-03
5.828837306229456630e-03
1.889556988970686295e-03
-1.243179360601435936e-03
-3.160047864243504048e-03
-3.685308600339126488e-03
-2.897917996958668252e-03
-1.113371580321540107e-03
1.171346705325801429e-03
3.362253249752982561e-03
4.870548083615168326e-03
5.217773460070134969e-03
4.128034215253489556e-03
1.592305307399066727e-03
-2.106938245689266714e-03
-6.417230291364164896e-03
-1.058338529232162074e-02
-1.375272340896616617e-02
-1.510362273563082593e-02
-1.397786235981113637e-02
-9.995320144999632339e-03
-3.131348316588029174e-03
6.257444802832384800e-03
1.746498111632745556e-02
2.952126213336945387e-02
4.131843508258108144e-02
5.175688895059937789e-02
5.988735458195865169e-02
6.502593345623086662e-02
6.682428931813982897e-02
6.528585213987907199e-02
6.072903728337401136e-02
5.370807258982673860e-02
4.490908407799211466e-02
3.504222641943251226e-02
2.474935920985622817e-02
1.454156468175452598e-02
4.773044866325694066e-03
-4.350476924015276442e-03
-1.273783291249740157e-02
-2.036619987593206796e-02
-2.723645537685975490e-02
-3.334111400503798200e-02
-3.865057960924467295e-02
-4.311732900400831736e-02
-4.669239199855228228e-02
-4.934548703710650575e-02
-5.108008978106737957e-02
-5.193737513688147234e-02
-5.198742465017545250e-02
-5.131088785573147126e-02
-4.997792141089658219e-02
-4.803256712371958836e-02
-4.548932769742759785e-02
-4.234493679740918004e-02
-3.860329290277045300e-02
-3.430673654029878228e-02
-2.956378212984409753e-02
-2.456310951694880979e-02
-1.956636460842121894e-02
-1.487754256927982868e-02
-1.079312855194148116e-02
-7.543047590868622032e-03
-5.236174494820593911e-03
-3.824523522855130531e-03
-3.096953636423604300e-03
-2.706915216702993933e-03
-2.230877314698650853e-03
-1.246534025811880074e-03
5.853897636591979051e-04
3.453514239863175739e-03
7.357530263278283002e-03
1.210811838810967218e-02
1.736531104962851443e-02
2.270672588534588393e-02
2.771019173041394668e-02
3.203201028212706442e-02
3.546329413917143070e-02
3.795225501825370135e-02
3.958869600349539108e-02
4.055625405662208888e-02
4.106585296768389820e-02
4.128837693904344186e-02
4.130457740780837939e-02
4.108560866400916278e-02
4.050943545010805835e-02
3.940866963793226291e-02
3.763662134136275261e-02
3.513279076234195053e-02
3.196824867318314584e-02
2.835577073440808185e-02
2.461831139373832356e-02
2.112039075148842635e-02
1.817749950372463119e-02
1.596594453930868032e-02
1.445756150130230594e-02
1.339953600129132477e-02
1.234984164492851366e-02
1.076559927941625472e-02
8.128066422804138685e-03
4.077344320948333121e-03
-1.474925843495331068e-03
-8.284048105546929289e-03
-1.578132352227672522e-02
-2.315795239880368353e-02
-2.951094715936081886e-02
-3.402301398930297066e-02
-3.613875395614436770e-02
-3.569803757427773838e-02
-3.299474065800691441e-02
-2.874388740319403640e-02
-2.395953930471814500e-02
-1.976529178730088154e-02
-1.717462050932760248e-02
-1.688601470688480544e-02
-1.913596190395040059e-02
-2.364163435929590718e-02
-2.964688427300716037e-02
-3.606377266350132421e-02
-4.168193880263484224e-02
-4.540394989492438360e-02
-4.645937286494534330e-02
-4.455477456093904359e-02
-3.993013471160805627e-02
-3.331132482566698250e-02
-2.576924837918073696e-02
-1.851456665023886589e-02
-1.266895016208436676e-02
-9.057252104259450043e-03
-8.059523655650945723e-03
-9.548871444979966511e-03
-1.292373725761201964e-02
-1.722495836372787970e-02
-2.131258472440254043e-02
-2.406772421569886022e-02
-2.458216822715297845e-02
-2.230319016859589470e-02
-1.711126926002654730e-02
-9.322124260618220790e-03
3.815328362052183148e-04
1.107139147036681828e-02
2.172352550338569818e-02
3.137021618629366043e-02
3.922972933795609157e-02
4.479689833134371801e-02
4.788615635700932405e-02
4.862749422762861068e-02
4.742294291583490362e-02
4.487546671427704997e-02
4.170329281959319484e-02
3.865118642775175473e-02
3.640708755262950236e-02
3.552917855757199705e-02
3.638601572996595646e-02
3.911150210294155743e-02
4.357717752680567713e-02
4.938584853000556329e-02
5.589180531916492639e-02
6.225252416427526359e-02
6.751393570773350783e-02
7.072589328676898157e-02
7.107717074006715541e-02
6.803179406608522717e-02
6.144293295342365124e-02
5.161909328761969673e-02
3.932145219227561883e-02
2.568114982151640385e-02
1.203997769879045637e-02
-2.654776298761478415e-04
-1.014119952753187760e-02
-1.695006216730966103e-02
-2.065755306114007428e-02
-2.187226808527427402e-02
-2.176260653090902192e-02
-2.185520679502006569e-02
-2.374597430891195807e-02
-2.877541815745295745e-02
-3.773129923863156876e-02
-5.063997597811848578e-02
-6.669276150219977106e-02
-8.432765853027365810e-02
-1.014553347868913935e-01
-1.157880949904472878e-01
-1.252088814789918958e-01
-1.281092917105610962e-01
-1.236334335099701920e-01
-1.117865276553655501e-01
-9.339829359363176209e-02
-6.996366395136491279e-02
-4.340904800829148424e-02
-1.584455158746610887e-02
1.064197803909059520e-02
3.411326125354743888e-02
5.282740893737587762e-02
6.522469372978885460e-02
6.990479736596666438e-02
6.565027409660220692e-02
5.153969385811769943e-02
2.716399768735472398e-02
-7.080769937340455900e-03
-4.969094810160937237e-02
-9.783659618407733460e-02
-1.473246993847537323e-01
-1.928192425660304743e-01
-2.283449216991835784e-01
-2.480370618568776830e-01
-2.470346351704427457e-01
-2.223625535038956658e-01
-1.736279422456408206e-01
-1.033712228356036961e-01
-1.696638031053340767e-02
7.795344311903126822e-02
1.724754695702713780e-01
2.576375880950376729e-01
3.256982958038536768e-01
3.712199955980572397e-01
3.917705530611610421e-01
3.881198062707558183e-01
3.639051803321873280e-01
3.248428900536859398e-01
2.776465528777484204e-01
2.288654665190536230e-01
1.838604235293665734e-01
1.460959468399125605e-01
1.168542603996809010e-01
9.538541300821865021e-02
7.942005578086103190e-02
6.590505682027397727e-02
5.179022619772818969e-02
3.470132232842637610e-02
1.337571300435352190e-02
-1.219924977875513905e-02
-4.093485937569567301e-02
-7.100577887273022692e-02
-1.003215196000476345e-01
-1.269855451831057858e-01
-1.496410323532183229e-01
-1.676413581238684891e-01
-1.810320690341699901e-01
-1.903770454385561584e-01
-1.964943123754779308e-01
-2.001801800741164761e-01
-2.019931305186767889e-01
-2.021451210046888991e-01
-2.005153042471130853e-01
-1.967684591551732143e-01
-1.905356159220112366e-01
-1.816025846940858557e-01
-1.700547715605350285e-01
-1.563415607902034210e-01
-1.412457687676123286e-01
-1.257672022293323533e-01
-1.109486154310902750e-01
-9.768352629727107550e-02
-8.654697395747817934e-02
-7.768327164766401782e-02
-7.077173985308241044e-02
-6.507569105304225610e-02
-5.956483064446639608e-02
-5.308917383977631438e-02
-4.457490100649127290e-02
-3.320964843917215137e-02
-1.858629178099967943e-02
-7.798164484496359489e-04
1.965913008029746695e-02
4.179847592469468354e-02
6.449714407048652565e-02
8.663118449508391827e-02
1.073356655848481112e-01
1.262151118306428788e-01
1.434732919054795275e-01
1.599208730774090981e-01
1.768376815456576545e-01
1.956934711467878951e-01
2.177629593353783144e-01
2.437009697061634783e-01
2.731643473714237547e-01
3.045721841030876731e-01
3.350808061151544504e-01
3.608151913937270305e-01
3.773491522171241730e-01
3.803722372142663288e-01
3.664339041144948905e-01
3.336269310818330558e-01
2.820709186584084982e-01
2.140860195846677194e-01
1.340026366834652094e-01
4.762402891173697639e-02
-3.856967939597974460e-02
-1.183320053022808571e-01
-1.865048785885744520e-01
-2.396577564563761031e-01
-2.763966523215127258e-01
-2.972995063215633227e-01
-3.045144056979625091e-01
-3.011277862815207595e-01
-2.904542710700493413e-01
-2.754078242324906611e-01
-2.580839652670265383e-01
-2.396228809808725324e-01
-2.203488841621268346e-01
-2.001119018991769360e-01
-1.787093552095362914e-01
-1.562538145031586168e-01
-1.333759961779299452e-01
-1.112069061068908654e-01
-9.115200570384812684e-02
-7.453478943399002854e-02
-6.222874933437699818e-02
-5.440303499588333702e-02
-5.047544760623851046e-02
-4.930461922350580506e-02
-4.957805278009772693e-02
-5.028544956904151819e-02
-5.112764963245624433e-02
-5.271404396811172482e-02
-5.644815559926007198e-02
-6.408271357206332675e-02
-7.702210004602746962e-02
-9.553604825872961948e-02
-1.180992751590854706e-01
-1.410701916690622060e-01
-1.588632971584958420e-01
-1.646642276871921329e-01
-1.516064957653840972e-01
-1.142053953793979865e-01
-4.975853952917920486e-02
4.060205773521935457e-02
1.514742880055784113e-01
2.735222756061192473e-01
3.945854131981053059e-01
5.013968011314382522e-01
5.816117046600806084e-01
6.257700749449429667e-01
6.288187716010742445e-01
5.908999935014564997e-01
5.172557414509183493e-01
4.172729762233313711e-01
3.028626441481632736e-01
1.864918610999605209e-01
7.924618140525263588e-02
-1.072241129755965861e-02
-7.909923872260421485e-02
-1.255421873001184296e-01
-1.530875970629856087e-01
-1.670076501089975407e-01
-1.733954255028731239e-01
-1.777853558774222797e-01
-1.840822158576595757e-01
-1.939830070720413302e-01
-2.069560838011225146e-01
-2.207186181770722233e-01
-2.320536748823529560e-01
-2.377512548793083713e-01
-2.354522974228847043e-01
-2.242174947268180674e-01
-2.047203243334983769e-01
-1.790559654101673837e-01
-1.502432710643752112e-01
-1.215576190974993198e-01
-9.585722379816326300e-02
-7.505220770722834112e-02
-5.982081852410968403e-02
-4.961342668221451618e-02
-4.291812106315453373e-02
-3.770681663762407571e-02
-3.194875797914395466e-02
-2.407403746098582542e-02
-1.329156109198627311e-02
2.934759029281294729e-04
1.576880393103195083e-02
3.167179550919286407e-02
4.634206734865650712e-02
5.828472047552882285e-02
6.646527640056659747e-02
7.048026563798670541e-02
7.058025414854339485e-02
6.755665331628751824e-02
6.253215220966118482e-02
5.671130967629910841e-02
5.115015379513063176e-02
4.659238557416683912e-02
4.339875194529262820e-02
4.157100672610306719e-02
4.084878843673676180e-02
4.084199688126557981e-02
4.115613710184104490e-02
4.147429146531152883e-02
4.157489211594921769e-02
4.128517921037876126e-02
4.039086150050787138e-02
3.853779391738854088e-02
3.516741945057914875e-02
2.952240559416679719e-02
2.074307938625333247e-02
8.052206879446133225e-03
-8.999465279522458894e-03
-3.027573772581046430e-02
-5.484634409414812506e-02
-8.088703238953104391e-02
-1.057334217892171857e-01
-1.261073077971371914e-01
-1.385009150775235731e-01
-1.396712949139159721e-01
-1.271706251898497564e-01
-9.982441545891232448e-02
-5.807189733779106328e-02
-4.101302579452889563e-03
5.825587862623726743e-02
1.238689930880793044e-01
1.868493987667455836e-01
2.412157970516650429e-01
2.815915494810406483e-01
3.038377973694711409e-01
3.055373312730846891e-01
2.862676289330219892e-01
2.476326330130853848e-01
1.930562468307051027e-01
1.273710969029868134e-01
5.625993246926647151e-02
-1.437820078086224362e-02
-7.905985614416399798e-02
-1.332741227945553608e-01
-1.739034265357061737e-01
-1.994647630703751118e-01
-2.101496214248718963e-01
-2.076644815220322349e-01
-1.948972186999911593e-01
-1.754557222274369943e-01
-1.531410940107504337e-01
-1.314265825263625787e-01
-1.130130718822103392e-01
-9.952164622728570942e-02
-9.136410951871930253e-02
-8.780566995590373403e-02
-8.720415593904695672e-02
-8.738198748320250009e-02
-8.606570293127394078e-02
-8.131728198462856438e-02
-7.188414281409555295e-02
-5.741040940899386213e-02
-3.847815214202648243e-02
-1.647895370516391095e-02
6.652730958063596267e-03
2.878843809843253942e-02
4.796767602820788123e-02
6.270466069115612773e-02
7.218566954207192299e-02
7.632741184086869191e-02
7.569636530727621992e-02
7.131732899258866332e-02
6.442059143866599169e-02
5.618684593670432437e-02
4.754556660167283400e-02
3.906712646116791698e-02
3.096520972624542539e-02
2.319949591466697464e-02
1.564514200288339568e-02
8.280433020052914428e-03
1.340365907433360704e-03
-4.607476621808923034e-03
-8.689685226517591954e-03
-9.856788321657192209e-03
-7.091567260599590528e-03
3.480613969502818761e-04
1.270544949606235152e-02
2.957276717461336871e-02
4.984812772854121249e-02
7.181877194057126323e-02
9.336109823461487267e-02
1.122243960118151501e-01
1.263480468700098891e-01
1.341552153666390190e-01
1.347708841803552382e-01
1.281272275592815202e-01
1.149413413103968218e-01
9.657449813200123800e-02
7.480335558796719075e-02
5.154772903054562205e-02
2.860417384589861861e-02
7.429372710413661984e-03
-1.099603013959490894e-02
-2.621059564130167469e-02
-3.822840480242337136e-02
-4.743004410209552407e-02
-5.441894566330191668e-02
-5.987543078941126584e-02
-6.443545593769584023e-02
-6.861070132713931180e-02
-7.275422308262885496e-02
-7.706455027795446056e-02
-8.161343350761864068e-02
-8.637990400964487558e-02
-9.127595395742627016e-02
-9.615575933401948605e-02
-1.008087715231892612e-01
-1.049447002602736656e-01
-1.081832008370540721e-01
-1.100616075723140769e-01
-1.100701254765271003e-01
-1.077164844524981790e-01
-1.026130746425286677e-01
-9.457135938144373144e-02
-8.368311745788842293e-02
-7.036735457455967069e-02
-5.536607167822971132e-02
-3.968085039388324908e-02
-2.445374439712835746e-02
-1.080789953714594159e-02
3.268725886670029168e-04
8.372866067706385279e-03
1.321713329292059994e-02
1.525379558746930812e-02
1.534313688896911908e-02
1.468912717941246379e-02
1.465208750605222557e-02
1.652597099229418179e-02
2.131766273252320640e-02
2.956706834146881346e-02
4.124100190612001171e-02
5.572175830071102176e-02
7.189476672714296968e-02
8.832180542399598044e-02
1.034702625133560594e-01
1.159579981042748176e-01
1.247698070528369674e-01
1.294062693301559208e-01
1.299382612564474182e-01
1.269583614784264847e-01
1.214403775023161630e-01
1.145362228774546437e-01
1.073516092432699881e-01
1.007457575607900585e-01
9.519456647230307988e-02
9.074242451559240419e-02
8.704806304584238041e-02
8.350883362279702682e-02
7.943033059540451080e-02
7.419851357439832817e-02
6.741192210619639802e-02
5.894238924892516995e-02
4.891151408687171437e-02
3.759262133947653683e-02
2.526847818106786256e-02
1.208831152797710910e-02
-2.030115045494950560e-03
-1.741762500320536908e-02
-3.457457123903631691e-02
-5.400622889066181154e-02
-7.600849390510761028e-02
-1.004575109670992200e-01
-1.266619844316315413e-01
-1.533271472960325010e-01
-1.786560888864541508e-01
-2.005823380745809514e-01
-2.170947329766843015e-01
-2.265898916656050033e-01
-2.281759372274684006e-01
-2.218572941255625430e-01
-2.085538652047968511e-01
-1.899438550859547936e-01
-1.681596943010991718e-01
-1.454012448324386586e-01
-1.235509416858135701e-01
-1.038761131975054069e-01
-8.688351148720753481e-02
-7.235433089561317532e-02
-5.954329740300876722e-02
-4.748376563562615310e-02
-3.531289244327290300e-02
-2.252462437314383531e-02
-9.076117430373051298e-03
4.688049809591700659e-03
1.827877690267517077e-02
3.140712524254124505e-02
4.432888455057992783e-02
5.807482680162617816e-02
7.446964909758022055e-02
9.588746728290838128e-02
1.247553478412564143e-01
1.628845024805353481e-01
2.107649385147377930e-01
2.669887220081788026e-01
3.279600788256384347e-01
3.880058149046473615e-01
4.399242965157504903e-01
4.759204256856229831e-01
4.887871265038009616e-01
4.731304764336148883e-01
4.264110719835279006e-01
3.495957540674636266e-01
2.472786893393944807e-01
1.272266214623840597e-01
-5.895610163152709138e-04
-1.253181497857691618e-01
-2.366801191448049679e-01
-3.263062836025609204e-01
-3.887377627263249869e-01
-4.219371844273969163e-01
-4.272524730774292512e-01
-4.088760983786784986e-01
-3.729297851440153133e-01
-3.263613565776427583e-01
-2.758573878375470412e-01
-2.269523245290001323e-01
-1.834596313355337238e-01
-1.472773068565980115e-01
-1.185451411544484190e-01
-9.606955250036222638e-02
-7.789448666631937357e-02
-6.188822647398148358e-02
-4.623404754531429406e-02
-2.975013442669315056e-02
-1.201059562687185889e-02
6.716112762670742309e-03
2.566145470928708761e-02
4.381644191656476617e-02
6.018901088871306260e-02
7.400552905134497039e-02
8.482554212527686210e-02
9.256382666367571344e-02
9.743509465494834543e-02
9.985029259428782056e-02
1.002978018475597644e-01
9.923884056607543136e-02
9.703662455271727660e-02
9.392682561341030023e-02
9.002586947118731975e-02
8.536600197779831145e-02
7.994284155704509121e-02
7.376201725010514409e-02
6.687518175526030451e-02
5.940048134742394875e-02
5.152689572415088820e-02
4.350472897006447265e-02
3.562567642898186587e-02
2.819571062780299592e-02
2.150330651399764981e-02
1.578506888340024464e-02
1.119113889151291882e-02
7.753862046796986679e-03
5.364633922335843713e-03
3.764833449780576047e-03
2.556520969801891197e-03
1.236617699951130661e-03
-7.454017287533629132e-04
-3.911104182384640693e-03
-8.667714294863560626e-03
-1.522725931067590507e-02
-2.354521899619180236e-02
-3.329211843897380424e-02
-4.386691588043629270e-02
-5.445409605958425464e-02
