BVP Green Neck Signal
4.056809712420521644e-03
1.329516829873777974e-03
-7.450679393892489788e-04
-2.209753805030984213e-03
-3.107349976713854028e-03
-3.480665664100286456e-03
-3.372510076852700423e-03
-2.825692424633526999e-03
-1.883021917105192483e-03
-5.873077639301171014e-04
1.018640825229267643e-03
2.892014640710531548e-03
4.990004472851262626e-03
7.269801111989030243e-03
9.688595348461406798e-03
1.220357797260596296e-02
1.477193977476028153e-02
1.735087154526192971e-02
1.989756407444848857e-02
2.236920815265752358e-02
2.472299457022662100e-02
2.691644383406058966e-02
2.890994012415369976e-02
3.066533953332071030e-02
3.214451024233457715e-02
3.330932043196826314e-02
3.412163828299472068e-02
3.454333197618690565e-02
3.453626969231776700e-02
3.406231961216026755e-02
3.308334991648735623e-02
3.156576663628357649e-02
2.953735740993396197e-02
2.707003512116922320e-02
2.423668092452928649e-02
2.111017597455407471e-02
1.776340142578353848e-02
1.426923843275757116e-02
1.070056815001612163e-02
7.130271732099111026e-03
3.631230333546479113e-03
2.753455528703863814e-04
-2.887876773219111293e-03
-5.831252362552002619e-03
-8.528561647482271399e-03
-1.095358506036392225e-02
-1.308010303355095980e-02
-1.488189599939739038e-02
-1.633274439025720129e-02
-1.740642863848441621e-02
-1.807672917643304150e-02
-1.831813185573042541e-02
-1.813675598705889735e-02
-1.758243043048571611e-02
-1.670818412307609191e-02
-1.556704600189526277e-02
-1.421204500400842508e-02
-1.269621006648082723e-02
-1.107257012637767428e-02
-9.394154120764167809e-03
-7.713990986705566641e-03
-6.085018934119241357e-03
-4.549403138939896521e-03
-3.128495279668669100e-03
-1.841270885832058633e-03
-7.067054869565126199e-04
2.562253874315120099e-04
1.028546207805531654e-03
1.591281444639095670e-03
1.925455568405727179e-03
2.012093049578968056e-03
1.832235279244577748e-03
1.378624361081437055e-03
6.761209462464224697e-04
-2.449518522161218698e-04
-1.354270921261887389e-03
-2.621513147846519110e-03
-4.016355418925700652e-03
-5.508474621455122788e-03
-7.067547642390419049e-03
-8.663251368687297990e-03
-1.026526268734317786e-02
-1.184581424937027928e-02
-1.338728402096608580e-02
-1.487456700947379154e-02
-1.629255822223659236e-02
-1.762615266659763383e-02
-1.886024534990012047e-02
-1.997973127948720479e-02
-2.096950546270208784e-02
-2.181446290688791520e-02
-2.249949861938789486e-02
-2.301181659463917215e-02
-2.335198617275601254e-02
-2.352537440580545688e-02
-2.353735456438739090e-02
-2.339329991910170034e-02
-2.309858374054827787e-02
-2.265857929932699535e-02
-2.207865986603774200e-02
-2.136419871128042089e-02
-2.052056910565489348e-02
-1.955329198884698735e-02
-1.846916002058044889e-02
-1.727561496244693975e-02
-1.598010377276217267e-02
-1.459007340984188640e-02
-1.311297083200177460e-02
-1.155624299755762113e-02
-9.927336864825128324e-03
-8.233699392120017585e-03
-6.482777537758019001e-03
-4.682219266578215716e-03
-2.842365224095400131e-03
-9.754787520092271340e-04
9.061352955789563545e-04
2.790172064567803846e-03
4.664326700856011136e-03
6.516294350342148253e-03
8.333770158924908716e-03
1.010444927250294701e-02
1.181602683697495666e-02
1.345630770843391638e-02
1.501557542229341874e-02
1.648656763579752632e-02
1.786212680473407352e-02
1.913509538489090861e-02
2.029831583205580700e-02
2.134463060201662390e-02
2.226688215056119718e-02
2.305791293347734389e-02
2.371056540655291575e-02
2.421786739202560004e-02
2.458102741002617456e-02
2.481248192052795676e-02
2.492548141612039442e-02
2.493327638939293531e-02
2.484911733293502373e-02
2.468625473933611092e-02
2.445793910118564465e-02
2.417742091107306576e-02
2.385795066158783242e-02
2.351278607678030860e-02
2.315602245133417322e-02
2.280336201054586343e-02
2.247068887812252516e-02
2.217388717777131132e-02
2.192884103319935399e-02
2.175143456811379911e-02
2.165755190622178569e-02
2.166307717123046317e-02
2.178389448684696361e-02
2.203587711393373630e-02
2.242777402952754809e-02
2.294892138296344974e-02
2.358537956896739063e-02
2.432320898226527847e-02
2.514847001758305570e-02
2.604722306964666473e-02
2.700552853318205493e-02
2.800944680291512015e-02
2.904503827357181323e-02
3.009836333946396339e-02
3.115229216605709672e-02
3.217712734079922199e-02
3.314007716089137356e-02
3.400834992353465869e-02
3.474915392593014296e-02
3.532969746527891974e-02
3.571718883878205464e-02
3.587883634364063407e-02
3.578184827705573057e-02
3.539343293622842362e-02
3.468498929023859645e-02
3.365198449468164571e-02
3.229846182665645909e-02
3.062847506712208095e-02
2.864607799703761115e-02
2.635532439736207322e-02
2.376026804905464682e-02
2.086496273307436589e-02
1.767346223038031641e-02
1.418982032193157918e-02
1.042134053790261597e-02
6.403077426503304970e-03
2.184151190485294700e-03
-2.186208220010176125e-03
-6.658770854841873990e-03
-1.118430676386866253e-02
-1.571358599694910180e-02
-2.019737860394206150e-02
-2.458645463470630552e-02
-2.883158413910058213e-02
-3.288487980260174776e-02
-3.671626717257801820e-02
-4.030830562057920174e-02
-4.364382287157125839e-02
-4.670564665052018977e-02
-4.947660468239181014e-02
-5.193952469215212808e-02
-5.407723440476709664e-02
-5.587256154520266194e-02
-5.730833383842479090e-02
-5.836859936887441730e-02
-5.906465352119103646e-02
-5.943459054380850065e-02
-5.951763534961217184e-02
-5.935301285148739808e-02
-5.897994796231952747e-02
-5.843766559499389418e-02
-5.776539066239582548e-02
-5.700234807741069026e-02
-5.618776275292380884e-02
-5.536058645434508568e-02
-5.454790598671226121e-02
-5.376063265875132002e-02
-5.300851648504812524e-02
-5.230130748018858855e-02
-5.164875565875859387e-02
-5.106061103534405982e-02
-5.054662362453087726e-02
-5.011654344090493013e-02
-4.978012049905215092e-02
-4.954698893296959755e-02
-4.941368740656772868e-02
-4.935180470931344043e-02
-4.933012939150393378e-02
-4.931745000343640273e-02
-4.928255509540804824e-02
-4.919423321771604352e-02
-4.902127292065761033e-02
-4.873246275452991494e-02
-4.829659126963016524e-02
-4.768245911598358033e-02
-4.686640162425632222e-02
-4.584513486446371161e-02
-4.461878706134642103e-02
-4.318748643964510914e-02
-4.155136122410043459e-02
-3.971053963945306992e-02
-3.766514991044369459e-02
-3.541532026181293952e-02
-3.296117891830138702e-02
-3.030285410480542882e-02
-2.744083172978732665e-02
-2.437699604566511899e-02
-2.111357297576774844e-02
-1.765278844342416456e-02
-1.399686837196329435e-02
-1.014803868471408216e-02
-6.108525305005470599e-03
-1.880554156166393178e-03
2.533648838474407416e-03
7.131857755587599559e-03
1.191287913993062386e-02
1.688140310556051141e-02
2.204420079761943221e-02
2.740804576650779714e-02
3.297971156262596848e-02
3.876597173637436750e-02
4.477359983815338423e-02
5.100936941836367589e-02
5.748005402740508779e-02
6.419242721567829102e-02
7.114722684205333769e-02
7.829408251242084282e-02
8.555690041261902745e-02
9.285939118243075052e-02
1.001252654616389265e-01
1.072782338900264143e-01
1.142420071073761006e-01
1.209402957534711220e-01
1.272968104680938239e-01
1.332352618910273567e-01
1.386798773932911844e-01
1.435616741173755262e-01
1.478164525314673294e-01
1.513801130471605083e-01
1.541885560760491436e-01
1.561776820297271773e-01
1.572833913197886901e-01
1.574415843578275687e-01
1.565881615554378936e-01
1.546590233242136347e-01
1.515938467431270920e-01
1.474156447660101288e-01
1.422288523816700734e-01
1.361412984135458304e-01
1.292608116850761379e-01
1.216952210196999007e-01
1.135523552408555237e-01
1.049400431719826471e-01
9.596611363651964821e-02
8.673839545790541783e-02
7.736447062457281476e-02
6.794136668985700789e-02
5.855181866731629103e-02
4.927754550430289704e-02
4.020026614816899629e-02
3.140169954626641224e-02
2.296356464594812366e-02
1.496758039456593317e-02
7.495465739472044128e-03
6.289396280186351600e-04
-5.550843711695299665e-03
-1.102501395583660622e-02
-1.589254210233014691e-02
-2.026551242039622072e-02
-2.425600917925512662e-02
-2.797611664812731797e-02
-3.153791909623275547e-02
-3.505350079279191677e-02
-3.863494600702509219e-02
-4.239433900815257200e-02
-4.644372465201428157e-02
-5.087181882089476109e-02
-5.570469595883835445e-02
-6.095802525251290543e-02
-6.664747588858652150e-02
-7.278871705372656764e-02
-7.939741793460111663e-02
-8.648924771787801224e-02
-9.407987559022512603e-02
-1.021849707383103018e-01
-1.108202023127311669e-01
-1.199659749198765113e-01
-1.294658764926971684e-01
-1.391303194749490268e-01
-1.487697163103884057e-01
-1.581944794427703194e-01
-1.672150213158511423e-01
-1.756417543733866105e-01
-1.832850910591327098e-01
-1.899554438168452875e-01
-1.954632250902803015e-01
-1.996379672719983955e-01
-2.024173110243301932e-01
-2.037768532614543660e-01
-2.036922322390786466e-01
-2.021390862129108235e-01
-1.990930534386587125e-01
-1.945297721720300188e-01
-1.884248806687325029e-01
-1.807540171844740085e-01
-1.714928199749621573e-01
-1.606343133678951041e-01
-1.483175066402597220e-01
-1.347543715083549254e-01
-1.201574199094900403e-01
-1.047391637809726717e-01
-8.871211506011091041e-02
-7.228878568421291673e-02
-5.568168759058680917e-02
-3.910333271654073406e-02
-2.276623299938284467e-02
-6.877795061695503656e-03
8.421016332691185283e-03
2.303572952557527212e-02
3.687282831456858978e-02
4.983879649728228944e-02
6.184011787132747545e-02
7.278327623431535276e-02
8.257475538385700142e-02
9.112103911756358476e-02
9.832861123304625917e-02
1.041083527901076611e-01
1.084670447357825168e-01
1.115045455761556475e-01
1.133245464559680810e-01
1.140307385199605117e-01
1.137268129128737315e-01
1.125164607794484489e-01
1.105033732644254280e-01
1.077912415125454465e-01
1.044837566685492408e-01
1.006844851373837751e-01
9.649174233719810811e-02
9.199678051228632469e-02
8.729035471350841957e-02
8.246321999172435968e-02
7.760613139779411196e-02
7.280984398257764334e-02
6.816511279693493464e-02
6.376269289172595278e-02
5.969333931781068553e-02
5.604753178564261112e-02
5.288610432790316618e-02
5.021419028965230097e-02
4.803077758605782399e-02
4.633485413228750210e-02
4.512540784350914380e-02
4.440142663489055064e-02
4.416189842159949641e-02
4.440581111880379656e-02
4.513215264167127344e-02
4.633987928510826387e-02
4.801013860352205953e-02
5.007660874356092973e-02
5.246514467280920246e-02
5.510160135885125432e-02
5.791183376927144105e-02
6.082169687165425720e-02
6.375704563358366994e-02
6.664373502264456239e-02
6.940762000642076990e-02
7.197455555421512774e-02
7.427126309111564684e-02
7.622780009941493295e-02
7.777502684005004052e-02
7.884380357395812111e-02
7.936499056207664549e-02
7.926944806534276522e-02
7.848803634469375679e-02
7.695161566106702156e-02
7.459104627539953070e-02
7.133718844862899089e-02
6.713809491773296834e-02
6.203827279352333579e-02
5.611584391677243433e-02
4.944896458070906220e-02
4.211579107856235071e-02
3.419447970355939809e-02
2.576318674893003646e-02
1.690006850790117671e-02
7.683281273702789738e-03
-1.809018660438325033e-03
-1.149461103490584564e-02
-2.125743741694403194e-02
-3.096464558540280160e-02
-4.048326224950952318e-02
-4.968031411849405110e-02
-5.842282790158293687e-02
-6.657783030800594470e-02
-7.401234804698979264e-02
-8.059340782776398815e-02
-8.618803635955557541e-02
-9.067106879794488428e-02
-9.401799323336350322e-02
-9.627425674158918145e-02
-9.748672026520957545e-02
-9.770224474681162008e-02
-9.696769112898261100e-02
-9.532992035430983002e-02
-9.283579336538022586e-02
-8.953217110478142726e-02
-8.546591451510006376e-02
-8.068560212107793450e-02
-7.527683704350278393e-02
-6.936091959126605699e-02
-6.306060206288410797e-02
-5.649863675687112619e-02
-4.979777597174353532e-02
-4.308077200601546919e-02
-3.647037715820337922e-02
-3.008934372682141312e-02
-2.406042401038596332e-02
-1.850497384872346052e-02
-1.348647028999752119e-02
-8.991057462416070928e-03
-4.999489509578443000e-03
-1.492520575085474251e-03
1.549095197463331176e-03
4.144603664467298200e-03
6.313250682326770891e-03
8.074282107441219450e-03
9.446943796210836158e-03
1.045056551453378210e-02
1.111329896087199717e-02
1.147975633919567397e-02
1.159635040119313606e-02
1.150949389855279899e-02
1.126559958296305917e-02
1.091108020611227490e-02
1.049234851968888944e-02
1.005581727538122812e-02
9.647899224877718588e-03
9.314972522011299993e-03
9.084855712109988352e-03
8.936257620568764312e-03
8.839857152892649506e-03
8.766333214586717604e-03
8.686364711156007584e-03
8.570630548105587915e-03
8.389809630940490634e-03
8.114580865165770332e-03
7.715623156286521497e-03
7.163615441348825455e-03
6.438512127855974473e-03
5.555708960532106458e-03
4.539065302261065249e-03
3.412440515926356416e-03
2.199693964411862396e-03
9.246850106010558006e-04
-3.887269826221546962e-04
-1.716682652374315349e-03
-3.035322635771623302e-03
-4.320787569930277863e-03
-5.547348978031729078e-03
-6.678873580415106703e-03
-7.675628769106259894e-03
-8.497878470063230036e-03
-9.105886609244370766e-03
-9.459917112607794595e-03
-9.520233906111768424e-03
-9.247100915714456804e-03
-8.600782067374145717e-03
-7.541541287048925124e-03
-6.036894710233737388e-03
-4.114238889658833678e-03
-1.830480702819695452e-03
7.572658946091704018e-04
3.591886946952395267e-03
6.616268498535572001e-03
9.773296593683540590e-03
1.300585727672109657e-02
1.625683659197389372e-02
1.946912058376645827e-02
2.258683714500116582e-02
2.556996991170471314e-02
2.838944894209057337e-02
3.101642182697561187e-02
3.342203615717767584e-02
3.557743952351391514e-02
3.745377951680150391e-02
3.902220372785820263e-02
4.025385974750107093e-02
4.111989516654772359e-02
4.159276774307522906e-02
4.167285173245995761e-02
4.138725891590349509e-02
4.076417530993753369e-02
3.983178693109386270e-02
3.861827979590435472e-02
3.715183992090055620e-02
3.546065332261449238e-02
3.357290601757760562e-02
3.151678402232199055e-02
2.931990094529977192e-02
2.698650895222201238e-02
2.448985519036368450e-02
2.180104718381532108e-02
1.889119245666652513e-02
1.573139853300761087e-02
1.229277293692897927e-02
8.546423192520103199e-03
4.463456823871737519e-03
1.498135507323845525e-05
-4.827667404334061788e-03
-1.006971121290148319e-02
-1.567293429130221447e-02
-2.159441013470026621e-02
-2.779121223825814502e-02
-3.422041409713827420e-02
-4.083908920650480834e-02
-4.760431106151956360e-02
-5.447315315734677088e-02
-6.140268898914817697e-02
-6.834994398060204035e-02
-7.524735805579942094e-02
-8.196279095917061164e-02
-8.835362600867703586e-02
-9.427724652228028357e-02
-9.959103581794341575e-02
-1.041523772136275922e-01
-1.078186540272956517e-01
-1.104472495769090457e-01
-1.118955471804302382e-01
-1.120209303507562898e-01
-1.107171545606164820e-01
-1.080158957753053345e-01
-1.039815156723721684e-01
-9.867837592936518076e-02
-9.217083822383416447e-02
-8.452326423332690020e-02
-7.580001563539359721e-02
-6.606545410758163372e-02
-5.538394132744158677e-02
-4.381983897252049454e-02
-3.145559599258463540e-02
-1.847356673098623711e-02
-5.090410187922216056e-03
8.477183647978742825e-03
2.201252478809158364e-02
3.529892324378644530e-02
4.811968902643826151e-02
6.025813214741726487e-02
7.149756261809818436e-02
8.162129044985157178e-02
9.043113646981938702e-02
9.788048865652244912e-02
1.039969067403782865e-01
1.088084568928629620e-01
1.123432052854505675e-01
1.146292180896167773e-01
1.156945614768361552e-01
1.155673016185838065e-01
1.142755046863348500e-01
1.118472368515639609e-01
1.083168742317879990e-01
1.037985948347567439e-01
9.846129911797016354e-02
9.247495671243717574e-02
8.600953724916478305e-02
7.923501035916216684e-02
7.232134567343614928e-02
6.543851282299600891e-02
5.875648143884856095e-02
5.244522115200248025e-02
4.666999291880119527e-02
4.149687903410220757e-02
3.689760027114827312e-02
3.284013290524763484e-02
2.929245321171012467e-02
2.622253746584420758e-02
2.359836194295951775e-02
2.138790291836467627e-02
1.955913666736918202e-02
1.808003946528180528e-02
1.691808084604145765e-02
1.602036324365474149e-02
1.530713872211348671e-02
1.469682482673042787e-02
1.410783910281806185e-02
1.345859909568910759e-02
1.266752235065605331e-02
1.165302641303165437e-02
1.033352882812833655e-02
8.627447141258773669e-03
6.453734603007407061e-03
3.785088535257204699e-03
6.931023262221457787e-04
-2.739997679939805940e-03
-6.431985139069534840e-03
-1.030063370700918905e-02
-1.426371703959957229e-02
-1.823900879268287867e-02
-2.214428262210023368e-02
-2.589731218369280275e-02
-2.941589274637147408e-02
-3.262836792878550524e-02
-3.549058750086588748e-02
-3.796282823435729453e-02
-4.000536690100534726e-02
-4.157848027255486162e-02
-4.264244512075131971e-02
-4.315753821733971096e-02
-4.308403633406525379e-02
-4.238221624267311805e-02
-4.101235491999566385e-02
-3.896055715409463965e-02
-3.631012155166402078e-02
-3.316720536361673216e-02
-2.963796584086672917e-02
-2.582856023432679102e-02
-2.184514579491098063e-02
-1.779387977353198702e-02
-1.378091942110357473e-02
-9.912421988539494438e-03
-6.294544726752452496e-03
-3.024524030225646861e-03
-1.507036731270819298e-04
2.295236623714810680e-03
4.281631236583873304e-03
5.776814541763162017e-03
6.749120915536354140e-03
7.166884734186701120e-03
6.998440373997646957e-03
6.212122211252573203e-03
4.776264622235031412e-03
2.668464272997300712e-03
-5.847309775211485469e-05
-3.315195333690773311e-03
-7.012107551540852982e-03
-1.105961486802576124e-02
-1.536812239986792838e-02
-1.984803526378969146e-02
-2.440975857651458275e-02
-2.896369745476456634e-02
-3.342025701526320225e-02
-3.769213681938932831e-02
-4.172078047919026977e-02
-4.546720946938289515e-02
-4.889282129325069753e-02
-5.195901345407617083e-02
-5.462718345514194773e-02
-5.685872879973133398e-02
-5.861504699112676797e-02
-5.985753553261142362e-02
-6.054759192746792668e-02
-6.064837503388677276e-02
-6.015971916517955792e-02
-5.911612181157823581e-02
-5.755343896079894578e-02
-5.550752660055736920e-02
-5.301424071856958298e-02
-5.010943730255182360e-02
-4.682897234021954347e-02
-4.320870181928925663e-02
-3.928448172747630446e-02
-3.509211577219453065e-02
-3.066533811260362119e-02
-2.603517279911362128e-02
-2.123246056234885659e-02
-1.628804213293488096e-02
-1.123275824149731067e-02
-6.097449618660388121e-03
-9.129569950501780287e-04
4.289878898709096298e-03
9.480217331991360602e-03
1.462723037872296940e-02
1.970134543555822002e-02
2.467528389461209892e-02
2.952201166615115238e-02
3.421449466044198390e-02
3.872569878775241475e-02
4.302858995834867029e-02
4.709613408249851280e-02
5.090129707046824742e-02
5.441704483252552543e-02
5.761635023706905556e-02
6.047542975519983738e-02
6.297889642175220903e-02
6.511270400710075790e-02
6.686280628162065420e-02
6.821515701568639511e-02
6.915570997967293576e-02
6.967041894395495372e-02
6.974523767890729309e-02
6.936611995490472860e-02
6.851901964412619728e-02
6.719896248964347951e-02
6.543485381106702026e-02
6.326350629451459040e-02
6.072173262610408573e-02
5.784634549195268732e-02
5.467415757817857547e-02
5.124198157089883410e-02
4.758663015623171982e-02
4.374491602029423332e-02
3.975365184920470057e-02
3.565068594277651798e-02
3.147949854702863925e-02
2.728547521820961358e-02
2.311400301936003890e-02
1.901046901352199461e-02
1.502026026373608561e-02
1.118876383304436527e-02
7.561366784487493983e-03
4.183456181107448810e-03
1.100419085944974711e-03
-1.646410544379940492e-03
-4.048336442572405408e-03
-6.112410578446235768e-03
-7.845786625636987088e-03
-9.255618257780900970e-03
-1.034905914851364829e-02
-1.113326297147135442e-02
-1.161538340028980647e-02
-1.180257410860501531e-02
-1.170198877005285479e-02
-1.132241320479278682e-02
-1.069288791819676329e-02
-9.856156108585143946e-03
-8.855219662027272523e-03
-7.733080464592824096e-03
-6.532740402351088632e-03
-5.297201361371779368e-03
-4.069465227724168924e-03
-2.892533887477976174e-03
-1.809409226702479809e-03
-8.625525874960116284e-04
-8.329795134906850529e-05
5.074679240617354942e-04
8.892626280234519663e-04
1.041603749823303377e-03
9.440088787484198201e-04
5.759956040859371329e-04
-8.291848487692156724e-05
-1.053215798853119646e-03
-2.355378748555458489e-03
-4.009274260277122942e-03
-6.010770202738931894e-03
-8.324517044361186627e-03
-1.091307473458319292e-02
-1.373900322284338400e-02
-1.676486245858115065e-02
-1.995321239123485149e-02
-2.326661297024394323e-02
-2.666762414504703776e-02
-3.011880586508271229e-02
-3.358265808833357791e-02
-3.701593205567802608e-02
-4.036494623956245198e-02
-4.357491667811799751e-02
-4.659105940947694952e-02
-4.935859047177052622e-02
-5.182272590313094507e-02
-5.392868174168967410e-02
-5.562167402557829932e-02
-5.684691879292886468e-02
-5.754966991097713175e-02
-5.769203918692104860e-02
-5.727946063793395992e-02
-5.632423120888304519e-02
-5.483864784463494957e-02
-5.283500749005676927e-02
-5.032560709001548255e-02
-4.732274358937806069e-02
-4.383871393301212727e-02
-3.988581506578344621e-02
-3.547634409491418755e-02
-3.063322372336174659e-02
-2.541875756134803419e-02
-1.990437060887222456e-02
-1.416148786593623282e-02
-8.261534332541094552e-03
-2.275935008687834070e-03
3.723885105621453553e-03
9.666501010387889420e-03
1.548048770560937759e-02
2.109442019128489332e-02
2.644159624330325378e-02
3.148079865702226032e-02
3.617936796099431584e-02
4.050465099888937021e-02
4.442399461437737673e-02
4.790474565112773364e-02
5.091425095281160856e-02
5.341985736309831645e-02
5.538891172565781756e-02
5.678876088415986401e-02
5.759215697948837087e-02
5.781501773372525743e-02
5.749394250574480641e-02
5.666566048233492164e-02
5.536690085028304203e-02
5.363439279637701590e-02
5.150486550740453889e-02
4.901504817015336912e-02
4.620166997141175735e-02
4.310146009796640698e-02
3.975157431790177220e-02
3.619441257341838442e-02
3.247589866784283269e-02
2.864202178430386159e-02
2.473877110593214815e-02
2.081213581585774491e-02
1.690810509721069749e-02
1.307266813312173148e-02
9.351814106719522068e-03
5.791532201134800065e-03
2.436974567044784996e-03
-6.837423085730559829e-04
-3.558390456051779924e-03
-6.175349159315264222e-03
-8.522997702287957861e-03
-1.058971536889431742e-02
-1.236388144305850499e-02
-1.383387520870560210e-02
-1.498807594975973267e-02
-1.581486295014532945e-02
-1.630298829163693425e-02
-1.645552377709617875e-02
-1.629404368155321775e-02
-1.584134888784709608e-02
-1.512024027881684121e-02
-1.415351873730168707e-02
-1.296398514614032459e-02
-1.157444038817193738e-02
-1.000768534623556333e-02
-8.286520903170554314e-03
-6.433800851250302821e-03
-4.477335848110297958e-03
-2.453870222470380582e-03
-4.010841582333111218e-04
1.643342160697791772e-03
3.641728550420897121e-03
5.556394827032880637e-03
7.349660806630979940e-03
8.983846305312164632e-03
1.042127113917425477e-02
1.162427372850326907e-02
1.256312474075327312e-02
1.322833146632979712e-02
1.361358165385255503e-02
1.371256305194144126e-02
1.351896340921612469e-02
1.302647047429635746e-02
1.222877199580207561e-02
1.111955572235274678e-02
9.692509402568246293e-03
7.941320980670603727e-03
5.869367978885913634e-03
3.515667285369400083e-03
9.274277124435595333e-04
-1.848141927567877301e-03
-4.763832822341572404e-03
-7.772436159553645224e-03
-1.082674312688183989e-02
-1.387954491200228332e-02
-1.688363270259164717e-02
-1.979179768632658223e-02
-2.255846571600155642e-02
-2.514681542903959149e-02
-2.752294277782096205e-02
-2.965294571963480313e-02
-3.150292221176995838e-02
-3.303897021151620816e-02
-3.422718767616236141e-02
-3.503367256299754623e-02
-3.542452282931085605e-02
-3.536583643239158553e-02
-3.482924308987760814e-02
-3.383018269376535797e-02
-3.240493783039231912e-02
-3.058991821866895167e-02
-2.842153357750474077e-02
-2.593619362581007365e-02
-2.317030808249508078e-02
-2.016028666647042694e-02
-1.694253909664515667e-02
-1.355347509192990005e-02
-1.003004473025273513e-02
-6.415778901093072140e-03
-2.758600677606192451e-03
8.934867915361931201e-04
4.492480357660421329e-03
7.990376872093474248e-03
1.133917318616175715e-02
1.449086615119344994e-02
1.739745261851492059e-02
2.001092943945315464e-02
2.228464326667783241e-02
2.419910296229691934e-02
2.575998283515998008e-02
2.697390691291780621e-02
2.784749922322157095e-02
2.838738379372237122e-02
2.860018465207156760e-02
2.849252582592020494e-02
2.807103134291944260e-02
2.734232523072045035e-02
2.631335868068764017e-02
2.500346383658532193e-02
2.344786354655642446e-02
2.168282350750036502e-02
1.974460941631691821e-02
1.766948696990480391e-02
1.549372186516377245e-02
1.325357979899323760e-02
1.098532646829261487e-02
8.725227569961722246e-03
6.509483356244877283e-03
4.368298369253230048e-03
2.321145652333737527e-03
3.863838120736236411e-04
-1.417628544940911610e-03
-3.072532812122619802e-03
-4.559970382884611165e-03
-5.861582650639993869e-03
-6.959011008801696541e-03
-7.833896850783225035e-03
-8.467902121812571556e-03
-8.851079384878477591e-03
-8.994731987942806289e-03
-8.913476687071181237e-03
-8.621930238329130608e-03
-8.134709397782236354e-03
-7.466430921496066547e-03
-6.631711565536362735e-03
-5.645168085968401556e-03
-4.521417238857891596e-03
-3.275075845919964406e-03
-1.923284255712138895e-03
-4.923942494787524916e-04
9.891412128996835817e-04
2.492869171542890123e-03
3.990336666570587498e-03
5.453090738102241500e-03
6.852678426258095729e-03
8.160646771157610557e-03
9.348542812920501363e-03
1.038791359166632219e-02
1.125358497418074352e-02
1.193780364508333948e-02
1.243857951541926452e-02
1.275392617729990095e-02
1.288185722283679592e-02
1.282038624414130051e-02
1.256752683332484043e-02
1.212129258249884482e-02
1.147969708377486776e-02
1.064075392926411637e-02
9.604881870375699474e-03
8.391390703377047885e-03
7.028514299139532184e-03
5.544539400330979542e-03
3.967752749619935307e-03
2.326441089674714975e-03
6.488911631636338270e-04
-1.036610287244695353e-03
-2.701776518882561401e-03
-4.318320789081347630e-03
-5.858597131691255233e-03
-7.302690623162536032e-03
-8.635811371396262884e-03
-9.843261285581056050e-03
-1.091034227490580294e-02
-1.182235624855939270e-02
-1.256460511573059130e-02
-1.312239078560855331e-02
-1.348101516738201520e-02
-1.362578017023986093e-02
-1.354282998019469726e-02
-1.323506790039191347e-02
-1.272082153714914655e-02
-1.201899323418721341e-02
-1.114848533522693960e-02
-1.012820018398933979e-02
-8.977040124194870033e-03
-7.713907499564513770e-03
-6.357704653819100035e-03
-4.927333930679709401e-03
-3.441726861427082864e-03
-1.920903299787635968e-03
-3.862706275693358806e-04
1.140673635898315158e-03
2.638431971285553398e-03
4.085506859263413927e-03
5.460400780502125406e-03
6.741616215672185594e-03
7.907655645443897527e-03
8.937021550488177465e-03
9.808309966367865368e-03
1.050850039119326750e-02
1.103947426196282000e-02
1.140464708467137621e-02
1.160743436531396638e-02
1.165125160988541436e-02
1.153951432438062030e-02
1.127563801479455376e-02
1.086303818712201254e-02
1.030513034735794191e-02
9.605339323327183668e-03
8.770737000591641991e-03
7.817565203834416637e-03
6.763484194859724005e-03
5.626154235472273155e-03
4.423235587476616153e-03
3.172388512677534484e-03
1.891273272879132224e-03
5.975501298861823993e-04
-6.911206544967644395e-04
-1.957078849247783324e-03
-3.183601778309664860e-03
-4.357363110006493012e-03
-5.465805335825975331e-03
-6.496370947256035339e-03
-7.436502435784440868e-03
-8.273642292899450676e-03
-8.995233010088822187e-03
-9.588717078840474153e-03
-1.004153699064233400e-02
-1.034113523698229273e-02
-1.047698770538900946e-02
-1.044929059558770065e-02
-1.026176025946872253e-02
-9.918115134012613424e-03
-9.422073656199719122e-03
-8.777354263010551938e-03
-7.987675391425577351e-03
-7.056755478425439515e-03
-5.988312960990269107e-03
-4.786066276100687730e-03
-3.455556113054916809e-03
-2.016517917992395430e-03
-4.953453894922174583e-04
1.081529472600494457e-03
2.687674668439809719e-03
4.296658198180060111e-03
5.882048061975300723e-03
7.417412259980427774e-03
8.876318792349494405e-03
1.023233565923682697e-02
1.145950304254701561e-02
1.253750513224058741e-02
1.344974233955007967e-02
1.417968046765928115e-02
1.471078531975218359e-02
1.502652269901274054e-02
1.511035840862505822e-02
1.494575825177305375e-02
1.451618803164072234e-02
1.380511355141205224e-02
1.279732717139954110e-02
1.150372155734552711e-02
9.959051794017863626e-03
8.198950818264534243e-03
6.259051566933888575e-03
4.174986976873222393e-03
1.982389984930853222e-03
-2.831064720452288429e-04
-2.585869457207038043e-03
-4.890266033706172286e-03
-7.160645356296412717e-03
-9.360698573671326350e-03
-1.145328351728878459e-02
-1.340120443362423711e-02
-1.516726556915415358e-02
-1.671427117035396287e-02
-1.800502548369943556e-02
-1.900233275566634572e-02
-1.966899723273039108e-02
-1.996782316136758856e-02
-1.986189325834156888e-02
-1.933870330941737242e-02
-1.842884579694151204e-02
-1.716731108711419193e-02
-1.558908954613605694e-02
-1.372917154020761484e-02
-1.162254743552939076e-02
-9.304207598302322718e-03
-6.809142394726106634e-03
-4.172342191001649284e-03
-1.428806907188943237e-03
1.382878890613894844e-03
4.215182833614892002e-03
7.019199462970117376e-03
9.746023319836131030e-03
1.234674894536950431e-02
1.477247088072638354e-02
1.697428366706420569e-02
1.890328184553908414e-02
2.051055995730758502e-02
2.174721308882412996e-02
2.257773193200531339e-02
2.301476587711621946e-02
2.308178282465100234e-02
2.280225067510381273e-02
2.219963732896892972e-02
2.129741068674028542e-02
2.011903864891211383e-02
1.868798911597855869e-02
1.702772998843408297e-02
1.516172916677224411e-02
1.311603733003873472e-02
1.093021687856186169e-02
8.648233919227718211e-03
6.314056972392935452e-03
3.971654558415372779e-03
1.664995197652483633e-03
-5.619525895382733449e-04
-2.665220282799083892e-03
-4.600839361773247441e-03
-6.324841306102920238e-03
-7.797444307927697826e-03
-9.011211518515159502e-03
-9.973770797384051007e-03
-1.069283411171404949e-02
-1.117611342868507322e-02
-1.143132071547703181e-02
-1.146616793926985740e-02
-1.128836706724347348e-02
-1.090563006657776710e-02
-1.032566890445266172e-02
-9.556850402768714628e-03
-8.615296399743945996e-03
-7.522200393686933467e-03
-6.298843538541386983e-03
-4.966506988251011279e-03
-3.546471896759776071e-03
-2.060019418010876954e-03
-5.284307059482704159e-04
1.027013085484339890e-03
2.585030802342968854e-03
4.124725969694848816e-03
5.632686624747161586e-03
7.102298260633972682e-03
8.527193238767620878e-03
9.901003920560208157e-03
1.121736266742457029e-02
1.246990184077279018e-02
1.365225380201721961e-02
1.475805091257000393e-02
1.578092553384388003e-02
1.671436530774754112e-02
1.754661758521250739e-02
1.825933747284813266e-02
1.883376049419027698e-02
1.925112217277511265e-02
1.949265803213848583e-02
1.953960359581634332e-02
1.937319438734469781e-02
1.897466593025945100e-02
1.832525374809657742e-02
1.740631949491263167e-02
1.621004525568318921e-02
1.474758327752237821e-02
1.303200473674522367e-02
1.107638080966751384e-02
8.893782672604797629e-03
6.497281501873067994e-03
3.899948473787030745e-03
1.114854764662635920e-03
-1.844928449184560660e-03
-4.966294158448791851e-03
-8.223232254557514415e-03
-1.155775737538489167e-02
-1.490701638013817304e-02
-1.820815612802518038e-02
-2.139832347825317005e-02
-2.441466529003110189e-02
-2.719432842256621838e-02
-2.967445973506633444e-02
-3.179220608673925808e-02
-3.348471503992493659e-02
-3.470328093273039594e-02
-3.544967225788457632e-02
-3.573690974104654777e-02
-3.557801410787547053e-02
-3.498600608403033135e-02
-3.397390639517021416e-02
-3.255473576695418203e-02
-3.074151492504167277e-02
-2.854726459509111108e-02
-2.598500550276186538e-02
-2.307667578873501615e-02
-1.989050529348443744e-02
-1.650969866940522196e-02
-1.301746814406066176e-02
-9.497025945015847778e-03
-6.031584299835284629e-03
-2.704355436084050681e-03
4.014484186745464166e-04
3.202615036875391865e-03
5.615932190953985825e-03
7.566723740561318023e-03
9.045718846449571360e-03
1.007389389886179445e-02
1.067238912355096027e-02
1.086234474627033840e-02
1.066490099277327651e-02
1.010119808881298348e-02
9.192376260142725436e-03
7.959575732515785859e-03
6.423936731685437815e-03
4.609325360025296955e-03
2.571590448094419976e-03
3.873555088981529273e-04
-1.866403324943967552e-03
-4.112709920812009090e-03
-6.274588146087242344e-03
-8.275061868149732880e-03
-1.003715495437994265e-02
-1.148389127215833014e-02
-1.253829468886521331e-02
-1.312619536859819386e-02
-1.322741999081749470e-02
-1.287051017737178386e-02
-1.208575402252288870e-02
-1.090343962053218381e-02
-9.353855065661420207e-03
-7.467288452172263918e-03
-5.274027874326360152e-03
-2.804361426385832898e-03
-8.857720261144915938e-05
2.842764626461221668e-03
5.949393973880721595e-03
9.178907090070593383e-03
1.247813584184755478e-02
1.579391209602661050e-02
1.907306771942332904e-02
2.226243457885326849e-02
2.530884454113146997e-02
2.815912947307459141e-02
3.076012124149764271e-02
3.305895776736577502e-02
3.502847477216978339e-02
3.668625147433357547e-02
3.805435347509065341e-02
3.915484637567485937e-02
4.000979577732009101e-02
4.064126728126011417e-02
4.107132648872902081e-02
4.132203900096054899e-02
4.141547041918857558e-02
4.137367620544780966e-02
4.121520538812557116e-02
4.094998040977728543e-02
4.058662089086263053e-02
4.013374645184124984e-02
3.959997671317292550e-02
3.899393129531710661e-02
3.832422981873355450e-02
3.759949190388191947e-02
3.682833717122201145e-02
3.601938489970804569e-02
3.517555137002099930e-02
3.427955916316902801e-02
3.330966339289038319e-02
3.224411917292355906e-02
3.106118161700643573e-02
2.973910583887746581e-02
2.825614695227491452e-02
2.659056007093736629e-02
2.472060030860250349e-02
2.262452277900886891e-02
2.028561045024404944e-02
1.771304570796243191e-02
1.492432657828438557e-02
1.193695496005969282e-02
8.768432752137721511e-03
5.436261853367829050e-03
1.957944162600001696e-03
-1.649018421317634785e-03
-5.367123999535121023e-03
-9.178870673203087457e-03
-1.306583828037834356e-02
-1.700262837904932198e-02
-2.096063820427365720e-02
-2.491124815942758267e-02
-2.882583864788733005e-02
-3.267579007302846145e-02
-3.643248283822859285e-02
-4.006729734686326899e-02
-4.355161400230871810e-02
-4.685681320794060634e-02
-4.995542911938593428e-02
-5.283340826217142183e-02
-5.548535030369628612e-02
-5.790599913039094770e-02
-6.009009862868546631e-02
-6.203239268501105352e-02
-6.372762518579770663e-02
-6.517054001747585312e-02
-6.635588106647576090e-02
-6.727839221922825297e-02
-6.793285667075428524e-02
-6.831480562754953245e-02
-6.842044067105543248e-02
-6.824598710552606806e-02
-6.778767023521550805e-02
-6.704171536437779355e-02
-6.600434779726703505e-02
-6.467179283813753732e-02
-6.304027579124292513e-02
-6.110602196083748244e-02
-5.886546907786571053e-02
-5.632252746185800046e-02
-5.349038314117153525e-02
-5.038280048516753651e-02
-4.701354386320871076e-02
-4.339637764465729269e-02
-3.954506619887622476e-02
-3.547337389522636081e-02
-3.119506510307058778e-02
-2.672390419177115423e-02
-2.207374498634961588e-02
-1.726579439568720273e-02
-1.233397424613590435e-02
-7.313470077732791425e-03
-2.239467430514101992e-03
2.852848155483031240e-03
7.928291140224190403e-03
1.295167598367224018e-02
1.788781714579094559e-02
2.270152908654407900e-02
2.735764606009012320e-02
3.182758114863946941e-02
3.609881606043691821e-02
4.016123990955492579e-02
4.400474181006529262e-02
4.761921087604183839e-02
5.099453622155634969e-02
5.412060696068127230e-02
5.698731220748905896e-02
5.958454107605174604e-02
6.190218289534428486e-02
6.393314083663793890e-02
6.568090905282744640e-02
6.715130687552850475e-02
6.835015363635750518e-02
6.928326866693006181e-02
6.995647129886205240e-02
7.037558086376929922e-02
7.054641669326784659e-02
7.047479811897348900e-02
7.016654447250210425e-02
6.962595943002693188e-02
6.884959931376419262e-02
6.783155154589252944e-02
6.656590249291939598e-02
6.504673852135217649e-02
6.326814599769857439e-02
6.122421128846532168e-02
5.890902076016009403e-02
5.631666077929021325e-02
5.344121771236307050e-02
5.027936131608651965e-02
4.684723309180000711e-02
4.316985232650492194e-02
3.927228351166172499e-02
3.517959113873164040e-02
3.091683969917369962e-02
2.650909368444909556e-02
2.198141758601830642e-02
1.735887589534181735e-02
1.266653310388093923e-02
7.930649712830997039e-03
3.191262227861798272e-03
-1.502765321245370673e-03
-6.102424461366925956e-03
-1.055870671938172710e-02
-1.482260362216617985e-02
-1.884510669659750226e-02
-2.257720746955291236e-02
-2.596989746790907480e-02
-2.897416821854442021e-02
-3.154270524899529388e-02
-3.366007599039182868e-02
-3.533923139564486282e-02
-3.659411377756630057e-02
-3.743866544896712334e-02
-3.788682872265864560e-02
-3.795254591145216794e-02
-3.764975932815910198e-02
-3.699241128559063729e-02
-3.599444409655812305e-02
-3.467034831951722879e-02
-3.305362592868835853e-02
-3.120122070893852767e-02
-2.917152297664563423e-02
-2.702292304818732296e-02
-2.481381123994121779e-02
-2.260257786828535204e-02
-2.044761324959655860e-02
-1.840730770025287427e-02
-1.654005153663193686e-02
-1.490399136507147143e-02
-1.353765880018575896e-02
-1.244589982003798875e-02
-1.163024192608189990e-02
-1.109221261977124881e-02
-1.083333940255980232e-02
-1.085514977590121971e-02
-1.115917124124932158e-02
-1.174693130005785222e-02
-1.261995745378038415e-02
-1.377973720738611893e-02
-1.521497398003870266e-02
-1.688337129137485598e-02
-1.873802532151657568e-02
-2.073203225058550467e-02
-2.281848825870436484e-02
-2.495048952599481645e-02
-2.708113223257884936e-02
-2.916351255857813074e-02
-3.115072668411538598e-02
-3.299587125652896080e-02
-3.465760299438442466e-02
-3.611396965798609887e-02
-3.734724369567119645e-02
-3.833969755577612548e-02
-3.907360368663758549e-02
-3.953123453659224823e-02
-3.969486255397679936e-02
-3.954676018712798696e-02
-3.906919988438245506e-02
-3.824445409407688234e-02
-3.706007579122642948e-02
-3.553040211706098850e-02
-3.367824189445997596e-02
-3.152640726247129405e-02
-2.909771036014282067e-02
-2.641496332652296455e-02
-2.350097830065865298e-02
-2.037856742159824611e-02
-1.707054282838963918e-02
-1.359971666008136584e-02
-9.989706390398098504e-03
-6.270149974040456833e-03
-2.473410824054056868e-03
1.368134199888774820e-03
5.222108238115027307e-03
9.056134430953741848e-03
1.283783591873191056e-02
1.653483584177720123e-02
2.011475734041666061e-02
2.354522355497924366e-02
2.679493079706754544e-02
2.984482337349364175e-02
3.268364076610457553e-02
3.530024766310698586e-02
3.768350875270892048e-02
3.982228872311696644e-02
4.170545226253823817e-02
4.332186405917956562e-02
4.466038880124863220e-02
4.570989117695221232e-02
4.646031426174752899e-02
4.692167524045731675e-02
4.712174423765377179e-02
4.708890333274591555e-02
4.685153460514265150e-02
4.643802013425292474e-02
4.587674199948582610e-02
4.519608228025008556e-02
4.442442305595476620e-02
4.359014640600879925e-02
4.272152468611201126e-02
4.184307916979245617e-02
4.097473666558769378e-02
4.013614340392419183e-02
3.934694561522827927e-02
3.862678952992640302e-02
3.799532137844464225e-02
3.747218739120945080e-02
3.707703379864716459e-02
3.682950683118409174e-02
3.674899990354932311e-02
3.683497864303114655e-02
3.705292026823524265e-02
3.736498325420009592e-02
3.773332607596417698e-02
3.812010720856612994e-02
3.848748512704440461e-02
3.879761830643749937e-02
3.901266522178394036e-02
3.909478434812223985e-02
3.900614666826030669e-02
3.871277036272433719e-02
3.818993548939928623e-02
3.741428764234481369e-02
3.636247241562017007e-02
3.501113540328498752e-02
3.333692219939878021e-02
3.131647839802143701e-02
2.892644959321177128e-02
2.614348137902961638e-02
2.294422065021615303e-02
1.931857088000815334e-02
1.530231935149159797e-02
1.094117365258783815e-02
6.280841371220332800e-03
1.367030095311868405e-03
-3.754552587213848703e-03
-9.038199088435859563e-03
-1.443820182043050251e-02
-1.990885319527497394e-02
-2.540444562504651227e-02
-3.088102355800790427e-02
-3.630344993255600616e-02
-4.163935605717534322e-02
-4.685637422933021379e-02
-5.192213674648400723e-02
-5.680427590610281907e-02
-6.147042400565005948e-02
-6.588821334258992968e-02
-7.002527621438679739e-02
-7.384924491850428097e-02
-7.733096476442234690e-02
-8.046510498675865652e-02
-8.325704327701459462e-02
-8.571220849542597608e-02
-8.783602950222987871e-02
-8.963393515766207575e-02
-9.111135432195878459e-02
-9.227371585535626419e-02
-9.312644861809057928e-02
-9.367498147039825251e-02
-9.392359387310539320e-02
-9.386356700316411672e-02
-9.347796547872086470e-02
-9.274972439004200431e-02
-9.166177882739406924e-02
-9.019706388104355155e-02
-8.833851464125694330e-02
-8.606906619830116678e-02
-8.337165364244189525e-02
-8.022921206394600935e-02
-7.662540896023449510e-02
-7.255739728762740370e-02
-6.803417707590797558e-02
-6.306515136050121206e-02
-5.765972317683144138e-02
-5.182729556032297791e-02
-4.557727154640130868e-02
-3.891905417048852761e-02
-3.186204646801003154e-02
-2.441565147439013483e-02
-1.659011682493059803e-02
-8.424158546655494476e-03
8.870039088161758845e-06
8.633522332915057745e-03
1.737435173543988923e-02
2.615591164727576121e-02
3.490275546904052228e-02
4.353943660134729915e-02
5.199050844481076933e-02
6.018052440004420522e-02
6.803422408364595553e-02
7.549072509768259276e-02
8.251350000303170340e-02
8.906837841172551840e-02
9.512118993580070958e-02
1.006377641872863021e-01
1.055839307782179409e-01
1.099255193206303827e-01
1.136283594265538460e-01
1.166582807080243367e-01
1.189811809025593664e-01
1.205831350083041570e-01
1.214984443446507911e-01
1.217684636124837655e-01
1.214345475126884510e-01
1.205380507461501910e-01
1.191203280137541343e-01
1.172227340163846804e-01
1.148866234549282411e-01
1.121533510302694520e-01
1.090642710397584092e-01
1.056571860274118091e-01
1.019576979627214997e-01
9.798879113573853716e-02
9.377344983650999499e-02
8.933465835508268282e-02
8.469540098150814267e-02
7.987866200583146337e-02
7.490742571810450612e-02
6.980467640837391408e-02
6.459339836668624713e-02
5.929239006464752382e-02
5.389954334347686615e-02
4.840623601889815913e-02
4.280384378987626970e-02
3.708374235537594682e-02
3.123730741436804570e-02
2.525591466581735695e-02
1.913093980868846647e-02
1.285375854195251050e-02
6.415746564571826738e-03
-1.895727568502409473e-04
-6.952881028667945787e-03
-1.385781072274908272e-02
-2.088796170332523142e-02
-2.802693383463789392e-02
-3.525832698091847794e-02
-4.256574100640601183e-02
-4.993277577533961065e-02
-5.734303115195054507e-02
-6.478010700048057735e-02
-7.222565750327979150e-02
-7.963953378035315556e-02
-8.696789824669154401e-02
-9.415670156012577452e-02
-1.011518943784945612e-01
-1.078994273596363407e-01
-1.143452511613823885e-01
-1.204353164415733618e-01
-1.261155738580409524e-01
-1.313319740686235693e-01
-1.360305858145758884e-01
-1.401596285090674909e-01
-1.436691984182150716e-01
-1.465094548091693538e-01
-1.486305569490848633e-01
-1.499826641051151266e-01
-1.505159355444123659e-01
-1.501805305341304131e-01
-1.489266083414218234e-01
-1.467043282334407062e-01
-1.434649757605035436e-01
-1.391972693997354238e-01
-1.339351692768028512e-01
-1.277153411404930994e-01
-1.205744507396000476e-01
-1.125491638229082353e-01
-1.036761461392129435e-01
-9.399206343730098778e-02
-8.353358146595810108e-02
-7.233736597398124357e-02
-6.044043304282630674e-02
-4.790630034256556508e-02
-3.484306978011100092e-02
-2.136311979164082914e-02
-7.578828813347732174e-03
6.397424718589939802e-03
2.045326236799412806e-02
3.447630569867168870e-02
4.835417627444948963e-02
6.197449565913451530e-02
7.522493605896884983e-02
8.800762135068913861e-02
1.002589688379870447e-01
1.119203712233947934e-01
1.229332212094276650e-01
1.332389114986134993e-01
1.427788347934790258e-01
1.514943837965412043e-01
1.593269512103296648e-01
1.662179297373623521e-01
1.721087137478626294e-01
1.769534688630686747e-01
1.807499001291691110e-01
1.835049827692708801e-01
1.852256920064796475e-01
1.859190030638993296e-01
1.855918911646355918e-01
1.842513315317937383e-01
1.819042993884790738e-01
1.785577699577953759e-01
1.742187184628501140e-01
1.688953810697511881e-01
1.626022435666073240e-01
1.553557243851977909e-01
1.471722425265346856e-01
1.380682169916389868e-01
1.280600667815193772e-01
1.171642108971982094e-01
1.053970683396871916e-01
9.277505810999688018e-02
7.931459920915143180e-02
6.503972995759815801e-02
5.003006987172007453e-02
3.438986718386275593e-02
1.822348036327983353e-02
1.635267879247503291e-03
-1.527041179897522735e-02
-3.238920020212978507e-02
-4.961673886093928565e-02
-6.684866930615125657e-02
-8.398063306848869980e-02
-1.009054371362663738e-01
-1.174844131427121713e-01
-1.335592657073761957e-01
-1.489714015564731209e-01
-1.635622274162167322e-01
-1.771731500128053693e-01
-1.896455760724572448e-01
-2.008209123213722525e-01
-2.105405654857637199e-01
-2.186459422918429762e-01
-2.249834382040899194e-01
-2.294893297747933603e-01
-2.321778109588149563e-01
-2.330656563983268259e-01
-2.321696407354984226e-01
-2.295065386125006712e-01
-2.250931246715017486e-01
-2.189461735546749943e-01
-2.110824599041893623e-01
-2.015187583622112255e-01
-1.902739477119241296e-01
-1.774358692722839415e-01
-1.631751590339122482e-01
-1.476673525666354070e-01
-1.310879854402587086e-01
-1.136125932246101200e-01
-9.541671148950010839e-02
-7.667587580473811393e-02
-5.756562174015367184e-02
-3.826148486554943606e-02
-1.893861610962084205e-02
2.563463911725947109e-04
1.922440449253659533e-02
3.787108902522593606e-02
5.610193082002208620e-02
7.382246070768037904e-02
9.093820951897566007e-02
1.073547080846819213e-01
1.229774872355557519e-01
1.377120778023714631e-01
1.514640891278141166e-01
1.641607301432364552e-01
1.757800974663303595e-01
1.863076113739171868e-01
1.957286921428307569e-01
2.040287600499034182e-01
2.111932353719587763e-01
2.172075383858315389e-01
2.220570893683469493e-01
2.257273085963369397e-01
2.282036160271594394e-01
2.294692884782579545e-01
2.295003514998190663e-01
2.282712985429815877e-01
2.257566230588845813e-01
2.219308184986652499e-01
2.167683783134651543e-01
2.102437959544218860e-01
2.023315648726713156e-01
1.930061785193578072e-01
1.822421303456135122e-01
1.700305215005403214e-01
1.564441347720852415e-01
1.415808228302223581e-01
1.255384450123564477e-01
1.084148606558705402e-01
9.030792909817104974e-02
7.131550967664639085e-02
5.153546172868366665e-02
3.106564459169125145e-02
1.000391760304892783e-02
-1.154084837830399168e-02
-3.338010724621815611e-02
-5.529025931584970882e-02
-7.704755315875250199e-02
-9.842823734650393841e-02
-1.192085604506808033e-01
-1.391647710428377538e-01
-1.580731176945584515e-01
-1.757098489773988303e-01
-1.918512134629354327e-01
-2.062825423604913999e-01
-2.188891100101256759e-01
-2.296180882401737122e-01
-2.384175704687348241e-01
-2.452356501139199840e-01
-2.500204205938375002e-01
-2.527199753265907956e-01
-2.532824077302887611e-01
-2.516558112230375399e-01
-2.477882792229448572e-01
-2.416348808647116597e-01
-2.332750160981286458e-01
-2.228951515439612507e-01
-2.106852525030208645e-01
-1.968352842761323107e-01
-1.815352121641019278e-01
-1.649750014677567045e-01
-1.473446174879075310e-01
-1.288340255253637434e-01
-1.096331908809545785e-01
-8.993174014900667812e-02
-6.990835200765931068e-02
-4.972864865683693930e-02
-2.955748777210827696e-02
-9.559727029063600987e-03
1.009977589672840688e-02
2.925616332969859651e-02
4.774457759425738274e-02
6.540016101484193156e-02
8.205805591586376457e-02
9.755410341874359847e-02
1.117749148470018328e-01
1.246913507135354732e-01
1.362822093582135019e-01
1.465262891208873874e-01
1.554023883414212825e-01
1.628893053596772722e-01
1.689658385155098363e-01
1.736107861487830306e-01
1.768029465993532778e-01
1.785212019315550180e-01
1.787666528036518931e-01
1.775923709440100362e-01
1.750588475022392398e-01
1.712265736279474371e-01
1.661560404707468908e-01
1.599077391802436188e-01
1.525421609060515216e-01
1.441197967977781436e-01
1.347011380050295026e-01
1.243466780022535745e-01
1.131306568331584828e-01
1.011734754450751561e-01
8.860521339997436130e-02
7.555595025982599078e-02
6.215576558661396744e-02
4.853473894230347918e-02
3.482294988887883747e-02
2.115047798830984455e-02
7.647402802566361651e-03
-5.556196106367386478e-03
-1.833456735978038904e-02
-3.058308373451933820e-02
-4.220355279548305971e-02
-5.309778364654790112e-02
-6.316758539157421581e-02
-7.231476713443414639e-02
-8.044113797899855867e-02
-8.744850702912979057e-02
-9.323868338870089367e-02
-9.771347616157584348e-02
-1.007902541412676184e-01
-1.024980588913492197e-01
-1.029147126585327060e-01
-1.021182418178982337e-01
-1.001866727445262784e-01
-9.719803181349660759e-02
-9.323034539988744873e-02
-8.836163987878152548e-02
-8.266994162525741208e-02
-7.623327701439255866e-02
-6.913273475476680585e-02
-6.148279674080314033e-02
-5.341848542140392037e-02
-4.507512320363666475e-02
-3.658803249456851758e-02
-2.809253570127572680e-02
-1.972395523082251870e-02
-1.161761349028505100e-02
-3.908832886730481682e-03
3.267064172773461849e-03
9.778840996420772730e-03
1.556730362407217003e-02
2.063488556508714239e-02
2.498600705660045107e-02
2.862508833575354641e-02
3.155654963968219234e-02
3.378481120552617734e-02
3.531429327042426985e-02
3.614941607151371528e-02
3.629459984593350064e-02
3.575535622875470471e-02
3.457199030974478227e-02
3.282602626941484580e-02
3.060137639493382827e-02
2.798195297346790789e-02
2.505166829218665944e-02
2.189443463825688913e-02
1.859416429884510474e-02
1.523476956112135468e-02
1.190016271225218317e-02
8.673956104314612531e-03
5.618400251727873745e-03
2.760539178789547625e-03
1.241294862842241007e-04
-2.267072225006600775e-03
-4.389309354301084223e-03
-6.218825300815163451e-03
-7.731863463767569764e-03
-8.904667242374677411e-03
-9.713480035854529446e-03
-1.013460592049875847e-02
-1.015989014538633793e-02
-9.817269897601919870e-03
-9.139793365456800461e-03
-8.160508737261972304e-03
-6.912464201327992580e-03
-5.428707945966804518e-03
-3.742288159489059410e-03
-1.886253030205118850e-03
1.063492535726393885e-04
2.202470374393440070e-03
4.368385141024314425e-03
6.568112530126873905e-03
8.765202154191280987e-03
1.092320362570535323e-02
1.300566655715998388e-02
1.497614056104307201e-02
1.679817524984476146e-02
1.843532023605498268e-02
1.985112513216195224e-02
2.100913955065604119e-02
2.187774563640940487e-02
2.244873056013513626e-02
2.272095750114526067e-02
2.269329115388661958e-02
2.236459621280640145e-02
2.173373737235135411e-02
2.079957932696896786e-02
1.956098677110560541e-02
1.801682439920919074e-02
1.616595690572635025e-02
1.401141196293826004e-02
1.158585371697796323e-02
8.934799634499014306e-03
6.103819149106185643e-03
3.138481694401447624e-03
8.435670398657807434e-05
-3.012986388533364819e-03
-6.107978149556577210e-03
-9.155049145481253953e-03
-1.210862994270234250e-02
-1.492404913851674494e-02
-1.756633980564383316e-02
-2.000646370099726581e-02
-2.221546748298219853e-02
-2.416439781000145198e-02
-2.582430134046080628e-02
-2.716622473276347760e-02
-2.816121464531451402e-02
-2.878031773651848479e-02
-2.899458066477934165e-02
-2.877693035050381959e-02
-2.813309509286757507e-02
-2.709667621892509343e-02
-2.570216144989680845e-02
-2.398403850700470477e-02
-2.197679511146934106e-02
-1.971491898451085620e-02
-1.723289784735186625e-02
-1.456521942121161151e-02
-1.174637142731300640e-02
-8.810936523230701936e-03
-5.796482679121705422e-03
-2.744091023787915799e-03
3.049559304047668850e-04
3.309375671086120952e-03
6.227885685889191641e-03
9.019203462446905364e-03
1.164204648838922454e-02
1.405513225134994229e-02
1.621717823895928515e-02
1.808714979947319626e-02
1.964132042646941564e-02
2.088429476855607758e-02
2.182329917736854433e-02
2.246556000454176180e-02
2.281830360171002020e-02
2.288875632050833830e-02
2.268414451257142264e-02
2.221169452953410811e-02
2.147863272303084103e-02
2.049221268686525835e-02
1.926642599614274837e-02
1.783080028969142097e-02
1.621704552698939247e-02
1.445687166751452764e-02
1.258198867074660290e-02
1.062410649616282385e-02
8.614935103243100481e-03
6.586184451465269818e-03
4.569564500307125507e-03
2.596784481923792090e-03
6.961568640192213704e-04
-1.115241225312868512e-03
-2.822652464965300350e-03
-4.411319533833389303e-03
-5.866485110810115700e-03
-7.173391874790182449e-03
-8.317282504668076920e-03
-9.283399679337096463e-03
-1.005698607769203029e-02
-1.062328437862643943e-02
-1.097118047831392718e-02
-1.110707010220906947e-02
-1.104260288818303092e-02
-1.078942947650390373e-02
-1.035920050743998830e-02
-9.763566621259354289e-03
-9.014178458229826774e-03
-8.122686658620065225e-03
-7.100741862697955431e-03
-5.959994710731192358e-03
-4.713183749303809233e-03
-3.380729903761224130e-03
-1.986362128400534759e-03
-5.538222929852849429e-04
8.931477327210348392e-04
2.330806078953385867e-03
3.735410875948764250e-03
5.083220253942161843e-03
6.350492343170080142e-03
7.513485273868907022e-03
8.549381538286566357e-03
9.445263035273491342e-03
1.019421821292848182e-02
1.078941985548746881e-02
1.122404074718732873e-02
1.149125367226421120e-02
1.158423141495476365e-02
1.149614675949538027e-02
1.122017249012258362e-02
1.074948139107263778e-02
1.007819642979167034e-02
9.216840883080416533e-03
8.189781696055222285e-03
7.021820060766344879e-03
5.737757169262490756e-03
4.362394213594095876e-03
2.920532385810241816e-03
1.436972877959913006e-03
-6.348311790630931095e-05
-1.556034409739428994e-03
-3.015943575498399466e-03
-4.420451312266565624e-03
-5.749110745443097858e-03
-6.981606143754388177e-03
-8.097621775928263640e-03
-9.076841910692388243e-03
-9.898950816773402495e-03
-1.054363276289921846e-02
-1.099057201779670909e-02
-1.121945285019347940e-02
-1.121017376154749036e-02
-1.095730349558782582e-02
-1.047926049919530207e-02
-9.796650364411376571e-03
-8.930078683277027987e-03
-7.900151047832978252e-03
-6.727473050121068193e-03
-5.432650282182068316e-03
-4.036288336056582590e-03
-2.558992803786715522e-03
-1.021378909841820677e-03
5.536362536709472405e-04
2.137865969076278069e-03
3.702389286545832141e-03
5.218285256249597520e-03
6.656632928359742379e-03
7.988511353046342384e-03
9.184999580481039219e-03
1.021717666083527508e-02
1.105612164427941836e-02
1.167291547661516125e-02
1.204656521793655809e-02
1.218209781735580220e-02
1.208987150682490352e-02
1.178024451829601423e-02
1.126357508372122750e-02
1.055022143505233469e-02
9.650541804241935528e-03
8.574894423241479630e-03
7.333637524003818256e-03
5.937129338480680307e-03
4.398813697554022038e-03
2.746850798026040548e-03
1.013783323341301956e-03
-7.678453018832736600e-04
-2.565491653032612833e-03
-4.346612305491664649e-03
-6.078663834643475636e-03
-7.729102815873576879e-03
-9.265385824565104678e-03
-1.065496943610298730e-02
-1.186756467803912196e-02
-1.288867441502028303e-02
-1.371055281420152649e-02
-1.432547948310727501e-02
-1.472573402926133194e-02
-1.490359606018822752e-02
-1.485134518341206175e-02
-1.456126100645718964e-02
-1.402562313684762273e-02
-1.323671118210797276e-02
-1.218864883367687738e-02
-1.089513221458476150e-02
-9.381652176268856155e-03
-7.673861911862010082e-03
-5.797414614498926436e-03
-3.777963477312515968e-03
-1.641161693435486471e-03
5.873375439971490353e-04
2.881881041853475746e-03
5.216815606998364413e-03
7.566346121066521227e-03
9.902253679332635034e-03
1.219428702120704811e-02
1.441213200910665751e-02
1.652547450544517710e-02
1.850400037263870076e-02
2.031739547310314198e-02
2.193534566925249216e-02
2.332753682350317825e-02
2.446365479826950393e-02
2.531384254857253768e-02
2.586223098571656040e-02
2.610919448865170120e-02
2.605601879387732175e-02
2.570398963789235353e-02
2.505439275719616166e-02
2.410851388828738964e-02
2.286763876766582243e-02
2.133305313183028393e-02
1.950604271727918518e-02
1.738811640374895301e-02
1.499577022266156828e-02
1.236969929498428142e-02
9.552797907972797667e-03
6.587960348882555134e-03
3.518080904972188585e-03
3.860538634960623307e-04
-2.765226488287072203e-03
-5.892865863121810738e-03
-8.953969973752709532e-03
-1.190565868020611665e-02
-1.470831994106262114e-02
-1.732976995959887440e-02
-1.973885156001867897e-02
-2.190440756652936583e-02
-2.379528080333505324e-02
-2.538031409464220484e-02
-2.662835026465685748e-02
-2.750823213758378169e-02
-2.798880253762922946e-02
-2.803890792423668898e-02
-2.764106347179470444e-02
-2.682231918881779545e-02
-2.561878000833102756e-02
-2.406655086335805771e-02
-2.220173668692448574e-02
-2.006044241205429818e-02
-1.767877297177109647e-02
-1.509283329910105984e-02
-1.233872832706786604e-02
-9.452562988694960394e-03
-6.472489654061842554e-03
-3.446351002298939526e-03
-4.248537206312757823e-04
2.541295076789162541e-03
5.401388275810312112e-03
8.104718762277071664e-03
1.060057942203826431e-02
1.283826314093905289e-02
1.476706280482729949e-02
1.633627129955044291e-02
1.750169626651489757e-02
1.826441245074222897e-02
1.864470849534118763e-02
1.866294288363334539e-02
1.833947409894058980e-02
1.769466062458499925e-02
1.674886094388837801e-02
1.552243354017208803e-02
1.403573689675885472e-02
1.230912949696948838e-02
1.036469440868473778e-02
8.242655491807983001e-03
5.994093968095318137e-03
3.670237526475171423e-03
1.322313855872744946e-03
-9.984493547834647539e-04
-3.240824416567476916e-03
-5.353583640553199324e-03
-7.285499337812303272e-03
-8.985343819418747935e-03
-1.040363791429200005e-02
-1.152044947066675588e-02
-1.234045706758925276e-02
-1.286909019106139904e-02
-1.311177832708603636e-02
-1.307395096166559349e-02
-1.276103758080258596e-02
-1.217846767049929682e-02
-1.133167071675863537e-02
-1.022607620558292803e-02
-8.867591735408381082e-03
-7.276560314549485042e-03
-5.489976819830459306e-03
-3.545760369382298851e-03
-1.481830081334107804e-03
6.638949261851729861e-04
2.853495535044296792e-03
5.049052627114301514e-03
7.212647084266237199e-03
9.306359788368842589e-03
1.129242821054549442e-02
1.314340686775786193e-02
1.484839546753806069e-02
1.639798370996917165e-02
1.778276129513266940e-02
1.899331792311208592e-02
2.002024329398913866e-02
2.085412710784685306e-02
2.148555906476797353e-02
2.190512886483463040e-02
2.210345352293956872e-02
2.207725262500243729e-02
2.183701781865867581e-02
2.139512868748544641e-02
2.076396481506043168e-02
1.995590578496085968e-02
1.898333118076371215e-02
1.785862058604704636e-02
1.659415358438742424e-02
1.520230975936310951e-02
1.369546901751712668e-02
1.208710778844030928e-02
1.039424834653988709e-02
8.634628386805074177e-03
6.825985604227528813e-03
4.986057693797037518e-03
3.132582350503343004e-03
1.283297269338172291e-03
-5.440598547093757065e-04
-2.331751326647592618e-03
-4.062039451486731609e-03
-5.717463530257151441e-03
-7.281863836724758454e-03
-8.739462253955262994e-03
-1.007448071484556666e-02
-1.127114115229116593e-02
-1.231366549918935099e-02
-1.318627568843582822e-02
-1.387319365292744369e-02
-1.435864132556079198e-02
-1.462684063923196630e-02
-1.466479806414294762e-02
-1.447871276843247339e-02
-1.408287195841504552e-02
-1.349159118299874185e-02
-1.271918599109231676e-02
-1.177997193160390879e-02
-1.068826455344144312e-02
-9.458379405514010657e-03
-8.104632036729080349e-03
-6.641337995995939131e-03
-5.083998897803952005e-03
-3.460481483946788086e-03
-1.806002527081581634e-03
-1.558759621882574355e-04
1.454584275750924350e-03
2.990064251755474717e-03
4.415250030844804913e-03
5.694827678036811988e-03
6.793483258351299889e-03
7.675902836806407226e-03
8.307960251851782135e-03
8.675390507243484900e-03
8.780361729116678907e-03
8.625536483947680161e-03
8.213577338212429968e-03
7.547146858387355356e-03
6.628907610948121809e-03
5.461522162371518913e-03
4.047653079133401235e-03
2.389962927709268596e-03
4.917436853425945220e-04
-1.624962004709657338e-03
-3.916625249522126886e-03
-6.338537445887519606e-03
-8.845989990598733532e-03
-1.139427428044595576e-02
-1.393868171222296254e-02
-1.643450368271991840e-02
-1.883703158872972183e-02
-2.110155682704514465e-02
-2.318352505627976901e-02
-2.504835394577955079e-02
-2.667734435994057254e-02
-2.805321456243466474e-02
-2.915868281693574995e-02
-2.997646738711600908e-02
-3.048928653664885469e-02
-3.067985852920727258e-02
-3.053090162846408551e-02
-3.002513409809215092e-02
-2.914534078861740971e-02
-2.788870133167520651e-02
-2.628464980906393758e-02
-2.436700597652964595e-02
-2.216958958981589400e-02
-1.972622040466914112e-02
-1.707071817683354989e-02
-1.423690266205297240e-02
-1.125859361607433815e-02
-8.169610794641554707e-03
-5.003773830553842270e-03
-1.794524011199222571e-03
1.425911667836554479e-03
4.625549330247053295e-03
7.772405099729283451e-03
1.083449509998018166e-02
1.377983545469342076e-02
1.657644228756694274e-02
1.919233172229460258e-02
2.159551988257329969e-02
2.375402289209960910e-02
2.564120295877706998e-02
2.725533951209498790e-02
2.860196572395655445e-02
2.968661559040348952e-02
3.051482310747712784e-02
3.109212227121799232e-02
3.142404707766749405e-02
3.151613152286673880e-02
3.137390960285674213e-02
3.100291531367851960e-02
3.041085283483548410e-02
2.962026461381721959e-02
2.865990123492777666e-02
2.755853424331266774e-02
2.634493518411595847e-02
2.504787560248333128e-02
2.369612704355919877e-02
2.231846105248788681e-02
2.094364917441520965e-02
1.960046295448549664e-02
1.831684808313244900e-02
1.711221685200936191e-02
1.600094384834475914e-02
1.499733841371450258e-02
1.411570988969323981e-02
1.337036761785579536e-02
1.277562093977776918e-02
1.234577919703380711e-02
1.209515173119928358e-02
1.203804788384908037e-02
1.218751373305793431e-02
1.253569224281936116e-02
1.305754610795012774e-02
1.372752831926357837e-02
1.452009186757359689e-02
1.540968974369423539e-02
1.637077493843858145e-02
1.737780044262066115e-02
1.840521924705456475e-02
1.942748434255327575e-02
2.041901906833767932e-02
2.135337510186200924e-02
2.220311191276400434e-02
2.294073508300049219e-02
2.353875019452751627e-02
2.396966282930207068e-02
2.420597856928043135e-02
2.422020299641935645e-02
2.398484169267530927e-02
2.347240024000503064e-02
2.265563143014995978e-02
2.152296972693569857e-02
2.008765740365774100e-02
1.836513041408808708e-02
1.637082471200062075e-02
1.412017625116745480e-02
1.162862098536031515e-02
8.911594868353640841e-03
5.984533853918172497e-03
2.862873895828659237e-03
-4.379318784273325202e-04
-3.898836271724900101e-03
-7.492796084623585401e-03
-1.119168973738979972e-02
-1.496739565028478575e-02
-1.879179224357373224e-02
-2.263675793752187304e-02
-2.647417115239035848e-02
-3.027591030844576508e-02
-3.401385382594927093e-02
-3.765988084242726658e-02
-4.118787826786973055e-02
-4.457812866063246005e-02
-4.781218525094901167e-02
-5.087160126905266450e-02
-5.373792994517349875e-02
-5.639272450954580657e-02
-5.881753819239992492e-02
-6.099392422396911206e-02
-6.290343583448620990e-02
-6.452762625418217990e-02
-6.584835035756220201e-02
-6.684885819686223196e-02
-6.751280291384502419e-02
-6.782383768982226668e-02
-6.776561570610541152e-02
-6.732179014400632711e-02
-6.647601418483631286e-02
-6.521194100990766740e-02
-6.351322380053113503e-02
-6.136351573801962500e-02
-5.875086561638729471e-02
-5.569313588565327072e-02
-5.222057298937802378e-02
-4.836346363318509006e-02
-4.415209452270325158e-02
-3.961675236355718943e-02
-3.478772386137115452e-02
-2.969529572177456722e-02
-2.436975465038985697e-02
-1.884138735284681190e-02
-1.314232451201255598e-02
-7.323581623897259391e-03
-1.447246563506636007e-03
4.424452323411478746e-03
1.022928669110924858e-02
1.590502819383263558e-02
2.138944848583574851e-02
2.662031922136476325e-02
3.153541205467180752e-02
3.607249864000851292e-02
4.017167453044673264e-02
4.381108910918594945e-02
4.699996023943858042e-02
4.974841457519383475e-02
5.206657877044026939e-02
5.396457947916408898e-02
5.545254335535446805e-02
5.654059705299818717e-02
5.723886722608367839e-02
5.755748052859879088e-02
5.750718575391410708e-02
5.711678009099760422e-02
5.643546892442834195e-02
5.551355397325085511e-02
5.440133695650857526e-02
5.314911959324633561e-02
5.180720360250781753e-02
5.042589070333657053e-02
4.905548261477762212e-02
4.774628105587409160e-02
4.654817898870385051e-02
4.548562073117272397e-02
4.454306498566471678e-02
4.370146690861444194e-02
4.294178165645522877e-02
4.224496438562154454e-02
4.159197025254705166e-02
4.096375441366546105e-02
4.034127202541117063e-02
3.970547824421787053e-02
3.903731150713948828e-02
3.831432144791862421e-02
3.750657190404611818e-02
3.658312536921109331e-02
3.551304433710185393e-02
3.426539130140649619e-02
3.280922875581445547e-02
3.111361919401324505e-02
2.914762510969262643e-02
2.688030899654061598e-02
2.428073922449767996e-02
2.133299598858335450e-02
1.806862104276922218e-02
1.452851323754282380e-02
1.075357142338825150e-02
6.784694450789262657e-03
2.662781170233893303e-03
-1.571269567794035885e-03
-5.876558912810863830e-03
-1.021218801432831683e-02
-1.453725802186425081e-02
-1.881102347139133185e-02
-2.299344293270997458e-02
-2.704467684606431596e-02
-3.092488566865749661e-02
-3.459422985769828457e-02
-3.801286987039009108e-02
-4.114096616394029987e-02
-4.393867919555589224e-02
-4.636616942244087963e-02
-4.838359730180237517e-02
-4.995689959058141616e-02
-5.109087814581196596e-02
-5.180636244984529459e-02
-5.212423212930310246e-02
-5.206536681080793649e-02
-5.165064612098180935e-02
-5.090094968644723328e-02
-4.983715713382592255e-02
-4.848014808974085432e-02
-4.685080218081391634e-02
-4.497046625072022297e-02
-4.286522983254317798e-02
-4.056394410566037390e-02
-3.809549456203031870e-02
-3.548876669360909869e-02
-3.277264599235261977e-02
-2.997601795021969176e-02
-2.712776805916624831e-02
-2.425678181114813287e-02
-2.139194469812428362e-02
-1.856152914792474559e-02
-1.578387255895010235e-02
-1.306925497523940029e-02
-1.042772408520467597e-02
-7.869327577260764109e-03
-5.404113139818807893e-03
-3.042128461293522757e-03
-7.934212300969650192e-04
1.331960865358637483e-03
3.323970136658815650e-03
5.172639143462800376e-03
6.870298019561620062e-03
8.411857658021963322e-03
9.792366076969330480e-03
1.100687129452776469e-02
1.205042132882282874e-02
1.291806419797982691e-02
1.360484792012318402e-02
1.410582051337841251e-02
1.441602999587019047e-02
1.453066667423232559e-02
1.445361668854621036e-02
1.420233667034048394e-02
1.379546141858195053e-02
1.325162573223786881e-02
1.258946441027509154e-02
1.182761225166029627e-02
1.098470405536099842e-02
1.007937462034358064e-02
9.130258745575662443e-03
8.156006131405964601e-03
7.178192987582784554e-03
6.224814269010711665e-03
5.324716529853753058e-03
4.506746324275981777e-03
3.799750206442346900e-03
3.232574730516716774e-03
2.834066450663857463e-03
2.633071921047890583e-03
2.658437695833225280e-03
2.939006032184253610e-03
3.493569789370546980e-03
4.309387037330673735e-03
5.367546529957863133e-03
6.649137021145683571e-03
8.135247264786298754e-03
9.806966014773828288e-03
1.164538202500015919e-02
1.363158404935892534e-02
1.574666084174398267e-02
1.797170115604690074e-02
2.028336815796645889e-02
2.263816685382241331e-02
2.498686590597982982e-02
2.728023356777798183e-02
2.946903809255285375e-02
3.150404773364290367e-02
3.333603074438638153e-02
3.491575537811961866e-02
3.619398988818130214e-02
3.712150252790818311e-02
3.765412226383972605e-02
3.778145662490210721e-02
3.750694278253050018e-02
3.683405951840545284e-02
3.576628561420694408e-02
3.430709985161615322e-02
3.245998101231247629e-02
3.022840787797765119e-02
2.761585923029150763e-02
2.462581385093334449e-02
2.126507563352712793e-02
1.757390424930188252e-02
1.361190696957161918e-02
9.438926443394739588e-03
5.114805319829338406e-03
6.993862479381699696e-04
-3.747488123222199579e-03
-8.165975144588940443e-03
-1.249623216710396903e-02
-1.667841654170908877e-02
-2.065371826888225473e-02
-2.437988947485142388e-02
-2.782802487282299078e-02
-3.096959847181680880e-02
-3.377608428085741854e-02
-3.621895630896513479e-02
-3.826968856516333589e-02
-3.989975505847484505e-02
-4.108062979792080627e-02
-4.178378679252437583e-02
-4.198178978588264221e-02
-4.167799696266673293e-02
-4.091012727150511452e-02
-3.971770534617333898e-02
-3.814025582044562601e-02
-3.621730332809808967e-02
-3.398837250290526885e-02
-3.149298797864122368e-02
-2.877067438908275168e-02
-2.586095636800403094e-02
-2.280337740876675276e-02
-1.963861258000397861e-02
-1.640909089200986298e-02
-1.315739223178549744e-02
-9.926096486328523164e-03
-6.757783542636609103e-03
-3.695033287710810816e-03
-7.804256085477559793e-04
1.943459607851683296e-03
4.434042474489792093e-03
6.648819395684010120e-03
8.559810696192259385e-03
1.017066646682124494e-02
1.148919891948687461e-02
1.252322026610682391e-02
1.328054271859835898e-02
1.376897848887799307e-02
1.399633978886308944e-02
1.397043883047064360e-02
1.369908782561773432e-02
1.319010136009887875e-02
1.245639128261595736e-02
1.152674508500168248e-02
1.043303219794529044e-02
9.207122052137219764e-03
7.880884078266273129e-03
6.486187707023052113e-03
5.054902369096749698e-03
3.618897495176512033e-03
2.210042515953016592e-03
8.602068621154008478e-04
-4.014676865948096224e-04
-1.558168789179894577e-03
-2.596566119778180668e-03
-3.503329561035382986e-03
-4.265128995598355469e-03
-4.868634306113740415e-03
-5.300515375227569936e-03
-5.547442085586596489e-03
-5.596084319837104151e-03
-5.433111960625670173e-03
-5.048065503066606619e-03
-4.449493091074459283e-03
-3.653668875190527795e-03
-2.676889346468249060e-03
-1.535450995960244234e-03
-2.456503147188933422e-04
1.176216206202011522e-03
2.713852075750039158e-03
4.350960802872920127e-03
6.071245896516617307e-03
7.857606229992798730e-03
9.684915901717314202e-03
1.152344009308947995e-02
1.334338909450044804e-02
1.511497319633944153e-02
1.680840268899821272e-02
1.839388786286606445e-02
1.984163900833414707e-02
2.112186641579338539e-02
2.220478037563339280e-02
2.306151091350549381e-02
2.367778773671744275e-02
2.405102389115344741e-02
2.417895979515716567e-02
2.405933586707214786e-02
2.368989252524215591e-02
2.306837018801056668e-02
2.219250927372147519e-02
2.106005020071791481e-02
1.966873338734434137e-02
1.801696753071025184e-02
1.612180185230545001e-02
1.402094706497858737e-02
1.175318769670907586e-02
9.357308275479411797e-03
6.872093329269688897e-03
4.336327386059879441e-03
1.788794973832671855e-03
-7.317193794328454189e-04
-3.186431145753989159e-03
-5.536662510471820550e-03
-7.750022703850162689e-03
-9.803799893452926420e-03
-1.167610717925195336e-02
-1.334505766121884228e-02
-1.478876443932343465e-02
-1.598534061353778027e-02
-1.691289928383206062e-02
-1.754955355017777385e-02
-1.787341651254602259e-02
-1.786268891451834109e-02
-1.751175221895373210e-02
-1.684997637639140330e-02
-1.591129770702749691e-02
-1.472965253105775960e-02
-1.333897716867926513e-02
-1.177320794008725711e-02
-1.006628116547906952e-02
-8.252133165050384855e-03
-6.364700258996736429e-03
-4.437918692452422556e-03
-2.505576323348327090e-03
-6.010022996283932804e-04
1.242562594492839512e-03
2.991877574803480412e-03
4.613701857089099780e-03
6.074794657137163809e-03
7.341915190734909710e-03
8.381822673668250234e-03
9.161276321724719229e-03
9.647035350690582461e-03
9.813906958566345068e-03
9.672799186728968379e-03
9.244738334900755306e-03
8.550751205708237435e-03
7.611864601777578593e-03
6.449105325735985175e-03
5.083500180209178654e-03
3.536075967824672903e-03
1.827859491208551086e-03
-2.012244701333695818e-05
-1.985350940360456479e-03
-4.035505815226488741e-03
-6.134311754301052105e-03
-8.245482456509752034e-03
-1.033273162077821307e-02
-1.235977294602983237e-02
-1.429032013119091102e-02
-1.608808687518495720e-02
-1.771678687693756249e-02
-1.914013383537408949e-02
-2.032397152078795760e-02
-2.125520117615766272e-02
-2.193273506085855612e-02
-2.235562544308406299e-02
-2.252292459102838568e-02
-2.243368477288531712e-02
-2.208695825684884803e-02
-2.148179731111263605e-02
-2.061725420387101534e-02
-1.949238120331725152e-02
-1.810706585249173550e-02
-1.647431904522623364e-02
-1.461758365775308287e-02
-1.256059066315459889e-02
-1.032707103451033399e-02
-7.940755744902876223e-03
-5.425375767412456141e-03
-2.804662075119116957e-03
-1.023456411057264460e-04
2.657842561547641390e-03
5.452152129829518704e-03
8.256297662451488745e-03
1.104540468464041900e-02
1.379456844520273416e-02
1.647888419294785134e-02
1.907344717668509396e-02
2.155335264522102029e-02
2.389369584736580551e-02
2.606957203192618311e-02
2.805607644771145048e-02
2.982841220632729065e-02
3.136802324393727498e-02
3.266589626878531327e-02
3.371382380680412738e-02
3.450359838392792755e-02
3.502701252609052851e-02
3.527585875922521069e-02
3.524192960926592066e-02
3.491701760214613315e-02
3.429291526379977390e-02
3.336147411408659641e-02
3.212511220479461610e-02
3.060893465457118628e-02
2.884098318266208050e-02
2.684929950831503598e-02
2.466192535077511502e-02
2.230690242929034978e-02
1.981227246310644091e-02
1.720607717146891910e-02
1.451635827362609925e-02
1.177115797296755459e-02
8.999401861102557937e-03
6.232725995287588180e-03
3.503284540901603194e-03
8.432316633264649950e-04
-1.715278472058886106e-03
-4.140091699875373191e-03
-6.399053854741341973e-03
-8.460010771278461683e-03
-1.029080828410534193e-02
-1.185929222784283879e-02
-1.314046198798385010e-02
-1.414116104789520101e-02
-1.487709050101450325e-02
-1.536395180134693048e-02
-1.561744640289848204e-02
-1.565327575967482079e-02
-1.548714132568163038e-02
-1.513474455492464996e-02
-1.461178690140934461e-02
-1.393396981914179697e-02
-1.311862702243081664e-02
-1.219372892282194129e-02
-1.119150717854772333e-02
-1.014420480498761518e-02
-9.084064817522198576e-03
-8.043330231530579008e-03
-7.054244062393331266e-03
-6.149049325489914716e-03
-5.359989036199898013e-03
-4.719306209903684213e-03
-4.256839052951969307e-03
-3.978860045887593067e-03
-3.878292347010834761e-03
-3.947906844147374555e-03
-4.180474425122789398e-03
-4.568765977762701339e-03
-5.105552389892955775e-03
-5.783604549338794421e-03
-6.595693343926321145e-03
-7.534589661480586842e-03
-8.592489574597824212e-03
-9.752650019950096991e-03
-1.099126939114042009e-02
-1.228435397532658645e-02
-1.360791005966460396e-02
-1.493794393131185616e-02
-1.625046187742573006e-02
-1.752147018516222315e-02
-1.872697514167915092e-02
-1.984298303413258371e-02
-2.084576868392834861e-02
-2.171890640734504621e-02
-2.245395458319280127e-02
-2.304287738304608424e-02
-2.347763897847912618e-02
-2.375020354106573486e-02
-2.385253524238021769e-02
-2.377659825399662877e-02
-2.351435674748914018e-02
-2.305777489443168113e-02
-2.239889557809213519e-02
-2.153423486324216110e-02
-2.046710245545359241e-02
-1.920137642114506243e-02
-1.774093482673491304e-02
-1.608965573864309592e-02
-1.425141722328734407e-02
-1.223009734708786246e-02
-1.002957417646293745e-02
-7.653725777830598653e-03
-5.106475766746240361e-03
-2.399665973037083243e-03
4.379808986060408464e-04
3.375575060693082521e-03
6.382226725738085471e-03
9.427046106250874108e-03
1.247914341474448859e-02
1.550762886373197383e-02
1.848161266572314471e-02
2.137020503323206269e-02
2.414251571348133285e-02
2.676686893264928341e-02
2.920919668201342814e-02
3.143497720104688337e-02
3.340968872922542993e-02
3.509880950602446703e-02
3.646781777091766263e-02
3.748219176338082881e-02
3.810740972288809147e-02
3.830894988891476310e-02
3.805229050093551779e-02
3.731388852709470461e-02
3.611870044121582440e-02
3.450507092139589588e-02
3.251134508530398315e-02
3.017586805060868196e-02
2.753698493498111036e-02
2.463304085608886834e-02
2.150238093160349376e-02
1.818335027919344704e-02
1.471429401652691454e-02
1.113643172131790690e-02
7.509565834901411191e-03
3.900889553955998960e-03
3.776149658341615293e-04
-2.993045842116650885e-03
-6.143880782544113711e-03
-9.007677768099556573e-03
-1.151722471143388528e-02
-1.360530952519540052e-02
-1.520472012203561915e-02
-1.625406886335068954e-02
-1.674854677778732023e-02
-1.671517465395854982e-02
-1.618132848332568333e-02
-1.517438425734960947e-02
-1.372171796749231849e-02
-1.185070560521479799e-02
-9.588723161977428383e-03
-6.963146629243093313e-03
-4.001351998472317192e-03
-7.324095739427059163e-04
2.788529008186167984e-03
6.485854941019482053e-03
1.028341077978793192e-02
1.410503907972615253e-02
1.787458239606882007e-02
2.151588328404657052e-02
2.495278429889529609e-02
2.810912799584586869e-02
3.090875693013291070e-02
3.327696058599391438e-02
3.517785987136047565e-02
3.661776757608886657e-02
3.760511696237101714e-02
3.814834129240046029e-02
3.825587382837010442e-02
3.793614783247283018e-02
3.719759656690169169e-02
3.604865329384914635e-02
3.449775127550899073e-02
3.255365966523361687e-02
3.024389956194508192e-02
2.762427912805388852e-02
2.475295105917206528e-02
2.168806805091476331e-02
1.848778279889295301e-02
1.521024799872201967e-02
1.191361634601393812e-02
8.656040536380664105e-03
5.495673265437628005e-03
2.490563823864666917e-03
-3.186919107798205555e-04
-2.928444548384341508e-03
-5.339748630697669501e-03
-7.553658699466041931e-03
-9.571229296438310205e-03
-1.139351496336302866e-02
-1.302157024198686425e-02
-1.445644967405892295e-02
-1.569920780132613713e-02
-1.675090337977919522e-02
-1.761919315363638661e-02
-1.833167796483191336e-02
-1.891971239637319988e-02
-1.941465103126674419e-02
-1.984784845251966884e-02
-2.025065924313902352e-02
-2.065443798613143464e-02
-2.109053926450394148e-02
-2.159031766126362842e-02
-2.218512775941707676e-02
-2.290016256554780819e-02
-2.373360312946363668e-02
-2.467623041454876029e-02
-2.571882519167427439e-02
-2.685216823171013983e-02
-2.806704030552787180e-02
-2.935422218399731317e-02
-3.070449463798958362e-02
-3.210863843837590687e-02
-3.355743435602599051e-02
-3.504071691392996596e-02
-3.654225180514802940e-02
-3.804340851797857054e-02
-3.952555067150285290e-02
-4.097004188480060649e-02
-4.235824577695310178e-02
-4.367152596704156758e-02
-4.489124607414581719e-02
-4.599876971734747494e-02
-4.697546051572649289e-02
-4.780372425066129610e-02
-4.847600223340944176e-02
-4.899034264613431888e-02
-4.934485487137842130e-02
-4.953764829168358363e-02
-4.956683228959209153e-02
-4.943051624764598778e-02
-4.912680954838747477e-02
-4.865382157435844956e-02
-4.800966170810136435e-02
-4.719212691223723805e-02
-4.619425356203029492e-02
-4.500536890796084932e-02
-4.361470218777073471e-02
-4.201148263920154169e-02
-4.018493949999655396e-02
-3.812430200789665435e-02
-3.581879940064548046e-02
-3.325766091598451185e-02
-3.043011579165486036e-02
-2.732591796348232682e-02
-2.394872470540895110e-02
-2.031719979557013861e-02
-1.645075274670186952e-02
-1.236879307153977529e-02
-8.090730282823898820e-03
-3.635973893288341110e-03
9.760665843265940982e-04
5.725981637285337128e-03
1.059436175285250609e-02
1.556155712089945901e-02
2.059473749505679255e-02
2.564132437307323209e-02
3.064711769764957849e-02
3.555791741149377794e-02
4.031952345730673709e-02
4.487773577779460843e-02
4.917835431566332932e-02
5.316717901361421583e-02
5.679000981435446821e-02
5.999278524693129472e-02
6.274416431852251896e-02
6.506056320684945604e-02
6.696442822364107039e-02
6.847820568062894242e-02
6.962434188954401415e-02
7.042528316211615902e-02
7.090347581007658273e-02
7.108136614515557505e-02
7.098140047908400863e-02
7.062603107206534558e-02
7.004636572662382987e-02
6.929948136374741718e-02
6.844730488233657928e-02
6.755176318129094137e-02
6.667478315951008705e-02
6.587829171589455746e-02
6.522421574934372801e-02
6.477448215875794557e-02
6.459101784303686311e-02
6.473574970108045279e-02
6.525265437242853961e-02
6.610761501715471666e-02
6.724528285584202569e-02
6.861030868046578968e-02
7.014734328300308019e-02
7.180103745542891491e-02
7.351604198971999071e-02
7.523700767785303223e-02
7.690858531180293223e-02
7.847542568354702597e-02
7.987982757896855412e-02
8.104912443705862557e-02
8.190478365726179544e-02
8.236825888088905590e-02
8.236100374925239831e-02
8.180447190366342547e-02
8.062011698543390670e-02
7.872939263587465375e-02
7.605375249629869883e-02
7.251465020801714512e-02
6.804275730683284618e-02
6.265673932484253084e-02
5.642408543987655761e-02
4.941280597193101198e-02
4.169091124099546380e-02
3.332641156705848373e-02
2.438731727011769074e-02
1.494163867015841501e-02
5.057386087179045753e-03
-5.197430158832045885e-03
-1.575348642652542319e-02
-2.652164859251979895e-02
-3.739745049703021434e-02
-4.827602682791390376e-02
-5.905251227303971728e-02
-6.962204152027638704e-02
-7.987974925748132782e-02
-8.972077017252337583e-02
-9.904023895327072891e-02
-1.077332902875817594e-01
-1.156968280573600627e-01
-1.228740463111692854e-01
-1.292577714010066936e-01
-1.348432683187363312e-01
-1.396258020562164970e-01
-1.436006376053127476e-01
-1.467630399578845335e-01
-1.491082741057956074e-01
-1.506316050409085561e-01
-1.513282977550845787e-01
-1.511939512851287470e-01
-1.502421691265979631e-01
-1.485133488265775181e-01
-1.460500674633755935e-01
-1.428949021153032850e-01
-1.390904298606690515e-01
-1.346792277777805469e-01
-1.297038729449501160e-01
-1.242069424404835531e-01
-1.182310133426940635e-01
-1.118186715130229381e-01
-1.050139019695366938e-01
-9.786360997349635715e-02
-9.041506646598235220e-02
-8.271554238808544179e-02
-7.481230868088847852e-02
-6.675263628547405126e-02
-5.858379614293331844e-02
-5.035305919434892447e-02
-4.210769638080336108e-02
-3.389497757065191436e-02
-2.576071894742965745e-02
-1.774640760603466566e-02
-9.892728392979579372e-03
-2.240366154777248021e-03
5.169994262051334430e-03
1.229766801099587727e-02
1.910197024553576123e-02
2.554221611915802673e-02
3.157772078534923366e-02
3.716779939758951823e-02
4.228006200525591396e-02
4.691793124040836982e-02
5.109449254006952906e-02
5.482283148890497448e-02
5.811603367157638922e-02
6.098718467274950178e-02
6.344937007708946475e-02
6.551567546925887719e-02
6.719918643392350233e-02
6.851298855574654290e-02
6.947229565855360389e-02
7.010575606933151793e-02
7.044724587348048794e-02
7.053065288745632988e-02
7.038986492771442949e-02
7.005876981071040843e-02
6.957125535289958307e-02
6.896120937073778323e-02
6.826251968068011711e-02
6.750907409918259494e-02
6.673262142395203211e-02
6.594466807907475858e-02
6.514556643301190608e-02
6.433555245468022821e-02
6.351486211299640916e-02
6.268373137687799357e-02
6.184239621524141584e-02
6.099109259700424140e-02
6.013005649108316836e-02
5.925952386639486702e-02
5.837976739557088068e-02
5.749160784218913106e-02
5.659628732670295842e-02
5.569505877576370889e-02
5.478917511602269391e-02
5.387988927413191187e-02
5.296845417674365258e-02
5.205612275050827686e-02
5.114414792207809535e-02
5.023378261810540479e-02
4.932631281186988098e-02
4.842387831151201416e-02
4.752952834652124370e-02
4.664635632417756667e-02
4.577745565176290915e-02
4.492591973655853110e-02
4.409484198584630310e-02
4.328731580690629854e-02
4.250643460702041576e-02
4.175529179347043512e-02
4.103676882284918587e-02
4.034252012148931837e-02
3.964760484027753801e-02
3.892574486314875210e-02
3.815066207403928350e-02
3.729607835688562856e-02
3.633571559562244480e-02
3.524329567418616610e-02
3.399254047651263655e-02
3.255717188653879657e-02
3.091095465714473883e-02
2.903429154471693155e-02
2.692134234362681885e-02
2.456797526388434724e-02
2.197005851550389369e-02
1.912346030850052558e-02
1.602404885288315900e-02
1.266769235866668092e-02
9.050259035866713847e-03
5.167617094491075772e-03
1.015643649245952240e-03
-3.398524379434769618e-03
-8.034466976758898246e-03
-1.284564396501614546e-02
-1.778551516648637504e-02
-2.280754040344908778e-02
-2.786517949819454151e-02
-3.291189227300228559e-02
-3.790113855015187633e-02
-4.278637815193354899e-02
-4.752107090062678008e-02
-5.206131352350392566e-02
-5.637450072226560249e-02
-6.043105243609814270e-02
-6.420138863814023322e-02
-6.765592930152829199e-02
-7.076509439940595336e-02
-7.349930390490937160e-02
-7.582897779117571402e-02
-7.772453603134708844e-02
-7.915639859856038463e-02
-8.010080135897278131e-02
-8.057040310850220599e-02
-8.059193286477550622e-02
-8.019214982866798569e-02
-7.939781320105583629e-02
-7.823568218281323761e-02
-7.673251597481606234e-02
-7.491507377794109912e-02
-7.281011479306112588e-02
-7.044439822105276472e-02
-6.784548645261664901e-02
-6.504847716278282233e-02
-6.209259149320676963e-02
-5.901709264575385333e-02
-5.586124382228282309e-02
-5.266430822465897887e-02
-4.946554905474546959e-02
-4.630422951440767154e-02
-4.321961280550419560e-02
-4.025096212990048050e-02
-3.743600232504994824e-02
-3.478971581205630298e-02
-3.230971798644857035e-02
-2.999318552320133849e-02
-2.783729509728430362e-02
-2.583922338367217533e-02
-2.399614705733920869e-02
-2.230524279325578341e-02
-2.076368726639626211e-02
-1.936865715173365088e-02
-1.811673378898328440e-02
-1.698930805071564160e-02
-1.595169850034351688e-02
-1.496845182154348669e-02
-1.400411469799006485e-02
-1.302323381335985727e-02
-1.199035585132951671e-02
-1.087002749557348068e-02
-9.626795429768356810e-03
-8.225206337590031114e-03
-6.630070290499976565e-03
-4.819910599714021665e-03
-2.793384237874485618e-03
-5.507553126941312164e-04
1.907712068119135759e-03
4.581753796852704522e-03
7.471105765793345857e-03
1.057550386723407621e-02
1.389468399346182464e-02
1.742838203676290790e-02
2.117623134960740228e-02
2.512242627713708737e-02
2.921938914690578801e-02
3.341562943894366838e-02
3.765965663328987856e-02
4.189998020997465211e-02
4.608510964902817753e-02
5.016355443048960139e-02
5.408382403438910524e-02
5.779442794075729389e-02
6.124388170356106359e-02
6.438788080641738576e-02
6.720318677056857926e-02
6.967040478724839669e-02
7.177014004768443589e-02
7.348299774310645960e-02
7.478958306474338402e-02
7.567050120382687317e-02
7.610635735158555182e-02
7.607775669924936313e-02
7.556530443804798658e-02
7.456019094989684015e-02
7.309861432118558433e-02
7.122873276612953775e-02
6.899870459391697908e-02
6.645668811373726947e-02
6.365084163477413570e-02
6.062932346621672380e-02
5.744029191725243816e-02
5.413190529707108400e-02
5.075232191485532646e-02
4.734772757281272004e-02
4.395205235749402584e-02
4.059452640401224610e-02
3.730437021750991622e-02
3.411080430312935646e-02
3.104304916600611475e-02
2.813032531128260502e-02
2.540185324409893058e-02
2.288685346959690517e-02
2.061454649291302732e-02
1.861015324285755779e-02
1.686169498633599551e-02
1.533697720861336086e-02
1.400360388992673982e-02
1.282917901051267365e-02
1.178130655060526978e-02
1.082759049044117183e-02
9.935634810256749327e-03
9.073043490286510429e-03
8.207420510766859356e-03
7.306943725093308084e-03
6.348190305161193273e-03
5.314108648256278197e-03
4.187805670232891062e-03
2.952388286945626782e-03
1.590963414246406200e-03
8.663796798973684606e-05
-1.577481135969463055e-03
-3.418286981779883934e-03
-5.452672653586726828e-03
-7.696610787258986730e-03
-1.014287867942298589e-02
-1.275987416927072855e-02
-1.551483764002861004e-02
-1.837500947492094749e-02
-2.130763005717822497e-02
-2.427993977002482900e-02
-2.725917899668503508e-02
-3.021258812038949207e-02
-3.310740752436246853e-02
-3.591099903659519116e-02
-3.859694027242286524e-02
-4.114787334595178259e-02
-4.354715710241048587e-02
-4.577815038702601202e-02
-4.782421204503006784e-02
-4.966870092164955147e-02
-5.129497586211192312e-02
-5.268639571164805691e-02
-5.382631931548525345e-02
-5.469818163862727456e-02
-5.529656590715165826e-02
-5.563883639423543997e-02
-5.574513961024989833e-02
-5.563562206556642298e-02
-5.533043027055614682e-02
-5.484971073559032073e-02
-5.421360997104070906e-02
-5.344227448727768143e-02
-5.255585079467290505e-02
-5.157448237081573711e-02
-5.051495535761647837e-02
-4.938427833402364575e-02
-4.818768970986321565e-02
-4.693042789495856931e-02
-4.561773129913565539e-02
-4.425483833222052660e-02
-4.284698740403636297e-02
-4.139941692440921028e-02
-3.991736530316415676e-02
-3.840607095012739391e-02
-3.686788467591407825e-02
-3.529297278979320190e-02
-3.366828834254406017e-02
-3.198078436772103239e-02
-3.021741389888195350e-02
-2.836512996958484231e-02
-2.641088561338377633e-02
-2.434163386383672231e-02
-2.214432775450198010e-02
-1.980592031893311372e-02
-1.731584873844614625e-02
-1.467886330794579246e-02
-1.190554398323128392e-02
-9.006482118703466877e-03
-5.992269068769070020e-03
-2.873496187835145998e-03
3.392451696979517173e-04
3.635363649423241274e-03
7.004267896933499479e-03
1.043536655782872913e-02
1.391692319067276001e-02
1.742664252162334435e-02
2.093653087121990705e-02
2.441853906819441838e-02
2.784461794127136847e-02
3.118671831917538620e-02
3.441679103063823020e-02
3.750678690438445650e-02
4.042865676913903750e-02
4.315435145363311076e-02
4.565669628438110556e-02
4.792118882863345003e-02
4.994287484427032547e-02
5.171703404138975474e-02
5.323894613009144683e-02
5.450389082047429196e-02
5.550714782263981018e-02
5.624399684668673211e-02
5.670971760271449613e-02
5.689958980082352596e-02
5.680938716431027657e-02
5.644717931686475676e-02
5.583387396122449498e-02
5.499098131235082704e-02
5.394001158520572020e-02
5.270247499474880332e-02
5.129988175594191180e-02
4.975374208374620799e-02
4.808556619312406161e-02
4.631686429903424801e-02
4.446904767522802393e-02
4.255854879115115313e-02
4.059458838616553794e-02
3.858582236475896488e-02
3.654090663141940087e-02
3.446849709063043443e-02
3.237724964687997697e-02
3.027582020465601972e-02
2.817286466844205750e-02
2.607703894272607459e-02
2.399695899035159119e-02
2.193554876519972913e-02
1.988418236954833315e-02
1.783283508536780484e-02
1.577148219462853884e-02
1.369009897929654787e-02
1.157866072134221443e-02
9.427142702736014679e-03
7.225520205443824312e-03
4.963768511436088271e-03
2.631868433464008492e-03
2.255442101023774929e-04
-2.242877040845859572e-03
-4.758085668082166417e-03
-7.304772020307874481e-03
-9.867626446229764078e-03
-1.243133929454918150e-02
-1.498060091396747132e-02
-1.750010165319142857e-02
-1.997453186092236488e-02
-2.238858188586174622e-02
-2.472501013540027992e-02
-2.695848502723131868e-02
-2.906155772089125469e-02
-3.100677936871543833e-02
-3.276670112304334165e-02
-3.431387413621018317e-02
-3.562084956055180246e-02
-3.666017854840677992e-02
-3.740441225211074000e-02
-3.782610182400020921e-02
-3.790290608745248285e-02
-3.764372157403101521e-02
-3.706925021014523952e-02
-3.620021592920544262e-02
-3.505734266462304238e-02
-3.366135434980913749e-02
-3.203297491817607562e-02
-3.019292830313265175e-02
-2.816193843809104355e-02
-2.596072925646399424e-02
-2.361123083668863198e-02
-2.114639976691503817e-02
-1.860510224268755591e-02
-1.602626066856606760e-02
-1.344879744911585580e-02
-1.091163498890042501e-02
-8.453695692484995347e-03
-6.113901964429549821e-03
-3.931176209299376209e-03
-1.944440831659314303e-03
-1.909106633370314353e-04
1.316698900308168989e-03
2.584008740115649808e-03
3.617082141674660481e-03
4.421982390571672743e-03
5.004772772393801042e-03
5.371516572729323827e-03
5.528277077165204625e-03
5.481117571288897025e-03
5.236101340688095740e-03
4.799696973578938819e-03
4.188337429796496446e-03
3.428790568186733476e-03
2.548303686669653456e-03
1.574124083166846986e-03
5.334990556001727906e-04
-5.463240981107648966e-04
-1.638098080044146383e-03
-2.714575592278117497e-03
-3.748509336893126372e-03
-4.712795619517496856e-03
-5.587436336348157104e-03
-6.362656495608926682e-03
-7.029474193396207868e-03
-7.578907525804704642e-03
-8.001974588929455789e-03
-8.289693478866362250e-03
-8.433082291710370867e-03
-8.423159123556839614e-03
-8.250942070501050135e-03
-7.907496275676141606e-03
-7.390412862736896529e-03
-6.710432296846409114e-03
-5.879874279780412591e-03
-4.911058513314322735e-03
-3.816304699224384086e-03
-2.607932539284451602e-03
-1.298261735270680485e-03
1.003880110404852324e-04
1.575696997875622755e-03
3.115342816376492126e-03
4.704361799606716563e-03
6.320211433671679355e-03
7.938998315754322924e-03
9.536829043038694276e-03
1.108981021270776315e-02
1.257404842194780395e-02
1.396565026794174304e-02
1.524072234787277394e-02
1.637537125892677900e-02
1.734570359828685113e-02
1.813173904292040770e-02
1.872975861167601799e-02
1.914026679227489799e-02
1.936376808081283207e-02
1.940076697338599665e-02
1.925176796609004079e-02
1.891727555502082173e-02
1.839779423627463731e-02
1.769382850594661966e-02
1.680588286013294519e-02
1.573748339690906814e-02
1.451049066064483313e-02
1.315364359196176218e-02
1.169569334439974490e-02
1.016539107149551195e-02
8.591487926788893975e-03
7.002735063819839553e-03
5.427883636124900685e-03
3.895684797244023355e-03
2.434889700716034219e-03
1.072613389658904357e-03
-1.788584012762065457e-04
-1.315132567115148352e-03
-2.331889307325972147e-03
-3.224808821378857739e-03
-3.989571308741767311e-03
-4.621856968883033406e-03
-5.117346001272284409e-03
-5.471718605377755285e-03
-5.680654980668177131e-03
-5.740675081420537618e-03
-5.660228492909829059e-03
-5.456633665339299943e-03
-5.147419733193981523e-03
-4.750115830958199017e-03
-4.282251093116912558e-03
-3.761354654155286536e-03
-3.204955648557342596e-03
-2.630583210808212172e-03
-2.055766475393075270e-03
-1.497649608096045942e-03
-9.640276160385544829e-04
-4.530628594316043947e-04
3.752398372273610914e-05
5.100122354234368303e-04
9.666812176684160028e-04
1.409810252455636313e-03
1.841678661784000234e-03
2.264565767651461562e-03
2.680750892056001089e-03
3.092505963063089513e-03
3.501743115095407900e-03
3.909860312614069425e-03
4.318216011862507225e-03
4.728168669083288381e-03
5.141076740519265331e-03
5.558298682412997349e-03
5.981192951007928416e-03
6.411118002546621272e-03
6.849432293271612640e-03
7.297455570165457817e-03
7.751279493822187810e-03
8.196535247727889870e-03
8.617608225245782655e-03
8.998883819738113382e-03
9.324747424567240289e-03
9.579584433096213769e-03
9.747780238687345222e-03
9.813720234703206258e-03
9.761789814506455221e-03
9.576380390342538462e-03
9.247409397384854027e-03
8.780533674682698686e-03
8.184193720637672129e-03
7.466830033652331611e-03
6.636883112129577864e-03
5.702793454470495363e-03
4.673001559077910247e-03
3.555947924354093542e-03
2.360073048702192311e-03
1.093817430522772997e-03
-2.309660315131319315e-04
-1.588351601696338586e-03
-2.948786265777686433e-03
-4.282717005794960119e-03
-5.560590803786021052e-03
-6.752854641791447218e-03
-7.829955501849053187e-03
-8.762340365996974453e-03
-9.520456216275294606e-03
-1.007475003472204506e-02
-1.039981976249028731e-02
-1.049525282821897956e-02
-1.036994326507445149e-02
-1.003280082936390885e-02
-9.492735277395159335e-03
-8.758656365474785932e-03
-7.839473849910459299e-03
-6.744097487010367042e-03
-5.481437033080302848e-03
-4.060402244428341564e-03
-2.492258716805700099e-03
-8.094426011575213929e-04
9.444204569702876334e-04
2.725603358485500019e-03
4.490379004294647175e-03
6.195020295308037439e-03
7.795800132432176635e-03
9.248991416573865490e-03
1.051086704864296305e-02
1.153769992954615728e-02
1.228734875373065950e-02
1.273997884990830422e-02
1.289222805113427600e-02
1.274111943047685942e-02
1.228367606100477620e-02
1.151692101578566559e-02
1.043787736788803072e-02
9.043568190381264665e-03
7.331016556331669196e-03
5.297245538808417059e-03
2.940449927991879882e-03
2.869353685610912495e-04
-2.608220889498834901e-03
-5.688637706570616112e-03
-8.897933943043634733e-03
-1.217972845930071803e-02
-1.547764011572683174e-02
-1.873528777270465351e-02
-2.189629029062380855e-02
-2.490426652986692593e-02
-2.770302493815157696e-02
-3.024544767796888065e-02
-3.249729674762706633e-02
-3.442531435714351468e-02
-3.599624271653958235e-02
-3.717682403583241063e-02
-3.793380052504020938e-02
-3.823391439418270116e-02
-3.804390785327779745e-02
-3.733052311234409670e-02
-3.606070066251409328e-02
-3.422746420249139776e-02
-3.187566052326535476e-02
-2.905625652717732169e-02
-2.582021911656250807e-02
-2.221851519376197293e-02
-1.830211166111783347e-02
-1.412197542096371716e-02
-9.729073375641534779e-03
-5.174372427493799040e-03
-5.088434667884775883e-04
4.213092251840621152e-03
8.927258473972712188e-03
1.356776710574566017e-02
1.806873005330723175e-02
2.236425922279521722e-02
2.638846652034799664e-02
3.007546385211243983e-02
3.335936312422672911e-02
3.617427624283015009e-02
3.845431511406788294e-02
4.014833832514246026e-02
4.126555766183147983e-02
4.183062270488990125e-02
4.186818304178589745e-02
4.140288825998624661e-02
4.045938794695915636e-02
3.906233169017066242e-02
3.723636907708863242e-02
3.500614969518217601e-02
3.239632313191546931e-02
2.943729114959618698e-02
2.619381314830722396e-02
2.274335041414363504e-02
1.916338463080272808e-02
1.553139748197958185e-02
1.192487065137182688e-02
8.421285822669365498e-03
5.098124679569866410e-03
2.032868905770484399e-03
-6.969998150381036435e-04
-3.019457043906929004e-03
-4.911101892601601321e-03
-6.374054573421390757e-03
-7.410661132490678829e-03
-8.023267615935062227e-03
-8.214220069881279090e-03
-7.985864540454634675e-03
-7.340547073780999757e-03
-6.280613715987159312e-03
-4.808410513197481848e-03
-2.929285329291952435e-03
-6.903979088177716189e-04
1.830422384796154527e-03
4.554640131904543268e-03
7.403719912861532471e-03
1.029912630802741133e-02
1.316232389775637973e-02
1.591477726240462381e-02
1.847795098232660194e-02
2.077330963788218826e-02
2.272363162618142376e-02
2.428283526055280417e-02
2.543649984756426313e-02
2.617162273493675584e-02
2.647520127039241014e-02
2.633423280165386043e-02
2.573571467644293620e-02
2.466664424248277490e-02
2.311401884749405417e-02
2.106483583919955063e-02
1.850683626270289983e-02
1.546277373009420468e-02
1.200476727213065954e-02
8.208656813490066914e-03
4.150282278851197271e-03
-9.451640711595401395e-05
-4.449899319732782133e-03
-8.840026534320357884e-03
-1.318905812620916294e-02
-1.742115417072027245e-02
-2.146058218462095976e-02
-2.524537980047777963e-02
-2.874075258181912548e-02
-3.191508755969027500e-02
-3.473677176513464970e-02
-3.717419222920156224e-02
-3.919573598293417394e-02
-4.076979005737679795e-02
-4.186474148357700875e-02
-4.244897729257878644e-02
-4.249090817078424870e-02
-4.197825877184307303e-02
-4.095295682545567473e-02
-3.946636771905545626e-02
-3.756985684007240617e-02
-3.531478957593961465e-02
-3.275253131408922824e-02
-2.993444744195549595e-02
-2.691190334696653627e-02
-2.373626441655643862e-02
-2.045889603815970875e-02
-1.712831352891104261e-02
-1.378145653660563415e-02
-1.045232627219652363e-02
-7.174923946248213183e-03
-3.983250769332334629e-03
-9.113079520181397580e-04
2.006903295123104759e-03
4.737381761526309604e-03
7.246126236620088409e-03
9.499135509833684515e-03
1.146772978516301909e-02
1.315476511599802598e-02
1.457467084867021534e-02
1.574189397604342650e-02
1.667088149097838840e-02
1.737608038633649959e-02
1.787193765498058459e-02
1.817290028977188582e-02
1.829341528357223551e-02
1.824792962924355263e-02
1.805059830159425754e-02
1.771299652364960106e-02
1.724535489016210121e-02
1.665789238656167556e-02
1.596082799827919924e-02
1.516438071074587002e-02
1.427876950939112322e-02
1.331421337964609243e-02
1.228093130694211423e-02
1.118914227670830992e-02
1.004903312444158613e-02
8.870347242068359062e-03
7.662504927704578625e-03
6.434919158480288670e-03
5.197002911528109115e-03
3.958169163980685898e-03
2.727830892968019939e-03
1.515401075622761946e-03
3.302926890775088539e-04
-8.180812895376601401e-04
-1.920091265062399185e-03
-2.961034985679820292e-03
-3.921086782714940447e-03
-4.780194217111562865e-03
-5.518304849811393048e-03
-6.115366241756493848e-03
-6.551325953890142426e-03
-6.806131547154290612e-03
-6.859730582491398512e-03
-6.692070620843978274e-03
-6.283434132788267429e-03
-5.629615326355278879e-03
-4.748132151481058993e-03
-3.658124218582626836e-03
-2.378731138076615060e-03
-9.290925203807483268e-04
6.716520240904125119e-04
2.404362884919256961e-03
4.249900451687802644e-03
6.189125113982049675e-03
8.202832891496911194e-03
1.026377962061503744e-02
1.232896881481261066e-02
1.435357486554043015e-02
1.629277216424939931e-02
1.810173510239455538e-02
1.973563807142673585e-02
2.114965546279817810e-02
2.229896166796042911e-02
2.313873107836739509e-02
2.362415708676244772e-02
2.372509293062188482e-02
2.345223087534701462e-02
2.282331850617019819e-02
2.185610340832479931e-02
2.056833316704200984e-02
1.897775536755496456e-02
1.710211759509765866e-02
1.495916743489998819e-02
1.256665247219575926e-02
9.942320292217530706e-03
7.110293746470385673e-03
4.120392161783255694e-03
1.028908210151254724e-03
-2.107865436324368562e-03
-5.233636105549100553e-03
-8.292111125421709056e-03
-1.122699782384115400e-02
-1.398200352871262903e-02
-1.650083556793498912e-02
-1.872720126940921950e-02
-2.061176885054310723e-02
-2.214613563081961611e-02
-2.333680930698033701e-02
-2.419031913793425262e-02
-2.471319438259202833e-02
-2.491196429986239705e-02
-2.479315814865501108e-02
-2.436330518787915844e-02
-2.362893467644426940e-02
-2.259657587326064157e-02
-2.127528113775828053e-02
-1.969620352541092204e-02
-1.790193537767710910e-02
-1.593516537413220205e-02
-1.383858219434726082e-02
-1.165487451789751910e-02
-9.426731024358470795e-03
-7.196840393300815014e-03
-5.007891304300019636e-03
-2.902572436931434140e-03
-9.218422439834937556e-04
9.169738259074883052e-04
2.613653993208921861e-03
4.168357886501780976e-03
5.581245134363362753e-03
6.852475365372230967e-03
7.982208208106189584e-03
8.970603291145403529e-03
9.817820243067576155e-03
1.052401869245081847e-02
1.108963351876593451e-02
1.152146835371694981e-02
1.183271675394704375e-02
1.203685176154667760e-02
1.214734641860561355e-02
1.217767376721387400e-02
1.214130684946152124e-02
1.205171870743853083e-02
1.192238238323492690e-02
1.176677091894084808e-02
1.159820144632077964e-02
1.142288607931747461e-02
1.123715330604655241e-02
1.103660093298341680e-02
1.081682676660384798e-02
1.057342861338369210e-02
1.030200427979826097e-02
9.998151572323376451e-03
9.657468297434697313e-03
9.275552261608168564e-03
8.848033712140740414e-03
8.374493113633094468e-03
7.862196257445877232e-03
7.319293805340507109e-03
6.753936419079479767e-03
6.174274760425367201e-03
5.588459491139488935e-03
5.004641272984399619e-03
4.430970767722655634e-03
3.875598637115586480e-03
3.346673921459330375e-03
2.851162038495182269e-03
2.392755328374537513e-03
1.974585089669641993e-03
1.599782620953732123e-03
1.271479220799920720e-03
9.928061877806371172e-04
7.668948204690287157e-04
5.968764174380935140e-04
4.858822772604846798e-04
4.370436985092413570e-04
4.494200701040993004e-04
5.057831423523138480e-04
5.848327559079876531e-04
6.652687514252116595e-04
7.257909695580455319e-04
7.450992509606786055e-04
7.018934362871492947e-04
5.748733661916733892e-04
3.427388813281740526e-04
-1.581017764920155527e-05
-5.189135544684836832e-04
-1.166273347708390081e-03
-1.950924165778954947e-03
-2.865891483172451452e-03
-3.904200774380371924e-03
-5.058877513896466865e-03
-6.322947176212316209e-03
-7.689435235819183298e-03
-9.151367167211288747e-03
-1.070176844487996833e-02
-1.233150860772671241e-02
-1.401273234021007015e-02
-1.570795985064494041e-02
-1.737963230715884946e-02
-1.899019087788288151e-02
-2.050207673094453162e-02
-2.187773103447249179e-02
-2.307959495659467342e-02
-2.407010966544149977e-02
-2.481171632914073652e-02
-2.526855914416396148e-02
-2.542781846117004793e-02
-2.529323457439503278e-02
-2.486891116438318811e-02
-2.415895191167779371e-02
-2.316746049682291350e-02
-2.189854060036343017e-02
-2.035629590284140922e-02
-1.854483008480152864e-02
-1.646824682678766152e-02
-1.413145867654609818e-02
-1.155787145493593175e-02
-8.789322979382429776e-03
-5.868447679158412394e-03
-2.837879983530394029e-03
2.597456782288982014e-04
3.381794876846548094e-03
6.485633183056324635e-03
9.528626167585315526e-03
1.246813940116077782e-02
1.526180535449520558e-02
1.787922522366999431e-02
2.030653799761498318e-02
2.253109343524422811e-02
2.454024129547646010e-02
2.632133133722557722e-02
2.786171331940615059e-02
2.914873700093593284e-02
3.016975214072929040e-02
3.091210849770137381e-02
3.136323863884012825e-02
3.152040784590230682e-02
3.139987820172923660e-02
3.102008053708985719e-02
3.039944568275220263e-02
2.955640446948504599e-02
2.850938772805779176e-02
2.727682628923751990e-02
2.587715098379350306e-02
2.432879264249548229e-02
2.265018170345796389e-02
2.085947708349877860e-02
1.897409237134652440e-02
1.701131439637318388e-02
1.498842998795475549e-02
1.292272597546592107e-02
1.083148918828285429e-02
8.732006455777253234e-03
6.641564607325282921e-03
4.577450472303077125e-03
2.556950880084189227e-03
5.974636374722327786e-04
-1.283172914722665627e-03
-3.067011139708921644e-03
-4.736103400690890378e-03
-6.272502060873264007e-03
-7.658259483463962167e-03
-8.875428031667574255e-03
-9.906060068689824180e-03
-1.073220795773593278e-02
-1.133592406201280704e-02
-1.170218533770607701e-02
-1.183289746106800690e-02
-1.173604295249472580e-02
-1.141961220885629943e-02
-1.089159562702342147e-02
-1.015998360386557130e-02
-9.232766536253296866e-03
-8.117934821056839098e-03
-6.823478855147420766e-03
-5.357389035393440510e-03
-3.730196975135295721e-03
-1.974319138451915284e-03
-1.333422918993313645e-04
1.749057368271540909e-03
3.629203645809670614e-03
5.463420344468051387e-03
7.208031267995636260e-03
8.819360220141630666e-03
1.025373100465864357e-02
1.146746742529577631e-02
1.241875143131160146e-02
1.309065666412395808e-02
1.348403056283521521e-02
1.360010431569701195e-02
1.344010911096178880e-02
1.300527613688153353e-02
1.229683658170848543e-02
1.131602163369565747e-02
1.006406248109388904e-02
8.542190312155983206e-03
6.752744933620054291e-03
4.723113138298431005e-03
2.505480552327252978e-03
1.530917882319351823e-04
-2.280808541460354905e-03
-4.742975824227696480e-03
-7.180165447542963264e-03
-9.539132798879098804e-03
-1.176663326571407431e-02
-1.380942223552075916e-02
-1.561473738334933498e-02
-1.715110097467163752e-02
-1.841624819834061441e-02
-1.941003219830963328e-02
-2.013230611853407057e-02
-2.058292310296709615e-02
-2.076173629556269176e-02
-2.066859884027498137e-02
-2.030336388105780793e-02
-1.966588456186512193e-02
-1.875614441247257583e-02
-1.758922866006549721e-02
-1.620919606422359383e-02
-1.466338507778387583e-02
-1.299913415357997065e-02
-1.126378174444879129e-02
-9.504666303226192575e-03
-7.769126282749255763e-03
-6.104500135851337675e-03
-4.558126315369547335e-03
-3.177326613912751212e-03
-1.998496386726568950e-03
-1.028257744329269530e-03
-2.682088076811010684e-04
2.800523022592373143e-04
6.149274645313488556e-04
7.348185581754440544e-04
6.381274622319116525e-04
3.232560557408093848e-04
-2.113937822576445521e-04
-9.674201719567932910e-04
-1.940521545199345478e-03
-3.103155119098727644e-03
-4.422055841611616592e-03
-5.863958660697570283e-03
-7.395598524313359845e-03
-8.983710380415505306e-03
-1.059502917696394757e-02
-1.219628986191523268e-02
-1.375422738322593791e-02
-1.523557668885595906e-02
-1.660928145174798282e-02
-1.785697066272941280e-02
-1.896479342166831547e-02
-1.991890436457324776e-02
-2.070545812745033104e-02
-2.131060934630620018e-02
-2.172051265714868007e-02
-2.192132269598425290e-02
-2.189919409881999415e-02
-2.164028150166285441e-02
-2.113209894956116428e-02
-2.037376907097229739e-02
-1.937029832621042086e-02
-1.812673908423573232e-02
-1.664814371401048682e-02
-1.493956458449758468e-02
-1.300605406465622262e-02
-1.085266452344915353e-02
-8.484448329839749600e-03
-5.906457852786262119e-03
-3.124416697563427246e-03
-1.529538191582528912e-04
2.986985682226457779e-03
6.274322545962451175e-03
9.687977511423525451e-03
1.320687131798094389e-02
1.680992470501352365e-02
2.047605841189258785e-02
2.418419317798929657e-02
2.791324974268271850e-02
3.164189536274196468e-02
3.534313771946274302e-02
3.898441806403841331e-02
4.253294279573328895e-02
4.595591831381190540e-02
4.922055101754609779e-02
5.229404730620033914e-02
5.514361357904155186e-02
5.773645623533493060e-02
6.003978167435111701e-02
6.202100030040534617e-02
6.365638407449625280e-02
6.493428591474159628e-02
6.584392607243867712e-02
6.637452479888579504e-02
6.651530234538226283e-02
6.625547896322614427e-02
6.558427490371658564e-02
6.449091041815122050e-02
6.296460575782890368e-02
6.099469476344936830e-02
5.858334782254758649e-02
5.575719188890553013e-02
5.254559878923258792e-02
4.897794035023923104e-02
4.508358839862821460e-02
4.089191476110975998e-02
3.643229126439495591e-02
3.173408973518527382e-02
2.682668200019161509e-02
2.173944735212543153e-02
1.650641427521527815e-02
1.117418696390884078e-02
5.791475045071096950e-03
4.069881455671662315e-04
-4.930564107749333888e-03
-1.017247208801327733e-02
-1.527002616835979390e-02
-2.017451672193486603e-02
-2.483723412187351445e-02
-2.920946874378064356e-02
-3.324819007918743824e-02
-3.693256980659592736e-02
-4.024720447971362469e-02
-4.317669065224610109e-02
-4.570562487790503364e-02
-4.781860371039572261e-02
-4.950022370342462008e-02
-5.073508141070166844e-02
-5.150777338593300059e-02
-5.180289618282609559e-02
-5.161334050904627102e-02
-5.097926170953275687e-02
-4.995753273284127272e-02
-4.860504584975148396e-02
-4.697869333104513073e-02
-4.513536744750335644e-02
-4.313196046990875471e-02
-4.102536466903961010e-02
-3.887247231567841216e-02
-3.673017568060781696e-02
-3.465429956759699670e-02
-3.269162982048212651e-02
-3.088440286202214641e-02
-2.927482053087162445e-02
-2.790508466568904222e-02
-2.681739710513156294e-02
-2.605395968785676267e-02
-2.565697425252067704e-02
-2.566864263778113539e-02
-2.613116668229477704e-02
-2.708149705675428828e-02
-2.848758486706448601e-02
-3.026877171986512571e-02
-3.234338356882496268e-02
-3.462974636760901559e-02
-3.704618606988172025e-02
-3.951102862931271664e-02
-4.194259999956648916e-02
-4.425922613430921526e-02
-4.637923298720564996e-02
-4.822136364395908370e-02
-4.971356561827585535e-02
-5.079277946870055377e-02
-5.139632060202616731e-02
-5.146150442504317246e-02
-5.092564634454357225e-02
-4.972606176731803745e-02
-4.780006610015814089e-02
-4.508497474985750930e-02
-4.151810312320369789e-02
-3.703847266942512234e-02
-3.165805362426898223e-02
-2.548760156096634491e-02
-1.864489476840578905e-02
-1.124771153548889853e-02
-3.413830151118818924e-03
4.738971095818212548e-03
1.309291391641931139e-02
2.153022002178101718e-02
2.993311112301797264e-02
3.818390724289300042e-02
4.617577137503616619e-02
5.382238144442047512e-02
6.103969825823753886e-02
6.774368262368477001e-02
7.385029534795541084e-02
7.927549723825562389e-02
8.393524910177822818e-02
8.774551174571823542e-02
9.062224597727851216e-02
9.248148692719361519e-02
9.328326219493414395e-02
9.310572508775941114e-02
9.204665056317667959e-02
9.020381357869421135e-02
8.767498909182218358e-02
8.455795206006523623e-02
8.095047744093310238e-02
7.695034019193698616e-02
7.265531527057937644e-02
6.816317762100319866e-02
6.355863276642161053e-02
5.887568049328265746e-02
5.413602539346318993e-02
4.936137205884017637e-02
4.457342508128040587e-02
3.979388905266083298e-02
3.504446856485504691e-02
3.034686820973992935e-02
2.572279257918239428e-02
2.119394626505935811e-02
1.677365497474280279e-02
1.242786841497687395e-02
8.105902824836226997e-03
3.757056326406744886e-03
-6.693729582349548183e-04
-5.224086907003027552e-03
-9.957787397811260557e-03
-1.492117630858358704e-02
-2.016495551723394147e-02
-2.573982690167955778e-02
-3.168246136335428620e-02
-3.791171645340350033e-02
-4.428756728704125872e-02
-5.066955300818943436e-02
-5.691721276078356984e-02
-6.289008568874548954e-02
-6.844771093599780198e-02
-7.344962764647490483e-02
-7.775537496409901106e-02
-8.122449203279438756e-02
-8.372067936110096087e-02
-8.516179451042368842e-02
-8.550359177816094225e-02
-8.470260425796921622e-02
-8.271536504350289476e-02
-7.949840722841763907e-02
-7.500826390637262142e-02
-6.920146817101693881e-02
-6.203455311600890310e-02
-5.346405183501058700e-02
-4.345406214009726875e-02
-3.213366078092863565e-02
-1.979204812405494646e-02
-6.725017918694758956e-03
6.771636085961584353e-03
2.040212014069592295e-02
3.387064049628971119e-02
4.688140340355319985e-02
5.913861511326760911e-02
7.034648187621633797e-02
8.021150270127512527e-02
8.853669144637585364e-02
9.525488540736241905e-02
1.003080604574907442e-01
1.036381924700018609e-01
1.051872573181421300e-01
1.048972308751588006e-01
1.027100890142978312e-01
9.856780760880513859e-02
9.241236253193223227e-02
8.418697762357964243e-02
7.396924428000366258e-02
6.208921448682074712e-02
4.890479408419151630e-02
3.477388891230161899e-02
2.005440481133938940e-02
5.104247621461431919e-03
-9.718676817144219354e-03
-2.405646266429982416e-02
-3.755120407981839270e-02
-4.984512736905381131e-02
-6.065488406440922714e-02
-6.989550701851675318e-02
-7.751472324779155876e-02
-8.346025976862850304e-02
-8.767984359742719835e-02
-9.012120175059558369e-02
-9.073206124453210564e-02
-8.946014909563870798e-02
-8.625319232032034600e-02
-8.105891806400947197e-02
-7.389013281886926132e-02
-6.501021376620017000e-02
-5.474283465476987437e-02
-4.341166923336467476e-02
-3.134039125077385524e-02
-1.885267445576059228e-02
-6.272192597113767504e-03
6.077380576377470339e-03
1.787237131595034723e-02
2.878910587281544031e-02
3.853755597980559888e-02
4.701645349095481125e-02
5.419031390754423805e-02
6.002372015390251836e-02
6.448125515436207988e-02
6.752750183326440558e-02
6.912704311494094478e-02
6.924446192372728237e-02
6.784434118395869795e-02
6.489126381996970783e-02
6.036916867740639570e-02
5.442315957087389550e-02
4.727832602738348683e-02
3.916033420619541294e-02
3.029485026657647781e-02
2.090754036777421263e-02
1.122407066905494431e-02
1.470107329685859787e-03
-8.128683491086786950e-03
-1.734663563399576475e-02
-2.596656084982664967e-02
-3.388055338807047928e-02
-4.105666447586152346e-02
-4.746448042620277086e-02
-5.307358755211068202e-02
-5.785357216658770785e-02
-6.177402058264114260e-02
-6.480451911327643477e-02
-6.691465407150525013e-02
-6.807401177033238493e-02
-6.825520785880903607e-02
-6.749615905063832688e-02
-6.589774194666014884e-02
-6.356339405258441821e-02
-6.059655287411580549e-02
-5.710065591696374121e-02
-5.317914068683626816e-02
-4.893544468944451692e-02
-4.447300543049043792e-02
-3.989526041568494663e-02
-3.530489055062769471e-02
-3.077321806154464934e-02
-2.632966626539225488e-02
-2.200073819011891252e-02
-1.781293686366382592e-02
-1.379276531397549514e-02
-9.966726569001955333e-03
-6.361323656683124869e-03
-3.003059604967186786e-03
8.156255820049394117e-05
2.866183632530848024e-03
5.339565922751927929e-03
7.518686369634255615e-03
9.423608198178766784e-03
1.107439463339036055e-02
1.249110890026978310e-02
1.369381422381845369e-02
1.470257382904026702e-02
1.553745094093649318e-02
1.621850878450890182e-02
1.676581453409408534e-02
1.720155393703040603e-02
1.755351859849694010e-02
1.785041673629898448e-02
1.812095656824244672e-02
1.839384631213260637e-02
1.869779418577471528e-02
1.906150840697469484e-02
1.951369719353784893e-02
2.008306876326921078e-02
2.079833131243014749e-02
2.168185719648320353e-02
2.273180968399599738e-02
2.394057075864206366e-02
2.530052240409758069e-02
2.680404660403618369e-02
2.844352534213112280e-02
3.021134060205916960e-02
3.209987436749366096e-02
3.410150862210759026e-02
3.620862534957824258e-02
3.840832420989931384e-02
4.065829973403534137e-02
4.290607435117835267e-02
4.509916069502376695e-02
4.718507139926862715e-02
4.911131909760863695e-02
5.082541642374361485e-02
5.227487601136912576e-02
5.340721049418155342e-02
5.416993250587951586e-02
5.451724110727068640e-02
5.445854419493135340e-02
5.403045773693383041e-02
5.326978862428895928e-02
5.221334374800847694e-02
5.089792999910179583e-02
4.936035426858048636e-02
4.763742344745547364e-02
4.576594442673902891e-02
4.378272409743941967e-02
4.172536010176614019e-02
3.964154627891765259e-02
3.758594663869641722e-02
3.561336370551625163e-02
3.377860000379075828e-02
3.213645805792962606e-02
3.074174039234656153e-02
2.964924953145458078e-02
2.891378799966442745e-02
2.859015832138933622e-02
2.872908581403060130e-02
2.929442036923200071e-02
3.016680538196125569e-02
3.122354125430615301e-02
3.234192838835397293e-02
3.339926718619444512e-02
3.427285804991481860e-02
3.484000138160290444e-02
3.497799758334763087e-02
3.456414705723654529e-02
3.347655144655779791e-02
3.162601310428053702e-02
2.896673436160143722e-02
2.545591253583441918e-02
2.105074494429584261e-02
1.570842890429234931e-02
9.386161733139653657e-03
2.041140748156233895e-03
-6.369436733355432825e-03
-1.588837339407760119e-02
-2.655750925900720455e-02
-3.831982988336965490e-02
-5.093514892311191977e-02
-6.414341535997014621e-02
-7.768457817567078760e-02
-9.129858635196938521e-02
-1.047253888705925312e-01
-1.177049347132673313e-01
-1.299771728617485356e-01
-1.412820522977628890e-01
-1.513596083953089588e-01
-1.599940606648578290e-01
-1.670856896901937727e-01
-1.725536038952697748e-01
-1.763169117040500056e-01
-1.782947215404861452e-01
-1.784061418285346201e-01
-1.765702809921535776e-01
-1.727062474552968352e-01
-1.667331496419212078e-01
-1.585700963570663424e-01
-1.482072995721855080e-01
-1.359045905969016033e-01
-1.219856977001790299e-01
-1.067743491509519638e-01
-9.059427321818377954e-02
-7.376919817082855380e-02
-5.662285227785261027e-02
-3.947896380818545492e-02
-2.266126103079325188e-02
-6.493472214641277107e-03
8.727775767468916659e-03
2.285555112192061075e-02
3.579432306698692584e-02
4.744860725305321408e-02
5.772291933047672685e-02
6.652177494961863946e-02
7.374968976085843897e-02
7.931117941455621823e-02
8.311075956107884244e-02
8.505294585079251068e-02
8.507127050086091269e-02
8.333685430514457815e-02
8.013708573690971060e-02
7.576014713938498957e-02
7.049422085580558939e-02
6.462748922940922403e-02
5.844813460342077743e-02
5.224433932107765133e-02
4.630428572561730294e-02
4.091615616026449825e-02
3.635582870246166498e-02
3.274356937498085901e-02
3.009293654220133660e-02
2.841540370201346699e-02
2.772244435231361465e-02
2.802553199099535805e-02
2.933614011595328183e-02
3.166574222508165143e-02
3.502581181627187346e-02
3.942782238742287282e-02
4.487696796439017560e-02
5.124617825754253231e-02
5.828254278262948868e-02
6.572815740606292867e-02
7.332511799425893428e-02
8.081552041362841110e-02
8.794146053059821722e-02
9.444503421157909862e-02
1.000683373229834944e-01
1.045534657312356813e-01
1.076457870546425055e-01
1.092221681371592507e-01
1.093328339776573205e-01
1.080398540588321243e-01
1.054052978633807786e-01
1.014912348740036468e-01
9.635973457339219728e-02
9.007286644424593314e-02
8.269269996926753574e-02
7.428130463114362980e-02
6.490125037473282177e-02
5.466531548753080644e-02
4.377866812371587757e-02
3.245640986981648130e-02
2.091364231236225030e-02
9.365467037858052346e-03
-1.973014367166534087e-03
-1.288670031619008893e-02
-2.316048922268419685e-02
-3.257927950014213869e-02
-4.092811024404952730e-02
-4.806068100292908846e-02
-5.400973210940012564e-02
-5.883681977321171541e-02
-6.260350020411616090e-02
-6.537132961187336333e-02
-6.720186420623489032e-02
-6.815666019695493238e-02
-6.829727379378941476e-02
-6.768526120649200062e-02
-6.638217871008025850e-02
-6.445780153467001172e-02
-6.201283403649537895e-02
-5.915525467523043146e-02
-5.599304191055047564e-02
-5.263417420212385817e-02
-4.918663000962567033e-02
-4.575838779273125323e-02
-4.245742601110860659e-02
-3.939172312443312007e-02
-3.666925759237772003e-02
-3.437901329133995904e-02
-3.250587030954196072e-02
-3.099922708035380420e-02
-2.980845202110772585e-02
-2.888291354913352302e-02
-2.817198008176362983e-02
-2.762502003632985245e-02
-2.719140183016291804e-02
-2.682049388059474376e-02
-2.646166460495706294e-02
-2.606702089621956361e-02
-2.561090585658499022e-02
-2.507846785097324338e-02
-2.445492700861652546e-02
-2.372550345874569616e-02
-2.287541733059289192e-02
-2.188988875339059961e-02
-2.075413785636914463e-02
-1.945338476876092015e-02
-1.797284961979877388e-02
-1.629955316830008008e-02
-1.444307387041176768e-02
-1.242835445732898628e-02
-1.028063275917133826e-02
-8.025146606062679572e-03
-5.687133828125492258e-03
-3.291832255483971830e-03
-8.644797182571814075e-04
1.569685953430719275e-03
3.985426929455537087e-03
6.358266546406018960e-03
8.679577380170762010e-03
1.095571164313567658e-02
1.319360862020762561e-02
1.540020759628861133e-02
1.758244785628071752e-02
1.974726868509068742e-02
2.190160936762058919e-02
2.405240918877405917e-02
2.620660743345319330e-02
2.837043347126170026e-02
3.052201423366040708e-02
3.260267602983651231e-02
3.455125586587608905e-02
3.630659074786069668e-02
3.780751768187244621e-02
3.899287367399659199e-02
3.980149573031502297e-02
4.017222085691084243e-02
4.004388605986738958e-02
3.935553771932943923e-02
3.806674866946571645e-02
3.617460209234413943e-02
3.368017941725594960e-02
3.058456207349627420e-02
2.688883149036188150e-02
2.259406909714147677e-02
1.770135632313144317e-02
1.221177459762984134e-02
6.126405349922823054e-03
-5.535733625647608954e-04
-7.781939318062914418e-03
-1.539586655763952941e-02
-2.321391022309202135e-02
-3.105462545620158582e-02
-3.873656739874935251e-02
-4.607829119253282341e-02
-5.289835197933297900e-02
-5.901530490093220838e-02
-6.424770509912583472e-02
-6.841410807195112687e-02
