BVP Signal
6.132314277173117611e-04
-2.891187186439519996e-03
-6.938365930672929505e-03
-1.133570550241652652e-02
-1.584964719675580058e-02
-2.021830891280773645e-02
-2.416654694763242794e-02
-2.742245012835564655e-02
-2.973415656282474284e-02
-3.088585100905893999e-02
-3.071185488520966622e-02
-2.909873582581434803e-02
-2.601755317139220480e-02
-2.150779412555992032e-02
-1.567998481992938231e-02
-8.711626594927190936e-03
-8.382358177847493153e-04
7.658810694682327558e-03
1.646676793548906836e-02
2.525736601114680902e-02
3.370296633687863697e-02
4.150706770112255750e-02
4.838043125220115037e-02
5.407666542283279254e-02
5.840274483653756787e-02
6.122081140291406320e-02
6.245079370438438859e-02
6.207004363700781291e-02
6.011031546805595260e-02
5.665255313614581123e-02
5.182004198010525808e-02
4.577102601500399048e-02
3.868921254297807977e-02
3.077591795697209864e-02
2.224266109341110909e-02
1.330393424736919794e-02
4.171200693520060732e-03
-4.952047148477189964e-03
-1.387420722854249000e-02
-2.241858492391546331e-02
-3.042567941165641443e-02
-3.775543242564138868e-02
-4.428767458860394246e-02
-4.992322316884578726e-02
-5.458581378658988736e-02
-5.822272601623212918e-02
-6.080566502409573415e-02
-6.233143779589284117e-02
-6.282228983153276269e-02
-6.232574606618423996e-02
-6.091380050659939149e-02
-5.867803180152797449e-02
-5.573152262582706240e-02
-5.221125377539376916e-02
-4.826350313067991060e-02
-4.404260243128545194e-02
-3.970526030897689879e-02
-3.540452667284763044e-02
-3.128369334590588857e-02
-2.747044951518037847e-02
-2.407161019104245292e-02
-2.116754421214450677e-02
-1.880932507884164329e-02
-1.702195234428627302e-02
-1.579721281091739371e-02
-1.509667905075079419e-02
-1.485384421120627962e-02
-1.497747368265595069e-02
-1.535598408253763258e-02
-1.586261455352144800e-02
-1.636112729294958434e-02
-1.671171289419570716e-02
-1.677685123488470431e-02
-1.642752573391015325e-02
-1.554788835001907898e-02
-1.404001004101973482e-02
-1.182768110923840266e-02
-8.859352528769404156e-03
-5.110173892142244600e-03
-5.831193413439877959e-04
4.690778004309371918e-03
1.065323273600944989e-02
1.722186118647160008e-02
2.428625874292822395e-02
3.171654326332543072e-02
3.936496553606316784e-02
4.706977884335347695e-02
5.465951983429689909e-02
6.195760399768679427e-02
6.878713042667000677e-02
7.497578124488546436e-02
8.036069201551304664e-02
8.479268803695028112e-02
8.814203300074641145e-02
9.030123750301233265e-02
9.118879644775312876e-02
9.075193315413548900e-02
8.896854589314895367e-02
8.584829172234509365e-02
8.143275861211834998e-02
7.579470861020132233e-02
6.903640813240055629e-02
6.128735364101252359e-02
5.270035904500208063e-02
4.344788630427526971e-02
3.371752246931630087e-02
2.370701639091393753e-02
1.361910211374889323e-02
3.656235264209301006e-03
-5.984603404372818014e-03
-1.511689090817169845e-02
-2.356919670518115018e-02
-3.117757657336694965e-02
-3.782247102412955586e-02
-4.340543451200112868e-02
-4.785148459840743440e-02
-5.111486216730837251e-02
-5.317970007023031798e-02
-5.405986466549905778e-02
-5.379797429475502435e-02
-5.246362511307328669e-02
-5.015088097466557926e-02
-4.698302141324262049e-02
-4.308670141232864848e-02
-3.860275553110600888e-02
-3.368682055942096021e-02
-2.849934103326870471e-02
-2.320082092245900895e-02
-1.794720437146567898e-02
-1.288553869787060699e-02
-8.150054494921128712e-03
-3.858774335880693629e-03
-1.244614254973519518e-04
2.978389336330905524e-03
5.409291719338626958e-03
7.137012202094533686e-03
8.153121369677218677e-03
8.471353477095766582e-03
8.126316235627151219e-03
7.171596690983328415e-03
5.677329707272971149e-03
3.727314866469100263e-03
1.417948879967600995e-03
-1.151939448172212277e-03
-3.882090489029710323e-03
-6.666948334472094784e-03
-9.403962899624279670e-03
-1.199702917720951723e-02
-1.435960993497700788e-02
-1.641742055555198143e-02
-1.811057584769389106e-02
-1.939512513076256661e-02
-2.023888329014509463e-02
-2.062874253127986932e-02
-2.058638642508793873e-02
-2.013306921036647074e-02
-1.930314428159229934e-02
-1.814236386346797236e-02
-1.670587309794130393e-02
-1.505595790677560775e-02
-1.325961254031252090e-02
-1.138599921505131785e-02
-9.503987576421790706e-03
-7.682310704673844803e-03
-5.982217452831617432e-03
-4.455528164941269242e-03
-3.144210348648091014e-03
-2.079157374433482364e-03
-1.279457992198640426e-03
-7.521675418932782797e-04
-4.925698598555738883e-04
-4.848984666133149268e-04
-7.039172530045045839e-04
-1.125021331404962854e-03
-1.701506643670747110e-03
-2.385849861547995054e-03
-3.127147559533138832e-03
-3.873512696756509222e-03
-4.574502796036272745e-03
-5.183468449008715728e-03
-5.659712343929534928e-03
-5.970356449920152797e-03
-6.091828163808946095e-03
-6.033127238343816146e-03
-5.772990905695288277e-03
-5.316216723689939916e-03
-4.678733428782513859e-03
-3.885648774470229494e-03
-2.970193707707263764e-03
-1.972371742303080655e-03
-9.373622883133703176e-04
8.627140253725240626e-05
1.048517528279446775e-03
1.870102185755395663e-03
2.534527607754299972e-03
3.007676719991192460e-03
3.254527891764391612e-03
3.247735198852907956e-03
2.969330961007377034e-03
2.412083808285947484e-03
1.580413402120062205e-03
4.907868484950728138e-04
-8.284477181949578828e-04
-2.329495965783356937e-03
-3.956476056496960325e-03
-5.656838885151616036e-03
-7.373107274476098372e-03
-9.045796358699009776e-03
-1.061505407452015270e-02
-1.202221524334629033e-02
-1.321127135342654857e-02
-1.413027375251405676e-02
-1.473269553520293110e-02
-1.493004858957666658e-02
-1.469844196716728335e-02
-1.405336821756934806e-02
-1.299387849616190360e-02
-1.153219047671036335e-02
-9.693354697176526091e-03
-7.514356044553888170e-03
-5.042694295375127478e-03
-2.334527892376370151e-03
5.475010426853887946e-04
3.567139709129585334e-03
6.660330263632940895e-03
9.723161484148146183e-03
1.268374316435055826e-02
1.547388648098887987e-02
1.803107787395569206e-02
2.030023822752710649e-02
2.223523043027777341e-02
2.380008531122540516e-02
2.496992165520071916e-02
2.572423265783255197e-02
2.605371661089384006e-02
2.598170863939534836e-02
2.553315865310809563e-02
2.474418440307060707e-02
2.366055652323070801e-02
2.233579541869340490e-02
2.082897067299532834e-02
1.920231735003385953e-02
1.751879989249488512e-02
1.582705858843330704e-02
1.415440352176206007e-02
1.258967540807509611e-02
1.118491180759012549e-02
9.985671868863787992e-03
9.029736975251390074e-03
8.346057825508346184e-03
7.953994181500501082e-03
7.862890917389286916e-03
8.072027779295970484e-03
8.567935298049167425e-03
9.311302008770866445e-03
1.029144117762970101e-02
1.147897214352736756e-02
1.284124320167920330e-02
1.434379723142117577e-02
1.595180703250512200e-02
1.763143271910562471e-02
1.935105869523609523e-02
2.108237306079918660e-02
2.280108785068218902e-02
2.448085902476726528e-02
2.611236443374687077e-02
2.768844726546665358e-02
2.920779440511472869e-02
3.067437225214875163e-02
3.209653928200850714e-02
3.348587275682468611e-02
3.485576123642208923e-02
3.621982644442822696e-02
3.759024689060708191e-02
3.896806123199303418e-02
4.036335494623033426e-02
4.177584851854132530e-02
4.319731891950562286e-02
4.461108324257234692e-02
4.599110195008171420e-02
4.730141180258251588e-02
4.849593528995621572e-02
4.951870279020725851e-02
5.030451089198190173e-02
5.077535327280852107e-02
5.085302622003501360e-02
5.045479789598933396e-02
4.949504370644000617e-02
4.788865658718763352e-02
4.555372232693107037e-02
4.241431191087093044e-02
3.840331437518750002e-02
3.346522972962514414e-02
2.755883939729106280e-02
2.065780941285705330e-02
1.275736886746378640e-02
3.873768952557032907e-03
-5.955334210113238935e-03
-1.666923892756272396e-02
-2.818389806465959602e-02
-4.039221273315191096e-02
-5.316493855426984716e-02
-6.635220600293539883e-02
-7.978563826502482748e-02
-9.327884785952367253e-02
-1.066351518128487719e-01
-1.196505812026359972e-01
-1.321147894693780467e-01
-1.438167526387552630e-01
-1.545491374472116042e-01
-1.641127131518098081e-01
-1.723207027621764253e-01
-1.790029713347799645e-01
-1.840099529162591008e-01
-1.872071355284165572e-01
-1.884937448329494503e-01
-1.878133715275547011e-01
-1.851317355720089042e-01
-1.804480472139124991e-01
-1.737954898832157480e-01
-1.652409282123396272e-01
-1.548838497870680120e-01
-1.428545750841739015e-01
-1.293117935536575724e-01
-1.144290204993538423e-01
-9.839795387195236775e-02
-8.146263454584298791e-02
-6.386462874988235727e-02
-4.585541324340172697e-02
-2.769120932546726213e-02
-9.627666905199915026e-03
8.085448377915513407e-03
2.520940409401603577e-02
4.152132488056900494e-02
5.682360153586649143e-02
7.095526187376988148e-02
8.374881098935732515e-02
9.507706607952415290e-02
1.048421244714019540e-01
1.129765777175644192e-01
1.194440782369174392e-01
1.242392421636273059e-01
1.273868846998802984e-01
1.289405987031809753e-01
1.289797468989585805e-01
1.276029992724415085e-01
1.249438387741851897e-01
1.211452413904519076e-01
1.163634240251872898e-01
1.107636966089382002e-01
1.045162078795302540e-01
9.779171185652121845e-02
9.075748663858702880e-02
8.357353567514200221e-02
7.638914609634478436e-02
6.929473619417934882e-02
6.245013380573850859e-02
5.596306814886778391e-02
4.992396421372194415e-02
4.440497834256046383e-02
3.945945066089351361e-02
3.512177741259125963e-02
3.140770896536793089e-02
2.831507987738812737e-02
2.582497410733869403e-02
2.386509646025014586e-02
2.241850948318346859e-02
2.143612759643420684e-02
2.085702628772811984e-02
2.061543928427755912e-02
2.064314872273609325e-02
2.087174449869777515e-02
2.123468495216973562e-02
2.166910564039420395e-02
2.211733907527019261e-02
2.251803392292150985e-02
2.283791594110046175e-02
2.304450453997569648e-02
2.310959068356344126e-02
2.301277834755990903e-02
2.274143351300203508e-02
2.229042208169568218e-02
2.166164157560799414e-02
2.086335520711693828e-02
1.990934226224021913e-02
1.881704828800610796e-02
1.761541286717713262e-02
1.632858533193498607e-02
1.497830393043070307e-02
1.358491761293051381e-02
1.216667068316362732e-02
1.073915444023343380e-02
9.314907333816402346e-03
7.903139498640410210e-03
6.509555910057307493e-03
5.143346400457882162e-03
3.807139732903030982e-03
2.489337622480880530e-03
1.177698274786254107e-03
-1.443399850709070620e-04
-1.496967845447727541e-03
-2.903146303887771396e-03
-4.387629720980112946e-03
-5.975928212356707014e-03
-7.693270025065646056e-03
-9.538396502788093478e-03
-1.152729139255675994e-02
-1.371648998608271386e-02
-1.612524702230527796e-02
-1.876868184423005625e-02
-2.165735252733733129e-02
-2.479684870684717435e-02
-2.818736736734320236e-02
-3.182325492823644825e-02
-3.569252122954742756e-02
-3.975302358981476492e-02
-4.396324211796759363e-02
-4.834813261040400711e-02
-5.286654975807264512e-02
-5.746746727963913948e-02
-6.209092949628530755e-02
-6.666931782943341656e-02
-7.112882332570563682e-02
-7.539101878790721578e-02
-7.937443825428230904e-02
-8.299326941453188944e-02
-8.616742054436399290e-02
-8.883229007854931414e-02
-9.090390078363208559e-02
-9.229938746549692929e-02
-9.293917778980420596e-02
-9.274941053402074864e-02
-9.166449013732769213e-02
-8.962965635670006037e-02
-8.660343669542058809e-02
-8.256402857935674078e-02
-7.754298262735481728e-02
-7.150444038123882073e-02
-6.447393593634997977e-02
-5.649648285771202705e-02
-4.763646588876857546e-02
-3.797707372816921945e-02
-2.761930794334982453e-02
-1.668060489672745783e-02
-5.293104925808977956e-03
6.398401931584946079e-03
1.820043449809293640e-02
3.000188991188025567e-02
4.163635183766072057e-02
5.293263103148274085e-02
6.371987612509713572e-02
7.383165779141798168e-02
8.311011855806582638e-02
9.141001883571048259e-02
9.860251377880691059e-02
1.045785097231969329e-01
1.092354097053519491e-01
1.125335509138922774e-01
1.144400006682004811e-01
1.149440975097713036e-01
1.140610732306354125e-01
1.118317533887245308e-01
1.083216099886372685e-01
1.036191765460487968e-01
9.783385826685397912e-02
9.109319207967314647e-02
8.352091964932017998e-02
7.528301552110394645e-02
6.654900275745945226e-02
5.748573951448576747e-02
4.825943723660541806e-02
3.903143013498994174e-02
2.995407605129918327e-02
2.116691912357698824e-02
1.279324478474219706e-02
4.937151860569477524e-03
-2.330279696733494887e-03
-8.944385702823770545e-03
-1.486140841785102418e-02
-2.006803705027396245e-02
-2.457392835154378896e-02
-2.841016574462557065e-02
-3.162703795013244168e-02
-3.429123065838290962e-02
-3.648254372498256626e-02
-3.829025955949343085e-02
-3.979977974327000845e-02
-4.110302555755654397e-02
-4.230403354840621410e-02
-4.349523314211130309e-02
-4.476056625722166227e-02
-4.617185946509329286e-02
-4.778555103872045295e-02
-4.963991142450502325e-02
-5.175288971847007147e-02
-5.412070454958627791e-02
-5.670413126769392048e-02
-5.944327697198120708e-02
-6.228979940628290302e-02
-6.516152920204543175e-02
-6.796174452164034652e-02
-7.058221810997754309e-02
-7.290668723544083130e-02
-7.481464305870268172e-02
-7.618533063889107448e-02
-7.690184801902527623e-02
-7.685292966962017913e-02
-7.593802193824369939e-02
-7.408182658894296724e-02
-7.122258367396733236e-02
-6.732050376630593913e-02
-6.236010651508394620e-02
-5.635190668285755544e-02
-4.933337418802330454e-02
-4.136911331096015942e-02
-3.255022827894427095e-02
-2.299323512854045681e-02
-1.284291505208778883e-02
-2.258382924709589901e-03
8.587923927257490320e-03
1.951272407170490109e-02
3.032612995472405704e-02
4.083608097410518223e-02
5.085287079816558364e-02
6.019366686064775429e-02
6.868691948199673325e-02
7.617800012092784678e-02
8.254663226413094801e-02
8.765102932489177157e-02
9.140397776372669036e-02
9.374776094365819268e-02
9.465543846290892793e-02
9.413132664801082683e-02
9.221070484300555870e-02
8.895878708260150647e-02
8.446900927466158282e-02
7.886068934654358320e-02
7.230792793690984932e-02
6.493483101305341787e-02
5.691602478101154272e-02
4.844072943851984725e-02
3.970605616014116768e-02
3.091217965381326538e-02
2.225747731741750668e-02
1.393377819834440423e-02
6.121853788298825538e-03
-1.012733511945196341e-03
-7.326978967502173479e-03
-1.269305565928102730e-02
-1.700999896025323643e-02
-2.020425349256915748e-02
-2.223024564994419139e-02
-2.307107991839979499e-02
-2.273860500854479882e-02
-2.127286355901048670e-02
-1.874094462334921496e-02
-1.523526339635163096e-02
-1.090990088131948976e-02
-5.870322147380202527e-03
-2.505517905369014642e-04
5.784863087202274379e-03
1.206106082288704862e-02
1.839714567537031886e-02
2.461055069160278386e-02
3.052135299333036400e-02
3.595642844447821673e-02
4.075335380669053986e-02
4.473530145085002907e-02
4.778647113325851237e-02
4.981890565571467366e-02
5.074673988948441572e-02
5.050806262351248410e-02
4.906644708119456411e-02
4.641194781186874785e-02
4.256152022101611365e-02
3.755883469281495746e-02
3.147347587078963560e-02
2.439946646392765484e-02
1.645369071466701305e-02
7.772922812364968514e-03
-1.489215794488296662e-03
-1.116541230884707248e-02
-2.107827242288828548e-02
-3.104412889296059852e-02
-4.087696027118253861e-02
-5.039233378974239397e-02
-5.941129082088464353e-02
-6.775533818598844515e-02
-7.526304089809732201e-02
-8.180997795045885645e-02
-8.727544615945748152e-02
-9.156006526454141259e-02
-9.458787620663877682e-02
-9.630791732254895265e-02
-9.669523014446146369e-02
-9.575126358517049852e-02
-9.350366438734836194e-02
-8.999815145159684171e-02
-8.530069056752376255e-02
-7.953384425095966215e-02
-7.281733660918110473e-02
-6.528726125350647891e-02
-5.709303372878005156e-02
-4.839408951244794643e-02
-3.935639421382042258e-02
-3.014884211430257643e-02
-2.093962759272238738e-02
-1.188641758352093625e-02
-3.117333875482741767e-03
5.181513282718874791e-03
1.287635542141041256e-02
1.985007100954150339e-02
2.600410879634912353e-02
3.125994689776556701e-02
3.556008704404314824e-02
3.886858625296915615e-02
4.117112922797255825e-02
4.247538605888695473e-02
4.283198851738267976e-02
4.226316477454367115e-02
4.083078173967413793e-02
3.861196186733795166e-02
3.569687003520538582e-02
3.218630457743076878e-02
2.818915995646320560e-02
2.381982951044359087e-02
1.919561521066992515e-02
1.443420744799761568e-02
9.620253757865127042e-03
4.899986922302868031e-03
3.829739476135518572e-04
-3.833042317263557486e-03
-7.660405963661576223e-03
-1.102259599679666913e-02
-1.385502251116055294e-02
-1.610559814653078625e-02
-1.773510285591728408e-02
-1.871734949134257198e-02
-1.907584462586597862e-02
-1.877778631060667003e-02
-1.782302727808204867e-02
-1.623289030992092208e-02
-1.403988549753548698e-02
-1.128665245811383278e-02
-8.024800423058059407e-03
-4.313695303460124419e-03
-2.192348881198541433e-04
4.187357502872204873e-03
8.833672904744106769e-03
1.364002694135924010e-02
1.852439853252668342e-02
2.340504537912385663e-02
2.820035373870382819e-02
3.282995938491006099e-02
3.721589889438164239e-02
4.128378894162730572e-02
4.496402043549481420e-02
4.819294372154613038e-02
5.092111459549387986e-02
5.309826032821927250e-02
5.467898904494605805e-02
5.563291647313722832e-02
5.594014582547912617e-02
5.559173904283676304e-02
5.458999243490933462e-02
5.294850876363799141e-02
5.069206287929059473e-02
4.785626205514742493e-02
4.447162174688079617e-02
4.059146492699988729e-02
3.630019952979429698e-02
3.167190116926144050e-02
2.678682317356734233e-02
2.172976524044983870e-02
1.658821819412215071e-02
1.145031601468193827e-02
6.402647557534169032e-03
1.528000150757602427e-03
-3.106751323034395718e-03
-7.442524114732118612e-03
-1.140053040882671453e-02
-1.493132086726722818e-02
-1.799816991832270396e-02
-2.057808775025610215e-02
-2.266243849120230802e-02
-2.425713900402462486e-02
-2.538242569791601677e-02
-2.607218957536505677e-02
-2.636514967172323698e-02
-2.630357829448073947e-02
-2.598313102103647770e-02
-2.547897498032503788e-02
-2.487041562602976263e-02
-2.423836517165064985e-02
-2.366266322025334379e-02
-2.321930640134545198e-02
-2.297766249984400933e-02
-2.299776251039797881e-02
-2.332219050894729362e-02
-2.395163122117782706e-02
-2.495115527689373280e-02
-2.632374927628566841e-02
-2.805380407660496012e-02
-3.010722263472787041e-02
-3.243219799770513667e-02
-3.496062127622789895e-02
-3.761006085443630020e-02
-4.028624031059702126e-02
-4.288592752861453139e-02
-4.529872556244418647e-02
-4.741673418074510149e-02
-4.912973504521112034e-02
-5.033223597365765745e-02
-5.092717366675503232e-02
-5.082949265829195262e-02
-4.996948802824174862e-02
-4.829579922396809444e-02
-4.577794548401331598e-02
-4.240830060290073922e-02
-3.821246123706784070e-02
-3.321890108891845106e-02
-2.749247514984404228e-02
-2.112380109123318528e-02
-1.422583155246959219e-02
-6.931038081614715463e-03
6.121162681822223117e-04
8.243286127651669459e-03
1.579478445286981725e-02
2.309639162924525396e-02
2.999421919853070481e-02
3.632257308502499782e-02
4.192674561848515336e-02
4.667053182993514265e-02
5.043709936748667910e-02
5.313275172579187688e-02
5.469012959042740540e-02
5.507073501368892066e-02
5.426667596689566109e-02
5.230154672559861329e-02
4.924278779256960337e-02
4.517004652269862586e-02
4.018952799274316812e-02
3.443908360163022708e-02
2.807838124041453498e-02
2.128459859132958432e-02
1.424756488139145016e-02
7.164504496993490124e-03
2.345477641090831789e-04
-6.346820493286026155e-03
-1.239969950814195920e-02
-1.775188664360759228e-02
-2.224414029820531713e-02
-2.574513823437443727e-02
-2.815015985073900107e-02
-2.938404309328921521e-02
-2.940335962889051302e-02
-2.819774654116804710e-02
-2.579035119786604602e-02
-2.223736610034561523e-02
-1.764070737636524305e-02
-1.212057871581075780e-02
-5.799668798449099383e-03
1.157967962182381710e-03
8.570152649283404103e-03
1.624156520269545365e-02
2.396906346970141544e-02
3.154717520742723880e-02
3.877360328520319810e-02
4.545459273532428957e-02
5.139931898912550312e-02
5.643437839681728074e-02
6.044576486600783394e-02
6.332255983638901409e-02
6.498270300799513510e-02
6.537500961717335191e-02
6.448033347791726211e-02
6.231185048010529082e-02
5.891446756532303652e-02
5.436339164088654918e-02
4.875783612485812268e-02
4.221142988266496365e-02
3.489018650554182033e-02
2.696492815183887393e-02
1.862045984856192105e-02
1.005057748243848303e-02
1.452838802516343009e-03
-6.976748635101504004e-03
-1.504896434493627200e-02
-2.258637985232792023e-02
-2.942747751253870642e-02
-3.542902723881645455e-02
-4.048131543143829170e-02
-4.449400654770113706e-02
-4.740497072156196756e-02
-4.918157891870206244e-02
-4.982119036572751902e-02
-4.935082556778480622e-02
-4.782604444422189349e-02
-4.532907429256460841e-02
-4.196625499205897114e-02
-3.783198721630764982e-02
-3.310145888300397576e-02
-2.793665636919406836e-02
-2.250818819303923579e-02
-1.699134306857752463e-02
-1.156116133028983750e-02
-6.387496289769090119e-03
-1.630217202689965283e-03
2.565289849764063046e-03
6.072169483357592323e-03
8.822921801756811178e-03
1.070621983166075708e-02
1.165897702372727107e-02
1.165140062287383510e-02
1.068149581073768450e-02
8.774744871773210164e-03
5.983060689562669232e-03
2.383062165942251287e-03
-1.926270212409209037e-03
-6.826491821213642730e-03
-1.217026502119644693e-02
-1.782268462508929119e-02
-2.363402519960200454e-02
-2.944530032107928186e-02
-3.509756264239316526e-02
-4.043640038999307684e-02
-4.531628588781977385e-02
-4.960463003032034024e-02
-5.318540463054999279e-02
-5.596220929708339842e-02
-5.787531475361340494e-02
-5.886801904168470490e-02
-5.890410428827974609e-02
-5.798023256080875321e-02
-5.611705791574472801e-02
-5.335800093546749778e-02
-4.976742088493080196e-02
-4.542826397469168498e-02
-4.043927289387505564e-02
-3.491184622764254009e-02
-2.897982142565574959e-02
-2.276562956241209856e-02
-1.638334464043200711e-02
-9.958967321684511487e-03
-3.613799295314260029e-03
2.538959366422566255e-03
8.397297941686088230e-03
1.387306015175343576e-02
1.889409466647457014e-02
2.340581957263743185e-02
2.737423300088792644e-02
3.078262819629595803e-02
3.362861438729436436e-02
3.593046896604679130e-02
3.772238753141110568e-02
3.905243478717423944e-02
3.998010027109555331e-02
4.057356082656415897e-02
4.090675543506505640e-02
4.105637709583365158e-02
4.110046084393026433e-02
4.111310596286843477e-02
4.115708741553902872e-02
4.129200367451069109e-02
4.156741528370211380e-02
4.202100715444323509e-02
4.267715168644536927e-02
4.354591887137992945e-02
4.462256771469585992e-02
4.588753962810410147e-02
4.730312521728907704e-02
4.881029061286001891e-02
5.037060400343557065e-02
5.191550363983760130e-02
5.336817306791175053e-02
5.464620744763282190e-02
5.566448207693958095e-02
5.633810340404117600e-02
5.658532675293748843e-02
5.633033531657102855e-02
5.550490590814607939e-02
5.404262248344904318e-02
5.191630195980581619e-02
4.909554515036843036e-02
4.556438381044669583e-02
4.132224305659226715e-02
3.638454829940829249e-02
3.078294867495351417e-02
2.456513619083777744e-02
1.779424938238399756e-02
1.054786204172936115e-02
2.932349346242091315e-03
-4.967297231442180383e-03
-1.304199366890337886e-02
-2.117479671628560989e-02
-2.924443149607014458e-02
-3.712798459680910490e-02
-4.470361360650602911e-02
-5.185318817873661723e-02
-5.846478757285050731e-02
-6.443499259901690202e-02
-6.966097438272492171e-02
-7.407455092919040807e-02
-7.761119344110349594e-02
-8.021818688493154159e-02
-8.185804565628841678e-02
-8.250926000764517709e-02
-8.216675213842970782e-02
-8.084202111761165654e-02
-7.856296085273827001e-02
-7.537334252370715693e-02
-7.133788176675381898e-02
-6.652594714118711949e-02
-6.101959280251165185e-02
-5.491360763946701029e-02
-4.831138877239243845e-02
-4.132289398388144797e-02
-3.406250347042388826e-02
-2.664684308481335417e-02
-1.919261808112504575e-02
-1.181450156137908714e-02
-4.620413402000256298e-03
2.283592865276462547e-03
8.798422133350136676e-03
1.483614527173582331e-02
2.031951572964285635e-02
2.518313410372041705e-02
2.937439660417229259e-02
3.285421589423043187e-02
3.559750176831877333e-02
3.759338858570837605e-02
3.885738825470064217e-02
3.940350197836367530e-02
3.924735092967152061e-02
3.843142250641606861e-02
3.701001980944934600e-02
3.504772301473585427e-02
3.261764050161208850e-02
2.979951540709280255e-02
2.667775173807512834e-02
2.333941873980471815e-02
1.987583353022445709e-02
1.637334839322288071e-02
1.290839318217730514e-02
9.560315507094296894e-03
6.402721548497802839e-03
3.501932671197917693e-03
9.155927978553926594e-04
-1.308534825581353367e-03
-3.133544029795445884e-03
-4.534101159930054026e-03
-5.500030238651726355e-03
-6.034618475714514929e-03
-6.138378487091228353e-03
-5.833059373198501429e-03
-5.151210458422761373e-03
-4.135008576596599372e-03
-2.834841109992269903e-03
-1.307701681405648575e-03
3.845416822055303108e-04
2.176946750091168781e-03
4.001962276151516118e-03
5.790542709299961732e-03
7.489340600991489794e-03
9.037790644114362948e-03
1.037984176814826798e-02
1.146551174745780166e-02
1.225231113856956044e-02
1.270648310528549318e-02
1.280400891357275084e-02
1.253133542213891172e-02
1.188530344643784487e-02
1.086253937690950799e-02
9.499717341070745835e-03
7.825651390934940110e-03
5.877642472003452578e-03
3.700520329369461070e-03
1.345493546779180649e-03
-1.131172298082794292e-03
-3.669619372558607928e-03
-6.207967283764131983e-03
-8.683942089369955930e-03
-1.106879703677934867e-02
-1.327170973149041644e-02
-1.523365782660679457e-02
-1.690452770658573689e-02
-1.824134710639627177e-02
-1.920933046744380257e-02
-1.978274429058846096e-02
-1.994557646162725684e-02
-1.969198931852056411e-02
-1.902653318195984822e-02
-1.798114569340669711e-02
-1.656956255408353895e-02
-1.482002589767772438e-02
-1.277266320311243319e-02
-1.047464025296207524e-02
-7.979026516981790884e-03
-5.343523231270741469e-03
-2.629083168775303569e-03
1.015458987188022633e-04
2.785319817014908494e-03
5.379234194671567160e-03
7.808620875801475236e-03
1.000816236750601274e-02
1.192802987153318561e-02
1.352560291135462833e-02
1.476630112469984324e-02
1.562424205774076702e-02
1.608273208630281448e-02
1.613459059489222303e-02
1.578229953913878880e-02
1.506196742293445384e-02
1.398495286755460643e-02
1.256084184466438325e-02
1.082636485684368433e-02
8.825976337835828023e-03
6.610651355122176831e-03
4.236523067003283849e-03
1.763412433589461870e-03
-7.467014522105630547e-04
-3.231227892305787996e-03
-5.623705536792922288e-03
-7.863675748448373248e-03
-9.901886273322890730e-03
-1.168902449588737902e-02
-1.318221238055117261e-02
-1.434601038451877031e-02
-1.515325521125876485e-02
-1.558571963447930031e-02
-1.563458385736793410e-02
-1.530070865131971658e-02
-1.459611430030793855e-02
-1.353820136399386254e-02
-1.215235077241505479e-02
-1.047818685382917447e-02
-8.563885504154433725e-03
-6.464796565260444439e-03
-4.241809457869671895e-03
-1.959530843793300114e-03
3.156488145010794000e-04
2.517520236593018268e-03
4.585468238135881336e-03
6.471787450316235368e-03
8.111291613156462743e-03
9.452967951140173186e-03
1.045300839053239783e-02
1.107624856756958542e-02
1.129747268434919127e-02
1.110253168300240345e-02
1.048921843071629056e-02
9.467843467498404664e-03
8.062919905097554185e-03
6.320600389592145874e-03
4.277514343029975574e-03
1.990755849622438678e-03
-4.733212454525181911e-04
-3.040756413147716053e-03
-5.631907682511205770e-03
-8.163588151229972389e-03
-1.055134380211164569e-02
-1.271179727178117780e-02
-1.456506358053422101e-02
-1.606342930802506785e-02
-1.711709668154831609e-02
-1.766598361061799682e-02
-1.766055654317338908e-02
-1.706355178365320802e-02
-1.585149579086558846e-02
-1.401596492640266867e-02
-1.156451941607300471e-02
-8.521244707359987292e-03
-4.926837594102284612e-03
-8.764894246231780262e-04
3.586494760904335166e-03
8.385396641291953390e-03
1.342853184159324698e-02
1.861556417182275158e-02
2.383966878378292881e-02
2.898985586424519117e-02
3.395341089512872446e-02
3.861841068493351153e-02
4.287627651190054068e-02
4.660364848991319087e-02
4.971556986379295495e-02
5.213718427952505896e-02
5.380272258206783564e-02
5.466224109452000324e-02
5.468279040456763135e-02
5.384914062648125249e-02
5.216406650196756672e-02
4.964821014658388210e-02
4.633955037276089872e-02
4.228040405656746659e-02
3.754092789296775701e-02
3.221218412936824316e-02
2.639350656405298201e-02
2.019504510451836099e-02
1.373506543539038116e-02
7.136992990385393476e-03
5.262928879274930694e-04
-5.972713303443677457e-03
-1.223998882760485296e-02
-1.816385573821260868e-02
-2.364121624312637282e-02
-2.858076245698720763e-02
-3.290663292188622524e-02
-3.655906385218288257e-02
-3.949550355758330022e-02
-4.169125509095839011e-02
-4.313966333938173969e-02
-4.385187835220238917e-02
-4.385623749556655238e-02
-4.317702554515873148e-02
-4.185872421463132653e-02
-4.000239064678959289e-02
-3.770072357013082298e-02
-3.505789921749499771e-02
-3.218646357943899527e-02
-2.920384492748743371e-02
-2.622862529772536366e-02
-2.337673559780477361e-02
-2.075775360676547499e-02
-1.844859412323990311e-02
-1.650061547008391249e-02
-1.503608524146382575e-02
-1.412025237482261719e-02
-1.380240583918945774e-02
-1.411428295060956906e-02
-1.506881006258625755e-02
-1.665922561362137566e-02
-1.885864183245766768e-02
-2.162010357782340186e-02
-2.487061907986548581e-02
-2.850371901342646508e-02
-3.244456389987632194e-02
-3.658185628644200493e-02
-4.079390534469723439e-02
-4.495168950700878518e-02
-4.892218034589407294e-02
-5.257183249901936639e-02
-5.577013678891445947e-02
-5.839313027107650989e-02
-6.032836907912358937e-02
-6.149147266671523004e-02
-6.178107146257100224e-02
-6.112777445522188380e-02
-5.948175970028929394e-02
-5.681441511573942504e-02
-5.311950810581939075e-02
-4.841383851652486525e-02
-4.273733423147385579e-02
-3.615255624544805313e-02
-2.874359126970635336e-02
-2.064522621327308238e-02
-1.195219950674641929e-02
-2.796134335719430153e-03
6.680232126595436748e-03
1.632716627799919717e-02
2.599150460284882502e-02
3.552030316470104060e-02
4.476448562657797670e-02
5.358240810818935829e-02
6.184326205974936819e-02
6.940693744683958111e-02
7.618669312120146531e-02
8.210883909114102819e-02
8.711906948203981815e-02
9.118656160688654033e-02
9.430414437924888871e-02
9.648771589773963431e-02
9.777495253772833239e-02
9.822337842491341009e-02
9.790788520463011846e-02
9.689052999946667910e-02
9.528366728002174435e-02
9.320802656382864981e-02
9.078171883035984768e-02
8.812412351522752596e-02
8.535156253454889708e-02
8.257298717713529301e-02
7.988583576568719646e-02
7.737222636026569456e-02
7.509564685275255114e-02
7.307007637342047279e-02
7.132576044398528103e-02
6.987706568839016641e-02
6.869865038396302803e-02
6.774195058463963748e-02
6.693660659906827681e-02
6.619264215032966137e-02
6.540332598240909678e-02
6.444863151074142760e-02
6.319919885908385770e-02
6.150869714463864935e-02
5.924585398887449728e-02
5.629341733781029200e-02
5.253131331555213612e-02
4.785316569791181474e-02
4.217083986771602566e-02
3.541857668950043614e-02
2.755655986430832760e-02
1.857377577916347056e-02
8.490046989331923033e-03
-2.635602346982512945e-03
-1.471515843652709821e-02
-2.764517167784169560e-02
-4.128292363986257874e-02
-5.545923353200860051e-02
-6.998191885708582305e-02
-8.463995037941052235e-02
-9.920818473392023495e-02
-1.134525477129307292e-01
-1.271355343966208973e-01
-1.400104466382118829e-01
-1.518330228589128139e-01
-1.624197534336099258e-01
-1.715791376578577054e-01
-1.791436959019002129e-01
-1.849741443197674973e-01
-1.889628131616053475e-01
-1.910362112340860397e-01
-1.911566730735613784e-01
-1.893230608508833512e-01
-1.855646083018306913e-01
-1.799273490690048161e-01
-1.725432147220973822e-01
-1.635498976523815651e-01
-1.531127083004513167e-01
-1.414202259829444586e-01
-1.286793886504330742e-01
-1.151101774298007030e-01
-1.009400674970561268e-01
-8.639842560439531249e-02
-7.170904402964867197e-02
-5.705872123756782627e-02
-4.268210642191741511e-02
-2.876846021766268913e-02
-1.548646600930286832e-02
-2.981246904050299795e-03
8.627920957048784700e-03
1.924916335880377805e-02
2.881881083721882231e-02
3.730144411981822783e-02
4.468919295947593184e-02
5.103862915098694719e-02
5.635263089963671312e-02
6.069000418063452695e-02
6.413007178909591044e-02
6.676695258213949380e-02
6.870580903660028493e-02
7.005901278514214958e-02
7.094235802471304808e-02
7.147143699575986275e-02
7.175827241244259191e-02
7.192498969337157710e-02
7.205315721393623640e-02
7.222269155472549329e-02
7.250369245205523505e-02
7.295176553905657890e-02
7.360722915383655085e-02
7.449480773565797520e-02
7.562379669413821226e-02
7.698867140570797574e-02
7.857010155958676911e-02
8.031284681029426942e-02
8.219277636597444037e-02
8.416983756257678806e-02
8.618696108291035163e-02
8.818197294703378208e-02
9.008982767304440920e-02
9.184476007734743153e-02
9.338228166975837130e-02
9.464096922214471075e-02
9.556401577333129005e-02
9.606254538863479020e-02
9.610980495917686994e-02
9.569906310151404805e-02
9.480632561582680307e-02
9.341607528581835629e-02
9.152143704296406002e-02
8.912409034033101640e-02
8.623392948136117397e-02
8.286849020483644246e-02
7.905217829138388996e-02
7.479408703906662015e-02
7.013199111795054286e-02
6.513048801488341422e-02
5.983381921572761275e-02
5.428778726852634406e-02
4.853896273255042804e-02
4.263397587311812398e-02
3.661887999892365908e-02
3.053857275130145155e-02
2.443626424396583285e-02
1.834762456545890874e-02
1.231315517499709244e-02
6.379395941492949085e-03
5.768832656120048696e-04
-5.068479034188611010e-03
-1.053518698313671287e-02
-1.580574854597327494e-02
-2.086619124590671781e-02
-2.570551883711247321e-02
-3.031516871169581684e-02
-3.468759029287959983e-02
-3.881528159240543729e-02
-4.269689637752605016e-02
-4.633018616809136958e-02
-4.971399060062453579e-02
-5.284816558741933790e-02
-5.573356163291287579e-02
-5.837203063405826953e-02
-6.076643869918219032e-02
-6.292066445428989852e-02
-6.483603660264147805e-02
-6.651281609782100368e-02
-6.798558021952261221e-02
-6.925764554296831577e-02
-7.033018481357111718e-02
-7.120307531262115575e-02
-7.187595063296803310e-02
-7.234932566624396877e-02
-7.262566106054135773e-02
-7.271024331412179187e-02
-7.261063370225584457e-02
-7.232061516521870459e-02
-7.190196272596405258e-02
-7.136876065158892501e-02
-7.073350963080238252e-02
-7.000735474124442081e-02
-6.920043624743421606e-02
-6.832227668071888527e-02
-6.738211684017170189e-02
-6.638912296259397161e-02
-6.535240575489437154e-02
-6.426292812109701824e-02
-6.315342605999499370e-02
-6.203227821922988744e-02
-6.090267290094966701e-02
-5.976400355814995291e-02
-5.861141473047726258e-02
-5.743545287812551470e-02
-5.622185819314140520e-02
-5.495153266607799569e-02
-5.360071587319015229e-02
-5.213141061410953014e-02
-5.051097153132322326e-02
-4.870954258593696018e-02
-4.669586773784417666e-02
-4.443941700386022653e-02
-4.191111080669362998e-02
-3.908404537346688024e-02
-3.593424366551456473e-02
-3.244145475160964409e-02
-2.859001781970982314e-02
-2.436994911702838884e-02
-1.976735391631345706e-02
-1.478650392430869154e-02
-9.444151112526055769e-03
-3.767820819831735335e-03
2.204196507348044065e-03
8.423171300553811136e-03
1.483055436252067594e-02
2.135885867855669140e-02
2.793276886980100571e-02
3.446340220353860673e-02
4.087461692765481658e-02
4.708249543880871357e-02
5.299203911553918012e-02
5.850699521726454577e-02
6.353233704980076890e-02
6.797685623506921626e-02
7.175575848793414035e-02
7.479315458728974519e-02
7.702434559057136365e-02
7.839067469374239039e-02
7.886432136086668487e-02
7.843549967275664780e-02
7.709710501517963444e-02
7.485759400153482734e-02
7.174167206306464317e-02
6.779068791096995450e-02
6.306267199217256703e-02
5.763196570536840979e-02
5.158840372018536069e-02
4.503005443499225047e-02
3.807506865465348778e-02
3.086444734822724190e-02
2.353095160295837207e-02
1.621103645459109899e-02
9.042333267589408585e-03
2.161103567517974611e-03
-4.300301277477380779e-03
-1.021593806665277437e-02
-1.546868793269029485e-02
-1.995516760292115332e-02
-2.358779713692549240e-02
-2.627936383119611197e-02
-2.796854860921510477e-02
-2.861231483468101855e-02
-2.818689247271577436e-02
-2.668840418476953191e-02
-2.413312095106051602e-02
-2.055734116255109045e-02
-1.601689346302506700e-02
-1.058497164198732299e-02
-4.347287455074733131e-03
2.576895201759368814e-03
1.006599219987344696e-02
1.798705347208045396e-02
2.619799067034355930e-02
3.454997720674910650e-02
4.288999747121194361e-02
5.106351536759835136e-02
5.891722439702328645e-02
6.630193511570214859e-02
7.309375866047314318e-02
7.913354943920292150e-02
8.430050883138032192e-02
8.848917035508943596e-02
9.161121054684377707e-02
9.359690609908172254e-02
9.439624328919515861e-02
9.397969103819833747e-02
9.233865006457867008e-02
8.948558823664065631e-02
8.545831410650711613e-02
8.029633581171369272e-02
7.407396800702464867e-02
6.688681292133330514e-02
5.884855115553899729e-02
5.008842143122838042e-02
4.074829814716923737e-02
3.097946644824628448e-02
2.093920396974691123e-02
1.078728122917643750e-02
6.808579364764866249e-04
-9.234366569969398864e-03
-1.880971135517478521e-02
-2.790420659418052507e-02
-3.638859159887181116e-02
-4.414826076110733855e-02
-5.108591622010189015e-02
-5.712382457146453207e-02
-6.220558355080663127e-02
-6.629731923997017606e-02
-6.938690557026225281e-02
-7.149442549561219051e-02
-7.265501689332712343e-02
-7.292105875507129409e-02
-7.236277706920959951e-02
-7.106623693211225334e-02
-6.913095663273291502e-02
-6.666718005994975993e-02
-6.379285498294731682e-02
-6.063037743471644259e-02
-5.730385347979816135e-02
-5.393797883320250452e-02
-5.064744916825628107e-02
-4.753627413394459489e-02
-4.469555467010807859e-02
-4.220107920926544076e-02
-4.011142974377429615e-02
-3.846665005045324381e-02
-3.728750994386301199e-02
-3.657538043111019377e-02
-3.631492975193761907e-02
-3.646828801452506319e-02
-3.698002194257632436e-02
-3.778537247712332459e-02
-3.880848775411951945e-02
-3.996505072834388717e-02
-4.116513110469996461e-02
-4.231620107380820728e-02
-4.332624911479401875e-02
-4.410691963352000866e-02
-4.457772905839868516e-02
-4.465925746179064126e-02
-4.428661342300738157e-02
-4.341888446068462026e-02
-4.203354030849897061e-02
-4.012707774066850280e-02
-3.771492744857141144e-02
-3.483066488243833497e-02
-3.152459300122884001e-02
-2.786178447966021834e-02
-2.391994731982037548e-02
-1.978184326738344212e-02
-1.553778986283727015e-02
-1.128753209281752046e-02
-7.132383463958530401e-03
-3.171669465530241316e-03
5.008008773456362750e-04
3.800104836828438470e-03
6.653291076018752470e-03
9.002063552540795488e-03
1.080547443926732631e-02
1.204389694982682668e-02
1.270745453931415581e-02
1.281233544178783657e-02
1.239423057982302900e-02
1.150711612211430257e-02
1.022137725297711519e-02
8.621351927590836794e-03
6.802393068371048734e-03
4.867562478127140935e-03
2.924079561857140241e-03
1.084485162582859985e-03
-5.524216319189312330e-04
-1.889090320726594108e-03
-2.837686722061416589e-03
-3.323157380946462069e-03
-3.285717656930531305e-03
-2.682809989861256739e-03
-1.490470838396484865e-03
2.959338841979075596e-04
2.661622848266098629e-03
5.563411144510865824e-03
8.966377606533848521e-03
1.280432694561683959e-02
1.699396577709899603e-02
2.144016850609209435e-02
2.603953237198330939e-02
3.068420330247834116e-02
3.526579676393593044e-02
3.967924013035195596e-02
4.382637474955042300e-02
4.760284792092595030e-02
5.095398037308718209e-02
5.382589780567986759e-02
5.617278397711139570e-02
5.796499490459308679e-02
5.918977211918491355e-02
5.985134954828265352e-02
5.997042855052231447e-02
5.958302282453548093e-02
5.873870438474793065e-02
5.749177851922382398e-02
5.591400393155554482e-02
5.408469269665416856e-02
5.208185573076351549e-02
4.998238607690541624e-02
4.785869218844496231e-02
4.577553501218023513e-02
4.378721425947929013e-02
4.193523607310223333e-02
4.024657378825446941e-02
3.873011479786447886e-02
3.737187694502641655e-02
3.615345506967670985e-02
3.504507068993389929e-02
3.400585644239173533e-02
3.298541071491989385e-02
3.192569370798215012e-02
3.076323892216947797e-02
2.943164551719101851e-02
2.786430472898260291e-02
2.599598705842753876e-02
2.375999460990418921e-02
2.110719142956141159e-02
1.800337014310093853e-02
1.442981097514883793e-02
1.038479626990818083e-02
5.884487906610558206e-03
9.631387496334964382e-04
-4.327366085181694189e-03
-9.918618548312330141e-03
-1.571951703175789028e-02
-2.162347264544173253e-02
-2.754590323675010222e-02
-3.337643657862510160e-02
-3.900129835107690734e-02
-4.430672802466778526e-02
-4.918238377956152263e-02
-5.352462862880780214e-02
-5.723960576805198208e-02
-6.024602830600794823e-02
-6.246853202296603902e-02
-6.382264645585578045e-02
-6.432207929902694632e-02
-6.396113516167356572e-02
-6.275517010460529566e-02
-6.074030860334772575e-02
-5.797247470372640654e-02
-5.452576246237067492e-02
-5.049020305202850389e-02
-4.596901639146738772e-02
-4.107415089344779169e-02
-3.590692278563384354e-02
-3.061098439324343168e-02
-2.531049886488977510e-02
-2.012586461567482388e-02
-1.517050929841633200e-02
-1.054800810146619416e-02
-6.349603554751948042e-03
-2.652184665125290053e-03
4.832364962282786891e-04
3.012531590978362317e-03
4.889930257694796722e-03
6.122627600605445863e-03
6.721104855752724205e-03
6.711151967226602899e-03
6.133293218724578111e-03
5.040819179929600935e-03
3.497484176294030078e-03
1.574967083481260133e-03
-6.497952315540622692e-04
-3.097286301442458978e-03
-5.701481407600850204e-03
-8.376437413251114350e-03
-1.104514862142447207e-02
-1.363867108202243550e-02
-1.609515612722978162e-02
-1.836093107562808413e-02
-2.039117698206238671e-02
-2.215019914646076948e-02
-2.361130315151926951e-02
-2.475630554504881786e-02
-2.557567990715736705e-02
-2.606474925301405232e-02
-2.622455558634684269e-02
-2.606054206024166486e-02
-2.558070925168165477e-02
-2.479421503439216412e-02
-2.371009381622191103e-02
-2.233616871142951599e-02
-2.067822020098741831e-02
-1.873946166798490243e-02
-1.653115366790408602e-02
-1.404392845245994170e-02
-1.126527098099200375e-02
-8.189843401714524962e-03
-4.812750706195995098e-03
-1.130788806161048266e-03
2.856139826183837216e-03
7.143503314468460652e-03
1.172058527516639526e-02
1.656898398235087666e-02
2.163916950012968743e-02
2.689378107594750378e-02
3.231023794267640081e-02
3.783197570294638545e-02
4.339112402387648726e-02
4.890888322383646347e-02
5.429632974736647855e-02
5.945565461737867263e-02
6.428183276682342129e-02
6.866471347721786467e-02
7.247794591310513512e-02
7.559984270414088492e-02
7.794579149293801024e-02
7.941643559059385904e-02
7.992285842965762832e-02
7.938989991664535673e-02
7.775926562899826422e-02
7.499229654046313254e-02
7.107227714887331960e-02
6.600617649069595583e-02
5.982995019700698691e-02
5.261339356851757465e-02
4.442749442368099100e-02
3.537388606735047958e-02
2.557503254758664024e-02
1.517236167745594777e-02
4.323943384489714603e-03
-6.798271835291691545e-03
-1.801163820428230977e-02
-2.912640139435196396e-02
-3.994124652711406043e-02
-5.021860923743926008e-02
-5.982038632354669261e-02
-6.857792685520402998e-02
-7.633886510830745209e-02
-8.297070391688377011e-02
-8.836380966247858737e-02
-9.243373366447116268e-02
-9.512280949516360717e-02
-9.640101125291855588e-02
-9.626465554516150380e-02
-9.470028178705347521e-02
-9.180256084767968172e-02
-8.764967909937393387e-02
-8.234190972281929533e-02
-7.599903656297313237e-02
-6.875742130913220507e-02
-6.076677323051471458e-02
-5.218668702333340015e-02
-4.318302177796033009e-02
-3.392420187128027120e-02
-2.457670327027391965e-02
-1.531013474180129008e-02
-6.277884348372009260e-03
2.379176658071968653e-03
1.053469946783625044e-02
1.807866850120520841e-02
2.491865917929714236e-02
3.098055824242018641e-02
3.620878304542918258e-02
4.056605311188665741e-02
4.401898245441526747e-02
4.657308308578778089e-02
4.824607445694573116e-02
4.906744801026974301e-02
4.907981883261580691e-02
4.833714710694625438e-02
4.690290545098529940e-02
4.484826138326636347e-02
4.225033937835842579e-02
3.919061870414730642e-02
3.573568329315057746e-02
3.197714304298937549e-02
2.801188336920734656e-02
2.393080430619853871e-02
1.982475164627883757e-02
1.578352032177887665e-02
1.189485055294725591e-02
8.243418225950538414e-03
4.909828249282321977e-03
1.969624792983015737e-03
-5.201859697130384319e-04
-2.500280250523845282e-03
-3.905511860704424798e-03
-4.684931692886418197e-03
-4.795934305495852534e-03
-4.205663035511508774e-03
-2.892515297405556796e-03
-8.476808751898406991e-04
1.923367954331040020e-03
5.399525021310580541e-03
9.546663688581813467e-03
1.430885126289571652e-02
1.960773997594678075e-02
2.535202633635080804e-02
3.143339495557606611e-02
3.772768362746492521e-02
4.409662776300016240e-02
5.039017417170610358e-02
5.644932645093225787e-02
6.210945822519975401e-02
6.721124521371835137e-02
7.160169322191012320e-02
7.510914267566581870e-02
7.758150734164814821e-02
7.888017760442878057e-02
7.888453646452520118e-02
7.749630585176014996e-02
7.464355196987026986e-02
7.028417755934524003e-02
6.440873686659731590e-02
5.703996974941172304e-02
4.823980904062907804e-02
3.811624121965762058e-02
2.679808046679443834e-02
1.444523758483129416e-02
1.246090080916473219e-03
-1.258601066535036672e-02
-2.681705187998989492e-02
-4.119741389621239813e-02
-5.546755399056944869e-02
-6.936721662655551124e-02
-8.265191561609541715e-02
-9.504484430130727413e-02
-1.063102063241136985e-01
-1.162349050064991340e-01
-1.246339874139548165e-01
-1.313553515002109373e-01
-1.362835821120964575e-01
-1.393428053017236046e-01
-1.404984764708181455e-01
-1.397579946436380283e-01
-1.371639767984957903e-01
-1.328167756668998667e-01
-1.268416944257717560e-01
-1.193967324433966581e-01
-1.106681467091024107e-01
-1.008652732402104402e-01
-9.021473475228569683e-02
-7.895418455645564215e-02
-6.732575846465937985e-02
-5.556942460801028716e-02
-4.389811408106403245e-02
-3.255584493732721629e-02
-2.174000293395905725e-02
-1.161767241481992397e-02
-2.324926998060972139e-03
6.035625927399812518e-03
1.339614278693623817e-02
1.972370633935038864e-02
2.501941074542018972e-02
2.931645484501149701e-02
3.267422320859447726e-02
3.517772237370875299e-02
3.693858432232288713e-02
3.808617498127891965e-02
3.876235582387085876e-02
3.911578409394067535e-02
3.929608850176549706e-02
3.944811705899836651e-02
3.970645298229739939e-02
4.019038677865592601e-02
4.099449938919083603e-02
4.220222803383766319e-02
4.386682452823398304e-02
4.600946400172112316e-02
4.862228778351274094e-02
5.166908131242975433e-02
5.508699921033122227e-02
5.878922542365239146e-02
6.266842430408625653e-02
6.660081617052315828e-02
7.046166522875640936e-02
7.411425300075458189e-02
7.740372828282049422e-02
8.018234735764007137e-02
8.230831485580802909e-02
8.365087669082094113e-02
8.409512871680835389e-02
8.354636457983566356e-02
8.193379514751530923e-02
7.921348928073967954e-02
7.538084933757749351e-02
7.045750087673474660e-02
6.447386179814285079e-02
5.750011338623362001e-02
4.963267469474152982e-02
4.099172319432176081e-02
3.171804218807777742e-02
2.196930636677807414e-02
1.191592956287618188e-02
1.736606656843220353e-03
-8.389739535625689859e-03
-1.828621102214006422e-02
-2.776934303017729311e-02
-3.667219172813893091e-02
-4.484164630931157525e-02
-5.214213717548693561e-02
-5.845885579602218274e-02
-6.370039899293526708e-02
-6.780076119034011972e-02
-7.072061214155817011e-02
-7.245819730335584241e-02
-7.305741328708667548e-02
-7.251589956568763040e-02
-7.089479012515328971e-02
-6.827689215105939291e-02
-6.476382016344142678e-02
-6.047273973151998105e-02
-5.553284054902764277e-02
-5.008165084709500364e-02
-4.426129309727169781e-02
-3.821896303913973475e-02
-3.213204393961075628e-02
-2.609053978425193709e-02
-2.021577625883053120e-02
-1.461674157520380379e-02
-9.387670421937249765e-03
-4.606115279952388564e-03
-3.315563657619591265e-04
3.395418546244893809e-03
6.553354674477124275e-03
9.139602856983231050e-03
1.118397300479290202e-02
1.269574624698210918e-02
1.372198549279257662e-02
1.432401006559330670e-02
1.457416656352328310e-02
1.455274653467270030e-02
1.434475279789382274e-02
1.403663945583433215e-02
1.371313722674355473e-02
1.345425808163702719e-02
1.338378103088938564e-02
1.350905633657389915e-02
1.386991548019650411e-02
1.450294506132537853e-02
1.543097846388774563e-02
1.666184147999177911e-02
1.818756908036772701e-02
1.998415910509049320e-02
2.201190101369349117e-02
2.421628611707335454e-02
2.654853333883608335e-02
2.891270458680972322e-02
3.121266378155805599e-02
3.335338954600685496e-02
3.523695165889648151e-02
3.676543643343593848e-02
3.784389804155345594e-02
3.838326271186168204e-02
3.830311677663278402e-02
3.753431387610531300e-02
3.600892385908027737e-02
3.369367184547239491e-02
3.057468599492302319e-02
2.664944288331833055e-02
2.193488950296834661e-02
1.646779052848723612e-02
1.030453622604526887e-02
3.520394873293142268e-03
-3.791785319552820610e-03
-1.152339754673553651e-02
-1.955871167129979993e-02
-2.776084215580235104e-02
-3.598222123601069189e-02
-4.407834346473563092e-02
-5.190410591373123550e-02
-5.931698859770573318e-02
-6.618014214527201400e-02
-7.236532354423760860e-02
-7.775562744962341566e-02
-8.224796603970466191e-02
-8.575629891004023231e-02
-8.820370723528048185e-02
-8.953686082072360997e-02
-8.972977941149054559e-02
-8.877890335901669761e-02
-8.670254019839405968e-02
-8.353970462644222383e-02
-7.934843457561271962e-02
-7.420368185880781009e-02
-6.819488457635911050e-02
-6.142666694061214849e-02
-5.400671758256665733e-02
-4.604045302951391416e-02
-3.765093287840982905e-02
-2.896378616247745341e-02
-2.010422413468070102e-02
-1.119417161701410923e-02
-2.349626279252496619e-03
6.321655652121782598e-03
1.472206565564286584e-02
2.276645664769040567e-02
3.038459104671149477e-02
3.751163832823919964e-02
4.409949131457946425e-02
5.011236379107777972e-02
5.552590366997579852e-02
6.032600012823996494e-02
6.450736802795015157e-02
6.807199576580488798e-02
7.102754094692842468e-02
7.338725702498720416e-02
7.518193345623130908e-02
7.640083773618434881e-02
7.706022723432240373e-02
7.717673108135496285e-02
7.676640070304134589e-02
7.584399077135194067e-02
7.442253092187266217e-02
7.251323303358936379e-02
7.012575800229141343e-02
6.726884137877314762e-02
6.394748904858772731e-02
6.016864354526797742e-02
5.594703129127216734e-02
5.130267690481042642e-02
4.626205335454787460e-02
4.085900966091864095e-02
3.513543632056072979e-02
2.914163411975545862e-02
2.293636775389804039e-02
1.658659974276295579e-02
1.014339322024648826e-02
3.704043284249211587e-03
-2.637251880082971955e-03
-8.785688234332567070e-03
-1.464358877579094442e-02
-2.011272362299966476e-02
-2.509689572544965275e-02
-2.950470914431004010e-02
-3.325242029706920732e-02
-3.626676019895051784e-02
-3.849612193443308072e-02
-3.989057821520911040e-02
-4.041899122340150696e-02
-4.007255160902949143e-02
-3.886258670030362516e-02
-3.682103079074945662e-02
-3.400028287825836160e-02
-3.047244486733825808e-02
-2.632795589955632537e-02
-2.167365968142769689e-02
-1.662814589640987384e-02
-1.132011946196558039e-02
-5.890892481844281492e-03
-4.865299394664970856e-04
4.745688965644499768e-03
9.661352986378598379e-03
1.412301436002966551e-02
1.800415422964379494e-02
2.119287627289394640e-02
2.359519495486046142e-02
2.513243007582849353e-02
2.575715530866831693e-02
2.544977830554230602e-02
2.420844863744872622e-02
2.205568249622591459e-02
1.903772315417953664e-02
1.522319802343594097e-02
1.070110856597122906e-02
5.578215850896073302e-03
-2.409099982420004338e-05
-5.975932765984459660e-03
-1.214211352039876179e-02
-1.837562453006885699e-02
-2.453229611510085451e-02
-3.047204774989478726e-02
-3.606283898778808727e-02
-4.118433687384534525e-02
-4.573117232023490852e-02
-4.961567335677480317e-02
-5.276998355507564464e-02
-5.513828583875056422e-02
-5.668437626925738881e-02
-5.743516335961719455e-02
-5.740952944207840247e-02
-5.664519651763898905e-02
-5.519697923143940255e-02
-5.313453569608839189e-02
-5.053967713734930367e-02
-4.750332162504886102e-02
-4.412219968034553075e-02
-4.048780618866487657e-02
-3.666257273758760649e-02
-3.278659663878136232e-02
-2.895036653729454734e-02
-2.523460720008974256e-02
-2.170796247240130983e-02
-1.842512820089731163e-02
-1.542548363293833047e-02
-1.273226061939325415e-02
-1.035227976249036841e-02
-8.275950731715275843e-03
-6.467140722435260614e-03
-4.894525949888761662e-03
-3.510601918557343382e-03
-2.259485274933276111e-03
-1.079380216092246103e-03
9.478141445825455369e-05
1.328603695461095646e-03
2.685476541955243712e-03
4.223898419948191041e-03
5.994959661066778800e-03
8.007368839366785229e-03
1.032675604530169933e-02
1.297429596400700991e-02
1.595324269760550751e-02
1.925144604590595110e-02
2.284137929664131761e-02
2.668065361408977765e-02
3.071298704665076373e-02
3.486959282780383029e-02
3.907094984392611714e-02
4.319864894340402772e-02
4.718564666797275819e-02
5.094366898377700181e-02
5.437573624864228128e-02
5.738673937388472091e-02
5.988647194831739351e-02
6.179256977034669474e-02
6.303325232076893714e-02
6.354977141364080706e-02
6.329848714721010572e-02
6.224891005275856593e-02
6.039549194865710680e-02
5.774973941029737379e-02
5.433981893432557331e-02
5.021209871610057829e-02
4.543039108745466903e-02
4.007474897296170457e-02
3.423984512863731400e-02
2.803297047514280438e-02
2.157169477868636775e-02
1.498789040972631215e-02
8.406461326192271599e-03
1.953392103337003860e-03
-4.240434930217140685e-03
-1.004820401375616790e-02
-1.535046030630315972e-02
-2.003828518146127946e-02
-2.401624479039371485e-02
-2.720501073201342379e-02
-2.954356346859386695e-02
-3.099407803864117489e-02
-3.154077318038957245e-02
-3.118207057588810033e-02
-2.993960026442293865e-02
-2.785564707811918894e-02
-2.499239632759334140e-02
-2.143074680651588237e-02
-1.726870602307090108e-02
-1.261938689204294972e-02
-7.608630705633723235e-03
-2.378997672430660515e-03
2.921165319080987199e-03
8.158987700485897943e-03
1.318903479418187530e-02
1.786912331702961154e-02
2.206379525783119799e-02
2.564766985729505233e-02
2.850857625730846001e-02
3.055037651776826291e-02
3.169539971105850285e-02
3.188784786802750792e-02
3.109602773892611305e-02
2.930270095357445648e-02
2.651801899422420727e-02
2.277513581254005104e-02
1.812958195044903770e-02
1.265814894896919417e-02
6.457312301275275335e-03
-3.587738941459445163e-04
-7.660673048534599738e-03
-1.530265001555031201e-02
-2.311143783303690191e-02
-3.095930535905505598e-02
-3.868734960398645395e-02
-4.613714886591546716e-02
-5.315440839816026886e-02
-5.959252466099124179e-02
-6.531596222927726902e-02
-7.020334730381078137e-02
-7.415019606074096936e-02
-7.707105191446572690e-02
-7.887945847329047577e-02
-7.955891055780034415e-02
-7.909175285617370266e-02
-7.748345559115077386e-02
-7.476240941891731939e-02
-7.097921475558360838e-02
-6.620547957791411697e-02
-6.053215274925113909e-02
-5.406743276218337058e-02
-4.693430373041027059e-02
-3.925851920859604882e-02
-3.119190702393913328e-02
-2.288628154907396128e-02
-1.449506516271982515e-02
-6.170995451857699994e-03
1.937198248717353355e-03
9.688003764697653009e-03
1.695014269862303580e-02
2.360532057556005703e-02
2.955064237419613438e-02
3.470186333986147176e-02
3.899277387190230870e-02
4.237640430174466344e-02
4.482646336694379174e-02
4.633731870961160793e-02
4.692369452713729405e-02
4.661990917989644601e-02
4.547867772181862778e-02
4.356951511340334537e-02
4.097678546116378939e-02
3.778403644693595353e-02
3.410754974691726504e-02
3.006999624679523864e-02
2.579117802358588118e-02
2.139242030919208393e-02
1.699381609180189434e-02
1.271153689519635699e-02
8.655259763427819442e-03
4.925764062562343337e-03
1.612754371167673950e-03
-1.225602577801319926e-03
-3.520264583860703220e-03
-5.207009758187962356e-03
-6.254467732782834077e-03
-6.648489870317159101e-03
-6.391963734069860958e-03
-5.504224085139647338e-03
-4.020103235357674887e-03
-1.988665968977842979e-03
5.283261937433780808e-04
3.452323784808641882e-03
6.700366404075341897e-03
1.019240471731902575e-02
1.383610199173967992e-02
1.753667365216904361e-02
2.119914426099656080e-02
2.473056007504070841e-02
2.804210851625352219e-02
3.105109808368580748e-02
3.368275541642021254e-02
3.587543769706799668e-02
3.757667281306550922e-02
3.873486226735749216e-02
3.932003027262823830e-02
3.931556927657309242e-02
3.871821392705458026e-02
3.753768902777677996e-02
3.579606278340921599e-02
3.352684056810700808e-02
3.077383608691311445e-02
2.759132890308182984e-02
2.404430076738767186e-02
2.019323347204113328e-02
1.610791862878821479e-02
1.186061994398718289e-02
7.524438090432572501e-03
3.171721992131892875e-03
-1.127447021833150043e-03
-5.306674584218740165e-03
-9.304554858663827144e-03
-1.306640893909435941e-02
-1.654668936882044972e-02
-1.969777913295897576e-02
-2.248903427627418905e-02
-2.489950370638070731e-02
-2.691792425729966354e-02
-2.854244475330791619e-02
-2.978010726452420820e-02
-3.064611903164463774e-02
-3.116295133853625235e-02
-3.135930226896894296e-02
-3.126727945369580514e-02
-3.092820301061101340e-02
-3.038210587975831434e-02
-2.967007551519548758e-02
-2.883318991590250180e-02
-2.791145982110526669e-02
-2.694284282976860956e-02
-2.596233454560753495e-02
-2.500114232352307342e-02
-2.408594921954068657e-02
-2.322234824707375411e-02
-2.244851514751289301e-02
-2.177673093801146820e-02
-2.120852431244857339e-02
-2.073813439712246520e-02
-2.035311983564136451e-02
-2.003518785474461827e-02
-1.976118574156671137e-02
-1.950419829029892416e-02
-1.923469997137428056e-02
-1.890696117059822989e-02
-1.850329031517855549e-02
-1.799926001373722273e-02
-1.736636618223788564e-02
-1.657844891807175314e-02
-1.561268097532943211e-02
-1.445045223916178317e-02
-1.307812335748755050e-02
-1.148762797671989619e-02
-9.676909744109937761e-03
-7.649301032491215291e-03
-5.411270360603542828e-03
-2.980288939680997284e-03
-3.812983862879204544e-04
2.354527465018380061e-03
5.190708109747310672e-03
8.086569018176836821e-03
1.099848279682480445e-02
1.388117798925203594e-02
1.668905643261919813e-02
1.937419172418175517e-02
2.189869507647101976e-02
2.422706824266587788e-02
2.632264526255936876e-02
2.815292580804454325e-02
2.969045806180814484e-02
3.091358824482787204e-02
3.180704054501459765e-02
3.236229682682599529e-02
3.257775366683725304e-02
3.246124468853384126e-02
3.202665797015022409e-02
3.128776106112536592e-02
3.026659496385276926e-02
2.898937243746052550e-02
2.748557300466022979e-02
2.578698919742228313e-02
2.392676026388429467e-02
2.193842630035958141e-02
1.985503148034278853e-02
1.770908926007624951e-02
1.553200965383563781e-02
1.334894963472763041e-02
1.118322784890743438e-02
9.054493610378050450e-03
6.978570606943262922e-03
4.967464366632021178e-03
3.029529468921113300e-03
1.169788068121804803e-03
-6.096132828186159175e-04
-2.313949770457415789e-03
-3.963342801590233333e-03
-5.535341949152589036e-03
-7.030523049507519939e-03
-8.448763713518797625e-03
-9.788646352544588813e-03
-1.104700038326156264e-02
-1.221861099497284497e-02
-1.329610524141605632e-02
-1.427000965651287201e-02
-1.513156461102843631e-02
-1.590519142257423857e-02
-1.653853138739652673e-02
-1.701265913416488695e-02
-1.730787094838237561e-02
-1.740459660424698018e-02
-1.728444040014964767e-02
-1.693130834394185324e-02
-1.633256646742392570e-02
-1.548016590973744222e-02
-1.437166513638327148e-02
-1.302478902381010162e-02
-1.144180544991951765e-02
-9.638357048897094881e-03
-7.637318309117568926e-03
-5.468213262250498641e-03
-3.166983727248995351e-03
-7.755094738727333348e-04
1.659122625736824189e-03
4.085591559534990785e-03
6.449536184185901411e-03
8.703943977270783838e-03
1.078234496229471540e-02
1.262791754041106551e-02
1.418943668885713771e-02
1.542077658030044374e-02
1.628232038715438090e-02
1.674222516237844349e-02
1.677750595540478118e-02
1.637490553607529042e-02
1.553151879265529667e-02
1.426133247275551685e-02
1.257694228759764776e-02
1.050454103673270634e-02
8.083284216205577355e-03
5.361626495344884447e-03
2.396034634715049627e-03
-7.505749661471661227e-04
-4.010621447323503563e-03
-7.313806719757065533e-03
-1.058915859055564734e-02
-1.375634140027037766e-02
-1.675300676917912401e-02
-1.952651759161344591e-02
-2.202465860437094469e-02
-2.420384733754295248e-02
-2.603024588694335950e-02
-2.748052310809549759e-02
-2.854225524046614601e-02
-2.921397168042470099e-02
-2.950486882624327178e-02
-2.941151599943593598e-02
-2.895626741092746648e-02
-2.820146051056926506e-02
-2.719708065553308463e-02
-2.599967940459749216e-02
-2.467013574368728812e-02
-2.327116664271453028e-02
-2.186469743653074449e-02
-2.050922123711274025e-02
-1.925728683619729042e-02
-1.813709361180212976e-02
-1.716438330311692573e-02
-1.638913490862642375e-02
-1.582934344321137998e-02
-1.549216564719549383e-02
-1.537331889354613679e-02
-1.545679795153840838e-02
-1.571494350318281344e-02
-1.610889151977454997e-02
-1.658942439830954352e-02
-1.709868560971207485e-02
-1.756822723104309314e-02
-1.792423597812137226e-02
-1.809412927039644181e-02
-1.800564977020877033e-02
-1.758934364686470797e-02
-1.678103958986854050e-02
-1.552425028973763999e-02
-1.377241334076495516e-02
-1.149088706237100244e-02
-8.664540358413908017e-03
-5.317832842080316702e-03
-1.426460596779699497e-03
2.988719283408380889e-03
7.891856023445803503e-03
1.323232437792143390e-02
1.894528887422031183e-02
2.495262430081612859e-02
3.116420579098649890e-02
3.747958051004858515e-02
4.378843513398013310e-02
4.992992912907769781e-02
5.582680692142069634e-02
6.136775665742547070e-02
6.644635282123204090e-02
7.096370179243294274e-02
7.483085268725592210e-02
7.797092412744266454e-02
8.032091501128579836e-02
8.183318305932235637e-02
8.247658718049777349e-02
8.221479140007414976e-02
8.106632460070833934e-02
7.905823921833743384e-02
7.623491060993792257e-02
7.265861309376964172e-02
6.840799433315003508e-02
6.357608194137354118e-02
5.826787704525315803e-02
5.259760219632980682e-02
4.668568137255940664e-02
4.066145738725124303e-02
3.464252821684921102e-02
2.874658504844446183e-02
2.308613575390033867e-02
1.776397653965489098e-02
1.287041458677759542e-02
8.480831063181815122e-03
4.653649543530230526e-03
1.428760514926179226e-03
-1.173562166586457692e-03
-3.146076955192450564e-03
-4.510395842685227530e-03
-5.310454382727813893e-03
-5.606908160927626117e-03
-5.478060794248285070e-03
-5.017655661853359650e-03
-4.332195317728049222e-03
-3.537863413317243744e-03
-2.757135923751374840e-03
-2.115177612206253777e-03
-1.737069849226613449e-03
-1.740114049927132811e-03
-2.234434416970909609e-03
-3.319884983005616519e-03
-5.081633104286109592e-03
-7.587265535098197677e-03
-1.088433301936736486e-02
-1.499841412215008329e-02
-1.993176420379177971e-02
-2.566259775628582096e-02
-3.213978190928584722e-02
-3.929304757987336916e-02
-4.703755552349206392e-02
-5.526237469824946125e-02
-6.383873425145401848e-02
-7.262288625307726508e-02
-8.145935175563501218e-02
-9.018446299752187756e-02
-9.863011213323086279e-02
-1.066276163826513357e-01
-1.140036664020253054e-01
-1.205936745885468064e-01
-1.262664125890464728e-01
-1.308903977422032350e-01
-1.343515087753133774e-01
-1.365556080210421075e-01
-1.374306420574855636e-01
-1.369281593495628169e-01
-1.350242044040100842e-01
-1.317195710774681783e-01
-1.270388747438080945e-01
-1.210312300706264388e-01
-1.137696697469383622e-01
-1.053437219178015860e-01
-9.585994507701056655e-02
-8.543935432870644608e-02
-7.421466308119502309e-02
-6.232741393142342268e-02
-4.992506797026113885e-02
-3.715811651473861776e-02
-2.417799044376209294e-02
-1.113991438428452163e-02
1.816737266516932348e-03
1.455754617118304450e-02
2.695786408180322891e-02
3.890418491864044981e-02
5.029509738442100586e-02
6.104182784027856190e-02
7.106839781797802402e-02
8.031143346835634134e-02
8.871977033943811985e-02
9.626584560356798992e-02
1.029082671210477251e-01
1.086258675496640791e-01
1.134056746153075945e-01
1.172419593323326126e-01
1.201353930418943561e-01
1.220923496844827372e-01
1.231243730693094562e-01
1.232478125133011915e-01
1.224836155935628834e-01
1.208641465488884403e-01
1.184212143645986814e-01
1.151866167843290101e-01
1.111959618730910815e-01
1.064889901009173911e-01
1.011103426233945918e-01
9.511035699388781239e-02
8.854579694179626204e-02
8.148042599229210481e-02
7.398534401430423291e-02
6.612096882939050291e-02
5.799441239610514387e-02
4.970348878407815363e-02
4.134383916006423298e-02
3.301398475600736404e-02
2.481402913002994648e-02
1.684411522672735195e-02
9.202648031532367767e-03
1.984314499933748088e-03
-4.722046155855696981e-03
-1.085264825411347278e-02
-1.632593225476008936e-02
-2.107337922324648005e-02
-2.504988797929008637e-02
-2.822642779024586712e-02
-3.059119898136364313e-02
-3.215035518919484581e-02
-3.292824205101518853e-02
-3.296712025900960796e-02
-3.232635569426939304e-02
-3.108442794300292356e-02
-2.933089121498272389e-02
-2.716327577198612842e-02
-2.468994569956767249e-02
-2.202475503954762215e-02
-1.928380083972859593e-02
-1.658204512883365567e-02
-1.402990591487483785e-02
-1.172992165536915210e-02
-9.773594939129881531e-03
-8.237539935889492959e-03
-7.182584842548633830e-03
-6.652886836591931363e-03
-6.671535220059920945e-03
-7.240871032029749799e-03
-8.342250089869884810e-03
-9.936473566501069499e-03
-1.196488870840306529e-02
-1.435114044421659241e-02
-1.700353248002373086e-02
-1.981269551710562737e-02
-2.266086587105653471e-02
-2.544184719189601651e-02
-2.803648550425663633e-02
-3.032815365288421550e-02
-3.220683125980994266e-02
-3.357300809602237202e-02
-3.434126893351363563e-02
-3.444343268781657752e-02
-3.383113853039021457e-02
-3.247013055958158922e-02
-3.034284051714075670e-02
-2.750383954019652855e-02
-2.399565087941812891e-02
-1.988164822436755408e-02
-1.524497378343536713e-02
-1.018689090199315084e-02
-4.824555623781257019e-03
7.117858204311044990e-04
6.282138167504086601e-03
1.174304211201253334e-02
1.695834247789249072e-02
2.175156688160866103e-02
2.598792665576819122e-02
2.954663293457546192e-02
3.232415861644641342e-02
3.423689168467736188e-02
3.522315397269823456e-02
3.524458367754751409e-02
3.428689814847463158e-02
3.236006548985698172e-02
2.949048721206970480e-02
2.573702747338646457e-02
2.118007918184738880e-02
1.592050835856051449e-02
1.007712486565220944e-02
3.783573954896979341e-03
-2.815179046941174157e-03
-9.566677943210144530e-03
-1.631501393326922900e-02
-2.290495859038688131e-02
-2.919846854651303447e-02
-3.503208372542115923e-02
-4.027533598145954796e-02
-4.481797040152168954e-02
-4.856943914198058598e-02
-5.146042943215006771e-02
-5.344370261033337677e-02
-5.449429164079547250e-02
-5.460912197270526014e-02
-5.380613028873065806e-02
-5.214118609105503066e-02
-4.964361852364268524e-02
-4.637861525555436737e-02
-4.243566210380136927e-02
-3.791747253622473890e-02
-3.293660546621635099e-02
-2.761190753321773883e-02
-2.206492732079923247e-02
-1.641643962312500094e-02
-1.078320148131883816e-02
-5.296473421349534583e-03
-4.240088993540114259e-05
4.904672179164903945e-03
9.469586251813322253e-03
1.359064439474350072e-02
1.722033007416623462e-02
2.032554084550536322e-02
2.288734818062571064e-02
2.490031536589465411e-02
2.637142574743281398e-02
2.731683019292296954e-02
2.776267160280765367e-02
2.774577263215849410e-02
2.730786940224137760e-02
2.649488624665897324e-02
2.535507603998639684e-02
2.393729333021955841e-02
2.228946064311793096e-02
2.045727271349354059e-02
1.848316700624860753e-02
1.641866690746429658e-02
1.430419624760964625e-02
1.214820632820562407e-02
9.972434956909803638e-03
7.794080651273127547e-03
5.626510260006933883e-03
3.480205452514983921e-03
1.363890098695863529e-03
-7.142345546070627549e-04
-2.745231400793968213e-03
-4.712027948865660232e-03
-6.590237612262572764e-03
-8.377745346316523012e-03
-1.005527931598559910e-02
-1.159957876447137437e-02
-1.298333698700326888e-02
-1.417543730856413164e-02
-1.514148505050288973e-02
-1.584462541171968719e-02
-1.624662461149573023e-02
-1.630910671153845692e-02
-1.599694266206674875e-02
-1.527766717006270869e-02
-1.412124672658893881e-02
-1.250366143357176107e-02
-1.040874992988249925e-02
-7.829967863792988703e-03
-4.771966904126290210e-03
-1.251903165777112914e-03
2.699609120865753553e-03
7.038028215355568440e-03
1.170229314032197876e-02
1.661717262338685552e-02
2.169952534458169380e-02
2.685599888931655688e-02
3.198470664309527312e-02
3.697725742903656965e-02
4.172110734426609513e-02
4.610219101245260909e-02
5.000777673490319764e-02
5.332947746825195123e-02
5.595712432284169480e-02
5.780929908443775689e-02
5.881024264116321842e-02
5.889998287542544397e-02
5.803719439729163737e-02
5.620116440314395362e-02
5.339324742431315191e-02
4.963774299267205425e-02
4.498215052870156716e-02
3.949677762290358662e-02
3.325506002415157258e-02
2.638566745679024605e-02
1.902377542125663346e-02
1.131584752598516208e-02
3.419999460248041023e-03
-4.497729348523438198e-03
-1.226743389895204595e-02
-1.971962664483961625e-02
-2.668962663525153989e-02
-3.302192594376912593e-02
-3.857871075668228844e-02
-4.323682938067163750e-02
-4.688987955038820266e-02
-4.945528756888978306e-02
-5.087607001232702375e-02
-5.112286610780716889e-02
-5.019527276608340416e-02
-4.812241197067326781e-02
-4.496268399896793944e-02
-4.080268711539658533e-02
-3.574401897265411243e-02
-2.993180298850606214e-02
-2.353138543929310378e-02
-1.671524370852975339e-02
-9.666898630725458130e-03
-2.576252180539051820e-03
4.365285721336199104e-03
1.096975920411084882e-02
1.705758655861069895e-02
2.246230233908036444e-02
2.704557218420633458e-02
3.068221818419938907e-02
3.325780209050804848e-02
3.469485653327289421e-02
3.494519547247276758e-02
3.399136656690726621e-02
3.184731521396988452e-02
2.855821952893633497e-02
2.419947508037351147e-02
1.887483091163599802e-02
1.271859339544989531e-02
5.890615037257573849e-03
-1.446896652733009603e-03
-9.114245845337209939e-03
-1.692441235744673866e-02
-2.468791061726471892e-02
-3.221763225998633406e-02
-3.933355368989177592e-02
-4.586719771534297774e-02
-5.166574741120816272e-02
-5.659682225143778528e-02
-6.054994260494066943e-02
-6.343534347320939348e-02
-6.519439027609635895e-02
-6.579689665174122404e-02
-6.524149105282053829e-02
-6.355521480719117378e-02
-6.079236480692956635e-02
-5.703261143372101438e-02
-5.237844003774930202e-02
-4.695487521213320692e-02
-4.091621809216250405e-02
-3.439678282407504506e-02
-2.755097861865835052e-02
-2.053534773820142600e-02
-1.350433911837578549e-02
-6.606306685453311456e-03
2.016625696224516595e-05
6.249533398122730787e-03
1.197207838648212119e-02
1.709614809869583474e-02
2.154721667336605140e-02
2.527430770259796872e-02
2.824921589680321962e-02
3.046582305576413935e-02
3.193939646653110032e-02
3.270531338853761849e-02
3.281726229837311770e-02
3.234498077667263827e-02
3.137159787574098080e-02
2.999065606520473493e-02
2.832118857035781367e-02
2.645504588751096398e-02
2.449323144794057772e-02
2.253431447134596199e-02
2.067026212145567365e-02
1.898394637824851738e-02
1.754706794351951205e-02
1.641853012870031492e-02
1.564327578624824522e-02
1.525158252653530111e-02
1.524909771322621732e-02
1.564993232440331505e-02
1.644280046628074365e-02
1.759910371234091331e-02
1.907727982143486711e-02
2.082455052844849053e-02
2.277890840177604348e-02
2.487126431996709158e-02
2.702768446742392222e-02
2.917165480259258439e-02
3.119734365964579523e-02
3.304517131207557190e-02
3.465979063370693003e-02
3.597978977358762265e-02
3.695140265005417146e-02
3.752959183660287135e-02
3.767876169261077934e-02
3.737310595842444072e-02
3.659661537655015118e-02
3.534278953911645926e-02
3.361140196312900619e-02
3.140856981846112950e-02
2.875457565584055297e-02
2.567706044871187476e-02
2.221025534381199096e-02
1.839372384395027149e-02
1.427110277017695772e-02
9.888905773551170952e-03
5.295440836021569897e-03
5.398784150283386651e-04
-4.314347558835363028e-03
-9.216990941447955610e-03
-1.413839249112280871e-02
-1.903401706889362721e-02
-2.386053981897107157e-02
-2.857570816979698725e-02
-3.313806705603128400e-02
-3.750658840079523770e-02
-4.164025761557325900e-02
-4.549767856429641488e-02
-4.903398150910186215e-02
-5.219975207872652734e-02
-5.495569878050170221e-02
-5.726010250439082794e-02
-5.907206354337696252e-02
-6.035193589687129490e-02
-6.106194720587321267e-02
-6.116701972529495213e-02
-6.063579337270572078e-02
-5.944183558104609855e-02
-5.756738390494195445e-02
-5.500494820796397732e-02
-5.174308781387909617e-02
-4.778885531035298451e-02
-4.316149836121463412e-02
-3.789365640884870268e-02
-3.203229443691030243e-02
-2.563929810601764392e-02
-1.879166093148304517e-02
-1.158120453288458140e-02
-4.112835976183268349e-03
3.495867957841680695e-03
1.110551370036947857e-02
1.858011182302703873e-02
2.577925147638807091e-02
3.256094253065129618e-02
3.878469558696379105e-02
4.431479680130814836e-02
4.902372096232046617e-02
5.279561097852292217e-02
5.552987841995343787e-02
5.715685080277532748e-02
5.759745057417253733e-02
5.681555399681670337e-02
5.480233232284337230e-02
5.157768667316664501e-02
4.719094183522748454e-02
4.172074997931923823e-02
3.527417683169870033e-02
2.798496562678903787e-02
2.001099788153787307e-02
1.154050676575102408e-02
2.764875706001590494e-03
-6.110827869425999176e-03
-1.487426877070185255e-02
-2.331179969370421323e-02
-3.121368874648935976e-02
-3.837933856796915677e-02
-4.462237772566474137e-02
-4.977550708628381004e-02
-5.369498641378783743e-02
-5.625592797062617390e-02
-5.737334872976018740e-02
-5.699982561699135086e-02
-5.512322437023353672e-02
-5.176898747735747541e-02
-4.699976945435191400e-02
-4.091402596192195151e-02
-3.364360280957590099e-02
-2.535040367124852256e-02
-1.622224415597717240e-02
-6.469798404255544533e-03
3.684944572291737330e-03
1.400840986721596515e-02
2.426142537811826205e-02
3.420652744001917434e-02
4.361393983915301531e-02
5.226729547166075740e-02
5.996894925109202967e-02
6.654474779910568571e-02
7.184814115702248261e-02
7.574778912523875973e-02
7.816436579700662690e-02
7.906562607390565933e-02
7.844306830833847055e-02
7.632404966318140360e-02
7.277052511541493018e-02
6.787686085290600690e-02
6.176679869003781631e-02
5.458967977987227993e-02
4.651606319383899679e-02
3.772082644207691571e-02
2.839919862454765020e-02
1.877276682671391583e-02
9.048783897381951213e-03
-5.695574879742704155e-04
-9.887854358417436096e-03
-1.872481689461036325e-02
-2.691609195028299428e-02
-3.431750921607812366e-02
-4.080768967619707865e-02
-4.628954192313050608e-02
-5.069193651448633542e-02
-5.397160963858582683e-02
-5.611064700447476739e-02
-5.711654300849511312e-02
-5.702073101693250212e-02
-5.587656353825409816e-02
-5.375682522943964203e-02
-5.075087501982977756e-02
-4.696152350452437174e-02
-4.249760239589239763e-02
-3.747009232244485899e-02
-3.202045236438522124e-02
-2.627291391572311730e-02
-2.034887097567206204e-02
-1.436453525268913123e-02
-8.428976285560968451e-03
-2.642550324594900024e-03
2.904291712252982105e-03
8.131836644220957755e-03
1.297312227519929750e-02
1.738004899173080375e-02
2.128918426603945008e-02
2.466667929374528889e-02
2.749014153548808015e-02
2.974759285015612931e-02
3.143622649331370700e-02
3.256104920948874049e-02
3.313349374840074413e-02
3.317008094377621452e-02
3.269119972861617152e-02
3.171992918593080635e-02
3.028077173294196900e-02
2.840049592988419525e-02
2.610699288309492605e-02
2.342906125702248765e-02
2.039637672587085726e-02
1.703960862914954966e-02
1.339064611963186602e-02
9.482892560642663948e-03
5.351586237681504876e-03
1.024936887098981675e-03
-3.442688026968870885e-03
-8.007809694741407913e-03
-1.262722893317133610e-02
-1.725584275654690192e-02
-2.184640863406855926e-02
-2.634941601882218043e-02
-3.071311444812058200e-02
-3.488373706162269106e-02
-3.880594429551584290e-02
-4.242453742306495634e-02
-4.567998627968922892e-02
-4.851690211449387335e-02
-5.088338102284529346e-02
-5.273147870714642305e-02
-5.401840585341143031e-02
-5.470768375646865161e-02
-5.477022183531538024e-02
-5.418528255922096942e-02
-5.294130407661038623e-02
-5.102315170245724785e-02
-4.844963223152243953e-02
-4.524895837573628121e-02
-4.145080751889007598e-02
-3.709477196538862875e-02
-3.223018342688983850e-02
-2.691572341642370358e-02
-2.121879701541462548e-02
-1.521465974745858651e-02
-8.985301636319747987e-03
-2.613783916279893704e-03
3.807739523109782143e-03
1.018131399139762805e-02
1.641263818430466204e-02
2.240888685483954923e-02
2.808053252200948258e-02
3.334311728898886606e-02
3.811893129121229906e-02
4.233855916106102346e-02
4.594226153702142545e-02
4.886788953504594274e-02
5.107714373852352552e-02
5.256767715221802306e-02
5.332867117104811427e-02
5.336191485051045014e-02
5.268200253556359902e-02
5.131627094761007091e-02
4.930444363347538661e-02
4.669796649627300233e-02
4.355903655535159347e-02
3.995118285627893839e-02
3.594384440528569646e-02
3.164441964023967380e-02
2.714498968675749246e-02
2.253997967568099892e-02
1.792415097907645860e-02
1.339057898580281458e-02
9.028657204983525641e-03
4.922169350608074367e-03
1.147471687816398189e-03
-2.224343068803785739e-03
-5.125169677851176830e-03
-7.529600189112861663e-03
-9.406103012171207478e-03
-1.073614118751661795e-02
-1.151460910603450960e-02
-1.174992679504135995e-02
-1.146376761414460120e-02
-1.069041370636468827e-02
-9.475753507787919305e-03
-7.873590202012462069e-03
-5.918069384219917795e-03
-3.715680144898952930e-03
-1.345720413045953245e-03
1.109607806770745997e-03
3.567417411234008462e-03
5.946385823535238480e-03
8.168977927069082101e-03
1.016358022770430525e-02
1.186648088623365460e-02
1.322362940405866216e-02
1.419824597200614047e-02
1.475679355910428092e-02
1.488015497774677898e-02
1.456227594760675648e-02
1.381004343230601838e-02
1.264300890073544181e-02
1.109272980024933464e-02
9.201737889572604578e-03
7.022158128883179001e-03
4.614016892123414502e-03
2.033822720835926773e-03
-6.377910776924969327e-04
-3.327247737609076439e-03
-5.964254896606444034e-03
-8.481865035608354697e-03
-1.081847254304106609e-02
-1.291961494909493746e-02
-1.473953111560430407e-02
-1.624243496330290970e-02
-1.740346954853486117e-02
-1.821232783902712593e-02
-1.866553360595607503e-02
-1.877171638622682215e-02
-1.855172518812983617e-02
-1.803662022094157380e-02
-1.726645370187357420e-02
-1.628874109952835325e-02
-1.515666546759580902e-02
-1.392706745545319036e-02
-1.265828275283650828e-02
-1.141034911872920721e-02
-1.024303776366450314e-02
-9.204032582002558138e-03
-8.332575942742420638e-03
-7.658079482904867064e-03
-7.199168959504759213e-03
-6.963176481511540450e-03
-6.946065863949760222e-03
-7.132759207248415279e-03
-7.497820150921701010e-03
-8.012317508099164876e-03
-8.641990569202201433e-03
-9.331520265728580898e-03
-1.002139939322634066e-02
-1.064739821535720665e-02
-1.114318398337971194e-02
-1.144314274524432795e-02
-1.148527973733953766e-02
-1.121406651433948243e-02
-1.058310235577269998e-02
-9.560800402000857456e-03
-8.129698754092529178e-03
-6.277639338092610988e-03
-4.011985165294440492e-03
-1.355643618945301387e-03
1.653075542106530182e-03
4.961136008169997336e-03
8.501958955992650058e-03
1.219707237212874773e-02
1.595816813508815768e-02
1.968935476213917735e-02
2.329528956097232095e-02
2.667597522357184614e-02
2.972736924528909808e-02
3.234827892679539851e-02
3.444375303988404802e-02
3.592842449339200134e-02
3.672966242525495251e-02
3.679039399061213161e-02
3.607146612941497521e-02
3.455394714319681704e-02
3.224639482985933170e-02
2.917106163312047085e-02
2.536886318094466741e-02
2.089948903854182971e-02
1.584017570283918763e-02
1.028398410952235942e-02
4.337615654145865474e-03
-1.881186527803502262e-03
-8.246591358679833395e-03
-1.462759999110541109e-02
-2.088369176252996562e-02
-2.689256442725179719e-02
-3.253095796672461626e-02
-3.768492780655319230e-02
-4.225292376557937546e-02
-4.614850143637833080e-02
-4.930257905010923536e-02
-5.166516915079777394e-02
-5.320653317739121313e-02
-5.391772732060526319e-02
-5.380058624867363470e-02
-5.289565842411066143e-02
-5.125531301814568313e-02
-4.894825352468692992e-02
-4.605792209808248772e-02
-4.267969007442259932e-02
-3.891770482028375500e-02
-3.488149883258684358e-02
-3.068247611891139481e-02
-2.643039549550854628e-02
-2.222594674886796406e-02
-1.816597446081513745e-02
-1.433760542623685463e-02
-1.081438591931666027e-02
-7.654788033163550942e-03
-4.900589234980545772e-03
-2.575797464692997085e-03
-6.861612614035283997e-04
7.807143983372677454e-04
1.854646039494617371e-03
2.578594391252381213e-03
3.014378117117716416e-03
3.235719712598256192e-03
3.324296508538257533e-03
3.367912766760738918e-03
3.457191234109332698e-03
3.682156482770339995e-03
4.128829674356043755e-03
4.875955306029494674e-03
5.991976352307221143e-03
7.526582019599464823e-03
9.517795480451451962e-03
1.199367096773060193e-02
1.496211268341277045e-02
1.841306341220277920e-02
2.231821078836029870e-02
2.663122438961612604e-02
3.128853426551519989e-02
3.621064808830040671e-02
4.130398885826250255e-02
4.645961214351637669e-02
5.155998092157325352e-02
5.648906156237255144e-02
6.112596416809996935e-02
6.535130294343237389e-02
6.905052513655099422e-02
7.211711653354423157e-02
7.445559279040156464e-02
7.598419374407644478e-02
7.663720785993011209e-02
7.636737898046551398e-02
7.514598729425839285e-02
7.296365066348342587e-02
6.983306581015669146e-02
6.578751867799079167e-02
6.088012878549012297e-02
5.518257913776403178e-02
4.878337531581625197e-02
4.178568885617001127e-02
3.430484944131026448e-02
2.646576417096016542e-02
1.839895026350282792e-02
1.023763034870722732e-02
2.116696112571980759e-03
-5.831747149262073160e-03
-1.348146668137718829e-02
-2.071501136813417437e-02
-2.742636146580779144e-02
-3.352324339923231505e-02
-3.892904380940025166e-02
-4.358519817827106319e-02
-4.745489669131525146e-02
-5.050777025092267891e-02
-5.273937496422245741e-02
-5.416341248386316587e-02
-5.481063016770165719e-02
-5.472729434023437811e-02
-5.397331044574021908e-02
-5.262007196382018082e-02
-5.074812324393562779e-02
-4.844466799125551892e-02
-4.579226273902192723e-02
-4.288638278337186804e-02
-3.982237292588020061e-02
-3.669402496796458912e-02
-3.359115117400235384e-02
-3.059726004080393080e-02
-2.778741440986137734e-02
-2.522635310254681129e-02
-2.296695305947885068e-02
-2.104909890560979768e-02
-1.947483084674875298e-02
-1.827600516689580068e-02
-1.745680849144386204e-02
-1.700654736395326022e-02
-1.690318893019680108e-02
-1.711452708240547571e-02
-1.759953803736764855e-02
-1.830986618448113279e-02
-1.919138636582529145e-02
-2.018579657058880428e-02
-2.122506772039711720e-02
-2.225898385136448887e-02
-2.322803834161113468e-02
-2.407073896044847894e-02
-2.472808599852877043e-02
-2.514525109270077108e-02
-2.527318498583969175e-02
-2.507008425800305584e-02
-2.450264833884896465e-02
-2.354706519376825735e-02
-2.220048817426995003e-02
-2.046034994438683530e-02
-1.832718125948484822e-02
-1.581426357843371266e-02
-1.294337526039110453e-02
-9.744413909225674297e-03
-6.254911417011510544e-03
-2.519441164864161253e-03
1.411087971298019550e-03
5.480259145853302871e-03
9.621537149462483507e-03
1.377036687115266306e-02
1.786518620383965514e-02
2.183985258641623489e-02
2.562901824146834179e-02
2.916950820696904978e-02
3.240170203707984364e-02
3.527088902993030795e-02
3.772856440986921411e-02
3.973363250598380136e-02
4.125308450745993061e-02
4.226430583463736124e-02
4.275490590542793679e-02
4.272219178142255824e-02
4.217425843961242204e-02
4.113005724697701981e-02
3.961920641316726832e-02
3.768153252940051323e-02
3.536633929496851847e-02
3.273140724513382005e-02
2.983638629499990591e-02
2.674918969903072874e-02
2.355756335368461296e-02
2.033832848914637892e-02
1.716791922331917242e-02
1.412047471561803103e-02
1.126591960240921897e-02
8.668063607454451480e-03
6.382759188019282437e-03
4.456164756078531686e-03
2.917960566433647207e-03
1.781303909184940582e-03
1.078038157282372803e-03
8.017084952286028521e-04
9.300566482918909417e-04
1.425535067740998918e-03
2.236348420718375918e-03
3.297974309369344770e-03
4.535100831422778089e-03
5.863909147985901793e-03
7.194635709848073990e-03
8.437318995372422581e-03
9.500350694612080815e-03
1.029140536328115862e-02
1.072283817299490849e-02
1.071475917200465089e-02
1.019801474972653610e-02
9.116972102721165871e-03
7.432000451830567123e-03
5.121545427581447596e-03
2.183701028780377085e-03
-1.336094207235793974e-03
-5.427028633748776087e-03
-1.003094983230325143e-02
-1.506942964423163556e-02
-2.044596204174218418e-02
-2.604825987242448057e-02
-3.175107742919006104e-02
-3.741946947973258386e-02
-4.291238913506983943e-02
-4.808652217298943488e-02
-5.278043208670510356e-02
-5.687889491400821562e-02
-6.025979206821477363e-02
-6.281063671079870070e-02
-6.443534246124058007e-02
-6.505736755711269415e-02
-6.462235724129120062e-02
-6.310018314822374297e-02
-6.048629868369254092e-02
-5.680235365867222774e-02
-5.209391911726793389e-02
-4.643784450148324972e-02
-3.993104214151924070e-02
-3.268998861532196321e-02
-2.484894980638131801e-02
-1.655665991322906316e-02
-7.972609399607741287e-03
7.369585169319792239e-04
9.403235898735179399e-03
1.785911063848417274e-02
2.594036710615527097e-02
3.349354339744942122e-02
4.038322740764097030e-02
4.649106154273296987e-02
5.171927783589999605e-02
5.599274256939587580e-02
5.926031395218861464e-02
6.149549756570446557e-02
6.269640732250003623e-02
6.288506062893084447e-02
6.210462496016888601e-02
6.041706507614613697e-02
5.790715292341697129e-02
5.467584175220954745e-02
5.083709826566473744e-02
4.651428775407742688e-02
4.183637868253012315e-02
3.693409701733221806e-02
3.193616025118918567e-02
2.696571529902876824e-02
2.213498630802496203e-02
1.754592576355158695e-02
1.329061425610186115e-02
9.442317326616246620e-03
6.057301994193187156e-03
3.174207478880849975e-03
8.139858176081371521e-04
-1.019621010574844888e-03
-2.339116531548807165e-03
-3.171859245316710485e-03
-3.559579998991563299e-03
-3.551378381079550728e-03
-3.202990845747988313e-03
-2.582969799813317202e-03
-1.764777472839929029e-03
-8.240453259412694464e-04
1.641386434285130314e-04
1.127804571087853702e-03
2.000433662322775863e-03
2.722958128376057330e-03
3.245317563028649044e-03
3.530879147134680096e-03
3.552467104170481393e-03
3.290443394989184256e-03
2.735150035581751515e-03
1.886546716331399809e-03
7.535791868266417115e-04
-6.466825806616810501e-04
-2.290092246614978955e-03
-4.146613216542190811e-03
-6.182345379084651371e-03
-8.369954241404745782e-03
-1.065934075122099145e-02
-1.300842881041866517e-02
-1.537527958156580110e-02
-1.771928689661998735e-02
-2.000226612208971799e-02
-2.218939707338792033e-02
-2.424998295193295239e-02
-2.615799144731048576e-02
-2.789235164547060331e-02
-2.946073974978735688e-02
-3.083193149880075756e-02
-3.199510360998766845e-02
-3.294351864050878986e-02
-3.367295315950288859e-02
-3.418118800603611729e-02
-3.446754225921833115e-02
-3.453247956343685754e-02
-3.437730519456300149e-02
-3.400396162066453287e-02
-3.341440530243293405e-02
-3.261161842275411837e-02
-3.159934339308251988e-02
-3.038199280930738155e-02
-2.896481086705701702e-02
-2.735398479678495878e-02
-2.555675549642793393e-02
-2.358152425936043198e-02
-2.143795727957704955e-02
-1.913709272803239270e-02
-1.666523547327322663e-02
-1.405438422810374732e-02
-1.133292711837910471e-02
-8.521151776309909831e-03
-5.641219555553800280e-03
-2.717086292016612781e-03
2.257017522019622024e-04
3.160349623317987300e-03
6.059289830900455032e-03
8.894773002649708493e-03
1.165476723923697389e-02
1.430371124449017484e-02
1.680590726269848290e-02
1.913923078548090961e-02
2.128504124976893230e-02
2.322837987638670665e-02
2.495799961165806602e-02
2.646624364786763495e-02
2.774879601931685286e-02
2.880433191544665497e-02
2.962787243052579164e-02
3.022357782208870414e-02
3.060365055669100887e-02
3.077484886203880887e-02
3.074449202727685959e-02
3.052001990609692905e-02
3.010857675918099385e-02
2.951662527616699672e-02
2.874960115581542963e-02
2.781162396781106105e-02
2.669859859896411836e-02
2.541260810819012672e-02
2.396609454400577821e-02
2.235593032429444849e-02
2.057696760246802148e-02
1.862290764628193873e-02
1.648738407016286933e-02
1.416519128479359901e-02
1.165358070400351886e-02
8.953544108691369185e-03
6.070592996338164404e-03
3.018472845098818524e-03
-1.819747011184980057e-04
-3.505884201274928058e-03
-6.921343809297736405e-03
-1.038922734697368677e-02
-1.386329486416699314e-02
-1.729058032819780211e-02
-2.061207570852918725e-02
-2.376371065545893058e-02
-2.667818743341524024e-02
-2.928878992543870741e-02
-3.152198929650923409e-02
-3.330784622886101554e-02
-3.457973119070795187e-02
-3.527658636067787512e-02
-3.534522309644855254e-02
-3.474257003228947704e-02
-3.343778154595744567e-02
-3.141411509687708214e-02
-2.867078569387926379e-02
-2.523101606631217297e-02
-2.112095676500569397e-02
-1.639066701192298803e-02
-1.110735502171306122e-02
-5.354547585895375050e-03
7.692523641609771978e-04
7.152395284624857297e-03
1.367236057464174537e-02
2.019842247355724263e-02
2.659463791020136303e-02
3.272550703758290991e-02
3.845172988788043977e-02
4.364132535797574791e-02
4.817086023408247847e-02
5.192851443466514616e-02
5.481713766271484323e-02
5.675699838172798550e-02
5.768814509171205085e-02
5.757230785856223831e-02
5.639427805001451244e-02
5.416369648299407258e-02
5.090855496582197270e-02
4.668542075784093415e-02
4.157477529954894946e-02
3.567844913620982217e-02
2.911707869662433223e-02
2.202701028533321503e-02
1.455676023001972741e-02
6.863155027126255359e-03
-8.927162765630658470e-04
-8.553348506384367278e-03
-1.596489429618108691e-02
-2.297537601639693117e-02
-2.944349300426447880e-02
-3.524161980467938743e-02
-4.025900122825371019e-02
-4.440451822782784386e-02
-4.760893589749555510e-02
-4.982655882795918034e-02
-5.103623656124092745e-02
-5.123778814912219315e-02
-5.046203582784258845e-02
-4.876389614767381864e-02
-4.621655976861949178e-02
-4.291236565212327991e-02
-3.896003033464484622e-02
-3.448145729242291235e-02
-2.960822664792772674e-02
-2.447787730361683511e-02
-1.923010087148721570e-02
-1.399605464889858153e-02
-8.904205293087552597e-03
-4.087050769014555218e-03
3.400512513674625037e-04
4.275368644679755636e-03
7.633283997686007849e-03
1.034634116029557738e-02
1.236678699397652202e-02
1.366755768297679002e-02
1.424267340780674407e-02
1.410847271012913295e-02
1.330520824882618081e-02
1.188466832371753990e-02
9.914834880028894348e-03
7.477162598266223759e-03
4.664140636508717908e-03
1.576630351755342607e-03
-1.678961883329332938e-03
-4.993615021707753510e-03
-8.258662355955959100e-03
-1.136900335059132239e-02
-1.422306471281090112e-02
-1.672829019581748011e-02
-1.880683065525146080e-02
-2.039481770856801934e-02
-2.144384929851070321e-02
-2.192199863703783724e-02
-2.181433884923977828e-02
-2.112299018226800051e-02
-1.986670926099723400e-02
-1.807968204953516733e-02
-1.580773944576341350e-02
-1.311506997879748754e-02
-1.007568275939325908e-02
-6.772839886257012339e-03
-3.296604326884559205e-03
2.587904909040414370e-04
3.797680703048186834e-03
7.225749491520272461e-03
1.045276786758163323e-02
1.339526767924294204e-02
1.598055836278122754e-02
1.814005698807077960e-02
1.982480926446628100e-02
2.100114454830764865e-02
2.165153968852401301e-02
2.177497798589797529e-02
2.138681101522041383e-02
2.051814634378573698e-02
1.921479671488274255e-02
1.753583579042405916e-02
1.554727008820835921e-02
1.332788190760350600e-02
1.096661859014641527e-02
8.557709090351056647e-03
6.197943015501417019e-03
3.983590079793541960e-03
2.007268663448885659e-03
3.548708150001717021e-04
-8.973474534220288179e-04
-1.685405173730163131e-03
-1.975403618487830970e-03
-1.722061771908655258e-03
-9.042636420493084526e-04
4.763461950583469662e-04
2.399486659177635373e-03
4.826594666436478942e-03
7.701719299530229712e-03
1.095292543351350512e-02
1.449416706586748038e-02
1.822758232071106099e-02
2.202615255412104789e-02
2.579017615694129129e-02
2.941540845512805036e-02
3.278712034081912585e-02
3.579393298689290126e-02
3.833122473192865365e-02
4.030436960160876936e-02
4.163169321563447989e-02
4.224704519759509003e-02
4.210190461971510811e-02
4.115895032602656656e-02
3.940807375630202281e-02
3.686799920483099791e-02
3.357297743886223512e-02
2.957728943863359092e-02
2.495358920363426047e-02
1.979066750812792652e-02
1.419072691707758127e-02
8.266274940258611093e-03
2.136753326801854591e-03
-4.072367944392640826e-03
-1.024328188636508541e-02
-1.626145652863569824e-02
-2.201234964604209532e-02
-2.739016862062071400e-02
-3.230086527522862960e-02
-3.666475579990213784e-02
-4.041866162245522087e-02
-4.351748478693845401e-02
-4.593515415790083711e-02
-4.765981227586535418e-02
-4.869794759253415206e-02
-4.909095487452874718e-02
-4.888639278877182637e-02
-4.814589808996583287e-02
-4.694244695817081925e-02
-4.535725423334172057e-02
-4.347644506447109758e-02
-4.138764574098280358e-02
-3.917664479281107032e-02
-3.691693470716605335e-02
-3.465539835716542616e-02
-3.248150464585371211e-02
-3.045223205437080916e-02
-2.861295762453860969e-02
-2.699611594101000711e-02
-2.562026532178096616e-02
-2.448961366636792647e-02
-2.359405206553855106e-02
-2.290973440734728195e-02
-2.239610642493028436e-02
-2.196753247765476091e-02
-2.160572282057748872e-02
-2.125420971729141684e-02
-2.085477746726455139e-02
-2.035013176809408186e-02
-1.968645339340457934e-02
-1.881573011625220504e-02
-1.769777736416167091e-02
-1.630187853385617336e-02
-1.460799836968756926e-02
-1.260614530110293341e-02
-1.030353351487600655e-02
-7.714457513500944108e-03
-4.863858382811142578e-03
-1.786607462034406346e-03
1.473549345821369150e-03
4.865311300987837720e-03
8.331379216064790927e-03
1.181021973678245823e-02
1.523800489691286286e-02
1.851564464441013413e-02
2.160669556627045629e-02
2.446239155989865521e-02
2.703634865497950290e-02
2.929092228943164233e-02
3.119832087199458925e-02
3.274128730921826991e-02
3.391333714621913575e-02
3.471856879524609640e-02
3.517108574805555277e-02
3.527715264919445426e-02
3.507847432246580244e-02
3.462006366537651036e-02
3.394716554656185270e-02
3.310885593166837393e-02
3.215635413594844505e-02
3.114135034722595452e-02
3.011440150759406298e-02
2.912344205850209145e-02
2.821244876433143256e-02
2.742345424404483978e-02
2.678838461345216249e-02
2.633117641258882896e-02
2.607002155508349878e-02
2.601556273846990230e-02
2.617096496347438850e-02
2.653222507292575527e-02
2.708869226741550396e-02
2.782376398216659941e-02
2.871571449728030356e-02
2.973378958227085311e-02
3.085050959062185516e-02
3.203941436741980509e-02
3.326774776134150402e-02
3.450189982234957986e-02
3.570808503501043951e-02
3.685286146044741695e-02
3.790347485121853266e-02
3.882802803593082830e-02
3.959549202929368850e-02
4.017083760947365301e-02
4.052588761201292300e-02
4.063947407336934714e-02
4.048159073297472044e-02
4.002158907519379194e-02
3.922838616492467512e-02
3.807084641646402146e-02
3.651832397430051363e-02
3.454134222576085711e-02
3.211238037117329636e-02
2.921428791177119177e-02
2.583970493753523501e-02
2.195412731137114104e-02
1.754316370483494092e-02
1.259817473441293689e-02
7.117583076747979742e-03
1.108252480806592999e-03
-5.413126429099635040e-03
-1.241872153193568362e-02
-1.986840552353519307e-02
-2.770491155474985590e-02
-3.584986278437884977e-02
-4.424223327075238466e-02
-5.278816222696103289e-02
-6.138075900862982603e-02
-6.990169259934220225e-02
-7.822330681039429967e-02
-8.621118243092162903e-02
-9.372704581072999197e-02
-1.006319095584659595e-01
-1.067916924105011822e-01
-1.121133004917605341e-01
-1.164468751336124042e-01
-1.196758245177474284e-01
-1.216960544791610421e-01
-1.224193521940286078e-01
-1.217766917488800615e-01
-1.197213177204379808e-01
-1.162314475151429161e-01
-1.113124281537604121e-01
-1.049981907797349345e-01
-9.739269009290096868e-02
-8.855903566159284424e-02
-7.860907871282651893e-02
-6.767972843662484195e-02
-5.592896874949848662e-02
-4.353295826560710235e-02
-3.068264147897081795e-02
-1.757994655342842716e-02
-4.433656142432962355e-03
8.544953576889557922e-03
2.116672414251874468e-02
3.321402488593516722e-02
4.448911729137960958e-02
5.481262409725057294e-02
6.402412102676902084e-02
7.198600207969352294e-02
7.858690946925189769e-02
8.374460205884988462e-02
8.740813780194078841e-02
8.955925567452741043e-02
9.024750445917217867e-02
8.950836533002132223e-02
8.740342971875192379e-02
8.403219649369653155e-02
7.951843099418376415e-02
7.400717601119877198e-02
6.766131909441341907e-02
6.065777128664506801e-02
5.318331547700316797e-02
4.543018793851938408e-02
3.760196117713043851e-02
2.989139685028818771e-02
2.247136421030970777e-02
1.550450985069873333e-02
9.134751155620901564e-03
3.483945214226791265e-03
-1.350824834590924617e-03
-5.299294898414741439e-03
-8.319362160524257366e-03
-1.039770582469967675e-02
-1.155009357927960778e-02
-1.181620976579578208e-02
-1.126470847195157332e-02
-9.990797736827164433e-03
-8.111592520866267586e-03
-5.762460324301221792e-03
-3.092829601928609451e-03
-2.615794087732215001e-04
2.567858707474307556e-03
5.232547416639948823e-03
7.571088491339417192e-03
9.436240063062817374e-03
1.070376404260592329e-02
1.126106897223932979e-02
1.101829677864551993e-02
9.911569607943815363e-03
7.905552869294951712e-03
4.995252488358137288e-03
1.206986985816671520e-03
-3.401500839214810501e-03
-8.751431044381807745e-03
-1.474211325883684198e-02
-2.120144113619720772e-02
-2.795902096266103531e-02
-3.482487369161885171e-02
-4.159418159681188554e-02
-4.805262557688290415e-02
-5.398217941844765666e-02
-5.916720098358553559e-02
-6.340063912523459522e-02
-6.649629178203994573e-02
-6.831159046573528904e-02
-6.866625455810221323e-02
-6.744115910560413707e-02
-6.455131892768334323e-02
-5.994930787152835672e-02
-5.362780941081024544e-02
-4.562121638114235989e-02
-3.600621588451852206e-02
-2.490131564985620383e-02
-1.246506488916848676e-02
1.109298564783423036e-03
1.558441155459472371e-02
3.070116202708356168e-02
4.617715724610424455e-02
6.171284314485805944e-02
7.699819338911056965e-02
9.171981328174043380e-02
1.055682824322301816e-01
1.182455431085603081e-01
1.294721302439098831e-01
1.390391786100159677e-01
1.466737670761780743e-01
1.521851769980315794e-01
1.554295128449116326e-01
1.563092075757195332e-01
1.547752294647666282e-01
1.508281203129323567e-01
1.445178757488424504e-01
1.359426966657514280e-01
1.252466559195583029e-01
1.126482174169899375e-01
9.833799263509479527e-02
8.256462432660027773e-02
6.561342013424187325e-02
4.779119502255513297e-02
2.941881145789992935e-02
1.082340893146960248e-02
-7.669435816207825773e-03
-2.574337909769353061e-02
-4.309858492324147861e-02
-5.946198964883175897e-02
-7.458324290206908014e-02
-8.824693039686493101e-02
-1.002773900070650370e-01
-1.105398858996157196e-01
-1.189422971145415453e-01
-1.254356702471537133e-01
-1.300136675805081410e-01
-1.327109671693867676e-01
-1.336006928162989937e-01
-1.328082086870041034e-01
-1.304596343280137738e-01
-1.267051983446038088e-01
-1.217312789462735578e-01
-1.157402136742163856e-01
-1.089439567383838625e-01
-1.015576620662235197e-01
-9.379341073052249733e-02
-8.585428831280572659e-02
-7.792899567437427955e-02
-7.019510503380388400e-02
-6.279727653989697345e-02
-5.584565159805976453e-02
-4.943280793089321890e-02
-4.362264900451606753e-02
-3.845010519456559805e-02
-3.392173317818869549e-02
-3.001717168169937278e-02
-2.669138715782015669e-02
-2.387762064721987709e-02
-2.148923508886940725e-02
-1.942640764158315436e-02
-1.758372339835923004e-02
-1.584699953387061488e-02
-1.410122227977342324e-02
-1.223506703669124951e-02
-1.014518893039637742e-02
-7.740153974331608067e-03
-4.943896887889973057e-03
-1.698610513175699555e-03
2.034743270718425423e-03
6.276878046935358002e-03
1.101500861974361034e-02
1.621713128807666937e-02
2.182854818416082865e-02
2.777341588060316946e-02
3.395699881597863401e-02
4.026854232963411606e-02
4.658466140265338229e-02
5.277312679369386417e-02
5.869699818825593884e-02
6.421843556331832681e-02
6.920245803362443104e-02
7.352301408035545605e-02
7.706570418687727630e-02
7.973118441288343239e-02
8.143810946644014503e-02
8.212554829991923488e-02
8.175482363005368014e-02
8.031074439729726788e-02
7.780232020984599595e-02
7.426525165854379329e-02
6.974317511578946582e-02
6.431702801666706881e-02
5.808968238322874400e-02
5.118310384012500491e-02
4.373491765855795632e-02
3.589451873172842811e-02
2.781887560007367810e-02
1.966818380749482675e-02
1.160152145942613955e-02
3.778167854673095127e-03
-3.663309947083637219e-03
-1.059209178657493505e-02
-1.689240175781874659e-02
-2.246671803464180689e-02
-2.723772454678962535e-02
-3.114964490925565405e-02
-3.416895086249378821e-02
-3.628445696734007575e-02
-3.750682998590429418e-02
-3.788641179238180778e-02
-3.744473788232252631e-02
-3.624461968030523451e-02
-3.437345936934965707e-02
-3.193276608135781069e-02
-2.903429124020923124e-02
-2.579591394437352747e-02
-2.233746978561296226e-02
-1.877670657902263951e-02
-1.522552993273484923e-02
-1.182021381327902354e-02
-8.624663706274904307e-03
-5.695598204153218269e-03
-3.093673520231488006e-03
-8.640290496336744397e-04
9.644378480498927431e-04
2.379210686679344988e-03
3.383701994486343345e-03
3.996236067116631929e-03
4.248520561406621265e-03
4.179830301619724686e-03
3.835698484482119586e-03
3.278044010560088317e-03
2.573597132638771878e-03
1.791561094367621898e-03
1.000416043807905719e-03
2.648002129681664707e-04
-3.573845332586486970e-04
-8.175110804116286767e-04
-1.078300228981393660e-03
-1.087628184004901799e-03
-8.354291948093339748e-04
-3.656492467315475281e-04
3.028380028298749416e-04
1.139448871170400945e-03
2.103017951397390117e-03
3.143403508895081799e-03
4.203534188804758376e-03
5.221828258693883562e-03
6.134885236414311382e-03
6.901621108867050935e-03
7.486314409555216987e-03
7.789439369542461300e-03
7.762713372313823079e-03
7.368719047171901071e-03
6.582847469358665826e-03
5.394842629958374047e-03
3.809892813818577251e-03
1.849222043470849508e-03
-4.498565427157041885e-04
-3.032790444229438442e-03
-5.829156344032695829e-03
-8.765987176781966927e-03
-1.175238644070020211e-02
-1.468927573798786690e-02
-1.747264238331172614e-02
-1.999712956354243731e-02
-2.215983204570692866e-02
-2.386414400301561933e-02
-2.502349702207162796e-02
-2.556823455297796421e-02
-2.547389201378874590e-02
-2.467272678948240205e-02
-2.314333060929252284e-02
-2.088519872552341283e-02
-1.791968250191711132e-02
-1.429035016440582950e-02
-1.006271843154354917e-02
-5.323326809881609445e-03
-1.781381530073233854e-04
5.249735386195143738e-03
1.078633847117893563e-02
1.632322117859565103e-02
2.170871323460973890e-02
2.678823686208686716e-02
3.140968611584776804e-02
3.542830915716202456e-02
3.871151117583684909e-02
4.114339662024482647e-02
4.262888024379213325e-02
4.309721521240617026e-02
4.249202235413429563e-02
4.081936950153447485e-02
3.809661096814598302e-02
3.436761147925371240e-02
2.970511127618175040e-02
2.420974005585502242e-02
1.800822916634903237e-02
1.125081878197081720e-02
4.107882132153850563e-03
-3.234182506482441433e-03
-1.057270867467646758e-02
-1.770487135867698791e-02
-2.442911718659984688e-02
-3.054885639208893000e-02
-3.587944543612284209e-02
-4.025376099856331491e-02
-4.352738801935526758e-02
-4.558325720403937076e-02
-4.633558394346017073e-02
-4.573298206205723970e-02
-4.375194377282569380e-02
-4.042250653370065006e-02
-3.581136775411261630e-02
-3.001621065997883697e-02
-2.316936173196451620e-02
-1.543499604501469280e-02
-7.005421338517725527e-03
1.903485201886989664e-03
1.105758593066008544e-02
2.021040967082732287e-02
2.911222782601657899e-02
3.750998110288811249e-02
4.515670654544029494e-02
5.182261360675266548e-02
5.729876180149923171e-02
6.140296157908858854e-02
6.398502194668248544e-02
6.493119334858332703e-02
6.416767652689908674e-02
6.166309415826681795e-02
5.742814646812643975e-02
5.151845084946023862e-02
4.403609620464112723e-02
3.512179565168932482e-02
2.495401748179046364e-02
1.374476065728058582e-02
1.734429316646246555e-03
-1.081405344128333335e-02
-2.362172982596327797e-02
-3.640050976835618179e-02
-4.886225163364921187e-02
-6.072568422236102048e-02
-7.171341585869939195e-02
-8.157045444603028272e-02
-9.006651726872461072e-02
-9.700160667593182851e-02
-1.022108063843077952e-01
-1.055681759337846470e-01
-1.069896450044138803e-01
-1.064348363529930008e-01
-1.039078583901262842e-01
-9.945633868226233520e-02
-9.317003757786757046e-02
-8.517962653081112556e-02
-7.565227336109836553e-02
-6.478716834146983072e-02
-5.281030556161014911e-02
-3.996868040077152656e-02
-2.652407899590090296e-02
-1.274664395317745558e-02
1.092528929453662201e-03
1.473865893025883000e-02
2.792259819262565834e-02
4.040153708600324745e-02
5.195330353488025743e-02
6.238085867717979571e-02
7.151608776319451355e-02
7.922281238963324590e-02
8.539896826291937248e-02
8.997791187135006918e-02
9.292883980457899984e-02
9.426604369093938285e-02
9.401643106247115078e-02
9.224981527331266307e-02
8.906588949904648000e-02
8.459017206538599343e-02
7.896991814373843788e-02
7.236964636712839294e-02
6.496643190894213493e-02
5.694511850304206924e-02
4.849359613855125373e-02
3.978312729245020440e-02
3.100482091231648862e-02
2.233450496979211275e-02
1.393309043697846250e-02
5.946184871147147666e-03
-1.498408156502317734e-03
-8.292671067086809789e-03
-1.434981212799525674e-02
-1.960514702694876946e-02
-2.401641417825135794e-02
-2.757764872192042249e-02
-3.027801069888715058e-02
-3.213233960978692516e-02
-3.317988718884001820e-02
-3.347629463810722350e-02
-3.309092355468240543e-02
-3.210394554699272374e-02
-3.060330820933207518e-02
-2.868169377588455915e-02
-2.643357902004761506e-02
-2.393586783317008804e-02
-2.128145680186779853e-02
-1.856719748643104184e-02
-1.587405520894186184e-02
-1.327476236141078569e-02
-1.083232165465358721e-02
-8.598770999747817889e-03
-6.614237024586078206e-03
-4.906309963958133125e-03
-3.489775368978764725e-03
-2.345003860788286154e-03
-1.461408524268792419e-03
-8.423534185464931490e-04
-4.606066048689350101e-04
-2.810102244029388796e-04
-2.622096964350340009e-04
-3.585109531877572753e-04
-5.217929309292157480e-04
-7.034075279523099855e-04
-8.560075694195590224e-04
-9.420108175290375918e-04
-9.251576687831497559e-04
-7.595820354999727186e-04
-4.173097200365211146e-04
1.215634828058559380e-04
8.681066450357544095e-04
1.823999314190603849e-03
2.981202633614995177e-03
4.321879325481996215e-03
5.818592357847131302e-03
7.419381765325451517e-03
9.052341137036151730e-03
1.071017244303332228e-02
1.234050804819790403e-02
1.388763077494400977e-02
1.529421717793706670e-02
1.650314049514173265e-02
1.745927344657291491e-02
1.811124019106839789e-02
1.841307765005981145e-02
1.832513858933916551e-02
1.780857415351769224e-02
1.684311255977904986e-02
1.542136844559815340e-02
1.354873949615393453e-02
1.124351068387911302e-02
8.536589407888152750e-03
5.470907784569913057e-03
2.100530911571245329e-03
-1.510491445681917677e-03
-5.287948395806568724e-03
-9.124109349392575674e-03
-1.297534493076533957e-02
-1.675293593975396567e-02
-2.036524640513906470e-02
-2.372027568957046917e-02
-2.672834028117954119e-02
-2.930476872281512213e-02
-3.137249402371020124e-02
-3.286443690799001338e-02
-3.372558897637495390e-02
-3.392001549267156801e-02
-3.341753800501065519e-02
-3.220688371879670830e-02
-3.029331359318702954e-02
-2.769832329971461116e-02
-2.445934145407424598e-02
-2.062908587375721081e-02
-1.627460763814810030e-02
-1.147605127439190256e-02
-6.325156750409290443e-03
-9.449179863060454959e-04
4.581518865630913873e-03
1.014450086789387556e-02
1.562353979303685025e-02
2.089602092427564339e-02
2.584022547961331573e-02
3.033840247693685155e-02
3.427976068408979116e-02
3.756325704205289162e-02
4.010007275590184161e-02
4.182640610089340127e-02
4.268660128880823884e-02
4.263294205732041930e-02
4.163645312725575143e-02
3.968491296951235509e-02
3.678347898404134980e-02
3.295508951192305247e-02
2.824061069083061773e-02
2.269868912874795086e-02
1.640526886367475040e-02
9.473341566822654491e-03
2.006307330664508504e-03
-5.891707469557277976e-03
-1.409196797784420530e-02
-2.245706889137333295e-02
-3.084329151681075576e-02
-3.910309765407675442e-02
-4.708770723114077961e-02
-5.464971008701191568e-02
-6.164566759340886493e-02
-6.793334335851056172e-02
-7.338580631008621846e-02
-7.789344941029428815e-02
-8.135349606565192571e-02
-8.367857848712936808e-02
-8.479868313993099704e-02
-8.466287440863701219e-02
-8.324074992542573881e-02
-8.052358106663268233e-02
-7.652509407193885949e-02
-7.128041761646580765e-02
-6.484752710588015390e-02
-5.731080919631881265e-02
-4.877358325069974798e-02
-3.935902683543590630e-02
-2.920819436170557504e-02
-1.847757794457705049e-02
-7.336253125100555827e-03
4.037332554370220983e-03
1.545885671175872833e-02
2.674316234934870362e-02
3.770889036164820629e-02
4.817242742785632359e-02
5.796289383899211334e-02
6.692211407676310064e-02
7.490806539215469351e-02
8.179802801277116786e-02
8.749135905727106755e-02
9.191181883426527421e-02
9.500938600391753419e-02
9.675828794264623722e-02
9.714284998213366940e-02
9.621853035832021728e-02
9.404959531508809423e-02
9.072701171438007917e-02
8.636605929772384060e-02
8.110319877504296171e-02
7.509228619454483278e-02
6.850025775958262786e-02
6.150243690419290865e-02
5.427699779471678587e-02
4.695216052113587724e-02
3.974423830628048826e-02
3.281921240169810572e-02
2.632942804789523139e-02
2.040949783592099775e-02
1.517264002926271838e-02
1.070756413208867608e-02
7.076010960125389548e-03
4.311045246536082676e-03
2.416184234383556007e-03
1.352268720425098270e-03
1.073413334351097648e-03
1.501623217344427719e-03
2.534367226144390584e-03
4.049197829082862299e-03
5.907737192138495796e-03
7.960176595468437810e-03
1.005015114824252265e-02
1.201983508948341328e-02
1.371509204174363450e-02
1.501080443991999885e-02
1.575923020943941627e-02
1.583882029107884157e-02
1.515510638156702949e-02
1.363828033738112913e-02
1.124558495911739953e-02
7.962901033283627250e-03
3.805484497436534275e-03
-1.182173009178694167e-03
-6.927366427615239131e-03
-1.331837171046595936e-02
-2.023692964499253233e-02
-2.754791504270731606e-02
-3.509510294102524686e-02
-4.271128641031889106e-02
-5.022307787161423009e-02
-5.745590061507105384e-02
-6.423903077081841162e-02
-7.041054918280119368e-02
-7.582206492838623746e-02
-8.034135507869910597e-02
-8.385410374925528210e-02
-8.627780046046851226e-02
-8.755922022340409394e-02
-8.767541374338935767e-02
-8.663413828421591412e-02
-8.447332660359486989e-02
-8.125964486703521339e-02
-7.708621962202130695e-02
-7.206963698742203939e-02
-6.634143914281032117e-02
-6.004922442845218866e-02
-5.336279936156186621e-02
-4.645477638962959566e-02
-3.950027255374002899e-02
-3.267183728588213265e-02
-2.613444717735322054e-02
-2.004071173183788468e-02
-1.452643128368946712e-02
-9.706641267319404687e-03
-5.666637987690348321e-03
-2.470100598176733220e-03
-1.667961900734954428e-04
1.238354905096411551e-03
1.771014959409955569e-03
1.486197799203045622e-03
4.661100268258111523e-04
-1.182822021424882741e-03
-3.333602499778522132e-03
-5.842841830796256103e-03
-8.553510520048761279e-03
-1.130554703869320748e-02
-1.394456793225945512e-02
-1.630567919784282893e-02
-1.822957103039621329e-02
-1.956746448059998311e-02
-2.018581832198731996e-02
-1.997064054184330417e-02
-1.883125887230840956e-02
-1.670342129891083660e-02
-1.355228203659120112e-02
-9.376230575511901311e-03
-4.193391913584920694e-03
1.940018809080235052e-03
8.938254696497727192e-03
1.668830653017527865e-02
2.505298112701120905e-02
3.387466657584137231e-02
4.297964302027651451e-02
5.218278594871472720e-02
6.129250470578362364e-02
7.009837951393893540e-02
7.844059029499683700e-02
8.613663439057794857e-02
9.301462067132959533e-02
9.891825060842485140e-02
1.037110806215915115e-01
1.072802627706784251e-01
1.095396281111389869e-01
1.104320023062453915e-01
1.099306740640709212e-01
1.080199538969073420e-01
1.047567275969636530e-01
1.002095431689387500e-01
9.447059212864225564e-02
8.765631917395147465e-02
7.990417394809107288e-02
7.136883380763126006e-02
6.221800701020596680e-02
5.262794047768493133e-02
4.277876718781936649e-02
3.284367470500582087e-02
2.299995655173470155e-02
1.341467351363978544e-02
4.239774692406106382e-03
-4.389615798020884974e-03
-1.235816205019690805e-02
-1.957265356586734839e-02
-2.596365839832237565e-02
-3.148645573574704315e-02
-3.612123371651287940e-02
-3.987218824654725768e-02
-4.276516007690972510e-02
-4.484940831696132557e-02
-4.619367682325131730e-02
-4.688284486084115521e-02
-4.701439530857579041e-02
-4.669455970575947523e-02
-4.603427319150446562e-02
-4.514507705455601816e-02
-4.413510625238389884e-02
-4.310482382087543751e-02
-4.214561579981851436e-02
-4.133467033906509935e-02
-4.073207648587437446e-02
-4.037978216288090616e-02
-4.030048802640873173e-02
-4.049724491720912978e-02
-4.095374965234221953e-02
-4.163531174433982018e-02
-4.249044381473210397e-02
-4.344618430619656690e-02
-4.442896717771055437e-02
-4.536384992101960556e-02
-4.615598763194705967e-02
-4.670715012313936265e-02
-4.691988164056878907e-02
-4.670172083130999519e-02
-4.596930257080994453e-02
-4.465217029519265302e-02
-4.269614331735031854e-02
-4.005887393034150701e-02
-3.672154761789861444e-02
-3.271263562392361796e-02
-2.806345657249509351e-02
-2.282727350854958648e-02
-1.707856293687767812e-02
-1.091157163111372563e-02
-4.438181019417675177e-03
2.214875444164488005e-03
8.909370664988203181e-03
1.550109929528431518e-02
2.184684314032014907e-02
2.779061008087541085e-02
3.318861038759046700e-02
3.790687398442613154e-02
4.182556030834730376e-02
4.484293087256058241e-02
4.687884386816656979e-02
4.787764351742870850e-02
4.781033543754592552e-02
4.667657209531533846e-02
4.451153817552207237e-02
4.136282689853527927e-02
3.731236119771473569e-02
3.246680014891775712e-02
2.695469838907542381e-02
2.092298405315776155e-02
1.453286149446308961e-02
7.955260893083848650e-03
1.365968980704707070e-03
-5.059416352468371070e-03
-1.113815348862270960e-02
-1.672218596562125015e-02
-2.166789097972693368e-02
-2.585033289921334632e-02
-2.916745632192113691e-02
-3.154303278407744049e-02
-3.292880946714893398e-02
-3.330578865756284035e-02
-3.268459657082467551e-02
-3.110493148858073376e-02
-2.864904059840245321e-02
-2.539084963814169926e-02
-2.144206364179124247e-02
-1.693717663838040233e-02
-1.202561079858377457e-02
-6.866702445888911432e-03
-1.624422450072854351e-03
3.537971459334834923e-03
8.463160441072592466e-03
1.300469351803086593e-02
1.699822794485387339e-02
2.036173563888178661e-02
2.302092351883244792e-02
2.491153567771986488e-02
2.599482657288246235e-02
2.625866995591513708e-02
2.571779319709732725e-02
2.441310207396579779e-02
2.241010056481201884e-02
1.979645192659928998e-02
1.666653553970187662e-02
1.314920597023111482e-02
9.386007246787064773e-03
5.516021816168781289e-03
1.679261979165735941e-03
-1.988026381885776850e-03
-5.357849104726919442e-03
-8.314591086125422414e-03
-1.075865465246494956e-02
-1.260949782703721378e-02
-1.380213848443680169e-02
-1.430365671073269979e-02
-1.410871599635495771e-02
-1.322836103853149148e-02
-1.169620078357452853e-02
-9.567076474942454167e-03
-6.915060141947482197e-03
-3.830838799438907039e-03
-4.185618958425507685e-04
3.207748860596770779e-03
6.929599917155082611e-03
1.062117546852187067e-02
1.415913184118827717e-02
1.743206641036859628e-02
2.033945306749368465e-02
2.279458482660340346e-02
2.472692362656536691e-02
2.608380952289035548e-02
2.683150910808895784e-02
2.695560837718125047e-02
2.646052093144721229e-02
2.536364028873105969e-02
2.370366139910597136e-02
2.153806931332741606e-02
1.893829752791290066e-02
1.598674302299893379e-02
1.277345632335155634e-02
9.392648992227303761e-03
5.939164836822219407e-03
2.505058073525634477e-03
-8.202776798676425507e-04
-3.946786365595811308e-03
-6.828058301294182009e-03
-9.411736806829940072e-03
-1.165934531338230773e-02
-1.354698693580946856e-02
-1.506543168234331098e-02
-1.621960523809706789e-02
-1.702752322298739518e-02
-1.751874194420799391e-02
-1.773112475090476980e-02
-1.767866064618517363e-02
-1.743937926860517074e-02
-1.707228235105101577e-02
-1.663789055616216039e-02
-1.619531615913627487e-02
-1.579936883668403569e-02
-1.549783526418230251e-02
-1.532907369895197824e-02
-1.532005645673190086e-02
-1.548497568421217108e-02
-1.580695578265427226e-02
-1.627918594272204089e-02
-1.688089292916178374e-02
-1.758061318684159269e-02
-1.833838126771453192e-02
-1.910731761597644907e-02
-1.983547708927885234e-02
-2.046790150160454624e-02
-2.094881267135806358e-02
-2.122387650659635083e-02
-2.124915436719820860e-02
-2.097677726469643344e-02
-2.036747844676251029e-02
-1.939254443769511393e-02
-1.803420173871472798e-02
-1.628694805793229339e-02
-1.415848710638745178e-02
-1.167019697544413592e-02
-8.857075116597279418e-03
-5.767121751779402672e-03
-2.479190421915800080e-03
9.392453447927273658e-04
4.421084438990252607e-03
7.889520162956742411e-03
1.126678027663552406e-02
1.447646472148039765e-02
1.744579025679776629e-02
2.010769114837240856e-02
2.240273752579696742e-02
2.428084351131337693e-02
2.568923698390518373e-02
2.660317694083993989e-02
2.701951805365385151e-02
2.694036238247847492e-02
2.638213201715730594e-02
2.537531866933926197e-02
2.396380256818967172e-02
2.220374494898653961e-02
2.016207381658116637e-02
1.791459891502718282e-02
1.554611279554465875e-02
1.314671960597632583e-02
1.080228834127880400e-02
8.598210863371813506e-03
6.615558454346998074e-03
4.928787288594943528e-03
3.603690254372793333e-03
2.695637791501503955e-03
2.248134696481524086e-03
2.291705510408303947e-03
2.849486655286836978e-03
3.929984724282020725e-03
5.509061503275278215e-03
7.558772492728890735e-03
1.003716095733545727e-02
1.288913668172647978e-02
1.604766786538166373e-02
1.943525901290067345e-02
2.296567974465206843e-02
2.654590189366214797e-02
3.007698213667280712e-02
3.345607855269091407e-02
3.658674031225728901e-02
3.937088634448619034e-02
4.171461234789813899e-02
4.353021553436219049e-02
4.473804779884672789e-02
4.526816492704685557e-02
4.506175103197970766e-02
4.407230850143024903e-02
4.226398476673079441e-02
3.960263380377540554e-02
3.610244974584411737e-02
3.177499498443245307e-02
2.664673005943907214e-02
2.075884720642262593e-02
1.416687369807956287e-02
6.940044487166785458e-03
-8.395517174221711620e-04
-9.078043439994576413e-03
-1.767108303174236283e-02
-2.650773499714864645e-02
-3.546502084410485534e-02
-4.441603933476978572e-02
-5.322996231032961489e-02
-6.177400928711457295e-02
-6.991549010155778676e-02
-7.752388879107302566e-02
-8.447296289628869470e-02
-9.064283326685296238e-02
-9.592203979580299356e-02
-1.001970507171687785e-01
-1.033908761343867999e-01
-1.054313130117924269e-01
-1.062605536130755701e-01
-1.058379722556340163e-01
-1.041412831740670952e-01
-1.011674098599330690e-01
-9.693303404009320778e-02
-9.147480027254127621e-02
-8.484916090691980994e-02
-7.712501006020508476e-02
-6.840244522113350656e-02
-5.879519079592754327e-02
-4.843052171199629941e-02
-3.744932142236001571e-02
-2.600391229387433167e-02
-1.425562258733897858e-02
-2.372124521402674269e-03
9.475414731782039190e-03
2.111531988450021657e-02
3.238020418051035243e-02
4.310309816934226879e-02
5.312826891743055446e-02
6.231342769464831566e-02
7.053095112901480723e-02
7.767015892286099898e-02
8.363924329912880706e-02
8.836681502937293597e-02
9.180303940851047839e-02
9.392034400386048421e-02
9.471604238410760712e-02
9.420694721255876147e-02
9.242998907790273000e-02
8.944464314936911853e-02
8.532970481935497897e-02
8.018153787158471824e-02
7.411200482008711843e-02
6.724612146206054852e-02
5.971948232093332587e-02
5.167550804445165957e-02
4.326397569908101148e-02
3.463925835454284563e-02
2.594948327324505394e-02
1.733840683492296822e-02
8.942638723521016686e-03
8.894334435524363369e-04
-6.705200671486305497e-03
-1.373806099032107153e-02
-2.011997566499830470e-02
-2.577670015715345653e-02
-3.064984959408834087e-02
-3.469499424233007945e-02
-3.788364228733923089e-02
-4.020494630925480761e-02
-4.166343413115222716e-02
-4.227812528517402302e-02
-4.208141677311688644e-02
-4.111777836892116511e-02
-3.944229901984178110e-02
-3.711912592859367699e-02
-3.422134342866658963e-02
-3.083094583799000921e-02
-2.702381951595933529e-02
-2.288310426875161951e-02
-1.849277880762753568e-02
-1.393632256973683509e-02
-9.295522884643346931e-03
-4.649432571880600384e-03
-7.347448479887164208e-05
4.361317687395283027e-03
8.587140121297603956e-03
1.253005931645811977e-02
1.615308587378749827e-02
1.940918525874446576e-02
2.225791160544970948e-02
2.466570046470156763e-02
2.660610356404102816e-02
2.805995817511147683e-02
2.901548554769073363e-02
2.946831583943282373e-02
2.942144026406690038e-02
2.886542096337091357e-02
2.784066508015220487e-02
2.637238528887830835e-02
2.449163682144905874e-02
2.223533203630351229e-02
1.964590775171307091e-02
1.677090996616828478e-02
1.366247574673470910e-02
1.037669829627331508e-02
6.972869065069713101e-03
3.514227957225220939e-03
