BVP Signal
6.087392832280977273e-04
-1.145950327298528304e-02
-2.115622862597016374e-02
-2.863609736250005700e-02
-3.405377006934862116e-02
-3.756390733328973663e-02
-3.932116974109634011e-02
-3.948021787954292261e-02
-3.819571233540197674e-02
-3.562231369544832660e-02
-3.191468254645490887e-02
-2.722747947519565948e-02
-2.171536506844384817e-02
-1.553299991297318883e-02
-8.835044595557173253e-03
-1.776159702969959397e-03
5.488994178015627057e-03
1.280575646062531714e-02
2.001946655808573006e-02
2.697546388362304093e-02
3.351908785046431305e-02
3.950001573875283611e-02
4.480588106642813262e-02
4.934394618935572518e-02
5.302163825152475529e-02
5.574638439692479464e-02
5.742561176954543573e-02
5.796674751337618781e-02
5.727721877240643522e-02
5.526445269062552068e-02
5.183587641202319629e-02
4.691277787763764584e-02
4.060634426683462639e-02
3.316548457484702617e-02
2.484219431844958415e-02
1.588846901441764992e-02
6.556304179525795917e-03
-2.902304669450628261e-03
-1.223536201573705018e-02
-2.119087234255800922e-02
-2.951684013313904398e-02
-3.696670449725114604e-02
-4.342078537049554043e-02
-4.888733932647493230e-02
-5.338026873231882519e-02
-5.691347595515600100e-02
-5.950086336211590776e-02
-6.115633332032793801e-02
-6.189378819692120670e-02
-6.172713035902510637e-02
-6.067026217376847441e-02
-5.873833648356588388e-02
-5.600459864094618767e-02
-5.262375256801336831e-02
-4.875659393803549735e-02
-4.456391842428092387e-02
-4.020652170001773329e-02
-3.584519943851424695e-02
-3.164074731303850863e-02
-2.775396099685895068e-02
-2.434563616324358915e-02
-2.157591662667637800e-02
-1.952221222510897025e-02
-1.809913251413808322e-02
-1.720228322839467694e-02
-1.672727010250912860e-02
-1.656969887111242601e-02
-1.662517526883511287e-02
-1.678930503030789945e-02
-1.695769389016144046e-02
-1.702594758302655720e-02
-1.688968601403273428e-02
-1.645613860350325641e-02
-1.566513030762622938e-02
-1.446216415977036318e-02
-1.279274319330458987e-02
-1.060237044159748065e-02
-7.836548938018272903e-03
-4.440781715935704366e-03
-3.605718087184434095e-04
4.458577750264439143e-03
1.007116392764439462e-02
1.649071469563696823e-02
2.356372858774578860e-02
3.109414330119755765e-02
3.888589652251042694e-02
4.674292593820228436e-02
5.446916923479128148e-02
6.186856409879509799e-02
6.874504821673205202e-02
7.490255927512007306e-02
8.014503496047697961e-02
8.429735492434614619e-02
8.730941981823053810e-02
8.917732764219449271e-02
8.989725033219764239e-02
8.946535982419917543e-02
8.787782805415872422e-02
8.513082695803569910e-02
8.122052847178978796e-02
7.614310453138029011e-02
6.989472707276672692e-02
6.248703452954096349e-02
5.406990796729352344e-02
4.486597587371625451e-02
3.509851632982278341e-02
2.499080741662690341e-02
1.476612721514226900e-02
4.647753806383159159e-03
-5.141034728636806328e-03
-1.437696030890400767e-02
-2.283674485340453364e-02
-3.030630225716329784e-02
-3.670060160030891305e-02
-4.202979104145321276e-02
-4.630623798035904404e-02
-4.954230981678808821e-02
-5.175037395050319233e-02
-5.294279778126603775e-02
-5.313194870883947152e-02
-5.233019413298556355e-02
-5.054990145346649477e-02
-4.780657524877168774e-02
-4.419120962894931837e-02
-3.987218851642365669e-02
-3.502141314214907153e-02
-2.981078473707987619e-02
-2.441220453217010644e-02
-1.899757375837436701e-02
-1.373879364664672142e-02
-8.807765427941375430e-03
-4.376390333212853978e-03
-6.148339142822561998e-04
2.390752658590844515e-03
4.674023658079312638e-03
6.277811054903575938e-03
7.244946819784464642e-03
7.618262923442614687e-03
7.440591336598550987e-03
6.754764029973103767e-03
5.603612974286853454e-03
4.029970140260519251e-03
2.076779729988875722e-03
-1.978079255558484739e-04
-2.705192202322903583e-03
-5.353142354432349759e-03
-8.049427636004441444e-03
-1.070181730115901675e-02
-1.321808060401635787e-02
-1.550598679869655272e-02
-1.747330513931977247e-02
-1.902780488000600789e-02
-2.007729376233851476e-02
-2.056612519948437801e-02
-2.054317307613335794e-02
-2.007587715675001466e-02
-1.923167720579892215e-02
-1.807801298774459886e-02
-1.668232426705165694e-02
-1.511205080818464608e-02
-1.343463237560812984e-02
-1.171750873378651914e-02
-1.002811964718464122e-02
-8.425638189383466425e-03
-6.934885728159978502e-03
-5.571762084147946492e-03
-4.352167060358347328e-03
-3.292000459802046919e-03
-2.407162085490466286e-03
-1.713551740434249293e-03
-1.227069227644761451e-03
-9.636143501329241801e-04
-9.390869109096033895e-04
-1.161925595765667119e-03
-1.595142564602913815e-03
-2.184653762066446347e-03
-2.876344130475549932e-03
-3.616098612149454272e-03
-4.349802149407472340e-03
-5.023339684568944863e-03
-5.582596159953212567e-03
-5.973456517879546790e-03
-6.141805700667218870e-03
-6.040056762431252058e-03
-5.680234618512174788e-03
-5.106283557845529841e-03
-4.362450520216207273e-03
-3.492982445409020809e-03
-2.542126273208766829e-03
-1.554128943400290286e-03
-5.732373957684777643e-04
3.563014299016731279e-04
1.190240593825719895e-03
1.885658237296472528e-03
2.418701787620991528e-03
2.779820048792236431e-03
2.959808508856631715e-03
2.949462655861212479e-03
2.739577977852625246e-03
2.320949962877461026e-03
1.684374098982588386e-03
8.206458742147093588e-04
-2.794392233794740221e-04
-1.623539058784706501e-03
-3.180938124488441598e-03
-4.880924051476942527e-03
-6.650912951185583566e-03
-8.418320935049766751e-03
-1.011056411450511616e-02
-1.165505860098683955e-02
-1.297922050593043608e-02
-1.401046594077143270e-02
-1.467621101694513604e-02
-1.490471292857473845e-02
-1.466668131067565273e-02
-1.399439201475330408e-02
-1.292495109664695829e-02
-1.149546461219594362e-02
-9.743038617239657695e-03
-7.704779167617220592e-03
-5.417792319168196480e-03
-2.919184127731733192e-03
-2.460606491470340718e-04
2.564419490395097867e-03
5.467479008883030511e-03
8.402814182313922409e-03
1.130823112731313418e-02
1.412153596050685911e-02
1.678053479852048557e-02
1.922303375798012359e-02
2.138683895551124481e-02
2.320975650773956372e-02
2.462959253129095444e-02
2.558417748760307558e-02
2.603838528307651085e-02
2.603587962287885749e-02
2.563459455945935050e-02
2.489246414526716245e-02
2.386742243275147279e-02
2.261740347436166920e-02
2.120034132254677850e-02
1.967417002975613283e-02
1.809682364843906432e-02
1.652623623104454431e-02
1.501523640562757445e-02
1.359502911667775926e-02
1.229109541330508648e-02
1.112891630717005587e-02
1.013397280993211247e-02
9.331745933251478498e-03
8.747716688788154116e-03
8.407366088202028465e-03
8.336175143153212730e-03
8.559624865301707075e-03
9.096332573994503345e-03
9.922294054907632166e-03
1.099716878482254190e-02
1.228058288043393231e-02
1.373216245843658992e-02
1.531153363552548163e-02
1.697832252839535927e-02
1.869215525374101627e-02
2.041265792825733283e-02
2.209945666863905034e-02
2.371572133764932033e-02
2.525768587874860360e-02
2.673959808222170498e-02
2.817588681636928882e-02
2.958098094949190848e-02
3.096930934989028383e-02
3.235530088586524577e-02
3.375338442571718112e-02
3.517798883774703178e-02
3.664354299025551764e-02
3.816275754234221829e-02
3.972299244791632766e-02
4.129227453048989194e-02
4.283814369202765260e-02
4.432813983449446216e-02
4.572980285985528415e-02
4.701067267007441597e-02
4.813828916711704320e-02
4.908019225294785182e-02
4.980392182953163882e-02
5.027597960953078537e-02
5.043629787364234396e-02
5.019665242294940599e-02
4.946746312475414076e-02
4.815914984635843998e-02
4.618213245506458398e-02
4.344683081817482528e-02
3.986366480299105564e-02
3.534305427681550676e-02
2.979541910695049367e-02
2.313261155775872546e-02
1.534193429618146975e-02
6.521973120226509657e-03
-3.219746231312103912e-03
-1.377569801963901552e-02
-2.503835650596081264e-02
-3.690019595148230636e-02
-4.925369061740852983e-02
-6.199131476494607051e-02
-7.500554265529951747e-02
-8.818863680536276339e-02
-1.013999675944173839e-01
-1.144306831520189860e-01
-1.270634514560002870e-01
-1.390809404841928942e-01
-1.502658182144281374e-01
-1.604007526245388171e-01
-1.692684116923561244e-01
-1.766514633957118607e-01
-1.823325757124386048e-01
-1.860944654637466666e-01
-1.877839936601611859e-01
-1.874384045529655651e-01
-1.851301003967531500e-01
-1.809314834461168142e-01
-1.749149559556497091e-01
-1.671529201799453745e-01
-1.577177783735961569e-01
-1.466819327911954851e-01
-1.341177856873370100e-01
-1.200977393166128282e-01
-1.047249477488880337e-01
-8.823532078781597121e-02
-7.090058438088761572e-02
-5.299246502081766952e-02
-3.478268920031843403e-02
-1.654298341210461848e-02
1.454925851109123425e-03
1.893931209661045556e-02
3.563844883168398869e-02
5.128060956361724099e-02
6.561938372363473881e-02
7.856870646525532242e-02
9.010510145407696347e-02
1.002052354773274589e-01
1.088457753222349944e-01
1.160033877760287546e-01
1.216547396259369251e-01
1.257764976591880801e-01
1.283453286630107382e-01
1.293378994246332514e-01
1.287439607214908577e-01
1.266780126572492060e-01
1.233237064574722597e-01
1.188654291699330345e-01
1.134875678424049905e-01
1.073745095226609769e-01
1.007106412584743149e-01
9.368035009761863097e-02
8.646802308786630253e-02
7.925804727699106711e-02
7.222967595739475388e-02
6.548448931570391429e-02
5.906383330776887597e-02
5.300747874863234732e-02
4.735519645333580163e-02
4.214675723692223874e-02
3.742193191443315969e-02
3.322049130091120350e-02
2.958220621139850959e-02
2.654684746093738390e-02
2.415215131065262533e-02
2.238212322932064957e-02
2.116287632870950119e-02
2.041765540147799651e-02
2.006970524028428571e-02
2.004227063778674101e-02
2.025859638664340157e-02
2.064192727951275064e-02
2.111550810905338249e-02
2.160258366792261464e-02
2.202690177392829796e-02
2.233988545557408223e-02
2.253447209289549669e-02
2.260701338947435080e-02
2.255386104889303689e-02
2.237136677473358648e-02
2.205588227057804496e-02
2.160375924000866588e-02
2.101134938660748075e-02
2.027500441395660435e-02
1.939111983113880888e-02
1.836340113605891555e-02
1.721098542429311262e-02
1.595496816459027190e-02
1.461644482569937620e-02
1.321651087636965816e-02
1.177626178534990631e-02
1.031679302138927001e-02
8.859200053236815364e-03
7.424578349641219877e-03
6.034017222411480752e-03
4.698932676309330869e-03
3.401490422374475742e-03
2.118348875944253695e-03
8.261664523562806117e-04
-4.983984330518276273e-04
-1.878687364942399629e-03
-3.338041927978208090e-03
-4.899803706821470595e-03
-6.587314286134793306e-03
-8.423915250580449321e-03
-1.043082469583261895e-02
-1.261991695310671346e-02
-1.500049712657069989e-02
-1.758187024540272536e-02
-2.037334133878015985e-02
-2.338421543588098395e-02
-2.662379756588328927e-02
-3.010139275796436253e-02
-3.382630604130219126e-02
-3.780784244507456870e-02
-4.204771860561058033e-02
-4.649862434075978379e-02
-5.109376173634844198e-02
-5.576628323334445470e-02
-6.044934127271461843e-02
-6.507608829542677054e-02
-6.957967674244880385e-02
-7.389325905474741774e-02
-7.794998767329075484e-02
-8.168301503904623617e-02
-8.502497709288481254e-02
-8.790347674392984256e-02
-9.024327842819224177e-02
-9.196911465544843622e-02
-9.300571793547585120e-02
-9.327782077805146788e-02
-9.271015569295226744e-02
-9.122745518995523106e-02
-8.875445177883756198e-02
-8.521587796937590831e-02
-8.054228699757082222e-02
-7.475456305077232688e-02
-6.794482019078040835e-02
-6.020710527500072740e-02
-5.163546516083777904e-02
-4.232394670569544770e-02
-3.236659676698033783e-02
-2.185746220209655588e-02
-1.089058986844773647e-02
4.399733765590441159e-04
1.203887522203943294e-02
2.377517146178911508e-02
3.547892788657734664e-02
4.697822344014437879e-02
5.810113706623087904e-02
6.867574770857412525e-02
7.853013431091454555e-02
8.749237581699170763e-02
9.539055117054551225e-02
1.020527393153142226e-01
1.073085576996413160e-01
1.110761123939829620e-01
1.134085133802836820e-01
1.143702357872137254e-01
1.140257547434428975e-01
1.124395453776410037e-01
1.096760828184781822e-01
1.057998421946234613e-01
1.008752986347478675e-01
9.496692726752054003e-02
8.813937012638806134e-02
8.048726013515861144e-02
7.216967147150477047e-02
6.335402689802072107e-02
5.420774917730070142e-02
4.489826107194061500e-02
3.559298534453431140e-02
2.645934475767541816e-02
1.766476207396022735e-02
9.376660055982422026e-03
1.762436254619081932e-03
-5.058547646808353448e-03
-1.111491736093403460e-02
-1.646370580391945393e-02
-2.116194589192441078e-02
-2.526667054111025879e-02
-2.883491266763829608e-02
-3.192370518766868281e-02
-3.459008101736264773e-02
-3.689107307288110038e-02
-3.888371427038467276e-02
-4.062573464634379461e-02
-4.217799085454272678e-02
-4.360221574271384848e-02
-4.496014220197912248e-02
-4.631350312346045606e-02
-4.772403139827996466e-02
-4.925345991755938901e-02
-5.096352157242073355e-02
-5.291594925398619698e-02
-5.517247585337722859e-02
-5.777588966608426801e-02
-6.064412028938762772e-02
-6.364455971023519343e-02
-6.664445716535449815e-02
-6.951106189147303327e-02
-7.211162312531751994e-02
-7.431339010361555364e-02
-7.598361206309438287e-02
-7.698953824048124228e-02
-7.719841787250333875e-02
-7.648640313234295052e-02
-7.481832354346401592e-02
-7.220988843225095710e-02
-6.867741121612364052e-02
-6.423720531250087795e-02
-5.890558413880342403e-02
-5.269886111245047911e-02
-4.563334965086118800e-02
-3.772536317145647189e-02
-2.899121509165525357e-02
-1.945371207466795038e-02
-9.239044137245411292e-03
1.443704925044531073e-03
1.238311876317599314e-02
2.336778102812087088e-02
3.418627537085328072e-02
4.462718544234711704e-02
5.447909489357649626e-02
6.353058737551325885e-02
7.157024653913174328e-02
7.839035679585454330e-02
8.388741268786698013e-02
8.807397850196585498e-02
9.096869984927305475e-02
9.259022234090957815e-02
9.295719158799731208e-02
9.208825320165769934e-02
9.000205279301247419e-02
8.671723597318325982e-02
8.225244835329108273e-02
7.662754811391475629e-02
6.993536996519378324e-02
6.238199028194213458e-02
5.418324163821230943e-02
4.555495660805941593e-02
3.671296776553562013e-02
2.787310768469386524e-02
1.925120893958920387e-02
1.106310410427396862e-02
3.524625752800880640e-03
-3.148719778925279655e-03
-8.804707850832815819e-03
-1.342951942544950983e-02
-1.702763860951717056e-02
-1.960354950977916122e-02
-2.116173623297795681e-02
-2.170668288585606009e-02
-2.124287357515623753e-02
-1.977479240762100229e-02
-1.730692348999320063e-02
-1.384376815370741420e-02
-9.430253721343512252e-03
-4.238202076493891024e-03
1.535732054735505780e-03
7.694893946239844684e-03
1.404262887191481957e-02
2.038228210565373733e-02
2.651719892135218082e-02
3.225072459290567739e-02
3.738620439420770047e-02
4.172698359915361088e-02
4.510343273007610954e-02
4.746947117058297749e-02
4.881430390405849806e-02
4.912713863859641261e-02
4.839718308229190580e-02
4.661364494323783081e-02
4.376573192952926128e-02
3.984265174925982755e-02
3.483361211052415918e-02
2.872782072141621956e-02
2.153440254583466329e-02
1.339640181195606017e-02
4.512055912746781861e-03
-4.920225649520798550e-03
-1.470203337257219856e-02
-2.463495775413510752e-02
-3.452058929193757564e-02
-4.416051848370455835e-02
-5.335633582716425849e-02
-6.190963182004438625e-02
-6.963075735833479385e-02
-7.641926730839665449e-02
-8.222678543956674080e-02
-8.700558724308726788e-02
-9.070794821020178311e-02
-9.328614383215305672e-02
-9.469244960018530222e-02
-9.487914100554029062e-02
-9.379849353946201340e-02
-9.140278269319290771e-02
-8.765147548062568461e-02
-8.262154154141532203e-02
-7.648574884763470472e-02
-6.941965920738590867e-02
-6.159883442876878945e-02
-5.319883631988520101e-02
-4.439522668883855161e-02
-3.536356734372847477e-02
-2.627942009265549217e-02
-1.731834674372323413e-02
-8.654324424464565624e-03
-4.152208038056270922e-04
7.323313136581077742e-03
1.448843846833020033e-02
2.100731626307528188e-02
2.680710759245111263e-02
3.181497352809051216e-02
3.595807514162789598e-02
3.916357350469767962e-02
4.135862968893305736e-02
4.247149630219571037e-02
4.249923102474545411e-02
4.154748923201728728e-02
3.973149970358680338e-02
3.716649121902859676e-02
3.396769255791887154e-02
3.025033249983277717e-02
2.612963982434535204e-02
2.172084331103252275e-02
1.713917173946932770e-02
1.249979662984512796e-02
7.905867559244827980e-03
3.433768815841342636e-03
-8.437279744726300379e-04
-4.853851185806057345e-03
-8.523829192264797960e-03
-1.178089036795826328e-02
-1.455226308699364424e-02
-1.676517572347835383e-02
-1.834685665152047118e-02
-1.922454306216553332e-02
-1.935143086168239490e-02
-1.876374069873149031e-02
-1.751425686564023199e-02
-1.565576365473592135e-02
-1.324104535834616514e-02
-1.032288626879798721e-02
-6.954070678419299600e-03
-3.187382879537348224e-03
9.243928355206626479e-04
5.328472174427584251e-03
9.967765579085317851e-03
1.476512126356122750e-02
1.963754817834548541e-02
2.450205461290162062e-02
2.927564885669434874e-02
3.387533919918840619e-02
3.821813392984734631e-02
4.222104133813591592e-02
4.580106971351870226e-02
4.887522734545949460e-02
5.136836794984450671e-02
5.325916503659758328e-02
5.454887652515157115e-02
5.523883776969633341e-02
5.533038412442134457e-02
5.482485094351632893e-02
5.372357358117083037e-02
5.202788739157460096e-02
4.973912772891703193e-02
4.685862994738798637e-02
4.339305388618136528e-02
3.940449405070406419e-02
3.498796204719262226e-02
3.023890328377892844e-02
2.525276316859448311e-02
2.012498710977228544e-02
1.495102051544400235e-02
9.826308793741245218e-03
4.846297352797013236e-03
1.064316007429733091e-04
-4.300631947972699543e-03
-8.329011202528380231e-03
-1.197159906290440334e-02
-1.522245977217090429e-02
-1.807565757339762991e-02
-2.052525670965438254e-02
-2.256532142401146412e-02
-2.418991595953887130e-02
-2.539310455930637866e-02
-2.616895146638398284e-02
-2.651294973845931546e-02
-2.646357183291055126e-02
-2.610877749063956685e-02
-2.553926496047927847e-02
-2.484573249126270644e-02
-2.411887833182280172e-02
-2.344940073099247013e-02
-2.292799793760474936e-02
-2.264536820049245502e-02
-2.269220976848884685e-02
-2.315838173459450200e-02
-2.407828487795526939e-02
-2.539728566983601166e-02
-2.705272082564313951e-02
-2.898192706078317471e-02
-3.112224109066341615e-02
-3.341099963069049661e-02
-3.578553939627027169e-02
-3.818319710281004031e-02
-4.054130946571676830e-02
-4.279718142909982870e-02
-4.488087711395161161e-02
-4.670604991013371787e-02
-4.818409258303246734e-02
-4.922639789803484600e-02
-4.974435862052772883e-02
-4.964936751589732467e-02
-4.885281734953028643e-02
-4.726610088681348909e-02
-4.480061089313336353e-02
-4.136775321072055922e-02
-3.692827940526338670e-02
-3.160375876762050451e-02
-2.554846705112334693e-02
-1.891668000910168290e-02
-1.186267339488489281e-02
-4.540722961804299906e-03
2.894895536810437875e-03
1.028990634762973200e-02
1.749003371732223144e-02
2.434100189255831298e-02
3.069875504783498715e-02
3.646778256817522629e-02
4.156697279924620458e-02
4.591521636639323001e-02
4.943140389496183951e-02
5.203442601029668879e-02
5.364317333774346053e-02
5.417653650264733778e-02
5.355340613035372566e-02
5.169267284620773784e-02
4.853936919036266895e-02
4.422150952512543531e-02
3.894528491943949344e-02
3.291718006652016859e-02
2.634367965958381297e-02
1.943126839184555754e-02
1.238643095652036674e-02
5.415652046824953603e-03
-1.274583644025689688e-03
-7.477791422816626454e-03
-1.299626824786975776e-02
-1.772580600016902819e-02
-2.161867190338855049e-02
-2.462791588658771319e-02
-2.670658787882519009e-02
-2.780773780916035581e-02
-2.788441560665231439e-02
-2.688967120036024616e-02
-2.477655451934327943e-02
-2.149811549266020944e-02
-1.701555271720274487e-02
-1.143038752192927776e-02
-4.962417744520667556e-03
2.164859772496597820e-03
9.727948186597607308e-03
1.750335065525772046e-02
2.526757033595018742e-02
3.279711038615024110e-02
3.986847396333317861e-02
4.625816422497239233e-02
5.174568228003781356e-02
5.620380292605794970e-02
5.961449795178330735e-02
6.196594657943882423e-02
6.324632803125013192e-02
6.344382152944288977e-02
6.254660629624214652e-02
6.054286155387372803e-02
5.742076652456251651e-02
5.316850043053439334e-02
4.777541360669734782e-02
4.131208702548322398e-02
3.398175405087727752e-02
2.599988544539222346e-02
1.758195197154149847e-02
8.943424391840093524e-03
2.997734688006681303e-04
-8.133530035062841446e-03
-1.614101535723738712e-02
-2.350721173520804730e-02
-3.001690342919311610e-02
-3.551815721524149982e-02
-4.000505158368161673e-02
-4.349219064657294798e-02
-4.599417851597453755e-02
-4.752561930394505474e-02
-4.810111712254366845e-02
-4.773527608382910348e-02
-4.644270029986052872e-02
-4.423799388269700206e-02
-4.113576792732465126e-02
-3.718528472227944359e-02
-3.255088125768335061e-02
-2.742075166412161202e-02
-2.198309007217957856e-02
-1.642609061244049151e-02
-1.093794741548925753e-02
-5.706854611911782449e-03
-9.210063322905304162e-04
3.231403292788925796e-03
6.562180132741401994e-03
8.915791220418356477e-03
1.029485022331752542e-02
1.074977159985908426e-02
1.033098000703171898e-02
9.088900101823726985e-03
7.073956541223891392e-03
4.336573982219926737e-03
9.271770818005120596e-04
-3.103809503044674400e-03
-7.705961115329285072e-03
-1.281909936302005892e-02
-1.831337982302594369e-02
-2.402865605020776396e-02
-2.980465735762760637e-02
-3.548111305834666940e-02
-4.089775246542959319e-02
-4.589430489193779827e-02
-5.031049965093270515e-02
-5.398606605547884296e-02
-5.676073341863696609e-02
-5.848662444769969770e-02
-5.915081298721658332e-02
-5.882329365847294156e-02
-5.757526828215520087e-02
-5.547793867895056685e-02
-5.260250666954635612e-02
-4.902017407462877507e-02
-4.480214271488502931e-02
-4.001961441100271299e-02
-3.474379098366736640e-02
-2.904699954666820072e-02
-2.302146893436526898e-02
-1.677648421410069673e-02
-1.042188239853483397e-02
-4.067500500328294355e-03
2.176824467861993018e-03
8.201255493375358974e-03
1.389595556355160966e-02
1.915108766573331289e-02
2.385681478726009441e-02
2.790573016314989996e-02
3.126867200827621041e-02
3.400961742141839217e-02
3.619798091003434415e-02
3.790317698158274240e-02
3.919462014352181889e-02
4.014172490330925047e-02
4.081390576840393525e-02
4.128057724626332803e-02
4.161115384434643794e-02
4.187482718660917591e-02
4.212454567406076489e-02
4.238627495180014026e-02
4.268343488222314797e-02
4.303944532772607801e-02
4.347772615070577551e-02
4.402169721355886356e-02
4.469477837868196524e-02
4.552038950847114851e-02
4.652195046532292544e-02
4.772276494009775050e-02
4.911464618893224277e-02
5.061543535179596764e-02
5.213236274197197151e-02
5.357265867274391136e-02
5.484355345739452825e-02
5.585227740920709061e-02
5.650606084146489461e-02
5.671213406745092417e-02
5.637772740044841996e-02
5.541007458255957363e-02
5.373949445160855487e-02
5.137443028021437819e-02
4.833983556612558852e-02
4.466066380709171613e-02
4.036186850086304068e-02
3.546840314518706627e-02
3.000522123781412809e-02
2.399727627649472783e-02
1.746952175897570347e-02
1.044691118300766774e-02
2.968525407323452381e-03
-4.856822951331773996e-03
-1.289884397857743448e-02
-2.102724176742462592e-02
-2.911172041088891382e-02
-3.702198400198136730e-02
-4.462773663371343014e-02
-5.179868239910018213e-02
-5.840452539115301156e-02
-6.431496970288345938e-02
-6.941023505831091234e-02
-7.364718918671339654e-02
-7.701663975992631417e-02
-7.950954587087359637e-02
-8.111686661247978491e-02
-8.182956107767032361e-02
-8.163858835936958769e-02
-8.053490755050260463e-02
-7.850947774399383294e-02
-7.555325803276813357e-02
-7.166398579217875264e-02
-6.691489873033862334e-02
-6.142642318372470989e-02
-5.531970635964589267e-02
-4.871589546540788795e-02
-4.173613770831913206e-02
-3.450158029568894946e-02
-2.713337043482227928e-02
-1.975265533302833498e-02
-1.248058219761583043e-02
-5.436470339750476555e-03
1.293571950424454720e-03
7.652375953115075902e-03
1.358374147553820244e-02
1.903146832490654194e-02
2.393935630843369022e-02
2.825120523333501943e-02
3.191081490682423638e-02
3.486198513611471483e-02
3.704851572842182694e-02
3.841595407654979644e-02
3.896810413235457515e-02
3.877927935446512375e-02
3.792801940348455858e-02
3.649286394001682865e-02
3.455235262466488377e-02
3.218502511803300603e-02
2.946942108072359012e-02
2.648408017334075160e-02
2.330754205648849497e-02
2.001825842724644366e-02
1.668793775437413252e-02
1.337689347135015416e-02
1.014433963719325871e-02
7.049490310923806069e-03
4.151559551562144026e-03
1.509761418127045229e-03
-8.166900303611945855e-04
-2.768580734882397643e-03
-4.286696636417480777e-03
-5.311928323830872323e-03
-5.816262872924943261e-03
-5.846059069694431454e-03
-5.458560671353585025e-03
-4.711011435116707613e-03
-3.660655118198075098e-03
-2.364735477812129893e-03
-8.804962711733144154e-04
7.348187445044840338e-04
2.423965812006656506e-03
4.129701500016791371e-03
5.797877267510687105e-03
7.385018132644416422e-03
8.849948398542528682e-03
1.015149236832962876e-02
1.124847434513032152e-02
1.209971863206893428e-02
1.266404953226990537e-02
1.290029134885800621e-02
1.276726838495745309e-02
1.222380494369318393e-02
1.124207497899548658e-02
9.861425240182686291e-03
8.142283852333731531e-03
6.145086445004832587e-03
3.930268647751283817e-03
1.558266090129212245e-03
-9.104855983050885726e-04
-3.415550787996601834e-03
-5.896493849388867448e-03
-8.292879152925758390e-03
-1.054672416968280291e-02
-1.261829513676890335e-02
-1.447608416903953255e-02
-1.608862319461693002e-02
-1.742444414162241939e-02
-1.845207893817749079e-02
-1.914005951240418946e-02
-1.945691779242403330e-02
-1.937118570635865122e-02
-1.885139518232986644e-02
-1.787086970261941854e-02
-1.645753606910316247e-02
-1.467403434188757627e-02
-1.258356044502217941e-02
-1.024931030255693543e-02
-7.734479838539809471e-03
-5.102264977020931624e-03
-2.415861642050209923e-03
2.615342423241129310e-04
2.866726752052239924e-03
5.337421134937625489e-03
7.628148215751973105e-03
9.708345913590599174e-03
1.154796785914918855e-02
1.311696768312464734e-02
1.438529901621249385e-02
1.532291548910907908e-02
1.589977073251053197e-02
1.608581837711275941e-02
1.585101205361192506e-02
1.516643963426149433e-02
1.404235862118513589e-02
1.253723088428607135e-02
1.071248391756574048e-02
8.629545215026124261e-03
6.349842270667649391e-03
3.934802578492102576e-03
1.445853632501492569e-03
-1.055577073304059255e-03
-3.508062044922377609e-03
-5.850309747567172813e-03
-8.032005201321190668e-03
-1.002170303308835830e-02
-1.178981920091715097e-02
-1.330676966285704310e-02
-1.454297037695595485e-02
-1.546883730126324963e-02
-1.605478639382718065e-02
-1.627123361269600110e-02
-1.608859491591907442e-02
-1.547736329849169756e-02
-1.443322169609617678e-02
-1.301319426553226855e-02
-1.128346478212127746e-02
-9.310217021185840380e-03
-7.159634758048372127e-03
-4.897901768030732406e-03
-2.591201826455225010e-03
-3.057187086444868029e-04
1.892363810080066600e-03
3.936862528776119419e-03
5.769679044012210323e-03
7.361130500242396568e-03
8.687773516272284668e-03
9.726164710908417887e-03
1.045286070295638886e-02
1.084441811122213717e-02
1.087739355451175505e-02
1.052834365163099473e-02
9.773825021386073342e-03
8.590394282582625163e-03
6.968968673988440443e-03
4.974130991774461386e-03
2.694020399547025768e-03
2.167865394749335373e-04
-2.369420946272404738e-03
-4.976452415527687911e-03
-7.516158226121283370e-03
-9.900388735884613212e-03
-1.204099430264993220e-02
-1.384982528424760773e-02
-1.524467050829247938e-02
-1.618840918530500828e-02
-1.666461003567326626e-02
-1.665695010809226106e-02
-1.614910645125694488e-02
-1.512475611386226992e-02
-1.356757614460363248e-02
-1.146124359217531863e-02
-8.789435505272613636e-03
-5.535828932591302376e-03
-1.690841551824140421e-03
2.676507766882468831e-03
7.446374854103487984e-03
1.249806327707353448e-02
1.771087660302436695e-02
2.296411839919106773e-02
2.813709223280597832e-02
3.310910167110148183e-02
3.775945028131266062e-02
4.196744163067180067e-02
4.561492358845457146e-02
4.863257465828656201e-02
5.099506040125459383e-02
5.267861865011216199e-02
5.365948723761364281e-02
5.391390399651244114e-02
5.341810675956244758e-02
5.214833335951721965e-02
5.008082162913057855e-02
4.719180940115680345e-02
4.345937912425794358e-02
3.892764198073073167e-02
3.372333391867823882e-02
2.797840710651250395e-02
2.182481371264799463e-02
1.539450590550006659e-02
8.819435853480050991e-03
2.231555725002942747e-03
-4.237182311516152211e-03
-1.045482608766601373e-02
-1.628983448147852675e-02
-2.164565980001520451e-02
-2.648695386936877894e-02
-3.078453982628104324e-02
-3.450924080749429024e-02
-3.763187994975275563e-02
-4.012328038979834366e-02
-4.195426526437390224e-02
-4.309565771022283442e-02
-4.351828086408748852e-02
-4.319306761986069221e-02
-4.213060462495388236e-02
-4.043980270049157832e-02
-3.824455085139241706e-02
-3.566873808257584044e-02
-3.283625339896162343e-02
-2.987098580546776461e-02
-2.689682430701399035e-02
-2.403765790851997153e-02
-2.141737561490383857e-02
-1.915986546061672346e-02
-1.736739924891536613e-02
-1.606481997890962798e-02
-1.525964078782454658e-02
-1.495937481288472926e-02
-1.517153519131492212e-02
-1.590363506033964924e-02
-1.716318755718332367e-02
-1.895770581907119112e-02
-2.129470298322755362e-02
-2.418169218687671318e-02
-2.760690504238527687e-02
-3.145773720396066730e-02
-3.558873105013232729e-02
-3.985441101713471657e-02
-4.410930154120035196e-02
-4.820792705856247196e-02
-5.200481200545553628e-02
-5.535448081811200627e-02
-5.811145793276512039e-02
-6.013026778564911634e-02
-6.127759862294390736e-02
-6.151441666964657662e-02
-6.084572065236226734e-02
-5.927675804839738216e-02
-5.681277633505815716e-02
-5.345902298965127253e-02
-4.922074548948396355e-02
-4.410319131186146713e-02
-3.811160793409074099e-02
-3.125124283347952003e-02
-2.353519521887881272e-02
-1.507026762522048480e-02
-6.024889071919281580e-03
3.431430316925165869e-03
1.312918041720882723e-02
2.289885110482756114e-02
3.257093225568225003e-02
4.197591374566880806e-02
5.094428545068292735e-02
5.930653724662544868e-02
6.689768572382517875e-02
7.364207839765304908e-02
7.954587924946973643e-02
8.461827244475161880e-02
8.886844214897562932e-02
9.230557252762050524e-02
9.493884774616273559e-02
9.677745197007997513e-02
9.783056936484985089e-02
9.810738409594954579e-02
9.761836761109399241e-02
9.642178150054531161e-02
9.463669563482868252e-02
9.238611825370063313e-02
8.979305759691530442e-02
8.698052190422778107e-02
8.407151941539342532e-02
8.118905837016654470e-02
7.845614700830294552e-02
7.599579356955687981e-02
7.393017852880284790e-02
7.230707542826567136e-02
7.104186763033809582e-02
7.003629287289070415e-02
6.919208889379417637e-02
6.841099343091863738e-02
6.759474422213473943e-02
6.664507900531320417e-02
6.546373551832422588e-02
6.395245149903817927e-02
6.201297907084904470e-02
5.955283833225508139e-02
5.649411309415791616e-02
5.276115032376491043e-02
4.827829698828209337e-02
4.296990005491690967e-02
3.676030649087769220e-02
2.957386326336897131e-02
2.133491733959896886e-02
1.196781568677696139e-02
1.396906725379898351e-03
-1.039739103163755951e-02
-2.322996704657931399e-02
-3.686901395742081533e-02
-5.108272440212829890e-02
-6.563929101867066462e-02
-8.030690644502258557e-02
-9.485376331915201797e-02
-1.090480542790254193e-01
-1.226579719626194054e-01
-1.354517090079004893e-01
-1.472126526210932318e-01
-1.578052042426619228e-01
-1.671206573970894227e-01
-1.750503233684180815e-01
-1.814855134406946902e-01
-1.863175388979608771e-01
-1.894377110242621010e-01
-1.907373411036412669e-01
-1.901077404201423349e-01
-1.874402202578092647e-01
-1.826528014271789346e-01
-1.758748436985446417e-01
-1.673361728259308290e-01
-1.572672254104564016e-01
-1.458984380532418745e-01
-1.334602473554013236e-01
-1.201830899180547918e-01
-1.062974023423229469e-01
-9.203362122931899036e-02
-7.762218318016338159e-02
-6.328795579026844087e-02
-4.918777593145014226e-02
-3.543297468893252117e-02
-2.213404874419014345e-02
-9.401494778689817311e-03
2.654190526094113434e-03
1.392251048868820007e-02
2.429296842762418418e-02
3.365506766142850603e-02
4.189831150862804998e-02
4.891791726888444769e-02
5.472508417854260454e-02
5.943901375181626090e-02
6.318302300979605768e-02
6.608042897356991574e-02
6.825454866422631106e-02
6.982869910285527393e-02
7.092619731054483623e-02
7.167036030838425109e-02
7.218450511746254961e-02
7.259093240216030196e-02
7.297278559800823849e-02
7.336254516012341576e-02
7.378932605883847806e-02
7.428224326448629178e-02
7.487041174740061145e-02
7.558294647791341525e-02
7.644896242635956796e-02
7.749757456307038161e-02
7.875789785837961077e-02
8.025868913261913207e-02
8.199466570652891306e-02
8.389892471833371168e-02
8.589807232546742277e-02
8.791871468536327505e-02
8.988745795545660666e-02
9.173090829318097938e-02
9.337567185597095420e-02
9.474835480126009291e-02
9.577556328648340056e-02
9.638394667501903879e-02
9.651947291480189595e-02
9.617778276821387085e-02
9.536239064274065758e-02
9.407681094586783921e-02
9.232455808507997186e-02
9.010914646786266635e-02
8.743409050170194985e-02
8.430290459408228132e-02
8.071910315248906342e-02
7.668620069849077514e-02
7.221642016555479549e-02
6.735438601655341362e-02
6.215225696830500857e-02
5.666219173762326866e-02
5.093634904132726682e-02
4.502688759623152404e-02
3.898596611915372545e-02
3.286574332691050149e-02
2.671837793631692826e-02
2.059602866419107947e-02
1.454669745610592813e-02
8.595789541686049695e-03
2.761068480805817238e-03
-2.939708189036105423e-03
-8.488782930342386734e-03
-1.386839820561580616e-02
-1.906079647735592353e-02
-2.404822020806762772e-02
-2.881291186025070061e-02
-3.333711389640714451e-02
-3.760469682439993022e-02
-4.161268326587985733e-02
-4.536445927248289323e-02
-4.886345244047562986e-02
-5.211309036612132850e-02
-5.511680064568236226e-02
-5.787801087542554512e-02
-6.040014865161413837e-02
-6.268664157051162533e-02
-6.474091722838259955e-02
-6.656648173730284057e-02
-6.816782318722514056e-02
-6.955009770497433408e-02
-7.071847420936649975e-02
-7.167812161921838232e-02
-7.243420885334650450e-02
-7.299190483056738898e-02
-7.335637846969778053e-02
-7.353279868955353571e-02
-7.352633440895162131e-02
-7.334242459601747477e-02
-7.299214809404430682e-02
-7.249192340577081950e-02
-7.185837898377822608e-02
-7.110814328064718470e-02
-7.025784474896001885e-02
-6.932411184129683157e-02
-6.832357301023905816e-02
-6.727285670836802289e-02
-6.618859138826466149e-02
-6.508715342859311415e-02
-6.397483438236536979e-02
-6.284465768429360610e-02
-6.168874297894859360e-02
-6.049920991090029787e-02
-5.926817812471846247e-02
-5.798776726497367751e-02
-5.665009697623601959e-02
-5.524728690307545431e-02
-5.377145669006166973e-02
-5.221463698262196473e-02
-5.055990174214741728e-02
-4.877382806168228946e-02
-4.682121728445687303e-02
-4.466687075370190385e-02
-4.227558981264745164e-02
-3.961217580452447429e-02
-3.664143007256304152e-02
-3.332815395999300101e-02
-2.963714881004664292e-02
-2.553325616065871273e-02
-2.100146448603945615e-02
-1.607951794590700700e-02
-1.081368999670062614e-02
-5.250254094861572796e-03
5.645163031697819633e-04
6.584347740953067074e-03
1.276296676204458080e-02
1.905409991000772685e-02
2.541147372839924756e-02
3.178881471376104884e-02
3.813104381695864298e-02
4.434968957409535228e-02
5.034836633107553361e-02
5.603068843380709652e-02
6.130027022819439786e-02
6.606072606014179449e-02
7.021567027555686291e-02
7.366871722034395997e-02
7.632348124040844173e-02
7.808357668165666343e-02
7.886973488572329716e-02
7.869756212538231432e-02
7.761535006475533960e-02
7.567142075392591094e-02
7.291409624297787162e-02
6.939169858199367713e-02
6.515254982105712911e-02
6.024497201025252879e-02
5.471728719966162391e-02
4.861781743936849365e-02
4.200230751264311113e-02
3.498773061833432285e-02
2.772120980429626513e-02
2.035007901294599852e-02
1.302167218669647575e-02
5.883323267964590819e-03
-9.176338008328732698e-04
-7.233865077282630729e-03
-1.291803661896695488e-02
-1.782281448347244890e-02
-2.180744419930036315e-02
-2.481543379410849903e-02
-2.684858998413258702e-02
-2.790988430520480179e-02
-2.800228829315792867e-02
-2.712877348382458642e-02
-2.529231141303739383e-02
-2.249587361662969132e-02
-1.874243163043315397e-02
-1.403495699028087240e-02
-8.380056723249901252e-03
-1.862484593242758057e-03
5.357781923197621476e-03
1.311771472946611505e-02
2.125428572896163881e-02
2.960446682507902882e-02
3.800522992121304483e-02
4.629354692076287359e-02
5.430638972712321932e-02
6.188073024368892505e-02
6.885449588784398056e-02
7.510533651562407986e-02
8.056404512864609457e-02
8.516512587416449898e-02
8.884308289943068648e-02
9.153242035169700808e-02
9.316764237821670291e-02
9.368325312624189993e-02
9.301375674302519991e-02
9.109365737581909261e-02
8.785810090339574163e-02
8.331072239822018277e-02
7.758351056317919214e-02
7.082257057785423804e-02
6.317400762182240337e-02
5.478392687466426825e-02
4.579843351596096790e-02
3.636363272528869706e-02
2.662562968222870197e-02
1.673052956636189581e-02
6.824420277593779005e-03
-2.956375235772967791e-03
-1.250157571530124967e-02
-2.170519401611570309e-02
-3.046124299333607954e-02
-3.866373550208263010e-02
-4.620668439747926959e-02
-5.298410253464619357e-02
-5.889000276870381967e-02
-6.381839795477561861e-02
-6.766330100220618871e-02
-7.035623961182349562e-02
-7.197374058807545771e-02
-7.262735787196858417e-02
-7.242864540450999478e-02
-7.148915712670680933e-02
-6.992044697956598109e-02
-6.783406890409507395e-02
-6.534157684130043053e-02
-6.255452473218944820e-02
-5.958446651776969083e-02
-5.653739838776739024e-02
-5.348790584407714377e-02
-5.049955092649918709e-02
-4.763588370940252670e-02
-4.496045426715786220e-02
-4.253681267413561562e-02
-4.042850900470496001e-02
-3.869909333323676148e-02
-3.741211573410024860e-02
-3.663112628166612095e-02
-3.640733197660497855e-02
-3.668796730134107897e-02
-3.736816315514635001e-02
-3.834266075992512346e-02
-3.950620133758209196e-02
-4.075352611002144854e-02
-4.197937629914766378e-02
-4.307849312686545806e-02
-4.394561781507902443e-02
-4.447549158569280570e-02
-4.456811424371279196e-02
-4.419246110602124966e-02
-4.336604015077502594e-02
-4.210737034079499452e-02
-4.043497063890247323e-02
-3.836736000791902274e-02
-3.592305741066513514e-02
-3.312058180996230172e-02
-2.997845216863230869e-02
-2.651518744949520751e-02
-2.275112256938860433e-02
-1.874678308844018870e-02
-1.460202851698923221e-02
-1.041836295584253058e-02
-6.297290505806740768e-03
-2.340315267686493561e-03
1.351058657711456945e-03
4.675327169580606457e-03
7.530986167116060503e-03
9.816531549511120502e-03
1.143219819012958327e-02
1.235339100132143431e-02
1.265778184327720490e-02
1.243036243075140712e-02
1.175612447849805342e-02
1.072005970127198893e-02
9.407159813827115080e-03
7.902416530917721893e-03
6.290821567298654493e-03
4.657366637723425740e-03
3.086960744335232043e-03
1.655136259778533514e-03
4.195449390573813275e-04
-5.641704872894059974e-04
-1.240367288722676875e-03
-1.553402734704611987e-03
-1.447634094696059748e-03
-8.674186381578685712e-04
2.428863654488910839e-04
1.938923646662482625e-03
4.276271681691756754e-03
7.269312508378034110e-03
1.082053089509416033e-02
1.481359423582118140e-02
1.913216992454391807e-02
2.365992535524363838e-02
2.828052792190116627e-02
3.287764501850110044e-02
3.733494403902493097e-02
4.153609237745370386e-02
4.536475743045842446e-02
4.872538063480580384e-02
5.160424220641401938e-02
5.400777245285648398e-02
5.594240168170597216e-02
5.741456020053467557e-02
5.843067831691630548e-02
5.899718633842339355e-02
5.912051457262867959e-02
5.880709332710498671e-02
5.806335290942571392e-02
5.690322175610118549e-02
5.538384051784961404e-02
5.357779755814651157e-02
5.155770064063214253e-02
4.939615752894765954e-02
4.716577598673454830e-02
4.493916377763307324e-02
4.278892866528405392e-02
4.078767841332830990e-02
3.900802078540754891e-02
3.751219829729413036e-02
3.627328146510033768e-02
3.521886553499320449e-02
3.427618282486943890e-02
3.337246565262397269e-02
3.243494633615240375e-02
3.139085719335099611e-02
3.016743054211490360e-02
2.869189870033883594e-02
2.689149398591950124e-02
2.469714400208433691e-02
2.208942912584144214e-02
1.908445905478006743e-02
1.569911451420880066e-02
1.195027622943611867e-02
7.854824925771719535e-03
3.429641328525190325e-03
-1.308393836996324389e-03
-6.342399845482460385e-03
-1.165549597162374162e-02
-1.722855241205090149e-02
-2.299117060469874074e-02
-2.882193750984174407e-02
-3.459724186629686837e-02
-4.019347241287657413e-02
-4.548701788839681903e-02
-5.035426703167167339e-02
-5.467160858151481895e-02
-5.831543127674210236e-02
-6.116212385616726088e-02
-6.308978068051485089e-02
-6.405321334050351201e-02
-6.411337165677588601e-02
-6.333899033332784922e-02
-6.179880407415400123e-02
-5.956154758324955223e-02
-5.669595556461032304e-02
-5.327076272223024711e-02
-4.935470376010542282e-02
-4.501651338223119914e-02
-4.032502987627847868e-02
-3.536158575942689730e-02
-3.023175804115215554e-02
-2.504390631746160681e-02
-1.990639018436538010e-02
-1.492756923787363910e-02
-1.021580307399375109e-02
-5.879451288735904058e-03
-2.026873478109925131e-03
1.233570761876356947e-03
3.793578178066359108e-03
5.586114635052319422e-03
6.658320091275982122e-03
7.076914757137231504e-03
6.908618843035063684e-03
6.220152559369584999e-03
5.078236116539791567e-03
3.549589724945345637e-03
1.700933594986686614e-03
-4.010120629378555179e-04
-2.689527038428840555e-03
-5.100816005263686392e-03
-7.582827857067764299e-03
-1.008645875583980001e-02
-1.256260486358518058e-02
-1.496216234231062536e-02
-1.723602735402041120e-02
-1.933509606072081333e-02
-2.121026462441633065e-02
-2.281242920711301636e-02
-2.409248597081603549e-02
-2.500802808590263382e-02
-2.555600661229717740e-02
-2.574770389221248124e-02
-2.559442292216718151e-02
-2.510746669868080261e-02
-2.429813821827309095e-02
-2.317774047746290478e-02
-2.175757647276954643e-02
-2.004894920071265130e-02
-1.806316165781129968e-02
-1.581034494628053011e-02
-1.329033247597288803e-02
-1.049761366660090234e-02
-7.426632510704189727e-03
-4.071833000823282811e-03
-4.276591294980758295e-04
3.511445110729899399e-03
7.751035727323309088e-03
1.229666872774073418e-02
1.715390011944211562e-02
2.232420686312960867e-02
2.775290778984240703e-02
3.334445685213233146e-02
3.900238483422477365e-02
4.463022252033876924e-02
5.013150069469601844e-02
5.540975014151744427e-02
6.036850164502449712e-02
6.491128598943690653e-02
6.894163395897928703e-02
7.236376861053223086e-02
7.509817276935593089e-02
7.708177876749877644e-02
7.825224915895412359e-02
7.854724649771593903e-02
7.790443333777741231e-02
7.626147223313239909e-02
7.355602573777397790e-02
6.972575640569556032e-02
6.470832679089277839e-02
5.844344032462223115e-02
5.096638838591938114e-02
4.244694932255432818e-02
3.306500756738617319e-02
2.300044755327423918e-02
1.243315371308195694e-02
1.543010479661655054e-03
-9.490097714124789974e-03
-2.048628643541627881e-02
-3.126567125135459868e-02
-4.164853889065911474e-02
-5.147718228096387350e-02
-6.063734888213034857e-02
-6.901988009014048409e-02
-7.651561730098088709e-02
-8.301540191063705443e-02
-8.841007531509448292e-02
-9.259047891033822530e-02
-9.544745409235755318e-02
-9.687184225713596497e-02
-9.675455875876803891e-02
-9.504888233608954629e-02
-9.188383401916511151e-02
-8.741916857429399279e-02
-8.181464076776989724e-02
-7.523000536589208309e-02
-6.782501713495764362e-02
-5.975943084126372762e-02
-5.119300125110767818e-02
-4.228548313079008580e-02
-3.319663124660186121e-02
-2.407739720755444623e-02
-1.504270531345186512e-02
-6.198264676739728696e-03
2.350215594124682728e-03
1.049702639069294285e-02
1.813645860450774361e-02
2.516280312711505207e-02
3.147035085005978061e-02
3.695339266488884000e-02
4.150621946314514421e-02
4.504177054267732849e-02
4.758475212725721271e-02
4.920132195629323135e-02
4.995770582363712187e-02
4.992012952313973351e-02
4.915481884865569029e-02
4.772799959403561942e-02
4.570589755313236857e-02
4.315473851979723108e-02
4.014074828788261051e-02
3.673174134745305075e-02
3.300979304730122799e-02
2.906450937717797167e-02
2.498556439212662461e-02
2.086263214718941938e-02
1.678538669740814449e-02
1.284350209782481045e-02
9.126652403483648257e-03
5.724511669424225957e-03
2.726753950688776129e-03
2.205811899689269495e-04
-1.741684331800996688e-03
-3.133530719316879321e-03
-3.929052618053208157e-03
-4.102344673485247561e-03
-3.627501531087762299e-03
-2.478617836334795488e-03
-6.297882347014935323e-04
1.944892628337316354e-03
5.271330107305460810e-03
9.372072880341808521e-03
1.418840502214013810e-02
1.957802371418670973e-02
2.539480488803202984e-02
3.149262447522405139e-02
3.772535840731827683e-02
4.394688261586265909e-02
5.001107303240837076e-02
5.577180558850591829e-02
6.108295621570469791e-02
6.579874048133360631e-02
6.978995095139683968e-02
7.295109891635376265e-02
7.517852136286196085e-02
7.636855527758079631e-02
7.641753764716963104e-02
7.522180545829093568e-02
7.267769569760007542e-02
6.868154535175952091e-02
6.312969140742730190e-02
5.591923628479111841e-02
4.705237889026925302e-02
3.674251312104792611e-02
2.522831632888999920e-02
1.274846586556921402e-02
-4.583609171433522533e-04
-1.415348666747806572e-02
-2.809823403366401573e-02
-4.205392566392629483e-02
-5.578188420650388724e-02
-6.904345313477325274e-02
-8.162036481159024026e-02
-9.335287988664642267e-02
-1.040916959132640596e-01
-1.136875104447613305e-01
-1.219910210344672397e-01
-1.288529252357000221e-01
-1.341239206017811325e-01
-1.376547046860332468e-01
-1.392959750417772646e-01
-1.388984292223365280e-01
-1.363755427842483492e-01
-1.319026578951265627e-01
-1.257233861810955755e-01
-1.180813394470912048e-01
-1.092201294980537085e-01
-9.938336813891490706e-02
-8.881466717461328209e-02
-7.775763841008553889e-02
-6.645589365026960404e-02
-5.515304470010085058e-02
-4.407608184153777309e-02
-3.335039680449303212e-02
-2.306300470849076412e-02
-1.330084937414488522e-02
-4.150874622069644637e-03
4.299975727120930458e-03
1.196475785280959325e-02
1.875652793438831178e-02
2.458834215124000577e-02
2.937325668275025947e-02
3.304129933793398255e-02
3.567814252231110705e-02
3.745308877656083890e-02
3.853624301913521899e-02
3.909771016848406777e-02
3.930759514305853797e-02
3.933600286130925494e-02
3.935303824168694120e-02
3.952880620264243028e-02
4.003341166262665979e-02
4.102818983025371957e-02
4.254764246883643852e-02
4.453083107948430097e-02
4.691448568792799811e-02
4.963533631990074690e-02
5.263011300113334956e-02
5.583554575735705239e-02
5.918836461430387885e-02
6.262529959770535282e-02
6.608308073329149934e-02
6.949724238760524031e-02
7.277347023282088045e-02
7.578623509523396695e-02
7.840853874008835156e-02
8.051338293262866319e-02
8.197376943809864258e-02
8.266270002174425091e-02
8.245317644880933994e-02
8.121820048453753937e-02
7.883077389417403325e-02
7.516603998562765288e-02
7.020815266726221360e-02
6.409989142759064951e-02
5.699654005332477347e-02
4.905338233117462199e-02
4.042570204785078669e-02
3.126878299006352613e-02
2.173790894452642952e-02
1.198836369794314960e-02
2.175431037027081294e-03
-7.545682859850799673e-03
-1.703117431126544012e-02
-2.616055917951544407e-02
-3.481620408489757845e-02
-4.288047564771752668e-02
-5.023574048827177119e-02
-5.676436522686002795e-02
-6.234871648378188802e-02
-6.687116087933561714e-02
-7.021406503382396358e-02
-7.225984484031118538e-02
-7.294746446995115097e-02
-7.238125111178875248e-02
-7.069559899278093917e-02
-6.802490233988577051e-02
-6.450355538005816958e-02
-6.026595234025600156e-02
-5.544648744743610469e-02
-5.017955492855541433e-02
-4.459954901057090748e-02
-3.884086392044165670e-02
-3.302842406867962516e-02
-2.724689180374115227e-02
-2.157023125911679273e-02
-1.607240648366432823e-02
-1.082738152624143635e-02
-5.909120435707626573e-03
-1.391587260917204194e-03
2.651253949270321320e-03
6.145439145997161345e-03
9.017004280405582772e-03
1.120926925672055541e-02
1.277330729249165353e-02
1.380164305623421406e-02
1.438688783857688946e-02
1.462165293014816569e-02
1.459854962157697278e-02
1.441018920349218524e-02
1.414918296652251106e-02
1.390814220129688028e-02
1.377967819844416741e-02
1.385013207791557788e-02
1.414708931942348924e-02
1.466601336027900659e-02
1.540204100723197023e-02
1.635030906703238696e-02
1.750595434642965298e-02
1.886411365217394165e-02
2.041992379101464916e-02
2.216852156970128274e-02
2.410504379498465410e-02
2.622088717422044191e-02
2.845198924077652070e-02
3.069185115270843534e-02
3.283289715380272727e-02
3.476755148784531346e-02
3.638823839862413007e-02
3.758738212992500383e-02
3.825740692553439293e-02
3.829073702923899147e-02
3.757979668482522295e-02
3.602000619637302226e-02
3.358394213994081445e-02
3.032621767092508192e-02
2.630541921760970459e-02
2.158013320827867343e-02
1.620894607121559083e-02
1.025044423470677923e-02
3.763214127031511147e-03
-3.194157823524057527e-03
-1.056308518867593582e-02
-1.828432400419705006e-02
-2.626369470123712802e-02
-3.435531622711865407e-02
-4.240913446606722759e-02
-5.027509530229976042e-02
-5.780314462003582898e-02
-6.484322830349531497e-02
-7.124529223689574087e-02
-7.685928230446138765e-02
-8.153514439040965289e-02
-8.512319197577951357e-02
-8.753165401399345957e-02
-8.878930717487855395e-02
-8.893997483480431399e-02
-8.802748037014018756e-02
-8.609564715725544215e-02
-8.318829857251941462e-02
-7.934925799230155286e-02
-7.462234879297122148e-02
-6.905139435090000555e-02
-6.268023151110785340e-02
-5.557101237997615073e-02
-4.784045224296314125e-02
-3.961538169355045824e-02
-3.102263132521972111e-02
-2.218903173145550523e-02
-1.324141350573326825e-02
-4.306607241537613318e-03
4.488556467649860993e-03
1.301724702834759773e-02
2.115263384707396013e-02
2.878629269643389471e-02
3.588956355494835049e-02
4.245538797179552321e-02
4.847670787541868975e-02
5.394646519426112008e-02
5.885760185676604250e-02
6.320305979137534613e-02
6.697578092653537485e-02
7.016870719068764306e-02
7.277478051227555256e-02
7.478878879077993647e-02
7.621725836237322471e-02
7.707131418130791500e-02
7.736209195140547612e-02
7.710072737648809849e-02
7.629835616037772272e-02
7.496611400689659477e-02
7.311513661986751567e-02
7.075655970311124643e-02
6.790151896045047708e-02
6.456263208423151934e-02
6.076670833751410955e-02
5.654845088381921236e-02
5.194264783056588841e-02
4.698408728516818844e-02
4.170755735504504125e-02
3.614784614761380743e-02
3.033974177029182331e-02
2.431803233049644603e-02
1.811750593564726008e-02
1.177546394092554571e-02
5.367425643727205542e-03
-1.001353067946353370e-03
-7.224832879810974551e-03
-1.319697447758248765e-02
-1.881173854697479331e-02
-2.396308577370771797e-02
-2.854497684349500963e-02
-3.245137244205253957e-02
-3.557623325509609580e-02
-3.781623427215288769e-02
-3.914018854114673096e-02
-3.959489267262854273e-02
-3.923102890719837310e-02
-3.809927948545702159e-02
-3.625032664800525994e-02
-3.373485263544484525e-02
-3.060353968837475902e-02
-2.690707004739650854e-02
-2.269612595311089331e-02
-1.802206720704384313e-02
-1.297386122798240005e-02
-7.697080133149812597e-03
-2.341973279004185005e-03
2.941209977990695557e-03
8.002220281372946636e-03
1.269080827468063895e-02
1.685672460145187096e-02
2.034971990522362051e-02
2.301954482953647713e-02
2.471634661745760603e-02
2.535742819512995516e-02
2.500236186018590934e-02
2.372884967640610798e-02
2.161459370757201626e-02
1.873729601746287887e-02
1.517465866985986955e-02
1.100438372854373181e-02
6.304173257294959365e-03
1.151729319894406744e-03
-4.375239364187738511e-03
-1.018816842289610447e-02
-1.616554538381201334e-02
-2.217963019915708545e-02
-2.810268282115280236e-02
-3.380696320202081218e-02
-3.916473129398079234e-02
-4.404824704925827672e-02
-4.832977042007266522e-02
-5.188156135864560592e-02
-5.457587981719873305e-02
-5.631703725639883307e-02
-5.715091762594706054e-02
-5.716248080505098583e-02
-5.643668795116529163e-02
-5.505850022174464675e-02
-5.311287877424367143e-02
-5.068478476611801287e-02
-4.785917935482053576e-02
-4.472102369780672770e-02
-4.135527895253127140e-02
-3.784367368903052142e-02
-3.424696825011974699e-02
-3.061755800211657386e-02
-2.700781654895628714e-02
-2.347011749457850183e-02
-2.005683444292172268e-02
-1.682034099792384385e-02
-1.381301076352298152e-02
-1.108721734365875067e-02
-8.695334342266880512e-03
-6.681799339462890508e-03
-5.013378451571404160e-03
-3.612882274083045742e-03
-2.402621573047408754e-03
-1.304907114514392008e-03
-2.420496645329089924e-04
8.636400108469957648e-04
2.089851145575728764e-03
3.514272973603668748e-03
5.214594728881194463e-03
7.264540289208587520e-03
9.675980791631511035e-03
1.241185072203765394e-02
1.543374693685589660e-02
1.870326629251517492e-02
2.218200564544303699e-02
2.583156185207086120e-02
2.961353176882630667e-02
3.348951225213814276e-02
3.742110015843558291e-02
4.136896316103105820e-02
4.526827239698388849e-02
4.902617536707437607e-02
5.254838355346530543e-02
5.574060843832101542e-02
5.850856150380576159e-02
6.075795423208379953e-02
6.239449810531891294e-02
6.332390460567646762e-02
6.345188521532012238e-02
6.268529575565731649e-02
6.099740433462744887e-02
5.846314586126627466e-02
5.516605375165881120e-02
5.118966142188635660e-02
4.661750228803379636e-02
4.153310976618485029e-02
3.602001727242315487e-02
3.016175822283284624e-02
2.404186603349928175e-02
1.774392961496579213e-02
1.136166125424126205e-02
5.010602474999459321e-03
-1.190865480435732149e-03
-7.124361369740872529e-03
-1.267150395059041257e-02
-1.771391198066479822e-02
-2.213320421763811940e-02
-2.581099941918735263e-02
-2.862891634298836419e-02
-3.046859615876640337e-02
-3.125614094816479144e-02
-3.105513945556019617e-02
-2.995567405708188247e-02
-2.804782712885925400e-02
-2.542168104702161036e-02
-2.216731818769956952e-02
-1.837482092702003023e-02
-1.413427164111347167e-02
-9.535752706109235088e-03
-4.669346498136661694e-03
3.684301379386356601e-04
5.452090956702293489e-03
1.044800055625888513e-02
1.522252309106569834e-02
1.964202271558163071e-02
2.357286358426563533e-02
2.688140985157683183e-02
2.943402567197350717e-02
3.109707519991644631e-02
3.173692258986374193e-02
3.124161215677767611e-02
2.964264777413985752e-02
2.702981021164554964e-02
2.349304819534640820e-02
1.912231045129019619e-02
1.400754570552827268e-02
8.238702684110942032e-03
1.905730113088491273e-03
-4.901423281488889727e-03
-1.209280877356819217e-02
-1.957471792706502733e-02
-2.721582869315075648e-02
-3.486316336724287757e-02
-4.236348437352888130e-02
-4.956355413619328854e-02
-5.631013507942905782e-02
-6.244998962742076554e-02
-6.782988020435570808e-02
-7.229656923442134842e-02
-7.569681914180492743e-02
-7.788471144012620861e-02
-7.883146208884378447e-02
-7.860252032101300301e-02
-7.726600616452972137e-02
-7.489003964728968565e-02
-7.154274079718886403e-02
-6.729222964212472347e-02
-6.220662620999004022e-02
-5.635405052868192044e-02
-4.980262262609630453e-02
-4.262185337385673845e-02
-3.492067458120055867e-02
-2.685207129186310826e-02
-1.857134943904661939e-02
-1.023381495596168735e-02
-1.994773775816249817e-03
5.990468168181814490e-03
1.356660494282460605e-02
2.057833061490185744e-02
2.687033925121079525e-02
3.228847902299730732e-02
3.674869662229462985e-02
4.027608434809626381e-02
4.290518121472719493e-02
4.467052623651174281e-02
4.560665842777616996e-02
4.574811680284474047e-02
4.512944037604210701e-02
4.378516816169353287e-02
4.174983917412444789e-02
3.905812686015047719e-02
3.577119144746593316e-02
3.200832946690357339e-02
2.789655712855648728e-02
2.356289064251809728e-02
1.913434621888271403e-02
1.473794006774051257e-02
1.050068839918630315e-02
6.549607423313119625e-03
3.011713350214065277e-03
1.400964169482460386e-05
-2.347759529731513473e-03
-4.076339133448986241e-03
-5.193822576687712189e-03
-5.722303266678732681e-03
-5.683874610653061321e-03
-5.100630015841767229e-03
-3.994662889476335854e-03
-2.388066638787211815e-03
-3.029346710053948399e-04
2.238639606637782276e-03
5.203176114478791359e-03
8.504939848431425364e-03
1.204321513909151209e-02
1.571728506280750670e-02
1.942643269592381206e-02
2.306994111478644083e-02
2.654709339574121141e-02
2.975717261513402545e-02
3.259946184930978541e-02
3.497324417461647461e-02
3.678874143437617372e-02
3.803002057832458038e-02
3.871169288618889204e-02
3.884846673940897666e-02
3.845505051942461200e-02
3.754615260767540236e-02
3.613648138560113243e-02
3.424074523464148978e-02
3.187365253623633543e-02
2.904991167182638390e-02
2.578792781774402743e-02
2.214391638047250033e-02
1.819623869940975580e-02
1.402353620390844879e-02
9.704450323321289762e-03
5.317622487002904297e-03
9.416941243028387198e-04
-3.344693335424447911e-03
-7.462898462826245138e-03
-1.133427982854964822e-02
-1.488282438889806936e-02
-1.807568856949154368e-02
-2.091534175751941227e-02
-2.340529052039864999e-02
-2.554904142554743907e-02
-2.735010104038383683e-02
-2.881197593232615040e-02
-2.993817266879211098e-02
-3.073219781720072305e-02
-3.119755794496964149e-02
-3.133839263581800899e-02
-3.117738249459013622e-02
-3.075827477317447101e-02
-3.012595744876302162e-02
-2.932531849854694284e-02
-2.840124589971809721e-02
-2.739862762946826402e-02
-2.636235166498893112e-02
-2.533730598347225249e-02
-2.436837856210921638e-02
-2.350010268906316258e-02
-2.275444314079133612e-02
-2.211762259131028197e-02
-2.157269843982273505e-02
-2.110272808553170787e-02
-2.069076892763965780e-02
-2.031987836534965286e-02
-1.997311379786448349e-02
-1.963353262438699565e-02
-1.928419224411989652e-02
-1.890814194512893676e-02
-1.848670027140106309e-02
-1.799731874194346326e-02
-1.741692478749085060e-02
-1.672244583877811885e-02
-1.589080932654006462e-02
-1.489894268151181755e-02
-1.372377333442753242e-02
-1.234222871602232326e-02
-1.073123625703099188e-02
-8.867727724998386574e-03
-6.742028397716565147e-03
-4.387461661259889345e-03
-1.845962207373680330e-03
8.405352721946590666e-04
3.630096085698031327e-03
6.480785541389894044e-03
9.350668947523177454e-03
1.219781161235028444e-02
1.498027884412606037e-02
1.765613595110310241e-02
2.018621841011064566e-02
2.254432001167139266e-02
2.470802045173883799e-02
2.665489988614513917e-02
2.836253847072028877e-02
2.980851636129477900e-02
3.097041371369958773e-02
3.182581068376524880e-02
3.235228742732235152e-02
3.252742410020196401e-02
3.233413685238130386e-02
3.179209435554102015e-02
3.093644332724439922e-02
2.980238454637021417e-02
2.842511879179775158e-02
2.683984684240481311e-02
2.508176947707058124e-02
2.318608747467387765e-02
2.118800161409348237e-02
1.912271267420809218e-02
1.702402525122501120e-02
1.491114294643164362e-02
1.279456954780777700e-02
1.068469302047608815e-02
8.591901329559170630e-03
6.526582440179867772e-03
4.499124317461411504e-03
2.519914926525076981e-03
5.993422324942973556e-04
-1.252205799508215433e-03
-3.024587326171543356e-03
-4.711810142579070382e-03
-6.311333476369834772e-03
-7.820721548386672106e-03
-9.237538579470627731e-03
-1.055934879046332986e-02
-1.178371640220648997e-02
-1.290820563554129219e-02
-1.393038071131019739e-02
-1.484780585035466727e-02
-1.565779411593909431e-02
-1.635005279730650241e-02
-1.690550260143075523e-02
-1.730457537307972249e-02
-1.752770295702210657e-02
-1.755531719802622126e-02
-1.736784994086021383e-02
-1.694573303029234257e-02
-1.626939831109108781e-02
-1.531927762802498538e-02
-1.407614248098182363e-02
-1.254342774378250369e-02
-1.076107688030292220e-02
-8.772340942133388664e-03
-6.620470980864157085e-03
-4.348718048086452903e-03
-2.000333195388975804e-03
3.814325256371667305e-04
2.753328063401625295e-03
5.072102366314133748e-03
7.294509165833587550e-03
9.378410702262071630e-03
1.128419054909915453e-02
1.297258101463061308e-02
1.440431440714259881e-02
1.554012303492185998e-02
1.634073920625472853e-02
1.676689522942748090e-02
1.677932341272697636e-02
1.633875606443901951e-02
1.540593093579906148e-02
1.396323328556720034e-02
1.206386355805350030e-02
9.775479750439741711e-03
7.165739859909592280e-03
4.302301883646664216e-03
1.252823818833626035e-03
-1.915036337345910056e-03
-5.133620587707665717e-03
-8.335270935070693277e-03
-1.145232938225065888e-02
-1.442262723448994866e-02
-1.721017044203840274e-02
-1.978675795919107583e-02
-2.212419005345775402e-02
-2.419426699235063816e-02
-2.596878904337954208e-02
-2.741955647405500476e-02
-2.851836955188759293e-02
-2.923702854438792881e-02
-2.954733371906657913e-02
-2.942970812131580349e-02
-2.892517455070135746e-02
-2.810073934152532149e-02
-2.702350817311438558e-02
-2.576058672479500378e-02
-2.437908067589469874e-02
-2.294609570573885593e-02
-2.152873749365472045e-02
-2.019411171896892676e-02
-1.900932406100813710e-02
-1.803663599109023297e-02
-1.728650249621144219e-02
-1.673797786353253825e-02
-1.636967684591340844e-02
-1.616021419621346822e-02
-1.608820466729238285e-02
-1.613226301200964413e-02
-1.627100398322484445e-02
-1.648304233379752071e-02
-1.674699281658718897e-02
-1.704002791731656918e-02
-1.731435151935836747e-02
-1.750105161069559490e-02
-1.753055124436628254e-02
-1.733327347340807290e-02
-1.683964135085874725e-02
-1.598007792975608687e-02
-1.468500626313790081e-02
-1.288484940404266421e-02
-1.051003040550685386e-02
-7.493048540220981213e-03
-3.831440631893390236e-03
4.008623802005395476e-04
5.125563565944568634e-03
1.026436599522018156e-02
1.573897273791488582e-02
2.147108686391058230e-02
2.738241144309080943e-02
3.339464954533929997e-02
3.942950424053971031e-02
4.540860076429618225e-02
5.124811245151011940e-02
5.685527905214468603e-02
6.213651245526408129e-02
6.699822454993248355e-02
7.134682722521412668e-02
7.508873237017221758e-02
7.813035187387334934e-02
8.037809762538061786e-02
8.173838151375800720e-02
8.211782153649560545e-02
8.147507822135102717e-02
7.988932060959147430e-02
7.745672693371297157e-02
7.427347542621243193e-02
7.043574431958665727e-02
6.603971184633261604e-02
6.118155623894883099e-02
5.595745572992827377e-02
5.046358855176991121e-02
4.479613262012682728e-02
3.904959917753236809e-02
3.331294362909487106e-02
2.767396512274800102e-02
2.222046280641981619e-02
1.704023582804387038e-02
1.222108333555213533e-02
7.850804476876388494e-03
4.017198399948421206e-03
8.080642527010309384e-04
-1.688798816936211422e-03
-3.413444610994381678e-03
-4.441310761979816446e-03
-4.888909947897118746e-03
-4.872764113945105002e-03
-4.509395205323452060e-03
-3.915325167230865322e-03
-3.207075944866299988e-03
-2.501169483429377394e-03
-1.914127728118608651e-03
-1.562472624133559584e-03
-1.557216381063319943e-03
-1.969858113910594177e-03
-2.854648679960658519e-03
-4.265766993880371061e-03
-6.257391970337145004e-03
-8.883702523997560885e-03
-1.219887756952775515e-02
-1.625709602159669531e-02
-2.111253679487068435e-02
-2.681937880401646934e-02
-3.341979447904272482e-02
-4.082462587126309272e-02
-4.886374329181185361e-02
-5.736582672262344890e-02
-6.615955614563472087e-02
-7.507361154278269222e-02
-8.393667289600389991e-02
-9.257742018723232047e-02
-1.008245333984112979e-01
-1.085066925114742120e-01
-1.154554534855473658e-01
-1.215535100351798348e-01
-1.267275280538390780e-01
-1.309056060503680508e-01
-1.340158425336138159e-01
-1.359863360124189957e-01
-1.367451849956276000e-01
-1.362204879920840273e-01
-1.343403435106323984e-01
-1.310328500601182222e-01
-1.262290751525536048e-01
-1.199563401516606787e-01
-1.123569240734481056e-01
-1.035798527128491131e-01
-9.377415186479604037e-02
-8.308884732422566755e-02
-7.167296488606297866e-02
-5.967553034524404609e-02
-4.724556949670205563e-02
-3.453210813536922164e-02
-2.168393356536874039e-02
-8.832277333409688236e-03
3.920892038359324872e-03
1.647637933797430065e-02
2.873498935347579275e-02
4.059752687290479889e-02
5.196479668429782039e-02
6.273760357570357105e-02
7.281675233515871870e-02
8.210304775070376149e-02
9.049739967543024566e-02
9.792971754744106416e-02
1.043982769109990105e-01
1.099111995949922926e-01
1.144766074283005142e-01
1.181026222398076087e-01
1.207973658583960108e-01
1.225689601129489326e-01
1.234255268323493637e-01
1.233751878454807382e-01
1.224260661347732204e-01
1.205945759855667765e-01
1.179252972545218603e-01
1.144687849499605309e-01
1.102755940802064571e-01
1.053962796535787005e-01
9.988139667840065239e-02
9.378150016299433012e-02
8.714714511568177890e-02
8.002888654478518271e-02
7.247727945862908472e-02
6.455067974707684453e-02
5.634609628099207512e-02
4.797248784397245558e-02
3.953881672677539427e-02
3.115404522015807753e-02
2.292713561488102236e-02
1.496705020169608602e-02
7.382751271363563461e-03
2.832011146409740832e-04
-6.222637977714273738e-03
-1.203558952816996541e-02
-1.712809633804268650e-02
-2.150442775977123855e-02
-2.516899750377277201e-02
-2.812621928046343811e-02
-3.038050680026072037e-02
-3.193627377358032593e-02
-3.279793391084040444e-02
-3.296990092245655202e-02
-3.245658851884641871e-02
-3.126882132633190814e-02
-2.948915817221248181e-02
-2.724514554479073869e-02
-2.466502374084483806e-02
-2.187703305715628377e-02
-1.900941379050487268e-02
-1.619040623767090820e-02
-1.354825069543484639e-02
-1.121118746057722659e-02
-9.307456829877047699e-03
-7.960408867106527619e-03
-7.204059714298050032e-03
-6.994322245545803174e-03
-7.284477949425771648e-03
-8.027808314512774324e-03
-9.177594829382962338e-03
-1.068711898261143212e-02
-1.250966226277394622e-02
-1.459850615844582311e-02
-1.690693215820260331e-02
-1.938743027314804301e-02
-2.196592041341416390e-02
-2.453605669268899003e-02
-2.698954912090123504e-02
-2.921810770798005663e-02
-3.111344246385328027e-02
-3.256726339845117391e-02
-3.347128052170189605e-02
-3.371720384353460442e-02
-3.319674337387723551e-02
-3.180264346003358611e-02
-2.950775784084136433e-02
-2.642077779377549618e-02
-2.266355838812450507e-02
-1.835795469317597073e-02
-1.362582177821747287e-02
-8.589014712537479390e-03
-3.369388565424846771e-03
1.911201593835620827e-03
7.130900695954817126e-03
1.216788499232621112e-02
1.690981461150192766e-02
2.126711356687384369e-02
2.515355097545883545e-02
2.848289595427595799e-02
3.116891762034057489e-02
3.312538509067014525e-02
3.426606748228155919e-02
3.450473391219160968e-02
3.375515349741814441e-02
3.193109988568582081e-02
2.899269220398914548e-02
2.506049039831931280e-02
2.028974892620494241e-02
1.483572224517476501e-02
8.853664812759787228e-03
2.498831086484465391e-03
-4.073524476120138349e-03
-1.070814741752540433e-02
-1.724978328020265739e-02
-2.354317760662077985e-02
-2.944527973894828232e-02
-3.487468304580004785e-02
-3.976939984240929205e-02
-4.406744968294507014e-02
-4.770685212157654842e-02
-5.062562671247161639e-02
-5.276179300980157749e-02
-5.405337056773434901e-02
-5.443837894043856984e-02
-5.385483768208360056e-02
-5.225670920703029410e-02
-4.971704159547929436e-02
-4.636275372611459167e-02
-4.232102940300147553e-02
-3.771905243020426401e-02
-3.268400661178691435e-02
-2.734307575181404992e-02
-2.182344365435190392e-02
-1.625229412346046454e-02
-1.075681096320646457e-02
-5.459480430057450651e-03
-4.290107158674283383e-04
4.300194989689365421e-03
8.694287955013035862e-03
1.271941944850873973e-02
1.634174073857619369e-02
1.952740309361755688e-02
2.224255778203410028e-02
2.445335607222803853e-02
2.612594923260039281e-02
2.722886835927734728e-02
2.777532212770428277e-02
2.781823423905802062e-02
2.741191139624372941e-02
2.661066030216665407e-02
2.546878765973131092e-02
2.404060017184293796e-02
2.238040454140673152e-02
2.054250747132772836e-02
1.858121566451093054e-02
1.655026289552585794e-02
1.448345598517519761e-02
1.238999663985251853e-02
1.027756494288434297e-02
8.153840977597193174e-03
6.026504827317535895e-03
3.903236575372726058e-03
1.791716305087898142e-03
-3.003759002099259945e-04
-2.365359957194113072e-03
-4.395441597360716379e-03
-6.373510535374715680e-03
-8.266386380202828121e-03
-1.003929653881441286e-02
-1.165746841817710822e-02
-1.308612942525888556e-02
-1.429050696702793832e-02
-1.523582845045257095e-02
-1.588732128250069930e-02
-1.621021287014084988e-02
-1.616975355568017747e-02
-1.573884174309320150e-02
-1.490906737462854847e-02
-1.367482264509077214e-02
-1.203049974928517563e-02
-9.970490882015167755e-03
-7.489188238085892069e-03
-4.580984012301836383e-03
-1.240270399467724438e-03
2.538560405610568171e-03
6.761114639696086392e-03
1.140894090152339002e-02
1.637871156982395604e-02
2.154839053458718068e-02
2.679594168580201607e-02
3.199932891345602659e-02
3.703651610754224444e-02
4.178546715804792866e-02
4.612414595496239222e-02
4.993051638827469829e-02
5.308254234797424309e-02
5.547240127937957954e-02
5.706546359119013534e-02
5.785059269794108616e-02
5.781666291673483171e-02
5.695254856467392435e-02
5.524712395886078459e-02
5.268926341639897093e-02
4.926784125438908590e-02
4.497173178993441045e-02
3.978980934013739978e-02
3.372707423102226654e-02
2.691147416701927808e-02
1.952757120756665188e-02
1.176022844056662242e-02
3.794308953929487194e-03
-4.185324164437148609e-03
-1.199380782662592959e-02
-1.944627894472894525e-02
-2.635787443083648096e-02
-3.254373119704567774e-02
-3.782776782441582553e-02
-4.213677837763096790e-02
-4.546430457938982483e-02
-4.780501764599442982e-02
-4.915358879374931433e-02
-4.950468923895617879e-02
-4.885299019791797259e-02
-4.719316288693722883e-02
-4.451987852231689691e-02
-4.082780832036134178e-02
-3.611724928079537711e-02
-3.049706966675716502e-02
-2.417426483632524603e-02
-1.735936039638169559e-02
-1.026288195380840873e-02
-3.095355115489837466e-03
3.932694511697223255e-03
1.061074132086822081e-02
1.672825970514132954e-02
2.207472405763452605e-02
2.644231426878121405e-02
2.972075881685906640e-02
3.192226108957207931e-02
3.306679629851341784e-02
3.317433965527738504e-02
3.226486637145853376e-02
3.035835165865125029e-02
2.747477072845128099e-02
2.363409879245093048e-02
1.885631106224555653e-02
1.316211592385863050e-02
6.635314357264610052e-03
-5.295704446012794442e-04
-8.126801029958108380e-03
-1.595063994703327381e-02
-2.379534974404612369e-02
-3.145519296921878150e-02
-3.872443217077298216e-02
-4.539732989692860099e-02
-5.126814869591247992e-02
-5.613132475413613875e-02
-5.984532479778684882e-02
-6.242795963836390849e-02
-6.392141066929174498e-02
-6.436785928399491041e-02
-6.380948687589810264e-02
-6.228847483842558930e-02
-5.984700456500169352e-02
-5.652725744905098826e-02
-5.237141488399785216e-02
-4.742165914879545308e-02
-4.174200635553804162e-02
-3.547497830254542350e-02
-2.878073493435501229e-02
-2.181943619550391622e-02
-1.475124203052929905e-02
-7.736312383970878059e-03
-9.348072003608487446e-04
5.493113575761071621e-03
1.138728999985771928e-02
1.658756212739187497e-02
2.096067645892903120e-02
2.451463612095373945e-02
2.730363909765464586e-02
2.938190960889498771e-02
3.080367187453939698e-02
3.162315011445257507e-02
3.189456854849909151e-02
3.167215139654386280e-02
3.101012287845139603e-02
2.996270721408630933e-02
2.858663851742421214e-02
2.695818472418659573e-02
2.516276937869355024e-02
2.328586852373609739e-02
2.141295820210714629e-02
1.962951445659899541e-02
1.802101333000433181e-02
1.667293086511517641e-02
1.567074310472432730e-02
1.509992609162347232e-02
1.503867099833605669e-02
1.547782506792630408e-02
1.635059661185389590e-02
1.758917373203236489e-02
1.912574453037471645e-02
2.089249710879573230e-02
2.282161956920854273e-02
2.484530001352671519e-02
2.689572654366386567e-02
2.890508726153359284e-02
3.080624795767021931e-02
3.254552324735503210e-02
3.408158620004017592e-02
3.537356901085456085e-02
3.638060387492715597e-02
3.706182298738686098e-02
3.737635854336252006e-02
3.728334273798328269e-02
3.674190776637789591e-02
3.571118582367538430e-02
3.415128857001226148e-02
3.205895896462696015e-02
2.947770561910922904e-02
2.645408146035627128e-02
2.303463941526745495e-02
1.926593241074164853e-02
1.519451337367749844e-02
1.086693523097553848e-02
6.329750909531361991e-03
1.629513336244947652e-03
-3.187240647098299462e-03
-8.075436119617807051e-03
-1.299260830399895372e-02
-1.789656262993163938e-02
-2.274510452711117625e-02
-2.749603942522776956e-02
-3.210717275397312331e-02
-3.653630994303913582e-02
-4.074125642211749720e-02
-4.467981762089877351e-02
-4.830979834197313832e-02
-5.158874650704246834e-02
-5.447355907273396247e-02
-5.692103143505404528e-02
-5.888795899000921069e-02
-6.033113713360543917e-02
-6.120736126185030712e-02
-6.147342677074960071e-02
-6.108612905630980694e-02
-6.000226351453735729e-02
-5.817862593980835384e-02
-5.558941087861785091e-02
-5.227257142229935205e-02
-4.828066167201405801e-02
-4.366623572892203153e-02
-3.848184769418361295e-02
-3.278005166895883726e-02
-2.661340175441009870e-02
-2.003445205169349097e-02
-1.309575666197110300e-02
-5.849869686403164071e-03
1.637979790627339116e-03
9.234720131544790767e-03
1.678467582385258922e-02
2.413215587474620144e-02
3.112146929142391161e-02
3.759692508108382347e-02
4.340283225092417263e-02
4.838349980814155016e-02
5.238323675993766804e-02
5.524635211350886754e-02
5.683471246910748453e-02
5.714968564793909689e-02
5.625918981960381648e-02
5.423155366475884698e-02
5.113510586405833891e-02
4.703817509815944042e-02
4.200909004771807842e-02
3.611617939339029082e-02
2.942777181583250412e-02
2.201219599570330976e-02
1.394513824327289764e-02
5.392587907018964177e-03
-3.418857340141426282e-03
-1.226147874294182538e-02
-2.090755754611595130e-02
-2.912937499439460787e-02
-3.669921233251732806e-02
-4.338935080521483245e-02
-4.897207165722061717e-02
-5.321965613326840039e-02
-5.591225985539760579e-02
-5.699078114070277312e-02
-5.654629905436525661e-02
-5.467565159014320386e-02
-5.147567674179553965e-02
-4.704321250308107771e-02
-4.147509686776107429e-02
-3.486816782959012428e-02
-2.731926338232903984e-02
-1.892522151973718980e-02
-9.784410209122684776e-03
-5.458593155627244897e-05
1.002939862053453535e-02
2.022754346923494317e-02
3.029984863662005257e-02
4.000631414476762959e-02
4.910694001575632850e-02
5.736172627166452598e-02
6.453067293456790643e-02
7.037378002655017561e-02
7.465223353412232810e-02
7.724122000626384987e-02
7.822301083952457046e-02
7.770178623782826588e-02
7.578172640509955871e-02
7.256701154526090658e-02
6.816182186223632145e-02
6.267033755994971811e-02
5.619673884232467831e-02
4.884520591328511685e-02
4.071996886664314141e-02
3.194807054647297306e-02
2.271542497217504675e-02
1.321731486307287096e-02
3.649022938489343559e-03
-5.794168082252526553e-03
-1.491697547982617778e-02
-2.352411653491515153e-02
-3.142030852819333031e-02
-3.841026874033759420e-02
-4.429871497479687115e-02
-4.893712383423332035e-02
-5.235161135214916328e-02
-5.460905731393617124e-02
-5.577634150498667065e-02
-5.592034371069365406e-02
-5.510794371645000300e-02
-5.340602130764904310e-02
-5.088145626968298973e-02
-4.760112838794444690e-02
-4.363191744782701775e-02
-3.904649313110897246e-02
-3.394912208840678014e-02
-2.845479608322631915e-02
-2.267851562309983193e-02
-1.673528121556530635e-02
-1.074009336815900939e-02
-4.807952588417097051e-03
9.461406161242608137e-04
6.407185737927006963e-03
1.146018226945891977e-02
1.599919476302439497e-02
1.999182515083562650e-02
2.344138066805262488e-02
2.635140493603439771e-02
2.872544157613923788e-02
3.056703420972795016e-02
3.187972645815853601e-02
3.266706194279014874e-02
3.293258428498180290e-02
3.267983710609262404e-02
3.191361850347818052e-02
3.065449034433304076e-02
2.893377480780784383e-02
2.678300189137333698e-02
2.423370159249937927e-02
2.131740390865766166e-02
1.806563883731621134e-02
1.450993637594610863e-02
1.068182652201787874e-02
6.612839273001713813e-03
2.334969896935934486e-03
-2.110013416752765103e-03
-6.671059046659572056e-03
-1.129674807972383399e-02
-1.593566160288600875e-02
-2.053638070308697050e-02
-2.504748646726734362e-02
-2.941755998236644798e-02
-3.359518233532798881e-02
-3.752893461309123047e-02
-4.116749719325750456e-02
-4.446355319479504409e-02
-4.737506960365667208e-02
-4.986037513073685035e-02
-5.187779848693258034e-02
-5.338566838313817120e-02
-5.434231353024883415e-02
-5.470606263915992612e-02
-5.443524442076663056e-02
-5.348818758596465828e-02
-5.182355346050673134e-02
-4.943386831055399111e-02
-4.637424906276869235e-02
-4.270657910710014271e-02
-3.849274183349772616e-02
-3.379462063191261689e-02
-2.867409889229070863e-02
-2.319306000458296046e-02
-1.741338735873881882e-02
-1.139696434470766073e-02
-5.205688112117384803e-03
1.091483272552373762e-03
7.407034760325142964e-03
1.365043922938202758e-02
1.973116955790416016e-02
2.555869862407264548e-02
3.104249930606667318e-02
3.609204448207137261e-02
4.061680703026562811e-02
4.452625982883082201e-02
4.772987584819649021e-02
5.015862578543590217e-02
5.182531511381279626e-02
5.276221872200714119e-02
5.300161149869699745e-02
5.257576833256112636e-02
5.151696411227826844e-02
4.985747372652726828e-02
4.762957206398774068e-02
4.486553401333689961e-02
4.159763446325415170e-02
3.786615927750675015e-02
3.375597006195069083e-02
2.936734223782999642e-02
2.480056601838254160e-02
2.015593161684164913e-02
1.553372924644541575e-02
1.103424912043010631e-02
6.757781452032429748e-03
2.804616454488539912e-03
-7.249556589637717874e-04
-3.739267616135466543e-03
-6.218079090041045420e-03
-8.176445236541179939e-03
-9.629671465554295873e-03
-1.059306318699855531e-02
-1.108192581079320282e-02
-1.111156474685628601e-02
-1.069728540510625665e-02
-9.854393195461604721e-03
-8.598193527840830575e-03
-6.947134133222204744e-03
-4.960098323221376337e-03
-2.724040025411905708e-03
-3.264787572350436040e-04
2.145065963868070247e-03
4.603074620456171218e-03
6.960027695087300792e-03
9.128405670321942944e-03
1.102068902871805589e-02
1.254935825283440276e-02
1.362956636665144106e-02
1.423424864166591974e-02
1.439214599808963380e-02
1.413427642765510694e-02
1.349165792209464088e-02
1.249530847314071769e-02
1.117624607252576396e-02
9.565488711982206294e-03
7.694054383243213724e-03
5.592961078039910064e-03
3.293542436282236030e-03
8.403562790846100250e-04
-1.704288064021418359e-03
-4.276835473385129371e-03
-6.813730829354922025e-03
-9.251419012281991705e-03
-1.152634490251466803e-02
-1.357495338040232147e-02
-1.533368932629419756e-02
-1.673899762053915330e-02
-1.772767415988499295e-02
-1.827442715231025749e-02
-1.842526239720693182e-02
-1.823406075884775879e-02
-1.775470310150562003e-02
-1.704107028945336944e-02
-1.614704318696341678e-02
-1.512650265830864371e-02
-1.403332956776179308e-02
-1.292140477959569100e-02
-1.184459192026318664e-02
-1.084676945910006962e-02
-9.945089225179143400e-03
-9.152278613330983026e-03
-8.481065018385691712e-03
-7.944175835173455935e-03
-7.554338458524406663e-03
-7.324280283268772007e-03
-7.266728704236516401e-03
-7.394411116257923466e-03
-7.720054899203698112e-03
-8.241706821930254445e-03
-8.900454735794385841e-03
-9.623574482005986530e-03
-1.033834190177571055e-02
-1.097203283631342785e-02
-1.145192312682935531e-02
-1.170528861453351555e-02
-1.165940514063606992e-02
-1.124154854634740186e-02
-1.037899467287750621e-02
-9.014142829949889357e-03
-7.175199401387277742e-03
-4.920595943571304254e-03
-2.308797815309071577e-03
6.017296245916514685e-04
3.752521017325816111e-03
7.085111004085653530e-03
1.054103422606406104e-02
1.406182532445426903e-02
1.758901894044812009e-02
2.106188105024220381e-02
2.440048685670842543e-02
2.751526077917396118e-02
3.031655410484340729e-02
3.271471812092111020e-02
3.462010411461095838e-02
3.594306337311871380e-02
3.659394718364812615e-02
3.648310683340363902e-02
3.552089360958962660e-02
3.362604625486659282e-02
3.082784957599360443e-02
2.723363320754756955e-02
2.295236599838035296e-02
1.809301679734343082e-02
1.276455445328761318e-02
7.075947815064376201e-03
1.136165731526861400e-03
-4.945822948477840431e-03
-1.106104937609653227e-02
-1.710105520309646021e-02
-2.296874708009949417e-02
-2.857819133526967592e-02
-3.384392372884581501e-02
-3.868048002107210559e-02
-4.300239597218741272e-02
-4.672420734243232232e-02
-4.976044989204753133e-02
-5.202565938127354239e-02
-5.343437157035071938e-02
-5.390294626478801809e-02
-5.342721526743675342e-02
-5.211149335293155382e-02
-5.006789824424402735e-02
-4.740854766434683676e-02
-4.424555933620960557e-02
-4.069105098280484389e-02
-3.685714032710402099e-02
-3.285594509207875880e-02
-2.879958300070079025e-02
-2.479994458202805507e-02
-2.094284681654878799e-02
-1.726421272123668249e-02
-1.379433540411945103e-02
-1.056350797322475055e-02
-7.602023536580126972e-03
-4.940175202214180938e-03
-2.608256078152682012e-03
-6.365592724243418488e-04
9.446221069433491380e-04
2.105042618712749114e-03
2.845824968550486611e-03
3.253607089473906089e-03
3.429464251907612948e-03
3.474471726275574213e-03
3.489704783001999766e-03
3.576238692511127248e-03
3.835148725227145727e-03
4.367510151574008348e-03
5.274398241976313573e-03
6.656888265455240816e-03
8.590438674296374533e-03
1.104920575676356098e-02
1.398230823145912849e-02
1.733886481698412863e-02
2.106799423194324894e-02
2.511881519493772141e-02
2.944044642456974947e-02
3.398200663944178634e-02
3.869261455815435624e-02
4.352138889931314591e-02
4.841001672803928180e-02
5.325718825030638370e-02
5.794616618318942231e-02
6.236019331570397117e-02
6.638251243686424385e-02
6.989636633568874213e-02
7.278499780119149221e-02
7.493164962238810234e-02
7.621956458829412528e-02
7.653198548792514155e-02
7.576624769303805240e-02
7.394143853515142140e-02
7.113895280238105578e-02
6.744068893338653337e-02
6.292854536682745970e-02
5.768442054136338482e-02
5.179021289565619024e-02
4.532782086836104063e-02
3.837914289813965096e-02
3.102607742365168231e-02
2.335218271644179389e-02
1.546342821011073565e-02
7.481873758543949871e-03
-4.700687657922530960e-04
-8.269987490423139076e-03
-1.579547054287669394e-02
-2.292410605068092438e-02
-2.953348214136388220e-02
-3.550118694245157219e-02
-4.070480858147629277e-02
-4.502570710239331420e-02
-4.843173836407488331e-02
-5.097711080371286618e-02
-5.271977612758443898e-02
-5.371768604196835994e-02
-5.402879225314166645e-02
-5.371104646738183996e-02
-5.282240039096652851e-02
-5.142080573017338008e-02
-4.956421419128087535e-02
-4.731079596510923135e-02
-4.472862774349101178e-02
-4.189953797081041875e-02
-3.890636865265878486e-02
-3.583196179462749820e-02
-3.275915940230872403e-02
-2.977080348129163001e-02
-2.694973603716838140e-02
-2.437879907553044956e-02
-2.214083460196894504e-02
-2.031836122990193783e-02
-1.895439474115623302e-02
-1.801502943783804545e-02
-1.745749370358062186e-02
-1.723901592201675451e-02
-1.731682447677906911e-02
-1.764814775150024689e-02
-1.819021412981339236e-02
-1.890025199535055878e-02
-1.973548973174543697e-02
-2.065315281219140542e-02
-2.160827542530058265e-02
-2.254980704399858760e-02
-2.342564955336087773e-02
-2.418370483846521424e-02
-2.477187478438741541e-02
-2.513806127620443753e-02
-2.523016619899326463e-02
-2.499609143783032561e-02
-2.438373887779204940e-02
-2.334101040395586413e-02
-2.183118932156191683e-02
-1.987955547579500770e-02
-1.752700646112961835e-02
-1.481443987228880932e-02
-1.178275330400244125e-02
-8.472844350992603246e-03
-4.925610607990071887e-03
-1.181949669718768137e-03
2.717240869097886646e-03
6.731063413728199940e-03
1.081598668705335831e-02
1.491294064383888451e-02
1.895717631103764275e-02
2.288393631026444663e-02
2.662846326312573106e-02
3.012599979123878682e-02
3.331178851621070802e-02
3.612107205965797707e-02
3.848909304318866298e-02
4.035109408841695833e-02
4.164909942433306367e-02
4.238497866614338028e-02
4.259176663327682300e-02
4.230276637576357857e-02
4.155128094363483293e-02
4.037061338692013446e-02
3.879406675565194584e-02
3.685494409985856645e-02
3.458654846957351370e-02
3.202218291482633594e-02
2.919691455294320948e-02
2.617021622559764782e-02
2.301937992331559713e-02
1.982210339664672305e-02
1.665608439613200376e-02
1.359902067232107714e-02
1.072860997575708630e-02
8.122550056983313116e-03
5.858538666548993024e-03
4.014273554996200533e-03
2.664696394537938162e-03
1.819624080609785061e-03
1.422770020500572878e-03
1.414895787237073488e-03
1.736762953845380486e-03
2.329133093351309913e-03
3.132767778781853085e-03
4.088428583161995977e-03
5.136877079518625822e-03
6.218874840878546584e-03
7.275083066790449804e-03
8.241423160956551364e-03
9.047125426738522602e-03
9.620914931675939030e-03
9.891516743307848802e-03
9.787655929173133540e-03
9.238057556810341797e-03
8.171446693759243374e-03
6.516548407557165579e-03
4.202087765745515791e-03
1.157269107373071204e-03
-2.626277793017661732e-03
-7.033222741159528280e-03
-1.193367356745005103e-02
-1.719773810227399891e-02
-2.269552417602614669e-02
-2.829713961910223022e-02
-3.387269226188584226e-02
-3.929228993477629217e-02
-4.442604046815747110e-02
-4.914406819641939372e-02
-5.333082579312334315e-02
-5.691129306477143990e-02
-5.981756490139583660e-02
-6.198173619301963755e-02
-6.333590182967302473e-02
-6.381215670138104534e-02
-6.334259569817232705e-02
-6.185931371007263868e-02
-5.929440562711113527e-02
-5.557996633931139296e-02
-5.068715532103479360e-02
-4.474761624478551525e-02
-3.793419871267952881e-02
-3.041975235508287412e-02
-2.237712680234144047e-02
-1.397917168482315509e-02
-5.398736632872692953e-03
3.191328723141361682e-03
1.161817475286863049e-02
1.970895182595849837e-02
2.730324395046473951e-02
3.431544809515647831e-02
4.068780936289911887e-02
4.636261974595379254e-02
5.128217123657932697e-02
5.538875582702457168e-02
5.862466550955108824e-02
6.093219227641016866e-02
6.225362811986012712e-02
6.253126503215647447e-02
6.172081397542503178e-02
5.989895680641757481e-02
5.720647819447136073e-02
5.378474923301310162e-02
4.977514101547814152e-02
4.531902463529455249e-02
4.055777118588926866e-02
3.563275176069952144e-02
3.068533745314885874e-02
2.585689935667472711e-02
2.128406164251001736e-02
1.703614191562198565e-02
1.313248477284924276e-02
9.591251247768300958e-03
6.430602373966379237e-03
3.668699185021079279e-03
1.323702714518398826e-03
-5.862260039616595808e-04
-2.042925936837830525e-03
-3.028236050525989764e-03
-3.525909052257331089e-03
-3.566312724647968668e-03
-3.227921253626614417e-03
-2.591420924246495838e-03
-1.737498021561784123e-03
-7.468388306249851283e-04
2.998703635091470865e-04
1.321943275788384220e-03
2.238693621157888947e-03
2.969435114564850098e-03
3.434242531890979722e-03
3.590647727935908362e-03
3.449957787204610549e-03
3.027638862015791243e-03
2.339157104688252553e-03
1.399978667539769628e-03
2.255697028903935752e-04
-1.168603636942967816e-03
-2.767075199639611183e-03
-4.554378832881848110e-03
-6.514999196726796796e-03
-8.626576357961938252e-03
-1.085294760733801489e-02
-1.315629087626460358e-02
-1.549878409615756958e-02
-1.784260519842632842e-02
-2.014993211448523613e-02
-2.238294277574859326e-02
-2.450381511362584308e-02
-2.647472705953274330e-02
-2.825786512815425811e-02
-2.982408371136155423e-02
-3.116921146295770217e-02
-3.229354787949970107e-02
-3.319739245754796397e-02
-3.388104469366012839e-02
-3.434480408439596899e-02
-3.458897012631362289e-02
-3.461384231597235128e-02
-3.441972014993077700e-02
-3.400690312474806409e-02
-3.337649994685784605e-02
-3.253300768566633194e-02
-3.148181013877692641e-02
-3.022829110679654818e-02
-2.877783439033475971e-02
-2.713582378999736255e-02
-2.530764310639451245e-02
-2.329867614013290261e-02
-2.111430669181879605e-02
-1.875991856206303543e-02
-1.624324866288380520e-02
-1.358647404173833617e-02
-1.081724616620255430e-02
-7.963226921547883475e-03
-5.052078193039766241e-03
-2.111461865943575766e-03
8.309601744689587566e-04
3.747526042934684609e-03
6.610573854181872600e-03
9.392441722945205074e-03
1.206642561482096365e-02
1.461464367634138228e-02
1.702397081227580156e-02
1.928132810466523517e-02
2.137363663555771898e-02
2.328781748699482179e-02
2.501079174102265046e-02
2.652948047968689549e-02
2.783080478503006938e-02
2.890168573909857042e-02
2.972991255175168324e-02
3.031589249638759129e-02
3.066955959320170205e-02
3.080108237997759846e-02
3.072062939449954344e-02
3.043836917455183810e-02
2.996447025791798557e-02
2.930910118238297390e-02
2.848243048573051439e-02
2.749462670574370771e-02
2.635553527110517935e-02
2.506688539902762747e-02
2.362189043373841280e-02
2.201336062015352146e-02
2.023410620318882858e-02
1.827693742776337338e-02
1.613466453879169871e-02
1.380009778119350994e-02
1.126604739988434911e-02
8.525323639779203155e-03
5.571166022895368553e-03
2.418852063896137494e-03
-8.841640103762204994e-04
-4.287879456284282575e-03
-7.742291530180495096e-03
-1.119739748842486782e-02
-1.460319458737738274e-02
-1.790968008339063888e-02
-2.106685123282692890e-02
-2.402470529203917793e-02
-2.673322853664872323e-02
-2.914077150321384146e-02
-3.119232765062857071e-02
-3.283247832727237414e-02
-3.400580488151933034e-02
-3.465688866174770899e-02
-3.473031101633294870e-02
-3.417065329365231996e-02
-3.292249684208137239e-02
-3.093042300999832017e-02
-2.813904483783363775e-02
-2.453056829515604109e-02
-2.019754038036031263e-02
-1.525264886884936111e-02
-9.808581536037142001e-03
-3.978026157322900325e-03
2.126329491878131694e-03
8.391797636167763752e-03
1.470569050012998646e-02
2.095532030836252946e-02
2.702799928546270603e-02
3.281373367916440298e-02
3.821402747896630869e-02
4.313345144198966336e-02
4.747657635435922202e-02
5.114797300219808829e-02
5.405221217162173297e-02
5.609386464875501521e-02
5.717750121971565402e-02
5.720769267062614238e-02
5.608900978760616995e-02
5.375058505234131534e-02
5.027528258838104280e-02
4.580532130321335327e-02
4.048304700522986632e-02
3.445080550283530219e-02
2.785094260442383396e-02
2.082580411838763634e-02
1.351773585313437165e-02
6.069083617051052038e-03
-1.377806781454021801e-03
-8.683273055074269831e-03
-1.573290828930345997e-02
-2.242616068850569744e-02
-2.866262096278754390e-02
-3.434187982223724234e-02
-3.936352797695982786e-02
-4.362715613704526429e-02
-4.703235501259453444e-02
-4.947871531370616471e-02
-5.086582775047376881e-02
-5.110174443579795778e-02
-5.022061684000425630e-02
-4.835340865482182227e-02
-4.563355898625753859e-02
-4.219450694032411686e-02
-3.816969162302563667e-02
-3.369255214037714108e-02
-2.889652759838445828e-02
-2.391505710305313892e-02
-1.888157976039916974e-02
-1.392838449285654923e-02
-9.157953782542027632e-03
-4.640973069677922780e-03
-4.465789689399035645e-04
3.356091905006047815e-03
6.697902937492991593e-03
9.509717513846882575e-03
1.172239901940242551e-02
1.326681083948724402e-02
1.407381635943388137e-02
1.407558929211553955e-02
1.327452873658153953e-02
1.177731266150505718e-02
9.699075555386432734e-03
7.154951906721079835e-03
4.260076204010754264e-03
1.129582935752049266e-03
-2.121393409559246823e-03
-5.377718343420323510e-03
-8.524257377337529640e-03
-1.144603555463960531e-02
-1.405357272758966936e-02
-1.631064215461344724e-02
-1.818769181300025628e-02
-1.965516968004560328e-02
-2.068352373303988800e-02
-2.124320194927725725e-02
-2.130465230604972060e-02
-2.083832278065032850e-02
-1.981466135037097953e-02
-1.820413719589072943e-02
-1.600709002426943528e-02
-1.331317885834674974e-02
-1.022868566989944272e-02
-6.859892430703290120e-03
-3.313081112541318984e-03
3.054663128132240058e-04
3.889467873576843426e-03
7.332641597974032255e-03
1.052870551422864509e-02
1.337137765055798622e-02
1.577173793007576041e-02
1.771639197734858895e-02
1.921247704769793452e-02
2.026713080937436740e-02
2.088749093063205220e-02
2.108069507972365475e-02
2.085388092490178535e-02
2.021418613441886003e-02
1.916874837652868258e-02
1.772470531948366901e-02
1.589898713160420307e-02
1.377104152036467966e-02
1.144489710027957186e-02
9.024641211408196417e-03
6.614361193803042216e-03
4.318144387523425998e-03
2.240078132623474216e-03
4.842497691579100705e-04
-8.452533628149072609e-04
-1.644343923240886018e-03
-1.818918205082592499e-03
-1.370893044641520063e-03
-3.557803460148556418e-04
1.170324800181102298e-03
3.151327303333659180e-03
5.531132072825115098e-03
8.253644018041877972e-03
1.126276804837139656e-02
1.450240907319447214e-02
1.791647200190091271e-02
2.144712113627905703e-02
2.500991760255591445e-02
2.849965387877928524e-02
3.181057120980901320e-02
3.483691084050435927e-02
3.747291401571825609e-02
3.961282198031135238e-02
4.115087597913799633e-02
4.198131725705689377e-02
4.199838705892525170e-02
4.109978853374185448e-02
3.927581833551949120e-02
3.661720228920516129e-02
3.321969849959587051e-02
2.917906507149701373e-02
2.459106010970708509e-02
1.955144171902294808e-02
1.415596800425242274e-02
8.500397070188542292e-03
2.680487021640115541e-03
-3.208092711738080860e-03
-9.074638292846548548e-03
-1.483594513005154214e-02
-2.040943119318927579e-02
-2.571251445208044828e-02
-3.066261287656074641e-02
-3.517714443645153510e-02
-3.917352710158494844e-02
-4.256917884179173273e-02
-4.528151762689519577e-02
-4.722825757010296055e-02
-4.837800092568073085e-02
-4.880753829905487562e-02
-4.860750411193703879e-02
-4.786853278604014106e-02
-4.668125874307535450e-02
-4.513631640475682105e-02
-4.332434019279621240e-02
-4.133596452890431205e-02
-3.926182383479625421e-02
-3.719254213963488209e-02
-3.520113669763748343e-02
-3.330698655783705109e-02
-3.151929323385593840e-02
-2.984725823931252964e-02
-2.830008308782533399e-02
-2.688696929301637173e-02
-2.561711836850333324e-02
-2.449973182790760040e-02
-2.354401118484805711e-02
-2.275915795294369826e-02
-2.214414591420021949e-02
-2.165259977039341033e-02
-2.122557963217736043e-02
-2.080414515160938782e-02
-2.032935598074780970e-02
-1.974227177165066571e-02
-1.898395217637482979e-02
-1.799545684697956283e-02
-1.671784543552135016e-02
-1.509217759405967474e-02
-1.307097486001118636e-02
-1.068140299473971377e-02
-7.980514170338071089e-03
-5.025439948437571136e-03
-1.873311890677353819e-03
1.418738441309366771e-03
4.793579485890049618e-03
8.194079681424791539e-03
1.156310746628332053e-02
1.484353127882573342e-02
1.798023830668213363e-02
2.093796034628095382e-02
2.369269833088022414e-02
2.622058273883651203e-02
2.849774404850136111e-02
3.050031273823289313e-02
3.220441928638334561e-02
3.358619417130892515e-02
3.462176787136561629e-02
3.528727086490662801e-02
3.556162799327805546e-02
3.546757489436225264e-02
3.506262530729409299e-02
3.440525055079329819e-02
3.355392194357903479e-02
3.256711080436996975e-02
3.150328845188637983e-02
3.042092620484629362e-02
2.937849538197048749e-02
2.843446730197723982e-02
2.764627991754879666e-02
2.704283262420967282e-02
2.662155338004913718e-02
2.637824844084942638e-02
2.630872406239198602e-02
2.640878650045855314e-02
2.667424201083080926e-02
2.710089684929087306e-02
2.768455727161986402e-02
2.842102953360026163e-02
2.930592732846154513e-02
3.032358752978148164e-02
3.144102534464576770e-02
3.262378419057676560e-02
3.383740748510011276e-02
3.504743864573817147e-02
3.621942109001569099e-02
3.731889823545725404e-02
3.831141349958550046e-02
3.916251029992567911e-02
3.983773769071174975e-02
4.030368872688200321e-02
4.052921565627057299e-02
4.048346583154435741e-02
4.013558660536920009e-02
3.945472533041204100e-02
3.841002935933827966e-02
3.697064604481566097e-02
3.510572273951002853e-02
3.278440679608585206e-02
2.997584932902339072e-02
2.665697656091309264e-02
2.282884778185889640e-02
1.849719070276312216e-02
1.366773303453933108e-02
8.346202488092535621e-03
2.538326774325860846e-03
-3.750166395845022649e-03
-1.051354931152115313e-02
-1.774609426178519467e-02
-2.544207353573435526e-02
-3.357663236782193472e-02
-4.203847195977772344e-02
-5.069188421381420895e-02
-5.940115957579827910e-02
-6.803058849161569555e-02
-7.644446140715127624e-02
-8.450706876827257519e-02
-9.208270102087001696e-02
-9.903564861081209925e-02
-1.052302019839879421e-01
-1.105376476350525689e-01
-1.148757508249739351e-01
-1.181812260488025734e-01
-1.203908435144089017e-01
-1.214413734296716507e-01
-1.212695860024651240e-01
-1.198122514406656514e-01
-1.170061399521463708e-01
-1.127880217447870814e-01
-1.070946670264569800e-01
-9.987838491399636531e-02
-9.124762838929634245e-02
-8.140105824730514694e-02
-7.053842933616383259e-02
-5.885949650400945643e-02
-4.656401459900483264e-02
-3.385173846927891361e-02
-2.092242296299651194e-02
-7.975822928294351577e-03
4.788306786690732508e-03
1.717259408999571857e-02
2.901799790747650043e-02
4.019641700529208439e-02
5.058063337364804291e-02
6.004342900271902872e-02
6.845758588270245415e-02
7.569588600379281718e-02
8.163111135616943348e-02
8.613604393003040927e-02
8.908346571555861293e-02
9.035098992439388743e-02
8.995405961050817467e-02
8.806265608454738603e-02
8.485494728231346429e-02
8.050910113961473602e-02
7.520328559225353260e-02
6.911566857602935432e-02
6.242441802675458007e-02
5.530770188022404721e-02
4.794368807225224405e-02
4.051013161733973966e-02
3.315947503130800555e-02
2.600461439701240440e-02
1.915500721772267489e-02
1.272011099672232248e-02
6.809383237277089052e-03
1.532281442669480853e-03
-3.001736883830319336e-03
-6.683214238951129538e-03
-9.402693119412774969e-03
-1.105110929811636833e-02
-1.159811240390434817e-02
-1.118673762541469441e-02
-9.983137765132321650e-03
-8.153465625541131412e-03
-5.863874009123441408e-03
-3.280515718366613931e-03
-5.695435557510342139e-04
2.102889676234787064e-03
4.570631175109390876e-03
6.667538689910712524e-03
8.254521135615089378e-03
9.278037997841270812e-03
9.701420274369210173e-03
9.487998962981358808e-03
8.601105061458724776e-03
7.004069567584092493e-03
4.660223479136860192e-03
1.532897793902365802e-03
-2.414576490342601467e-03
-7.218868375810871818e-03
-1.287724622208841208e-02
-1.920547055264415492e-02
-2.596706902640855130e-02
-3.292556457163831052e-02
-3.984448011657076849e-02
-4.648733858945841568e-02
-5.261766291855277111e-02
-5.799897603209244051e-02
-6.239480085833225276e-02
-6.556866032551336709e-02
-6.730696625655813170e-02
-6.755126885378165413e-02
-6.630751951039887127e-02
-6.358187830815067998e-02
-5.938050532878413890e-02
-5.370956065403653668e-02
-4.657520436565970590e-02
-3.798359654539296137e-02
-2.794089727497189868e-02
-1.645326663615465090e-02
-3.546065783392615689e-03
1.055808568287458504e-02
2.552063436500556781e-02
4.100154533055511141e-02
5.666078364711046866e-02
7.215831438225822625e-02
8.715410260355302419e-02
1.013081133785920518e-01
1.142803117749315173e-01
1.257306628601580489e-01
1.353292612097566072e-01
1.429134418656494154e-01
1.484578003813799563e-01
1.519409923769262094e-01
1.533416734722785613e-01
1.526384992874217916e-01
1.498101254423424011e-01
1.448352075570226161e-01
1.376924012514550988e-01
1.283603621456149702e-01
1.168234155054282963e-01
1.032330547272805044e-01
8.793134467946384092e-02
7.127072574956117013e-02
5.360363832510872673e-02
3.528252279369104016e-02
1.665981954285666866e-02
-1.912031039848827163e-03
-2.008058856683814231e-02
-3.749341265057770656e-02
-5.379975112811352655e-02
-6.875728842603745505e-02
-8.229602694896276383e-02
-9.436129918742297562e-02
-1.048984376319463396e-01
-1.138527747730401218e-01
-1.211696431012388581e-01
-1.267943751070537972e-01
-1.306723032810123697e-01
-1.327487601136378426e-01
-1.329694554251401595e-01
-1.313619352376257376e-01
-1.281372460878654751e-01
-1.235314054740375145e-01
-1.177804308943154465e-01
-1.111203398468858516e-01
-1.037871498299181017e-01
-9.601687834160077539e-02
-8.804554288010102425e-02
-8.010916094360975848e-02
-7.244373494976796835e-02
-6.523637011968919097e-02
-5.851660288360682749e-02
-5.228229146136653682e-02
-4.653129407283262964e-02
-4.126146893785564984e-02
-3.647067427628736258e-02
-3.215676830799063524e-02
-2.831760925281379127e-02
-2.495105533061814373e-02
-2.205496476125445859e-02
-1.961098755362411517e-02
-1.752466386975443102e-02
-1.567921337322392139e-02
-1.395785282349795708e-02
-1.224379898003657985e-02
-1.042026860230511887e-02
-8.370478449764960291e-03
-5.977645281877178030e-03
-3.124985858107845460e-03
3.042830620845482503e-04
4.406002122998881054e-03
9.131184822072424545e-03
1.436963212086242447e-02
2.001092721482083947e-02
2.594465329940079390e-02
3.206039357004239476e-02
3.824773122220312405e-02
4.439624945132278344e-02
5.039553145285446956e-02
5.613516042225111247e-02
6.150620422739253024e-02
6.641532661404278559e-02
7.077851579561680873e-02
7.451188538694285268e-02
7.753154900284692230e-02
7.975362025814922151e-02
8.109421276767700415e-02
8.146944014625268071e-02
8.079541600870099316e-02
7.898825396984709979e-02
7.597143675991689660e-02
7.179334750229315887e-02
6.660660072722728031e-02
6.056700382888483003e-02
5.383036420144736434e-02
4.655248923908371361e-02
3.888918633596108454e-02
3.099626288626328163e-02
2.302952628415205760e-02
1.514478392381171656e-02
7.496591827602136493e-03
2.013551182331319023e-04
-6.668741700147473583e-03
-1.304398774015222764e-02
-1.885467211438033447e-02
-2.403108393544818935e-02
-2.850351231595668611e-02
-3.220224636851794914e-02
-3.505757520574205588e-02
-3.699978794023303652e-02
-3.796021513460293151e-02
-3.794034993154216107e-02
-3.705509678686008668e-02
-3.542968161926302040e-02
-3.318933034746085475e-02
-3.045926889015815320e-02
-2.736472316606647359e-02
-2.403091909388921366e-02
-2.058308259233870841e-02
-1.714643958012007641e-02
-1.384608368034168091e-02
-1.077592573993735314e-02
-7.958696636551465531e-03
-5.407242037896220488e-03
-3.134407611677048067e-03
-1.153039025600266498e-03
5.240180526232540714e-04
1.883917955288083590e-03
2.913815014684684179e-03
3.600863563106626586e-03
3.932221932772594908e-03
3.911833179608581457e-03
3.598755063714653701e-03
3.063340810264492120e-03
2.375943644430694723e-03
1.606916791387580368e-03
8.266134763080107417e-04
1.053869243647122256e-04
-4.864096392680275494e-04
-8.784229894176626141e-04
-1.000299900910328610e-03
-7.996362914036714287e-04
-3.099438435965051752e-04
4.095892682601798285e-04
1.299770271141476030e-03
2.301406392020310943e-03
3.355304857872221103e-03
4.402272895670411579e-03
5.383117732389863797e-03
6.238646595005170603e-03
6.909666710489648089e-03
7.341504590189007473e-03
7.511376254530299779e-03
7.410220193800942656e-03
7.029028299873230079e-03
6.358792464620177665e-03
5.390504579913357741e-03
4.115156537626590838e-03
2.523740229630533349e-03
6.072475478000327609e-04
-1.643329615993505133e-03
-4.230211745075006247e-03
-7.082701893087468836e-03
-1.008575549247719971e-02
-1.312370104688158345e-02
-1.608086705994432597e-02
-1.884158203530916786e-02
-2.129017447661363249e-02
-2.331097288750275109e-02
-2.478830577161517112e-02
-2.560650163259492462e-02
-2.565509005793759068e-02
-2.491412266027248634e-02
-2.344046040956732080e-02
-2.129339960683679367e-02
-1.853223655309049756e-02
-1.521626754934501946e-02
-1.140478889661122874e-02
-7.157096895898745759e-03
-2.532487848226072646e-03
2.409741945400549479e-03
7.608998202349257639e-03
1.296374882428854083e-02
1.832421532584703472e-02
2.353784715037691988e-02
2.845209374124531287e-02
3.291440454180499797e-02
3.677222899542201273e-02
3.987301654545055696e-02
4.206421663525367061e-02
4.319327870819156256e-02
4.310908325023948828e-02
4.176173968410812343e-02
3.926780049473160839e-02
3.575931176113417154e-02
3.136831956233704366e-02
2.622686997737139203e-02
2.046700908525456164e-02
1.422078296501960715e-02
7.620237695682652301e-03
7.974193562775844235e-04
-6.115589364965645647e-03
-1.297729840413569535e-02
-1.962435599199030545e-02
-2.589031218482987229e-02
-3.160871703893561313e-02
-3.661312061060277567e-02
-4.073707295612474799e-02
-4.381412413178598086e-02
-4.567782419388130566e-02
-4.616172319869857321e-02
-4.509938450606668092e-02
-4.239864956185578071e-02
-3.821590072239480773e-02
-3.275944441520795003e-02
-2.623758706783163586e-02
-1.885863510778529317e-02
-1.083089496260808415e-02
-2.362673059823572341e-03
6.337724173046122011e-03
1.506199030845989384e-02
2.360181891890139605e-02
3.175470837311850092e-02
3.934648076344043899e-02
4.621158393609198223e-02
5.218446779286595172e-02
5.709958223557376478e-02
6.079137716601112906e-02
6.309430248598613122e-02
6.384280809729830919e-02
6.287134390175255771e-02
6.001435980114927515e-02
5.514416474588905437e-02
4.840567756840400554e-02
4.006324301579356623e-02
3.038171250981017146e-02
1.962593747220239826e-02
8.060769324742589337e-03
-4.048940510828769046e-03
-1.643834061273774516e-02
-2.884257955924496297e-02
-4.099680592857557482e-02
-5.264127019173303612e-02
-6.357228196190500835e-02
-7.362083217235526611e-02
-8.261842654447038026e-02
-9.039657079961083141e-02
-9.678677065915575195e-02
-1.016205318444818317e-01
-1.047293600769537703e-01
-1.059447610779490345e-01
-1.050982405688393184e-01
-1.020334430163412076e-01
-9.681101611730658085e-02
-8.967882495121259900e-02
-8.089087543706435790e-02
-7.070117349389032357e-02
-5.936372504069126199e-02
-4.713253599649892822e-02
-3.426161228032104794e-02
-2.100495981116322353e-02
-7.616584508059881520e-03
5.650726791557481032e-03
1.858398430687613345e-02
3.101788703127994484e-02
4.278994759285109639e-02
5.373767861964684478e-02
6.369859273975697622e-02
7.251020258124118989e-02
8.001002077218588582e-02
8.603555994065459345e-02
9.042433271472749556e-02
9.301543476263185450e-02
9.376567181368411497e-02
9.282872858295321272e-02
9.037703196895685576e-02
8.658300887021141978e-02
8.161908618522961678e-02
7.565769081253481687e-02
6.887124965063506910e-02
6.143218959805629709e-02
5.351293755330543966e-02
4.528586988976335270e-02
3.690916071475752736e-02
2.850738197160912479e-02
2.020024659366803643e-02
1.210746751426095003e-02
4.348757666737396166e-03
-2.956170015570191989e-03
-9.687602599328437591e-03
-1.572582715118948232e-02
-2.095113073782362695e-02
-2.524380565269328594e-02
-2.852431645222153894e-02
-3.085010961500427029e-02
-3.230780303415071997e-02
-3.298401460277566866e-02
-3.296536221399076760e-02
-3.233846376090865338e-02
-3.118993713664292011e-02
-2.960640023430577417e-02
-2.767447094700839494e-02
-2.548076716786609741e-02
-2.310762031444218989e-02
-2.061604068921840671e-02
-1.806042216543607415e-02
-1.549515657574351835e-02
-1.297463575279483861e-02
-1.055325152923641818e-02
-8.285395737722078824e-03
-6.225460210898869917e-03
-4.427836781419836054e-03
-2.946917281933802979e-03
-1.827945456558066617e-03
-1.048939806207904724e-03
-5.579382152004486173e-04
-3.028403334725537910e-04
-2.315458109598822478e-04
-2.919542975985123245e-04
-4.319654433245501135e-04
-5.994788980743792628e-04
-7.423943117836340200e-04
-8.086113343887257887e-04
-7.487276628404260226e-04
-5.436684175481876213e-04
-1.934432184311773995e-04
3.016411923526252092e-04
9.412780726464481384e-04
1.725160680291937254e-03
2.652982273131918034e-03
3.724436109009861273e-03
4.939215445766635681e-03
6.297013541246530843e-03
7.795753083867033861e-03
9.400835977997512583e-03
1.104913709499037722e-02
1.267656378818676766e-02
1.421902341093256306e-02
1.561242331656910454e-02
1.679267085844181329e-02
1.769567338989259941e-02
1.825733826426596818e-02
1.841357283490543950e-02
1.810155221012668680e-02
1.730131106669678676e-02
1.604510488499857890e-02
1.436835208231541927e-02
1.230647107592926573e-02
9.894880283126784165e-03
7.168998121188267098e-03
4.164243007401230434e-03
9.160333590451166796e-04
-2.540212406591760286e-03
-6.168820415130574220e-03
-9.914126635983733227e-03
-1.368645428953790821e-02
-1.739281580630600010e-02
-2.094022361679051536e-02
-2.423569015150181527e-02
-2.718622784094962275e-02
-2.969884911563736019e-02
-3.168056640607627705e-02
-3.303839214277118352e-02
-3.367946070966143512e-02
-3.354854126689327254e-02
-3.268106276069479565e-02
-3.112582995250123830e-02
-2.893164760375112332e-02
-2.614732047587761676e-02
-2.282165333032104559e-02
-1.900345092851582485e-02
-1.474151803189496096e-02
-1.008465940190087645e-02
-5.081681108143750250e-03
2.041668016204718078e-04
5.659441833959517193e-03
1.115980601755084400e-02
1.658092138106005003e-02
2.179844995316820855e-02
2.668805376254139439e-02
3.112539483785985162e-02
3.498613520779075836e-02
3.814593690101100720e-02
4.048046194619543681e-02
4.188452178322318864e-02
4.235002899147188860e-02
4.189959961632683944e-02
4.055586167930393116e-02
3.834144320191647248e-02
3.527897220568283754e-02
3.139107671211392031e-02
2.670038474273050966e-02
2.122952431904110565e-02
1.500112346256878004e-02
8.049061433505394492e-03
4.916034641343491884e-04
-7.514675533596040791e-03
-1.581300924201575753e-02
-2.424663134343163495e-02
-3.265877552016824281e-02
-4.089267545455017860e-02
-4.879156482888431096e-02
-5.619867732550045542e-02
-6.295724662670673655e-02
-6.891562196854104927e-02
-7.398098557224724869e-02
-7.809817690777795529e-02
-8.121264974556857696e-02
-8.326985785604432144e-02
-8.421525500963752964e-02
-8.399429497677646239e-02
-8.255243152789187855e-02
-7.983511843341103975e-02
-7.578780946376720284e-02
-7.036197268996785548e-02
-6.362260764554306114e-02
-5.573597049725476094e-02
-4.687186666657905398e-02
-3.720010157501146830e-02
-2.689048064402072002e-02
-1.611280929510411353e-02
-5.036892949729476765e-03
6.167462970604664640e-03
1.733045304442376588e-02
2.828279121827576015e-02
3.887338519639127465e-02
4.897368272339835960e-02
5.845653269168910038e-02
6.719478399367709298e-02
7.506128552177421254e-02
8.192888616837551430e-02
8.767043482589687020e-02
9.215878038673651351e-02
9.526677174330534792e-02
9.686843542055838252e-02
9.693489711171554557e-02
9.560535486335898503e-02
9.303573271380993770e-02
8.938195470138407539e-02
8.479994486440606272e-02
7.944562724119269559e-02
7.347492587005874376e-02
6.704376478933207761e-02
6.030806803732285948e-02
5.342372321002908375e-02
4.653422301531084937e-02
3.975265792388310571e-02
3.318754221930025894e-02
2.694739018509800799e-02
2.114071610482998187e-02
1.587603426203304524e-02
1.126185894025943934e-02
7.406704423049914610e-03
4.419084993947774986e-03
2.407511890778091246e-03
1.429447187482613124e-03
1.361565484599092102e-03
2.040539409422420514e-03
3.303041589249960941e-03
4.985744651375828562e-03
6.925321223098329648e-03
8.958443931710829977e-03
1.092178540451202440e-02
1.265201826879519542e-02
1.398581515185791380e-02
1.477763680884373876e-02
1.497389844967415146e-02
1.455064085208159289e-02
1.348391912746085830e-02
1.174978838720610631e-02
9.324303742709583870e-03
6.183520305368950254e-03
2.303493186573940532e-03
-2.339722502275709548e-03
-7.770071649788268253e-03
-1.399358828419471068e-02
-2.087918875803700114e-02
-2.823242566692708844e-02
-3.585850949634411533e-02
-4.356265073178845759e-02
-5.115005985873872368e-02
-5.842594736269013378e-02
-6.519552372913704763e-02
-7.126399944355946148e-02
-7.643658499145543350e-02
-8.052988467204355572e-02
-8.349459793432155441e-02
-8.536872338068973720e-02
-8.619175033062728697e-02
-8.600316810361736952e-02
-8.484246601914217922e-02
-8.274913339668200918e-02
-7.976265955572170441e-02
-7.592253381574207149e-02
-7.126824549622143290e-02
-6.584296223842923956e-02
-5.976123474400486801e-02
-5.320234445825706981e-02
-4.634791669241926371e-02
-3.937957675772402188e-02
-3.247894996541897394e-02
-2.582766162673191812e-02
-1.960733705291012319e-02
-1.399960155518623073e-02
-9.186080444794603173e-03
-5.345188230890474124e-03
-2.538727078315317076e-03
-6.815998242985510380e-04
3.206603031845056684e-04
5.625200761542742400e-04
1.384462666336322423e-04
-8.570943533564856498e-04
-2.329635011792771659e-03
-4.184708936655366640e-03
-6.327849355919720753e-03
-8.664409903871399254e-03
-1.108412134740369148e-02
-1.344920305685906592e-02
-1.561907572754220319e-02
-1.745316005475164300e-02
-1.881087673379122638e-02
-1.955164645996065875e-02
-1.953488992856264317e-02
-1.862002783489777324e-02
-1.666648087426886304e-02
-1.353387398338956604e-02
-9.158719335884135671e-03
-3.669562474092169513e-03
2.775563654717760897e-03
1.001862610326315073e-02
1.790159192428064650e-02
2.626642817048557843e-02
3.495510189461620287e-02
4.380958014938696188e-02
5.267182998753039413e-02
6.138381863220887524e-02
6.979218273456050392e-02
7.776041220126972409e-02
8.515579791078103922e-02
9.184563074155532858e-02
9.769720157205213917e-02
1.025778012807188611e-01
1.063547207460173727e-01
1.088952508463980617e-01
1.100666824603195870e-01
1.097363064662365273e-01
1.078084924506036990e-01
1.043830242397724428e-01
9.962383050858610034e-02
9.369487779391212634e-02
8.676013263263281095e-02
7.898356156161842612e-02
7.052913111773648214e-02
6.156080783787309940e-02
5.224255825888945992e-02
4.273834891767303024e-02
3.320740015003420531e-02
2.377184109843588633e-02
1.453635446256829056e-02
5.605521412576419671e-03
-2.916076881368634410e-03
-1.092385924912064876e-02
-1.831324452051030782e-02
-2.497965152538494937e-02
-3.081849909359013484e-02
-3.572520605495987933e-02
-3.960573745082168751e-02
-4.249309578718735159e-02
-4.450440087105450582e-02
-4.575827466923221287e-02
-4.637333914852603822e-02
-4.646821627574490576e-02
-4.616152801769632386e-02
-4.557189634118853638e-02
-4.481794321302833006e-02
-4.401829060002473287e-02
-4.328866953086259184e-02
-4.268711660405231922e-02
-4.221847541192330633e-02
-4.188560075624939150e-02
-4.169134743880370531e-02
-4.163857026135930894e-02
-4.173012402568970769e-02
-4.196886353356832355e-02
-4.235764358676791241e-02
-4.289931898706228486e-02
-4.359558234554533618e-02
-4.440433876285354575e-02
-4.522740462267815786e-02
-4.596292650446809347e-02
-4.650905098767338375e-02
-4.676392465174325497e-02
-4.662569407612754402e-02
-4.599250584027544941e-02
-4.476250652363733540e-02
-4.283384270566104046e-02
-4.010542958817394504e-02
-3.654681906832340371e-02
-3.225411524559770871e-02
-2.733658034901675915e-02
-2.190347660758755477e-02
-1.606406625033154900e-02
-9.927611506254430118e-03
-3.603374604378706270e-03
2.799382226286173392e-03
9.171396756730981759e-03
1.540340961000036257e-02
2.138735520680634661e-02
2.701820419800149420e-02
3.219140281753468669e-02
3.680239729935347315e-02
4.074663387739568821e-02
4.391955878561135118e-02
4.621661825794029510e-02
4.753325852832962495e-02
4.776492583072353137e-02
4.680706740180447245e-02
4.460498794393299993e-02
4.128739308434775657e-02
3.702514876813770700e-02
3.198912094040247400e-02
2.635017554623277775e-02
2.027917853071754817e-02
1.394699583895900319e-02
7.524493416041860838e-03
1.182537207068623530e-03
-4.908006842871681652e-03
-1.058913726208160488e-02
-1.577197665335988708e-02
-2.039076437174197620e-02
-2.437975618151538848e-02
-2.767320784697935299e-02
-3.020537513242288474e-02
-3.191051380214277033e-02
-3.272287962043290976e-02
-3.257672835158620384e-02
-3.140631575989605295e-02
-2.916509706848230410e-02
-2.595970797128893670e-02
-2.197011856687902664e-02
-1.737675783829467635e-02
-1.236005476856591456e-02
-7.100438340736425769e-03
-1.778337537839125293e-03
3.425818657093362973e-03
8.331601261017257398e-03
1.275858129090286577e-02
1.653525800820715430e-02
1.960022646599485219e-02
2.196622444162293908e-02
2.364737313316744860e-02
2.465779373870202740e-02
2.501160745629882332e-02
2.472293548403164953e-02
2.380589901997443025e-02
2.227461926220053456e-02
2.014321740878188827e-02
1.742894655396881598e-02
1.421335691905922793e-02
1.063827063644684490e-02
6.847835636596188991e-03
2.986199849983217636e-03
-8.024887929249935326e-04
-4.374082361661257856e-03
-7.584432925750089760e-03
-1.028939255472610670e-02
-1.234481331811554394e-02
-1.360897879440688130e-02
-1.403526766811445670e-02
-1.370092141287853130e-02
-1.269149282899749431e-02
-1.109253471677160152e-02
-8.989599876497389452e-03
-6.468241108476657786e-03
-3.614011213006973477e-03
-5.124629903844879486e-04
2.750850759087319908e-03
6.090406248915325449e-03
9.423500559399722309e-03
1.267257270021776572e-02
1.576060803908252428e-02
1.861059194370040526e-02
2.114550978178675322e-02
2.328834692104858606e-02
2.496208872919891686e-02
2.608972057394931543e-02
2.659422782300918664e-02
2.639869070890116243e-02
2.547056014817841718e-02
2.389220918590719001e-02
2.176437196900820811e-02
1.918778264439909009e-02
1.626317535899611533e-02
1.309128425972197474e-02
9.772843493490834810e-03
6.408587207225979743e-03
3.099249547843574426e-03
-5.443550189765389291e-05
-2.969098591301400081e-03
-5.626472809328708635e-03
-8.023545325545722307e-03
-1.015730330952535621e-02
-1.202473393083425268e-02
-1.362282435904327293e-02
-1.494856176372350021e-02
-1.599893331444257605e-02
-1.677092618077125064e-02
-1.726152753227849779e-02
-1.747465306214124325e-02
-1.745217630511741724e-02
-1.724890294335951202e-02
-1.691964956123803709e-02
-1.651923274312561141e-02
-1.610246907339341060e-02
-1.572417513641222175e-02
-1.543916751655444175e-02
-1.530226279819094093e-02
-1.536827756569350556e-02
-1.568334988995632312e-02
-1.622292213711742231e-02
-1.692799012857398866e-02
-1.773931844559917259e-02
-1.859767166946427186e-02
-1.944381438144293650e-02
-2.021851116280648508e-02
-2.086252659482795702e-02
-2.131662525878041947e-02
-2.152157173593532979e-02
-2.142105406464922535e-02
-2.099567086472731159e-02
-2.025130099960470442e-02
-1.919431576547947493e-02
-1.783108645854813989e-02
-1.616798437500632790e-02
-1.421138081105355333e-02
-1.196764706288389046e-02
-9.443154426697297765e-03
-6.644274198689847921e-03
-3.579200269301474613e-03
-2.946306414201016466e-04
3.126039620093279403e-03
6.597954528010707698e-03
1.003625809511443645e-02
1.335609433417694891e-02
1.647260725797794478e-02
1.930094087929640212e-02
2.175623921090574786e-02
2.375364626558640335e-02
2.520965196217977988e-02
2.609542061038683247e-02
2.645453210439349667e-02
2.633554855955037854e-02
2.578703209120840334e-02
2.485754481471935326e-02
2.359564884543402866e-02
2.204990629870229313e-02
2.026887928987744503e-02
1.830112993430799140e-02
1.619530073908201362e-02
1.400831542773187111e-02
1.181245658510846064e-02
9.681674354073438460e-03
7.689918877488710613e-03
5.911140298220457501e-03
4.419288759129391675e-03
3.288314403080999648e-03
2.592167372937270731e-03
2.404797811561637522e-03
2.800086318656636042e-03
3.815369062348389351e-03
5.391587244876941409e-03
7.453973899023802474e-03
9.927762057565223119e-03
1.273818475328174216e-02
1.581047501895495658e-02
1.906986588735968408e-02
2.244159039127971780e-02
2.585088156348948341e-02
2.922297243113257392e-02
3.248143176868635573e-02
3.554346891362863969e-02
3.832477444076913542e-02
4.074103892490928136e-02
4.270795294085663607e-02
4.414120706341750910e-02
4.495649186739525405e-02
4.506949792759631923e-02
4.439591581882608440e-02
4.285143611588879131e-02
4.036913797434213413e-02
3.697923368412636691e-02
3.274564776585134340e-02
2.773233812332120962e-02
2.200326266032759381e-02
1.562237928067683468e-02
8.653645888163419286e-03
1.161020386580335906e-03
-6.791539320263384472e-03
-1.514007532858030469e-02
-2.381491139379987576e-02
-3.269880533722413496e-02
-4.165092773423784145e-02
-5.053027965409895295e-02
-5.919586216606459450e-02
-6.750667633937385004e-02
-7.532172324328978430e-02
-8.250000394705264695e-02
-8.890051951991928547e-02
-9.438227103114499306e-02
-9.880981278651673749e-02
-1.021195004146535634e-01
-1.042977026790228301e-01
-1.053318045206620285e-01
-1.052091908806047499e-01
-1.039172466998867922e-01
-1.014433569195406226e-01
-9.777490648060474521e-02
-9.289928032410846304e-02
-8.680386339109361082e-02
-7.948014660647781393e-02
-7.100891351076393798e-02
-6.155747213436596477e-02
-5.129668269430232019e-02
-4.039740540761960208e-02
-2.903050049134253685e-02
-1.736682816249429662e-02
-5.577248638123533109e-03
6.167377864754575167e-03
1.769619112909137648e-02
2.883899931310901499e-02
3.945383105343247543e-02
4.943672397541554187e-02
5.868639635983652347e-02
6.710156648745385644e-02
7.458095263905079042e-02
8.102327309538853717e-02
8.632724613724446217e-02
9.039159004539282227e-02
9.311502310059913134e-02
9.439692167866550743e-02
9.420859941450121511e-02
9.265712552442648131e-02
8.986462821942700629e-02
8.595323571048604783e-02
8.104507620858306116e-02
7.526227792470888134e-02
6.872696906983905007e-02
6.156127785496653959e-02
5.388733249107058310e-02
4.582726135838692538e-02
3.750329336150000359e-02
2.903792745978984319e-02
2.055370749477614459e-02
1.217317730796061391e-02
4.018880740845179322e-03
-3.786638365050817856e-03
-1.112083616823066751e-02
-1.786116882717614374e-02
-2.388509250038910181e-02
-2.907006336548852155e-02
-3.332146318133827334e-02
-3.665343510482485523e-02
-3.910659666758806163e-02
-4.072156540127594426e-02
-4.153895883753064289e-02
-4.159939450799812755e-02
-4.094348994432217559e-02
-3.961186267814825746e-02
-3.764513024111895700e-02
-3.508391016488165981e-02
-3.197399246450038923e-02
-2.839062934235825342e-02
-2.441948933630459784e-02
-2.014625298216861371e-02
-1.565660081578890833e-02
-1.103621337299164062e-02
-6.370771189615868912e-03
-1.745954801490798292e-03
2.752555255554317570e-03
7.039078445680607699e-03
1.103251329570628658e-02
1.469065634988270252e-02
1.799093404285129205e-02
2.091092351779938463e-02
2.342820191792127638e-02
2.552034638641031972e-02
2.716493406645537068e-02
2.833954210125061435e-02
2.902174763398635005e-02
2.918912780785576366e-02
2.882223042245718458e-02
2.794094522256618252e-02
2.659303073074203994e-02
2.482683563971216367e-02
2.269070864220151806e-02
2.023299843093395722e-02
