BVP Green Neck Signal
3.832336779205100172e-03
1.014026615683696637e-03
2.506211188972640169e-02
3.235516407560933005e-02
1.711005030993640631e-03
-1.850334960296775785e-02
-6.712167891807003899e-03
1.646084655660013177e-03
-1.048567687259875994e-02
-2.279594879098869806e-02
-2.051756205528503310e-02
-6.043686874755605128e-03
1.241507162120200972e-02
2.381852760998628624e-02
2.337784247087133435e-02
2.177074756733849217e-02
2.986850854602678823e-02
3.510144685272875015e-02
1.307044483950921959e-02
-3.057615606346309953e-02
-5.810374423904023089e-02
-5.589990110687131225e-02
-4.982104854653053583e-02
-4.799952976881242950e-02
-3.054839264831637341e-02
7.457524145241847292e-03
6.562757085241431587e-02
1.350669896871769249e-01
1.530738182617899512e-01
8.075223232421926967e-02
-4.241584192189462761e-03
-4.610114676992432131e-02
-1.109540620958840568e-01
-1.962356527993767419e-01
-1.692637678101911181e-01
-1.714757681373268658e-02
1.011104122420362628e-01
1.019812204476960443e-01
5.673271217829388424e-02
4.592099383948271274e-02
7.171896979058339783e-02
7.068978153043219137e-02
-4.311548144650752430e-03
-8.816563540743593830e-02
-8.345279891218185253e-02
-2.082882468452975852e-02
9.995274198407896188e-03
9.130875123281426836e-03
6.948866376690883938e-03
-4.682877624325725886e-03
-7.454128857945291169e-03
2.037676853855671308e-02
4.117444067198291341e-02
2.997154480528483114e-02
-3.718225937390355791e-03
-6.758505682922019697e-02
-1.122555658950849522e-01
-4.275892564844460675e-02
8.355892448248765370e-02
1.104885216569686246e-01
4.936764606663746752e-02
1.711630582012823101e-02
6.865906169740867808e-03
-2.914770841897301387e-02
-4.127163522784568772e-02
-6.160306434452552000e-03
4.128251260870743726e-03
-3.518082903930281474e-02
-6.089554855297361902e-02
-3.701056039451391250e-02
1.300745156562014768e-02
5.694066423183572617e-02
6.831928528802411194e-02
3.911600415737655906e-02
2.233802310220049311e-04
-1.182420427573651484e-02
-1.563900212774867182e-03
-3.529825747324242743e-03
-3.285615306952593961e-02
-5.770409831384499394e-02
-3.581857779706877631e-02
2.141341766388018056e-02
5.679642560706936461e-02
4.173558833720335259e-02
3.951240684467846077e-03
-1.637249100287197293e-02
-7.183971280901369806e-03
1.123278528754810199e-02
7.770329123904083472e-03
-2.029063196338745309e-02
-3.551315105713560849e-02
-1.257187317777863633e-02
2.090156905690012876e-02
2.654077112396438162e-02
6.898668329027616945e-03
-8.610483877517317863e-03
-3.539277378682308996e-03
1.025262202751885121e-02
1.020618166985451727e-02
-5.081776433239025038e-03
-1.384037161032595706e-02
-4.276468372983815991e-03
9.354956176494257786e-03
9.500545592537618794e-03
-2.140223672514565863e-03
-1.058495391764020799e-02
-4.733273082117670817e-03
1.044198249373760531e-02
1.314883225479129836e-02
-6.461419669764993830e-03
-2.015978903104317238e-02
-2.098815350270689158e-03
2.148560219781626632e-02
1.476188801837664821e-02
-6.886145245665634303e-03
-1.031056485496370870e-02
3.077035177316409485e-03
1.611642623281945436e-02
1.747469635299832638e-02
-4.672012014852487856e-03
-3.365314766657200030e-02
-2.597093662429748179e-02
5.843691676785574447e-03
5.619428890359139811e-03
-1.309519255178375613e-02
1.378400509327077153e-03
3.220169305332901827e-02
4.116452543319913671e-02
3.582847489303994659e-02
2.221306523661307694e-02
-1.020885267033208588e-02
-4.813826873501683701e-02
-6.783619339118279745e-02
-6.006231518097907007e-02
-2.367661252512872141e-02
2.636372680531616150e-02
6.158337747135490120e-02
6.990673132119247513e-02
5.258837031771219916e-02
1.087880831884660560e-02
-3.042495635480523333e-02
-3.548931213734887735e-02
-1.558401810733438600e-02
-1.378617517420748298e-02
-3.313960544460640978e-02
-3.838857484221169791e-02
-1.309976951159655748e-02
2.440872355835894264e-02
4.586267138125059428e-02
4.286636947937191855e-02
3.653002024360278710e-02
3.881086657844301513e-02
2.288434419992350227e-02
-2.604815444283302070e-02
-7.480174253363232328e-02
-9.401334628667230853e-02
-7.888848226985170631e-02
-2.018528279970696962e-02
6.549135299456251835e-02
1.184014927728968825e-01
1.090049475728002010e-01
6.398070794283329532e-02
4.893620604355985830e-03
-6.741092863124420465e-02
-1.337278658520445196e-01
-1.452013596559538211e-01
-6.433885318081276894e-02
7.267236479200768484e-02
1.715957210961106816e-01
1.736474095944400831e-01
7.635601207626779852e-02
-8.965954404595977145e-02
-2.219186258716622506e-01
-1.955379809951910963e-01
-2.505489854809660535e-02
1.488320599182838821e-01
2.278723169026462547e-01
1.812246820327887420e-01
5.646393916489129798e-03
-1.968600146204453338e-01
-2.455711852604700318e-01
-9.872787774227177737e-02
9.269187168065137761e-02
1.780931114641519097e-01
1.247528915603715316e-01
-6.640468319008709271e-03
-9.863430245437056210e-02
-7.428473313356083463e-02
5.997635517923839525e-03
3.584886292598319507e-02
9.434517022515881424e-03
-1.031121441150799345e-02
1.847634678762984746e-03
2.084876239738659570e-02
1.555856925332756158e-02
-1.323107820639723986e-02
-2.917806271409639426e-02
-1.033222400154747492e-02
1.731117208722385975e-02
2.047248599733637181e-02
2.495891830585681911e-03
-1.087529599640888606e-02
-5.960424600488560543e-03
7.625113685434641540e-03
1.025767930727674790e-02
-2.603342173677185289e-03
-1.146440015945275268e-02
-1.542980304518669181e-03
1.141507336938684183e-02
5.626338221980824172e-03
-1.111555562693124222e-02
-1.316609714292624883e-02
6.008435092501269136e-03
2.474996611181900369e-02
1.786862785165785339e-02
-1.156985961313385797e-02
-2.827434797714733702e-02
-9.512297488910973625e-03
1.635301267085045515e-02
1.151275436675952904e-02
-9.856678768238247984e-03
-9.727666914264045811e-03
1.044514652110978617e-02
2.185797658743448071e-02
1.358189479083996704e-02
-4.377013186386820819e-03
-1.487508852216628402e-02
-6.403287085175805339e-03
7.753953156083949645e-03
1.146662708553065728e-03
-2.275780948849947041e-02
-2.957495689159951938e-02
-5.463742539965077590e-03
2.363226982718490479e-02
3.069011103169784829e-02
1.898317213307242762e-02
1.185140120609654707e-02
1.975342641528493939e-02
2.273214343207769286e-02
1.474654472135347033e-05
-3.760990663455347771e-02
-6.482307268293865943e-02
-6.116905931592681034e-02
-1.738531134124168473e-02
3.763580537473062981e-02
5.735028714220241630e-02
4.670186661425551611e-02
3.895241280656568106e-02
2.427410644175088950e-02
-1.495890491468459052e-02
-4.890821889030142616e-02
-4.654534637471269276e-02
-2.042240086864871226e-02
4.124534743383252537e-03
1.429014544473217185e-02
8.133467624356800763e-03
2.681457787566022752e-03
1.784566738262645738e-02
3.701491026558403202e-02
2.345550037877140379e-02
-1.859007884072608197e-02
-4.217963784434984598e-02
-2.406102205176610317e-02
5.987045118655717930e-03
1.301731306613576958e-02
5.824883760921371802e-04
-5.609308566658412383e-03
6.359022450270326865e-03
2.236452987430399830e-02
1.858545166044181865e-02
-4.985738197504903900e-03
-1.811832278204695418e-02
-4.829784794024512100e-03
9.434836622129655348e-03
-5.573373378986289789e-04
-1.973073122885712558e-02
-1.917717079452109161e-02
3.930899811447612947e-03
2.902960143576028412e-02
3.336228203087842487e-02
1.179269408115018666e-02
-1.213439875554503736e-02
-1.403643441740022590e-02
-4.792857660338138530e-03
-8.178638411454587642e-03
-2.061879823240156742e-02
-2.287120980209556356e-02
-5.896180159830952290e-03
2.366974662915683966e-02
3.781109877220935334e-02
1.393135762841365630e-02
-1.578317086986794418e-02
-2.929991564793958843e-03
3.200167204830237089e-02
3.304063112972725758e-02
2.907548298778627957e-03
-1.688447678309166339e-02
-2.242959189600170211e-02
-3.401019346605801269e-02
-4.744733571564828389e-02
-4.792445425597885444e-02
-2.904658926279485298e-02
1.360831626913660414e-02
5.909817637772833004e-02
7.044644636303516727e-02
6.452065168071306756e-02
7.847745452804708033e-02
7.114507894511092057e-02
-9.633794913460284187e-03
-1.122491676303454533e-01
-1.515597291706687055e-01
-1.135147103269528585e-01
-3.493165643997252212e-02
3.707939809191736907e-02
6.845464480285054498e-02
6.707245717202250934e-02
5.868467898492792101e-02
4.953318481262788953e-02
4.106080526889005489e-02
3.107908845585065707e-02
1.226186726466536002e-03
-4.785184105078620076e-02
-7.955112999515667749e-02
-6.998311828987602290e-02
-3.933788942440028663e-02
-1.892265124221257158e-02
-7.442931564076466812e-03
2.007465047331079624e-02
6.067325824388086764e-02
7.532523931262277705e-02
5.003462770934410941e-02
1.982252963437093965e-02
7.633600555495642474e-03
-6.815077210655715208e-03
-3.514919174814728348e-02
-5.474544283269389827e-02
-5.190776138847661564e-02
-3.860339202179050716e-02
-1.968494110549020085e-02
1.113677265646935421e-02
4.393836595228128167e-02
5.666359914638245676e-02
4.491533072815696859e-02
2.425758456170329022e-02
2.666260667812835571e-03
-2.264936288528756822e-02
-3.808229949700708827e-02
-2.557682877443429731e-02
-1.456838704579206840e-03
4.810683666649227634e-03
-4.598527957553907516e-03
-8.229153385849421326e-03
2.715681614985782089e-03
1.713241401973888967e-02
1.644505360188338108e-02
1.842956867720841121e-03
-5.946013273861724957e-03
-1.991749376511643167e-03
2.718581353297225105e-03
6.964891833357530516e-03
9.380396938915427224e-03
8.561236569841865381e-04
-1.035676852436344733e-02
-3.891267254617553073e-03
1.163601539020222078e-02
3.913488017940353753e-03
-2.692974960926726100e-02
-3.664477898098645464e-02
-1.283479440699277115e-03
3.824502039019386790e-02
3.179940517384747395e-02
-1.559454011376600231e-03
-4.362757919370138272e-03
2.158395434602954424e-02
1.928582804382250257e-02
-2.072013384590162821e-02
-4.273993981478921983e-02
-2.066651788110488233e-02
9.546521491098768075e-03
1.798712182288970257e-02
1.053755679094166633e-02
-1.604232351933773063e-03
-6.688947995822877926e-03
7.475496896234018300e-03
2.336088037280103016e-02
9.710889096252707520e-03
-1.921109287395643406e-02
-2.251477405247576460e-02
-2.364645800529020965e-03
1.060053206855404717e-02
1.143752267209743184e-02
8.734655540367831233e-03
3.186428461946244541e-03
2.125707652938194515e-04
-2.949087928475120114e-04
-1.132582197951866390e-02
-2.524198228759518339e-02
-1.555926554113677349e-02
1.400495826034599961e-02
3.105320351979810878e-02
2.264586565115133190e-02
2.337549212790764573e-03
-1.161802061471085487e-02
-5.194514228925367280e-03
1.162889515490828432e-02
7.462781078441485007e-03
-1.518584521967944120e-02
-1.923785149549006243e-02
-3.569985309810469291e-03
-1.187482520620028979e-03
-1.563050758576682228e-02
-2.176394988377479064e-02
-5.127794356845153875e-03
2.953083696243719025e-02
6.108033106954982583e-02
6.131936161657093598e-02
2.219736159337961853e-02
-2.940178861467123220e-02
-5.202998137041282140e-02
-3.644476121241906064e-02
-2.664631245341985907e-02
-4.754800899430812466e-02
-3.909524945518776801e-02
3.583912353165452647e-02
9.206862158169733246e-02
6.798509243771806709e-02
2.045795562108751464e-02
-2.735240510324398258e-02
-8.247620572954184048e-02
-4.897793369190179408e-02
7.634852701680570897e-02
8.632087757969991726e-02
-4.846458474439780534e-02
-8.136217438515722100e-02
2.971801013500837557e-02
6.373687861722077130e-02
-2.076442058984679859e-02
-6.850950907868694206e-02
-3.731172522052469270e-02
1.935403773823600286e-03
1.647204428277890265e-02
2.056169892329551274e-02
3.622077904568314632e-02
5.406497401123291219e-02
4.282653119414894100e-02
2.837317336326063838e-02
3.376598469899569355e-02
-2.381704026431912327e-02
-1.502328448929013960e-01
-1.589595903628187312e-01
-5.041976346485334444e-03
8.500322797548835740e-02
3.896025217373694227e-02
4.169475889065980823e-02
1.063829251788002417e-01
6.729832367620730560e-02
-4.001615736741766238e-02
-6.663966302426757582e-02
-3.663384253593937601e-02
-2.660036864975947116e-02
-1.762785822172095035e-02
4.902688040263831863e-03
2.728578420964649157e-02
3.937731528701861328e-02
2.450862312706062265e-04
-6.855643125871029031e-02
-4.069576746264955830e-02
7.136785357994407386e-02
8.131345924556235283e-02
-1.577557403833780569e-02
-2.774235993560914340e-02
3.987846287107643661e-02
1.086582795674534072e-02
-8.746507247671173046e-02
-9.473697768273942055e-02
-2.101744728928284581e-02
3.765687447130450921e-02
8.020679757352749961e-02
1.092479421124397387e-01
7.771242686752169448e-02
-4.174412561147909997e-04
-6.596125505420691315e-02
-1.081254853765832857e-01
-1.093510944310793348e-01
-4.008676656239374553e-02
1.429958195970433207e-02
-1.394979477946186111e-02
3.290846596921924438e-02
2.163091717665437397e-01
2.399062853719070298e-01
-2.025803432129278867e-02
-2.196150831647186441e-01
-1.548618103438136329e-01
-3.634410444911308907e-02
-6.813790811197259663e-03
5.377347540970886346e-03
2.504603868379211284e-02
3.353030783930135289e-02
5.124324714859809782e-02
6.058392559750794271e-02
3.041606330057343432e-02
-1.023517978581163154e-02
-3.136662867420383916e-02
-3.448171663163976386e-02
-1.900728709159510768e-02
-2.850065807118446447e-03
-1.248016765448862683e-02
-2.443657670904746115e-02
-2.197632388589682711e-03
3.501305681273325643e-02
4.734425053790962401e-02
2.985518229089591594e-02
1.517762368108272787e-03
-2.064843600128633480e-02
-2.989307100449408935e-02
-2.794350033531077179e-02
-1.664865880302647885e-02
9.678630022668969698e-04
1.834979665679138672e-02
3.081994073358234817e-02
2.753857159824882328e-02
-1.808596800239943743e-03
-3.095775784449037935e-02
-2.014675875655133966e-02
1.443637764551699773e-02
2.421549778267296713e-02
4.538058952604225732e-03
-1.465273578306222277e-02
-1.564870332490812463e-02
8.044860485023879598e-04
1.615568699716939463e-02
8.411216781571131604e-03
-9.899597112345701749e-03
-7.922890615249204155e-03
6.450140890738653016e-03
4.367213791763238304e-03
-7.309474004392317072e-03
-5.345548393513810392e-03
8.034093062765104709e-03
1.801586962453733884e-02
1.458798116283524168e-02
-3.599748287553865105e-03
-1.931019212282216249e-02
-1.438134351577490325e-02
2.236125603601333243e-03
8.340648834912894882e-03
-2.623216080557507109e-03
-1.422251931033850780e-02
-4.494920165525603979e-03
2.057596712858124691e-02
2.906087239757398563e-02
1.196443824187438942e-02
-4.937958850220634452e-03
-6.387451388777671234e-03
-4.283614152152575953e-03
-8.768431661370670177e-03
-1.732222689401955937e-02
-2.152383221273522843e-02
-7.639992227442883067e-03
2.203086509069980894e-02
3.521906100813464863e-02
1.409083124302820678e-02
-1.317951298231087934e-02
-1.524119112683520669e-02
1.888265562547333451e-03
1.188051799334160705e-02
3.338038051967133490e-03
-8.590885118543976212e-03
-7.380781770034262369e-03
1.089180516485243385e-03
6.360058514913246620e-03
6.057612872658124994e-03
-3.004537178880415087e-03
-9.235202193889256728e-03
5.592219477497885685e-03
1.908297634318951649e-02
-1.664460756230707380e-03
-2.891396602583262004e-02
-1.713911969657026108e-02
1.687870113730471563e-02
2.863744317979130538e-02
1.326035166672285409e-02
-6.219011908244688643e-03
-1.313499402289515158e-02
-4.505725252320064503e-03
6.063237451843161811e-03
2.509058098155202057e-03
-6.982462362807334566e-03
-3.733712128192365719e-03
8.258245348952870935e-03
1.091239842623241418e-02
-5.106443576583514880e-04
-1.356911600700164491e-02
-1.185463848227215691e-02
6.282804492330563810e-03
1.958831104369539167e-02
9.466136629770912497e-03
-7.826058799683163758e-03
-4.574475640953278889e-03
7.334325702944673869e-03
-2.361144863801295166e-03
-2.121428931704702481e-02
-1.477077547099967664e-02
1.012375133997705373e-02
1.988737068184885312e-02
1.102947858227866160e-02
5.986972391524797085e-03
1.036097769634817048e-02
1.106488885063549449e-02
3.547925799193587561e-03
-6.191875597948708239e-03
-1.547727092676837515e-02
-2.372936730063961511e-02
-2.580179864324356337e-02
-1.476355664941070636e-02
7.650825415485565210e-03
2.322834159340432178e-02
1.726048235472875739e-02
8.516912056679148968e-03
1.889999226159529491e-02
2.256444274012025381e-02
-7.354873931318441256e-03
-3.269484292297814704e-02
-1.173341122627443237e-02
2.809143236970793739e-02
4.001208582709311901e-02
1.353842718025070543e-02
-3.297246652149186941e-02
-5.924368955363581296e-02
-3.511025948353591053e-02
9.549490863196404000e-03
1.965961844303187184e-02
-5.203670114469118729e-03
-1.680051449267385213e-02
8.704036294285108499e-03
4.533403315953345863e-02
5.732823787394621118e-02
3.158218464758395794e-02
-1.124869416318886178e-02
-1.809355964387001497e-02
2.417438928386764566e-02
3.032657002979967723e-02
-5.471400813772660243e-02
-1.313687619009314134e-01
-9.218811488847077074e-02
1.213729021801718613e-02
7.486463867983600418e-02
7.775321858235864636e-02
5.752692016320101048e-02
3.533782140289756096e-02
1.499056426421420396e-02
-9.177447637792882779e-03
-3.744314780478507493e-02
-4.581928838354296790e-02
-2.130601186311837855e-02
4.183109375910965509e-03
2.912572468280221448e-03
-7.212771332840936002e-03
-4.848646204096260584e-03
5.254853258376711821e-03
1.632078639456029101e-02
2.086066797345286286e-02
8.336621548443452767e-03
-4.654633632741668990e-03
3.296086925756339797e-03
7.879192935740790549e-03
-1.216855706850874380e-02
-2.278244390515563739e-02
-2.899327735090527665e-03
1.634946918877953209e-02
1.618949503083305305e-02
5.842850363690509259e-03
-1.109257687196319939e-02
-2.141512282340244863e-02
-5.884759107280346756e-03
1.778899942834566081e-02
1.740040601019474109e-02
-7.976370506743175187e-04
-1.139645145773140675e-02
-8.231699859935569241e-03
3.254754255788202578e-03
1.296994754421559870e-02
7.372671647234460383e-03
-5.758909561029393505e-03
-2.457549785030983640e-03
1.324669169799281426e-02
1.219794097624257029e-02
-1.121889684742555932e-02
-2.883737739265784458e-02
-1.692507507490034410e-02
1.145248486124834930e-02
2.062194247699677269e-02
3.062297313317677207e-03
-7.671700798990794580e-03
6.884050993578857275e-03
1.969509551653331539e-02
8.569613990384260943e-03
-8.496651891828247566e-03
-9.258209627934686770e-03
2.265436336262055539e-03
8.202418575893075797e-03
-4.130856389851383405e-03
-2.474408753212909914e-02
-2.471056868931487821e-02
2.623337977398657560e-03
2.768672300603340283e-02
2.604445122530439985e-02
7.617748265252557473e-03
-1.449364425667403096e-03
4.944057100033535240e-03
5.864960667909621499e-03
-1.015575696644252859e-02
-2.467678420041790818e-02
-1.940393935939139711e-02
-5.644807483388527072e-04
1.354404074729579840e-02
1.155078030060911060e-02
-3.164034533998973109e-04
-2.715529159669011032e-03
1.192312690566894526e-02
2.698086876599111242e-02
2.247673391882690566e-02
-8.169099093710482928e-04
-2.115545051909279925e-02
-2.206372194136784273e-02
-1.659590257561196699e-02
-2.317707952651731559e-02
-2.730401759398209602e-02
-7.160790127546566401e-03
2.510561763649824321e-02
4.616138856570044940e-02
4.876152675164636963e-02
3.149867577137135249e-02
3.894657622364474346e-03
-1.625791851948581515e-02
-3.222843045090652281e-02
-4.689920968024372666e-02
-3.482959668119507690e-02
3.312732935161741103e-03
2.368944279332011252e-02
1.715282443739172061e-02
1.373417363297795707e-02
1.155282890349304883e-02
-5.496704204822503402e-03
-1.672055324200892937e-02
-3.724299700419244664e-03
1.278934111611662594e-02
1.506639952395815926e-02
1.245235676051275470e-02
1.156095082897005619e-02
7.511389281849697487e-03
-1.864033241459526601e-03
-1.774743851266822464e-02
-3.427292669810072523e-02
-3.062578471132355526e-02
-3.392396395824360915e-03
1.393340858467603458e-02
3.715111037383793651e-03
-2.017615992041991470e-03
1.975764959984931124e-02
4.242078610774065173e-02
4.027617927807168596e-02
2.297163502819548134e-02
3.570996131681652454e-03
-1.433172883145187801e-02
-2.378989237203825782e-02
-3.013928576322507519e-02
-5.051403755640771626e-02
-7.286380052706534216e-02
-6.101135738442606260e-02
-1.310260561235032650e-02
3.255119272294839522e-02
5.423929610938853230e-02
6.834016332982045805e-02
9.366456447157253673e-02
1.250101291144509186e-01
1.359263183369437411e-01
9.508018755932649835e-02
3.462939271871415085e-03
-9.908013205412295743e-02
-1.958816523697342049e-01
-2.979046816787737084e-01
-3.605518555456809215e-01
-3.067198959608891107e-01
-1.354905164726821765e-01
9.725012567751364911e-02
3.397184446011636272e-01
