BVP Signal
7.946469124174994347e-02
1.714335404673529017e-01
2.414874998229357139e-01
2.730470000731536340e-01
2.570533637499234358e-01
1.939136567430860270e-01
9.357616091332808528e-02
-2.628500532494981723e-02
-1.436163067373981417e-01
-2.361957608616394033e-01
-2.858720926126153694e-01
-2.819957722118289767e-01
-2.233803663277704465e-01
-1.184541659446000095e-01
1.634060506083043207e-02
1.594800702414410909e-01
2.879793918280966758e-01
3.810264002690797458e-01
4.230742846463936835e-01
4.060283224783757250e-01
3.303382346122403779e-01
2.049373288816542515e-01
4.606329361489374524e-02
-1.249154360963731364e-01
-2.844383998788451162e-01
-4.101085770179206391e-01
-4.840071409604927988e-01
-4.954482099410829621e-01
-4.426824169003125697e-01
-3.332065765190815876e-01
-1.825964623207103898e-01
-1.208384588932269466e-02
1.546560652284506288e-01
2.949332423535578340e-01
3.901505301396533953e-01
4.281841448213029588e-01
4.047963206730270658e-01
3.239954573947528282e-01
1.973786404111758652e-01
4.256972661754303278e-02
-1.190783778804124504e-01
-2.652882795936328808e-01
-3.758617443940260872e-01
-4.354951880543679321e-01
-4.359810253934723878e-01
-3.774099468063767393e-01
-2.681264336059730469e-01
-1.234093835039329345e-01
3.689623419544767885e-02
1.913572222494724084e-01
3.199990578385647488e-01
4.069234395718193120e-01
4.421543026090163364e-01
4.225686023717586948e-01
3.519338213844057650e-01
2.401685295587568381e-01
1.019753631598516452e-01
-4.499603406523126903e-02
-1.822850329434586025e-01
-2.928574968420510904e-01
-3.632159214541759162e-01
-3.851280440276103612e-01
-3.567155666326503050e-01
-2.826899903813059334e-01
-1.736435974200672139e-01
-4.448758781330198336e-02
8.768833457541494458e-02
2.059566590491291038e-01
2.957206440378945533e-01
3.464260707386769833e-01
3.526497037459274120e-01
3.145100679114582465e-01
2.374345322831543093e-01
1.313720792092126222e-01
9.564112708569050270e-03
-1.130076539765741961e-01
-2.213650031164590692e-01
-3.023103010478446206e-01
-3.460458516650670169e-01
-3.474267028421660353e-01
-3.066528572440745393e-01
-2.292628328708930519e-01
-1.253887636095065150e-01
-8.364056477331507575e-03
1.070934647273373563e-01
2.068168807405928455e-01
2.789409649703346039e-01
3.152488424293419800e-01
3.120111522581670571e-01
2.703062427956641756e-01
1.958482070026874577e-01
9.834842883797872970e-02
-9.564935596514140270e-03
-1.138161803070134731e-01
-2.006243406546234231e-01
-2.583258963575263412e-01
-2.790212764250279420e-01
-2.597667916862804738e-01
-2.030786948310237261e-01
-1.166352286014608886e-01
-1.222661671979480974e-02
9.585127367089660289e-02
1.926919295415757682e-01
2.647009578906655003e-01
3.013320174651675787e-01
2.964669385655143152e-01
2.493037643603093767e-01
1.646464217045210954e-01
5.252849005803553184e-02
-7.284542553652964547e-02
-1.947904386736080962e-01
-2.963235236272355744e-01
-3.625837224561130334e-01
-3.831300843973511894e-01
-3.537047078198107264e-01
-2.770937214378437208e-01
-1.628720924454138685e-01
-2.604526878998937589e-02
1.151657047822222668e-01
2.419829165898085555e-01
3.377086706098141322e-01
3.899353410300999689e-01
3.920571947513015187e-01
3.439671913186949648e-01
2.519442678220318310e-01
1.278087220771267629e-01
-1.253821515379283102e-02
-1.510433728329622638e-01
-2.697163025390545976e-01
-3.529073141145450121e-01
-3.893874516069506520e-01
-3.739410879497079843e-01
-3.081927168513522997e-01
-2.004756285045918296e-01
-6.472047610253153782e-02
8.145366631338163410e-02
2.191101067618751452e-01
3.304464031049179074e-01
4.009987929570969500e-01
4.213676920912403645e-01
3.883261568164212973e-01
3.052410661613802478e-01
1.817799360678452603e-01
3.290838023361541964e-02
-1.227765949152215263e-01
-2.652665156576784478e-01
-3.757077076573642205e-01
-4.390000094611783421e-01
-4.460364479878001776e-01
-3.951881768111955018e-01
-2.927327445394218852e-01
-1.521048776254411983e-01
7.929552380285032065e-03
1.658787105972760745e-01
3.004917456844898860e-01
3.936476001708520966e-01
4.327853036363800143e-01
4.125970477629737343e-01
3.358056849744724959e-01
2.129282200650462475e-01
6.100427412787642889e-02
-9.862337587117264714e-02
-2.432413260854947024e-01
-3.520232959938186523e-01
-4.091235558581650666e-01
-4.061056775715986000e-01
-3.432920399986922888e-01
-2.297873606790941381e-01
-8.215601804732514113e-02
7.802458972477682719e-02
2.273195507019280803e-01
3.437999129559997091e-01
4.101411877908764936e-01
4.160767355223166097e-01
3.599240991944060442e-01
2.489867984785710253e-01
9.872983557893633133e-02
-6.923721822083296618e-02
-2.301643576436731009e-01
-3.597744011116382201e-01
-4.379704367626486294e-01
-4.520499867741494815e-01
-3.988573236445605019e-01
-2.854431023680099599e-01
-1.280596695583231803e-01
5.035040399861075155e-02
2.237136717063433755e-01
3.667934086948126948e-01
4.589034731091902186e-01
4.868179626504218760e-01
4.465129508688575055e-01
3.435797915929529878e-01
1.923305160417369264e-01
1.375890733235869690e-02
-1.673717067454270624e-01
-3.259568619321770999e-01
-4.400638105443924197e-01
-4.940465987635328515e-01
-4.807896337843644563e-01
-4.027059347223692631e-01
-2.713102550479778441e-01
-1.054366888025632942e-01
7.159092036133291037e-02
2.353616483194535536e-01
3.638175951868004576e-01
4.402347606082716025e-01
4.553620774846468544e-01
4.084899784699400627e-01
3.073751907456275800e-01
1.670766154414767002e-01
7.855085696604632850e-03
-1.476246961641328737e-01
-2.774635563515468473e-01
-3.636586702029769302e-01
-3.947371474137413849e-01
-3.674549538729313669e-01
-2.872379789180624088e-01
-1.672489197282862050e-01
-2.622768237805102320e-02
1.144987956066088608e-01
2.342907867591859372e-01
3.161985784432119750e-01
3.492542872932976605e-01
3.297926200147748288e-01
2.617158171608493511e-01
1.557512793856181965e-01
2.784336593547714900e-02
-1.031073765743222292e-01
-2.178840814473211318e-01
-2.996542328873025296e-01
-3.363895395110266806e-01
-3.226660027275885523e-01
-2.605460579367844254e-01
-1.593482027490741859e-01
-3.428754382817751634e-02
9.581205380112534087e-02
2.113531463194532334e-01
2.948854498140076053e-01
3.336752422116364136e-01
3.215771731751738138e-01
2.599751590949450075e-01
1.576738942840167912e-01
2.973983188173551229e-02
-1.045858291617816627e-01
-2.246557275286038824e-01
-3.115099119249206128e-01
-3.508548500028467743e-01
-3.354497502795477093e-01
-2.664589246339901241e-01
-1.534725356684837061e-01
-1.314100746450824753e-02
1.333554371520390414e-01
2.635618591624721008e-01
3.571841477560936950e-01
3.991723988588397609e-01
3.820122596546233207e-01
3.069215855976108465e-01
1.838043559967212082e-01
2.996640555099810976e-02
-1.322614359464856781e-01
-2.787143694991515708e-01
-3.869913657803068507e-01
-4.399432548041456448e-01
-4.284875380252965993e-01
-3.532436358861115178e-01
-2.246576816478473293e-01
-6.154941847502371638e-02
1.116996706041819276e-01
2.688605403526488913e-01
3.858766081402478232e-01
4.445633614133887579e-01
4.354309673471523645e-01
3.592186291854801983e-01
2.269175994018003129e-01
5.826077456454295533e-02
-1.211438420813078787e-01
-2.836649390310576058e-01
-4.039393647551835498e-01
-4.629359221503407396e-01
-4.511014169152990361e-01
-3.700094122506082384e-01
-2.321766865667392876e-01
-5.904902381331088301e-02
1.224910758596040594e-01
2.844663754873292261e-01
4.022359428867585129e-01
4.582877247335753190e-01
4.448316848570470494e-01
3.648643802064135411e-01
2.316073640276687939e-01
6.642527570945302995e-02
-1.044868824357333137e-01
-2.541865425751957952e-01
-3.592378897137116223e-01
-4.034737792137785273e-01
-3.806379599676898984e-01
-2.954284134261960793e-01
-1.627158279743747826e-01
-5.040208726801373440e-03
1.511756494090538416e-01
2.800123603493657742e-01
3.602766415082316875e-01
3.788838412303422443e-01
3.329119234484918533e-01
2.300558186481362344e-01
8.742413636626439333e-02
-7.116708620667765162e-02
-2.190318959766796858e-01
-3.310125748848486982e-01
-3.877339065342617630e-01
-3.789848006740840214e-01
-3.056047016904109292e-01
-1.794858105382728386e-01
-2.163839017777888230e-02
1.413553291895145170e-01
2.818515843346354743e-01
3.758034672632018514e-01
4.067689404810528320e-01
3.686353610791396340e-01
2.666650677120231405e-01
1.167215553788455151e-01
-5.721027686976595805e-02
-2.268498150323909890e-01
-3.642157859816531063e-01
-4.462645649160900674e-01
-4.587966585390035879e-01
-3.989311200772003296e-01
-2.756615295662394050e-01
-1.083523043572186956e-01
7.655182054745925113e-02
2.499655531428764954e-01
3.849163936434177868e-01
4.607896029750886968e-01
4.664218461715013975e-01
4.016522215788983496e-01
2.771884251095736440e-01
1.128643842113753459e-01
-6.544343009079595097e-02
-2.298082218664268539e-01
-3.545898353650393520e-01
-4.204729850185244255e-01
-4.175579089093945373e-01
-3.469541340820326836e-01
-2.205559209461054326e-01
-5.901511547049217987e-02
1.117109658825948815e-01
2.645897861882221536e-01
3.757760477052364823e-01
4.282266241602976642e-01
4.141580601903773196e-01
3.360466567263118431e-01
2.060857498843097491e-01
4.421980141970997813e-02
-1.249420501068101708e-01
-2.758853373196757941e-01
-3.860796653858923899e-01
-4.394170323579826287e-01
-4.286510540903974986e-01
-3.564169776381956312e-01
-2.346440553145486274e-01
-8.247255300692682423e-02
7.692358970066201507e-02
2.200192432283633037e-01
3.264932977214129450e-01
3.821094954912086505e-01
3.805409595700829928e-01
3.239549409568664440e-01
2.223698906304476530e-01
9.195890163533329553e-02
-4.741770376952691990e-02
-1.751090786077720285e-01
-2.726293314645761856e-01
-3.262894492414372127e-01
-3.291392062262371576e-01
-2.819194845863033372e-01
-1.928556860309308951e-01
-7.630468578940223512e-02
4.953291652248967281e-02
1.654538083901826440e-01
2.541713687433125868e-01
3.028477061396573355e-01
3.048742750761926912e-01
2.606893026810566116e-01
1.775740015403579897e-01
6.849628893313416955e-02
-4.982817888329249545e-02
-1.593991307780479871e-01
-2.435857056141477739e-01
-2.895979840734095312e-01
-2.904146936657561184e-01
-2.458702138566371542e-01
-1.627143777759336718e-01
-5.361112536076023671e-02
6.477794348760022858e-02
1.743131505464179387e-01
2.580896695078706560e-01
3.029328005243415722e-01
3.013402875838792072e-01
2.526393553883086174e-01
1.632191216331639882e-01
4.578241559080341305e-02
-8.234130921220217392e-02
-2.016555997752870200e-01
-2.934263034559936867e-01
-3.426601199533045317e-01
-3.406443319379067747e-01
-2.865724884272601303e-01
-1.879002992210154210e-01
-5.930147637819395412e-02
7.962326740038883077e-02
2.074739102693305137e-01
3.044537017925534883e-01
3.554704024790375505e-01
3.524592407027526964e-01
2.956103652631970613e-01
1.933569517737000476e-01
6.114571464666679335e-02
-8.083563901463229617e-02
-2.106660684840836462e-01
-3.080227020007176297e-01
-3.573588173171374782e-01
-3.504307246942079401e-01
-2.877254560436749431e-01
-1.784905142583737281e-01
-3.931529581682233210e-02
1.084975512894790217e-01
2.422970991352672021e-01
3.415990103357581797e-01
3.911826570327253116e-01
3.833164106431639628e-01
3.188218058936219124e-01
2.068713675082727299e-01
6.359310081452519692e-02
-9.029603416372611324e-02
-2.324979660479225552e-01
-3.423835683316217016e-01
-4.040442795742351101e-01
-4.086962765960523436e-01
-3.560398289314122833e-01
-2.543148984120524592e-01
-1.190142694750987162e-01
2.953275896908208464e-02
1.692859256606535079e-01
2.798065327089032106e-01
3.452499408166390116e-01
3.566301971132354587e-01
3.130838679923629297e-01
2.219957032975935218e-01
9.797165705526209023e-02
-3.923894366539698586e-02
-1.676455760507713777e-01
-2.663795686251940742e-01
-3.190301186393866839e-01
-3.164015555316168071e-01
-2.581817138642654719e-01
-1.531739313762073285e-01
-1.800392152567804188e-02
1.254945971975127972e-01
2.537640365912870455e-01
3.452851714146149553e-01
3.840135259007291246e-01
3.619788895753834335e-01
2.806872176982063150e-01
1.511266570477612092e-01
-7.662053036759736147e-03
-1.713207755491522599e-01
-3.138884976506257640e-01
-4.119669341150897779e-01
-4.486597685423090454e-01
-4.165760622758744036e-01
-3.193092470701265340e-01
-1.710677597404698380e-01
5.512466025277482085e-03
1.829876562173238519e-01
3.335088270455041637e-01
4.332496635258165640e-01
4.661520433163195976e-01
4.264435017318410903e-01
3.195911192877954887e-01
1.615716951946454816e-01
-2.345198535631592973e-02
-2.067521317359251043e-01
-3.594629122660727982e-01
-4.571654865924547617e-01
-4.838997389343408506e-01
-4.348989415264027381e-01
-3.175111611102556797e-01
-1.500784269916886071e-01
4.105932802293471573e-02
2.258868632976478996e-01
3.755645249122255835e-01
4.669611663545469304e-01
4.861588969498680246e-01
4.304573955238567562e-01
3.086609023087975023e-01
1.396636395899027161e-01
-5.044215440050402177e-02
-2.323253148739375107e-01
-3.778827920358480696e-01
-4.645667406571457603e-01
-4.789128573066743222e-01
-4.186917859819422327e-01
-2.932917659349486006e-01
-1.222311313353372508e-01
6.795466842901845550e-02
2.479028064629434924e-01
3.899738566103437276e-01
4.724462440652345552e-01
4.827541003398716501e-01
4.193376844521395919e-01
2.918643745795790889e-01
1.197857267134738030e-01
-7.058205757023566784e-02
-2.500554784596729085e-01
-3.910895209024926045e-01
-4.721136770753152634e-01
-4.809921183296735903e-01
-4.169860728765653057e-01
-2.908230428578437721e-01
-1.228333992452840945e-01
6.048715770127812558e-02
2.308222643242164862e-01
3.624962308567815095e-01
4.363272652633832793e-01
4.423347874446582617e-01
3.809929279733956786e-01
2.629442996883968320e-01
1.072786983354135498e-01
-6.136700022536129701e-02
-2.165127206855388953e-01
-3.338666711370937290e-01
-3.951226075213061240e-01
-3.909230768719228477e-01
-3.224514762794747913e-01
-2.013108797282249507e-01
-4.765313057248131423e-02
1.131379553088946166e-01
2.546262823259465291e-01
3.536363260054248281e-01
3.939765252234450621e-01
3.689891073901978569e-01
2.825638204333165149e-01
1.485012912026734133e-01
-1.165737768353680703e-02
-1.720205695575234006e-01
-3.064732667120613763e-01
-3.929247030097817173e-01
-4.169900790670660884e-01
-3.744576130694347582e-01
-2.720649051805242302e-01
-1.264043247592955277e-01
3.886322173576876871e-02
1.969756826357485502e-01
3.224949780075491712e-01
3.954195827392559814e-01
4.043244116198870808e-01
3.480803430349790895e-01
2.359512154180153920e-01
8.609536213963236984e-02
-7.730084532017536536e-02
-2.278507085577460844e-01
-3.411944775574546340e-01
-3.989623215635005882e-01
-3.918024558246257505e-01
-3.209258758413154333e-01
-1.978701314098810782e-01
-4.251946883812449118e-02
1.202448475879900058e-01
2.646412146975340995e-01
3.681063982959417169e-01
4.147654347457578883e-01
3.977541326644864483e-01
3.201197920512184325e-01
1.942399920734723118e-01
3.987649308883034482e-02
-1.188677763401215226e-01
-2.572789559188590203e-01
-3.539170500847370060e-01
-3.940537724855609492e-01
-3.720825073088469548e-01
-2.924477526393794991e-01
-1.688774549864743291e-01
-2.201867997654782805e-02
1.240947767103659505e-01
2.460756670097605792e-01
3.249794592673304061e-01
3.492289269941383223e-01
3.162483868370338791e-01
2.326337101683093600e-01
1.129039497584090612e-01
-2.293714686331732588e-02
-1.526501741765568521e-01
-2.553257030720696985e-01
-3.147178428858580790e-01
-3.218220638275651191e-01
-2.762791205827189178e-01
-1.863604837207593068e-01
-6.751817533998331899e-02
6.026219995829151105e-02
1.758369671337073892e-01
2.604074368585074239e-01
3.005536912346047917e-01
2.903252754044950423e-01
2.320997067504465827e-01
1.361137306298091654e-01
1.875414295760638450e-02
-1.001350762884201939e-01
-2.005211384317945322e-01
-2.655107275689978508e-01
-2.841894245792989659e-01
-2.534815731442155995e-01
-1.786891005356874840e-01
-7.259281214086510392e-02
4.673482125300017220e-02
1.590094351480618173e-01
2.451505813523785771e-01
2.904438786939777528e-01
2.869428742208260941e-01
2.347558944492821875e-01
1.420412483632666756e-01
2.371932594872889002e-02
-1.009072280316282710e-01
-2.112703458641319587e-01
-2.889129805295214681e-01
-3.205862206515334711e-01
-3.005409792298207039e-01
-2.315873518020985511e-01
-1.246891349745358202e-01
2.865495685513436835e-03
1.303856879531508084e-01
2.372436791647110910e-01
3.062588878049052887e-01
3.264385867803986097e-01
2.946685046341367409e-01
2.161359492053088194e-01
1.034593240008433029e-01
-2.532245326175609074e-02
-1.495925986020569809e-01
-2.494084101481932048e-01
-3.086742725279970068e-01
-3.177389665871364066e-01
-2.749816916036446068e-01
-1.870953035283548505e-01
-6.799792193835557663e-02
6.343606025729671416e-02
1.864110484998894590e-01
2.814781116140792627e-01
3.335091909643995156e-01
3.339501314939455345e-01
2.820637529807336619e-01
1.850223917161480935e-01
5.686050401362159612e-02
-8.355712172458404363e-02
-2.152757661600337713e-01
-3.183373398271697741e-01
-3.767917976343819753e-01
-3.811837006106014725e-01
-3.300941927804212916e-01
-2.304411615023324589e-01
-9.645545893835746898e-02
5.249427627273026142e-02
1.948426605997790606e-01
3.100378551510820091e-01
3.815248174120892122e-01
3.990875252081036439e-01
3.602619278123585511e-01
2.706687597584095939e-01
1.432430655320144075e-01
-3.550243537754970563e-03
-1.483179097629954979e-01
-2.698457442356537173e-01
-3.502882166800708186e-01
-3.779425372411328032e-01
-3.491221439385163716e-01
-2.687707465383000205e-01
-1.496819542311466356e-01
-1.045501948348851254e-02
1.274476093094652762e-01
2.430296956294003552e-01
3.189372139247123039e-01
3.440148889279605049e-01
3.149115768620656675e-01
2.365501263470502491e-01
1.214136094794534548e-01
-1.227174724550490759e-02
-1.432430610657877135e-01
-2.504447350947482387e-01
-3.163406396368351192e-01
-3.297688941494161252e-01
-2.878480334123982298e-01
-1.965754094989750622e-01
-6.997460965354426743e-02
7.208691084617760425e-02
2.070366584584347192e-01
3.131486511310012100e-01
3.729191758972477677e-01
3.757550178843001021e-01
3.196140545129653177e-01
2.114062668053932614e-01
6.611468796235758782e-02
-9.526612960066788149e-02
-2.487354047511472765e-01
-3.708526562705768415e-01
-4.423615822409185938e-01
-4.513047378542007770e-01
-3.950899487593596549e-01
-2.811041180233654346e-01
-1.257066652213613134e-01
4.826470655272840221e-02
2.150514289493051512e-01
3.499719474285690746e-01
4.331871259825484932e-01
4.526510283151178871e-01
4.058401262866502268e-01
3.000539632828008729e-01
1.512769163567805886e-01
-1.822107739719176778e-02
-1.831972886991128369e-01
-3.191862458880491693e-01
-4.061422527946624839e-01
-4.314282493702425447e-01
-3.916767671497519143e-01
-2.932054706728784987e-01
-1.509113923967479454e-01
1.414571851214692366e-02
1.780119198386481139e-01
3.173729562955850403e-01
4.127915946362178401e-01
4.512247920986856564e-01
4.275736924249715631e-01
3.451732988539826241e-01
2.152398236895797234e-01
5.537253933450529686e-02
-1.127297017333420970e-01
-2.661145333688603176e-01
-3.836864273993038088e-01
-4.491946025068569992e-01
-4.536445947905370368e-01
-3.966938606370702392e-01
-2.867300685485182354e-01
-1.395773681992456550e-01
2.394270057060432499e-02
1.811447886409653651e-01
3.107538275110165449e-01
3.957968929666856317e-01
4.257241680724501709e-01
3.975515212945897603e-01
3.159885312220267473e-01
1.926388269964771360e-01
4.442659600633984407e-02
-1.085663956523830742e-01
-2.456450761581496778e-01
-3.481803813732723962e-01
-4.021263946631536967e-01
-4.000388307827425494e-01
-3.422646207554758679e-01
-2.370492618909498805e-01
-9.946263187448006748e-02
5.074514135338609178e-02
1.920317765279671018e-01
3.042220700574856940e-01
3.714336841559859881e-01
3.843410993380182439e-01
3.414833466226244729e-01
2.494629629157494310e-01
1.220156582867060191e-01
-2.193786523396823451e-02
-1.610091503841978300e-01
-2.744571602673623323e-01
-3.452567447029013525e-01
-3.626686555009781543e-01
-3.239135030648630509e-01
-2.346615571286072288e-01
-1.082210856467875071e-01
3.646731822190524275e-02
1.776956442744279108e-01
2.942268965094417821e-01
3.683946238877220392e-01
3.886299430476374273e-01
3.511081568664141117e-01
2.603341151661266450e-01
1.286039924608334273e-01
-2.560108501959121319e-02
-1.801155485392705313e-01
-3.121971087016296442e-01
-4.018539342583153928e-01
-4.349247569996129159e-01
-4.054146615956223942e-01
-3.166473051196442290e-01
-1.809673709304847611e-01
-1.799095037678383191e-02
1.483201831988409936e-01
2.932758289210005698e-01
3.951864881189585121e-01
4.386391321665890630e-01
4.168494518176313335e-01
3.327643507902638964e-01
1.987557621856917422e-01
3.492080731052410458e-02
-1.338235494016641325e-01
-2.814911291123542991e-01
-3.850977077804920712e-01
-4.284036549656068948e-01
-4.046540306536326459e-01
-3.177687590346503499e-01
-1.817152167455437783e-01
-1.816335592288108314e-02
1.471266117067078771e-01
2.885004174139403910e-01
3.844411514221212078e-01
4.207849813372874226e-01
3.926796111097523578e-01
3.050907288926499872e-01
1.718799201710712876e-01
1.363887019800912731e-02
-1.454166951610179337e-01
-2.810864506921995631e-01
-3.728590997940219309e-01
-4.070696279459440903e-01
-3.790208174483397086e-01
-2.936865079611059026e-01
-1.648472513420577434e-01
-1.279771319158231474e-02
1.389584461597297982e-01
2.674261116659577553e-01
3.536112909069673016e-01
3.852565397116299861e-01
3.584736586905750699e-01
2.781222300158950889e-01
1.569441481529361693e-01
1.359732774751964274e-02
-1.301449283314777272e-01
-2.526489086110120796e-01
-3.356695936719094608e-01
-3.671124957430368374e-01
-3.428755816439621462e-01
-2.674564878807416113e-01
-1.531944268710066781e-01
-1.825283878748664573e-02
1.163088566701521581e-01
2.298548787514433644e-01
3.053254799171051248e-01
3.317530455264037781e-01
3.058265440063970830e-01
2.323377355254016563e-01
1.234636142335082953e-01
-3.044643370760568603e-03
-1.265603953890077071e-01
-2.268139297007579214e-01
-2.871794797853557957e-01
-2.974752492885864852e-01
-2.557642223776184220e-01
-1.687827666465480658e-01
-5.086897598074928417e-02
7.843318049237665845e-02
1.976429950988752571e-01
2.868774277239085624e-01
3.310389615124545437e-01
3.221643873975873484e-01
2.606221782587477831e-01
1.550347941795936213e-01
2.097453301631251044e-02
-1.213685892752773277e-01
-2.502238084104142501e-01
-3.455633681688219383e-01
-3.922344421149823734e-01
-3.824063771997121552e-01
-3.168995871808567011e-01
-2.051229059887881567e-01
-6.360034755402445283e-02
8.664887075540826655e-02
2.233958208861260009e-01
3.265842734588819685e-01
3.812836898379102779e-01
3.798105415107374538e-01
3.227688985213469364e-01
2.189128605097882541e-01
8.387299013866718334e-02
-6.208661034510039312e-02
-1.970040181596939832e-01
-3.004724015241744262e-01
-3.567520995188245836e-01
-3.572469396577068745e-01
-3.019008251075589455e-01
-1.992331959083893655e-01
-6.498354575205406158e-02
8.039241927538785804e-02
2.149207739996580602e-01
3.184501061527132970e-01
3.756068463705126148e-01
3.779508760715100113e-01
3.250779624334523277e-01
2.245809597091755760e-01
9.092115673899484052e-02
-5.663156746561574806e-02
-1.967396983985164050e-01
-3.090792805194346737e-01
-3.773401347333491529e-01
-3.916880544411966425e-01
-3.502755604259315536e-01
-2.595235641526111858e-01
-1.331062308798170446e-01
1.018989501999155098e-02
1.493549541537572689e-01
2.642971224881969228e-01
3.387366083613010392e-01
3.624481254109286343e-01
3.325938200050444493e-01
2.540316143585463760e-01
1.385961100877252661e-01
3.439873805660048633e-03
-1.313830936480784028e-01
-2.458041871684149560e-01
-3.227116634923669625e-01
-3.505640668196285392e-01
-3.252152866738967640e-01
-2.506155700759267191e-01
-1.382270788727264499e-01
-5.224795166541340574e-03
1.282070275794787162e-01
2.419999926642745214e-01
3.192172963467765356e-01
3.485050559428987116e-01
3.256686633918602358e-01
2.542143963249522409e-01
1.448254487860713702e-01
1.385230994064995391e-02
-1.189998850578523615e-01
-2.335087542656268389e-01
-3.119359126428640216e-01
-3.417713498464006738e-01
-3.177826529685399137e-01
-2.429864856574713572e-01
-1.283137785392201025e-01
9.019166353325280827e-03
1.481576252857289000e-01
2.678011066737124302e-01
3.494026569367831847e-01
3.798937599013511579e-01
3.535808084045278243e-01
2.729996144962167914e-01
1.486443914771011510e-01
-2.392336503495295918e-03
-1.587173093606981944e-01
-2.976091313636507474e-01
-3.983004625089341388e-01
-4.451198451833578984e-01
-4.300019775899289742e-01
-3.539156826686948865e-01
-2.269100552425457051e-01
-6.672663301021547477e-02
1.037999823520739801e-01
2.601164318330743130e-01
3.795612319110140409e-01
4.446781503312841610e-01
4.457748885564055685e-01
3.823867961832805307e-01
2.634487018493630872e-01
1.061364822312098333e-01
-6.649902221064181440e-02
-2.288279854947024572e-01
-3.564433787247098806e-01
-4.299192189920662543e-01
-4.379095360278589810e-01
-3.790189347159450550e-01
-2.620665195960369953e-01
-1.046716223495205988e-01
6.957315971547593791e-02
2.348091269352333699e-01
3.668379483025208110e-01
4.466309350993646343e-01
4.629276715987236668e-01
4.136318110013505467e-01
3.059115097101661740e-01
1.550724861447316250e-01
-1.761450237927423418e-02
-1.878657837963769728e-01
-3.317717857249252722e-01
-4.291953539253136052e-01
-4.667036298836125807e-01
-4.395652203821884263e-01
-3.524458382280075686e-01
-2.186349390344685395e-01
-5.790834268296618514e-02
1.065880818138844333e-01
2.518536686382326084e-01
3.583286291419198744e-01
4.124709861555665991e-01
4.083236191408182725e-01
3.479861645679895310e-01
2.410536058329993403e-01
1.031679513790825509e-01
-4.612105972760333072e-02
-1.859502514188707267e-01
-2.969175600855345487e-01
-3.637267041948878399e-01
-3.773648413577990746e-01
-3.364744621304988637e-01
-2.476406649079399003e-01
-1.244667948039919342e-01
1.446249057729592086e-02
1.484038948772020139e-01
2.575887589286459112e-01
3.261605337818667683e-01
3.444795296419878583e-01
3.104856117819816408e-01
2.299572594376258772e-01
1.156519665653381324e-01
-1.455161744284984987e-02
-1.402713745999882855e-01
-2.416641300129888092e-01
-3.024838481941056201e-01
-3.127019191308163526e-01
-2.702428667144649577e-01
-1.814828117826963461e-01
-6.035652749208880730e-02
7.381180666742820362e-02
1.993813035316635285e-01
2.958346971818407445e-01
3.470169948957761985e-01
3.436778205409847797e-01
2.849588876385354963e-01
1.786273244023010576e-01
4.001972488912244885e-02
-1.101759504755926433e-01
-2.490173401795503505e-01
-3.548574504468361424e-01
-4.108105822399228391e-01
-4.075544848905357509e-01
-3.449530305165301458e-01
-2.321729270128229383e-01
-8.625053368916149599e-02
7.063635938526113822e-02
2.147047711308704421e-01
3.243062890443910717e-01
3.832676511379902173e-01
3.833284382648320943e-01
3.253358495897903380e-01
2.190498056950277439e-01
8.160444221848182911e-02
-6.515195235007376073e-02
-1.980617285219285206e-01
-2.963044907411872542e-01
-3.447088934277989791e-01
-3.361662519186962572e-01
-2.727080801510727848e-01
-1.650425071665646282e-01
-3.064074973769089633e-02
1.092497638454900249e-01
2.330920751908358013e-01
3.224139297833455431e-01
3.644803757858184889e-01
3.539199284159597614e-01
2.931610362875053388e-01
1.917348254766855220e-01
6.464365815416139860e-02
-6.991974078465229558e-02
-1.931747744851292636e-01
-2.883345253612890624e-01
-3.428384816757249487e-01
-3.499598629031953623e-01
-3.095970367728626549e-01
-2.281679775764530738e-01
-1.176458405709379651e-01
6.115463588442393572e-03
1.255367903978127364e-01
2.236840116902601983e-01
2.865810475655058420e-01
3.051990075012422365e-01
2.768621229722841859e-01
2.058337324070330376e-01
1.029099995232586051e-01
-1.602425821524988692e-02
-1.323413855602536549e-01
-2.275877498513028674e-01
-2.864942645511536767e-01
-2.995480294125646425e-01
-2.646419750558813289e-01
-1.874688572161222200e-01
-8.056140947665252350e-02
3.884011628839760533e-02
1.516690425060749359e-01
2.401151081164661916e-01
2.903871654833204419e-01
2.947625588654046447e-01
2.526877242124329070e-01
1.708310660634176914e-01
6.209895862133346656e-02
-5.627102599380749692e-02
-1.653135088659975771e-01
-2.472942937182298628e-01
-2.885895365588455053e-01
-2.820062075463384832e-01
-2.281049651179735960e-01
-1.352332329922189269e-01
-1.821811191658134418e-02
1.040558312472604635e-01
2.117385541469322674e-01
2.872295698188451207e-01
3.179908831593716290e-01
2.985362216333815599e-01
2.313172340058343712e-01
1.263872397462117991e-01
-1.087215865406554460e-04
-1.284061148471502545e-01
-2.382036648757953068e-01
-3.119000852957160008e-01
-3.374728174072054721e-01
-3.105034090941543590e-01
-2.349677052173722303e-01
-1.226231317837904455e-01
8.901687854019055268e-03
1.389587763338218651e-01
2.471633280465824478e-01
3.165629161723539919e-01
3.362151531471055943e-01
3.028218138713566487e-01
2.212198215478520247e-01
1.036828215755734861e-01
-3.187132015091732884e-02
-1.645410750010521950e-01
-2.736198347519570029e-01
-3.418341943161642416e-01
-3.581221069743338314e-01
-3.194588739619305673e-01
-2.313827044155959411e-01
-1.071145764064732608e-01
3.455631213485757525e-02
1.722250682596389582e-01
2.851490112264624122e-01
3.563369336731551651e-01
3.750175286801152308e-01
3.381799984305263185e-01
2.510159618643583723e-01
1.262193648862459106e-01
-1.778224177474337434e-02
-1.594740068405146594e-01
-2.774570279771429449e-01
-3.537588050028902531e-01
-3.767166104117197767e-01
-3.429129902268716612e-01
-2.577793643258981526e-01
-1.347229561445859314e-01
7.081600268064119907e-03
1.458317134794493153e-01
2.605891280326848580e-01
3.345062574661669119e-01
3.572678560626738609e-01
3.264291653789550551e-01
2.475538908525837800e-01
1.332304126567279423e-01
1.153056022085659216e-03
-1.284755255791216189e-01
-2.359024306275006033e-01
-3.047650698547215153e-01
-3.246012920104853205e-01
-2.925327487246918157e-01
-2.138110911627406630e-01
-1.010765151442197529e-01
2.760164312742842407e-02
1.515949336146828197e-01
2.510036625036653479e-01
3.098001344899706799e-01
3.183258875778420816e-01
2.747900572085217874e-01
1.855863494986208784e-01
6.439932456699302976e-02
-6.979121684349459676e-02
-1.955611296797689358e-01
-2.923676677491424680e-01
-3.438651127851559131e-01
-3.406797565917280002e-01
-2.821494242498698846e-01
-1.766651988595035472e-01
-4.048366197877931866e-02
1.048282216535351835e-01
2.358754263114880567e-01
3.312302848980412939e-01
3.749007100285925431e-01
3.589297164103051330e-01
2.847494156761212203e-01
1.630971558278072608e-01
1.249203374260411670e-02
-1.435353828450677549e-01
-2.800823756916097640e-01
-3.748538524549636652e-01
-4.118609098430314752e-01
-3.842048013435406251e-01
-2.954113034510265079e-01
-1.590081823271209116e-01
3.629016306090540600e-03
1.667842982813851349e-01
3.046182657827131712e-01
3.953483907630116478e-01
4.247060183985766901e-01
3.881515938239705754e-01
2.915434249921770027e-01
1.501821111651717167e-01
-1.361784097317009570e-02
-1.740618929387972025e-01
-3.059749380792925466e-01
-3.888248839682109659e-01
-4.100147876229904842e-01
-3.668739846292232154e-01
-2.669779146137827297e-01
-1.267313702404355702e-01
3.149929062005259184e-02
1.831297594297565112e-01
3.052689003423165182e-01
3.801368003175253363e-01
3.975057280816172156e-01
3.559025901840975892e-01
2.625172134554368819e-01
1.319242927526603215e-01
-1.615429409691413604e-02
-1.597405779378616719e-01
-2.777858612649071191e-01
-3.532493232714913334e-01
-3.756398045720191203e-01
-3.426067943050700171e-01
-2.602713795841601896e-01
-1.421947437125463676e-01
-7.147077694361350479e-03
1.239218547164231687e-01
2.311750923612961583e-01
2.989033790555019054e-01
3.178168607301217197e-01
2.863137914722255761e-01
2.105881124867116372e-01
1.035951669378117612e-01
-1.696567453836930750e-02
-1.313775852300096414e-01
-2.209741920965239137e-01
-2.711078916019281637e-01
-2.735461143238470116e-01
-2.278699604582201110e-01
-1.415971457266887168e-01
-2.898008980288673681e-02
9.131802303795365228e-02
1.992604983375083627e-01
2.766675412794790123e-01
3.101158150207505293e-01
2.930708043626512049e-01
2.269609018258072486e-01
1.210642318099682535e-01
-8.773062354908843508e-03
-1.424402206732696963e-01
-2.586142254815634867e-01
-3.381542907571378209e-01
-3.673136765343256727e-01
-3.401968252073532817e-01
-2.599647292185207625e-01
-1.385009035570660130e-01
5.446848158184643129e-03
1.493198054268455865e-01
2.704331908610391744e-01
3.496340044758510790e-01
3.743254913822114394e-01
3.404107331414688575e-01
2.529128087967724148e-01
1.252283351492020635e-01
-2.286060195791682348e-02
-1.681510518434435053e-01
-2.875683280971523814e-01
-3.617957231410113272e-01
-3.784163583838165978e-01
-3.340253961794458215e-01
-2.349117556817052477e-01
-9.614950063352740994e-02
6.076836329891802113e-02
2.113463916459750735e-01
3.319594262703804977e-01
4.035333355387139553e-01
4.144641763058917183e-01
3.623724517336953665e-01
2.544806788032729084e-01
1.065801803046264734e-01
-5.928238831224352801e-02
-2.181013895587040619e-01
-3.457324815130553564e-01
-4.226596420357997541e-01
-4.370994850085666572e-01
-3.869093153319810852e-01
-2.799479250055865731e-01
-1.328051017508337650e-01
3.188161911374315372e-02
1.890404608887095994e-01
3.150744556534176843e-01
3.914262260827127138e-01
4.072799151228729819e-01
3.610662136550464307e-01
2.606198345040831033e-01
1.219944966661545144e-01
-3.291824181683017381e-02
-1.796750550889776310e-01
-2.950390171757066859e-01
-3.606677110642000916e-01
-3.661442379688151783e-01
-3.108107239104543895e-01
-2.040212060286754059e-01
-6.369625507066313530e-02
8.661095707305886682e-02
2.216293673497832240e-01
3.185809448738008420e-01
3.609824963037676637e-01
3.414347028086021085e-01
2.629626753463139566e-01
1.386748644728834357e-01
-1.025997363673181867e-02
-1.580603477409316948e-01
-2.786925954804481131e-01
-3.504321401442137551e-01
-3.598187836049401289e-01
-3.042495272558858876e-01
-1.926628110577544017e-01
-4.412180902405635902e-02
1.154684404717839508e-01
2.578927066522784251e-01
3.575614665774254908e-01
3.959765965621844797e-01
3.649838784627094102e-01
2.682940086600996699e-01
1.210231381951773905e-01
-5.270052867273296304e-02
-2.237132006211162705e-01
-3.627502343896028547e-01
-4.455216661171648718e-01
-4.570402130796446527e-01
-3.943913672574871354e-01
-2.673782200257105446e-01
-9.686766411978353641e-02
8.886542625078898416e-02
2.590836178842306214e-01
3.858727921548954498e-01
4.488132405984895934e-01
4.382674843797775277e-01
3.568102908902889281e-01
2.186480430767619720e-01
4.717703563298228375e-02
-1.289075840656366545e-01
-2.803351916611727668e-01
-3.820717173163693525e-01
-4.174475916487658256e-01
-3.809083437841815911e-01
-2.788923599948368581e-01
-1.286561511349487985e-01
4.474218245500641289e-02
2.127263468118328338e-01
3.479519612369091908e-01
4.286938977825561214e-01
4.421821132348766059e-01
3.864318030812854410e-01
2.703698508876156148e-01
1.123008671720169271e-01
-6.302689005077016793e-02
-2.283128350067545886e-01
-3.579800079852426542e-01
-4.321987503898693239e-01
-4.400272693078414732e-01
-3.811313502622464267e-01
-2.657530185583333870e-01
-1.129148888939198181e-01
5.280105470421389557e-02
2.052900810724491154e-01
3.210584202256687170e-01
3.827930852991817678e-01
3.818690942044598580e-01
3.194931777377428284e-01
2.063771235570047435e-01
6.101588809109075029e-02
-9.318447810565988476e-02
-2.315345059778574077e-01
-3.319351071830028976e-01
-3.784207600300172336e-01
-3.637926716006215089e-01
-2.908529311190119482e-01
-1.719578430372729339e-01
-2.691596345337776697e-02
1.204076446632927622e-01
2.461537439821439854e-01
3.304524665518865922e-01
3.606321933273283209e-01
3.331392090141924722e-01
2.539054379911437898e-01
1.371680802625338536e-01
2.984886460845709646e-03
-1.261274657386688980e-01
-2.288929946884754874e-01
-2.887365713534374434e-01
-2.964575932502535593e-01
-2.516753811677741037e-01
-1.627930453051615045e-01
-4.548410252094117062e-02
8.001918169262964287e-02
1.923379802797255678e-01
2.724569634978752930e-01
3.067536023489292329e-01
2.890938739196024510e-01
2.217221872821271700e-01
1.148652684776312327e-01
-1.485661549793881875e-02
-1.469755844513348231e-01
-2.603319288421003797e-01
-3.364044418842225825e-01
-3.623198466426089670e-01
-3.330401471201032138e-01
-2.523148808097844253e-01
-1.321843708993597488e-01
8.907126314167242154e-03
1.490632075451166771e-01
2.664405459534547882e-01
3.427206777360315426e-01
3.659921781868050727e-01
3.326050919526226668e-01
2.477375854584575321e-01
1.246142587652317724e-01
-1.750058724420601453e-02
-1.562575888531498591e-01
-2.697169055782366875e-01
-3.398655236338413155e-01
-3.555799554504084359e-01
-3.144945874490316928e-01
-2.234025358422863927e-01
-9.709151982235791900e-02
4.416909680371791658e-02
1.780115701917444893e-01
2.836015278824114416e-01
3.448948763304382492e-01
3.530152101556999211e-01
3.074381353556877028e-01
2.158789759753066140e-01
9.296696233332746306e-02
-4.206698859744703589e-02
-1.683553019947550689e-01
-2.665968283862493182e-01
-3.220316624150431073e-01
-3.267241310215830974e-01
-2.807721536628621783e-01
-1.922253923012242349e-01
-7.571727829514110497e-02
4.994992530012432042e-02
1.648402492388135743e-01
2.510191479493671385e-01
2.952866229945992904e-01
2.911157977016693987e-01
2.395586927680113110e-01
1.490344140061990175e-01
3.404765648950271173e-02
-8.699589904307949983e-02
-1.945955819489920136e-01
-2.711975861503080898e-01
-3.040200307291896498e-01
-2.872037771048492338e-01
-2.229034454511953367e-01
-1.210846485244415072e-01
1.988140797309120855e-03
1.263442371758544680e-01
2.315454696933734735e-01
3.000272154231179433e-01
3.200015342655294637e-01
2.874720541897900494e-01
2.070460583785400654e-01
9.138891005842778026e-02
-4.065062457084469422e-02
-1.670107984778229082e-01
-2.660496980140308887e-01
-3.202566952127186561e-01
-3.193982024181141743e-01
-2.625047194652306848e-01
-1.582769191561115285e-01
-2.376888688819391027e-02
1.184505831273890836e-01
2.441423554781959881e-01
3.315375183785825297e-01
3.650397608725937104e-01
3.378768860857351286e-01
2.532959841345203689e-01
1.241325090564241590e-01
-2.918171828079622887e-02
-1.818821985689403897e-01
-3.089162675943274983e-01
-3.891274588188189387e-01
-4.088767713317892905e-01
-3.644526142827003157e-01
-2.628027662945685572e-01
-1.204155533901622444e-01
3.946665336084057008e-02
1.907879160466883772e-01
3.090478808246386322e-01
3.753328080343661388e-01
3.793546209739467323e-01
3.210504340609787732e-01
2.105331294739933023e-01
6.642105242305282320e-02
-8.719665423882855260e-02
-2.246947510787204449e-01
-3.231258986689068968e-01
-3.660261010964890316e-01
-3.461685324378001027e-01
-2.667796428955443999e-01
-1.409855649723150695e-01
1.042488961220428001e-02
1.625156929090690316e-01
2.903582845284219394e-01
3.730994225791701702e-01
3.972815566231039375e-01
3.589252704390073490e-01
2.640974915903847586e-01
1.279079988197034945e-01
-2.791127848740537765e-02
-1.784890753726831591e-01
-2.998339305730923221e-01
-3.727544997303265939e-01
-3.860270689314301840e-01
-3.382462834830408660e-01
-2.379991246964711094e-01
-1.023040589665534794e-01
4.639576946155787862e-02
1.840967391359762950e-01
2.892125502799328673e-01
3.459541050831356768e-01
3.465836894672623680e-01
2.922719880268285220e-01
1.925451366883850213e-01
6.352564536820692886e-02
-7.468171535025558416e-02
-2.010410239208090255e-01
-2.966542853405437219e-01
-3.474620360905025795e-01
-3.462333851036705212e-01
-2.935682177829834760e-01
-1.977453874756180952e-01
-7.341794634933807018e-02
6.064714567768270115e-02
1.844179318535082990e-01
2.795791408185713811e-01
3.322004828759493877e-01
3.347299855350852615e-01
2.870689562778243609e-01
1.966068882598692724e-01
7.721075822460334026e-02
-5.272340546682244278e-02
-1.729356810096923103e-01
-2.643536878593989448e-01
-3.121044726137580660e-01
-3.080037695818324539e-01
-2.520609472780811489e-01
-1.526726231801437406e-01
-2.541589406770738968e-02
1.093728081475265623e-01
2.298197548612309071e-01
3.159964882273962328e-01
3.531033823464282406e-01
3.338647880349143726e-01
2.597811134106570163e-01
1.410551992773538821e-01
-4.808821758744141750e-03
-1.555654402122210733e-01
-2.876194120198541371e-01
-3.797738224560345266e-01
-4.167421780058613301e-01
-3.917981886958898929e-01
-3.080381377449198377e-01
-1.779752079073673443e-01
-2.151801685112493534e-02
1.372890749995290260e-01
2.741594669439040288e-01
3.684068393375016237e-01
4.061145149710388980e-01
3.821743809387376789e-01
3.009489367611296040e-01
1.755169115299790028e-01
2.564017545241064136e-02
-1.252612438880385537e-01
-2.537078184579873996e-01
-3.398072693016416235e-01
-3.703735979732949990e-01
-3.409901045505812078e-01
-2.566499345904795226e-01
-1.308605990216098469e-01
1.661353430714108265e-02
1.629466039924091225e-01
2.858116033488821150e-01
3.667163026468486242e-01
3.936262652710225129e-01
3.625553392235419947e-01
2.779820208629238953e-01
1.520983457486428658e-01
3.013999500041837643e-03
-1.478566340430438608e-01
-2.788910700872597181e-01
-3.714158566273885187e-01
-4.124595124244448963e-01
-3.966662942612774190e-01
-3.270440186121345016e-01
-2.144018386523207920e-01
-7.557009344464178657e-02
6.926819349367016598e-02
1.996416271406397103e-01
2.977271590654286815e-01
3.507333381095026903e-01
3.524660472929769250e-01
3.039642398336993567e-01
2.132005893843792743e-01
9.391761528020241279e-02
-3.626123637512585623e-02
-1.582361385966196965e-01
-2.540789022524602703e-01
-3.096026910587484360e-01
-3.164977530643253156e-01
-2.736784360667055549e-01
-1.875609498788266272e-01
-7.116086902393670144e-02
5.786850103844483340e-02
1.799212375899593985e-01
2.763900693648925211e-01
3.324205025186788842e-01
3.390830055856848269e-01
2.946924305655698184e-01
2.051215015216396043e-01
8.306912646787854848e-02
-5.364276348962498941e-02
-1.845581694666887096e-01
-2.895680136201624344e-01
-3.519898402595281750e-01
-3.612788091796135803e-01
-3.148920788031369655e-01
-2.189240375825372842e-01
-8.733894011973344917e-02
6.009921066477083573e-02
2.008480218768382286e-01
3.130490713406092196e-01
3.788778863818751952e-01
3.872816232064599795e-01
3.357216162555419214e-01
2.306882712097750310e-01
8.691471681040285890e-02
-7.463095592861017369e-02
-2.297460771019425030e-01
-3.546074134255881027e-01
-4.294824348363373012e-01
-4.419402300006207707e-01
-3.889892672124881101e-01
-2.777224663328179410e-01
-1.243118734790816804e-01
4.849118058464954584e-02
2.149083722076974290e-01
3.501147237912522470e-01
4.339857620479863898e-01
4.540486195829385174e-01
4.072551574767337978e-01
3.003930789200843776e-01
1.491221491692813206e-01
-2.423564662557727706e-02
-1.938888463858073341e-01
-3.343518127875480528e-01
-4.242826309493819004e-01
-4.498005375481514134e-01
-4.067280617746771298e-01
-3.013402301842330600e-01
-1.494437779660112986e-01
2.608448074084653012e-02
1.988734247192252003e-01
3.431198595849977995e-01
4.374601318973083131e-01
4.680672705173570258e-01
4.305670174610293777e-01
3.305634768439089655e-01
1.827490292299815411e-01
8.741009231086283027e-03
-1.660587574701414271e-01
-3.161587282071999239e-01
-4.197218621044822018e-01
-4.618255621755062990e-01
-4.367336552288042517e-01
-3.487832401494865286e-01
-2.116922479619779418e-01
-4.637843093682689211e-02
1.223261945547189922e-01
2.694808313883315098e-01
3.737299135509429826e-01
4.203453014945415234e-01
4.032379197195180565e-01
3.257283517725385602e-01
2.000149427293257398e-01
4.541500137741290299e-02
-1.144094179768431890e-01
-2.549008023108505494e-01
-3.542840101211718329e-01
-3.969549172322310859e-01
-3.760418314044656762e-01
-2.946645488417551917e-01
-1.655948153133509626e-01
-9.307900093339593894e-03
1.492646993013000412e-01
2.847198508672345030e-01
3.752293889299926910e-01
4.060000730229627042e-01
3.716248683096168293e-01
2.769869859218163644e-01
1.365881801704644793e-01
-2.761304920775409233e-02
-1.895667684501507466e-01
-3.232361912715911445e-01
-4.068333394781526446e-01
-4.264946230472861366e-01
-3.787288393752374360e-01
-2.711384779401991851e-01
-1.212231439323833704e-01
4.654497731108098169e-02
2.048375193827833007e-01
3.280279237457611741e-01
3.963980907341212445e-01
3.993089548990391702e-01
3.368579497968033909e-01
2.197999949100800099e-01
6.776823309219880132e-02
-9.392711250199337059e-02
-2.384339988821396195e-01
-3.417818615981864649e-01
-3.868670596684233853e-01
-3.663080246113077365e-01
-2.836496147212752561e-01
-1.526936374756997505e-01
4.909257837831582094e-03
1.633455635938567685e-01
2.969275814300842420e-01
3.842418977705330807e-01
4.114886150811736254e-01
3.745243776032447514e-01
2.793611047874926534e-01
1.411124541571278090e-01
-1.841666457967949810e-02
-1.741428493656653753e-01
-3.016365157241351902e-01
-3.809924635526880099e-01
-4.000175099283116431e-01
-3.561780034702928255e-01
-2.569413977414429784e-01
-1.184403386851744511e-01
3.728426121126343640e-02
1.859315179420165109e-01
3.048061378758843976e-01
3.762414284394089981e-01
3.900698289670507801e-01
3.448548859052760207e-01
2.478245183813494457e-01
1.136206342030603444e-01
-3.790911284052445041e-02
-1.845830530229766175e-01
-3.050693295668294169e-01
-3.819768914347125843e-01
-4.044208793747174902e-01
-3.696615429053848878e-01
-2.835271005601955885e-01
-1.595146218621783518e-01
-1.668893671274451762e-02
1.232808517438188645e-01
2.394536307576711209e-01
3.147789773884146491e-01
3.386159221523854512e-01
3.082644202386211063e-01
2.293176266719463285e-01
1.147934044047165258e-01
-1.684572241337578546e-02
-1.445220675641967212e-01
-2.478206905888453715e-01
-3.102201846261454232e-01
-3.217576777370289576e-01
-2.806694170132050803e-01
-1.936933392327198078e-01
-7.494465852613163559e-02
5.645128171114621729e-02
1.795349361604072769e-01
2.749209491707285125e-01
3.278645795659924644e-01
3.305254192792959067e-01
2.831287499971821831e-01
1.938890816023581820e-01
7.771986101117622781e-02
-4.608811741112095461e-02
-1.568911800022902980e-01
-2.359820614435026442e-01
-2.696478778217876737e-01
-2.515012140293926279e-01
-1.836638616951464797e-01
-7.655249440513323123e-02
5.273098712368096130e-02
1.831285102915609642e-01
2.929929765261611863e-01
3.635292407865229336e-01
3.817781271048827918e-01
3.427168865302689937e-01
2.501822089365766111e-01
1.164699524461334512e-01
-3.936661901596405500e-02
-1.943170741031441384e-01
-3.249372205493792354e-01
-4.110823566043054766e-01
-4.392564180224298731e-01
-4.049879059057461816e-01
-3.137637933648598221e-01
-1.802956093675023297e-01
-2.621315136170476734e-02
1.234112507952467297e-01
2.441013046530748909e-01
3.159075699664448678e-01
3.266145878937063429e-01
2.737416448909009148e-01
1.650370375541054813e-01
1.737902876853603118e-02
-1.457773985693844310e-01
-2.980523268502466294e-01
-4.143530170492155662e-01
-4.749856776303129635e-01
-4.689730192662704411e-01
-3.959716936695993894e-01
-2.664100825415349760e-01
-9.980196033056287774e-02
7.845197119683611220e-02
2.411896521059073706e-01
3.638277597456367474e-01
4.282198539544674887e-01
4.254584932448572943e-01
3.572352178654407684e-01
2.355904367411700839e-01
8.110369856191601556e-02
-8.022601912654714340e-02
-2.209877961609851837e-01
-3.166892990905978422e-01
-3.497489473434072238e-01
-3.124749221639433472e-01
-2.084704483390069640e-01
-5.216160825938942480e-02
1.335006113957035723e-01
