BVP Green Neck Signal
-7.685182765372063074e-03
-1.276709498186735098e-02
-1.750872841549423395e-02
-2.170670276626677012e-02
-2.515763773419903149e-02
-2.765815301930508313e-02
-2.901675167116783000e-02
-2.911602203939100963e-02
-2.786749297915544488e-02
-2.522278236088907472e-02
-2.120497867226884409e-02
-1.585175630229689742e-02
-9.273010511468060546e-03
-1.620398587799297407e-03
6.931656534218416481e-03
1.614893063308493054e-02
2.578593578043721427e-02
3.557400499717230935e-02
4.522473735099726000e-02
5.445107030177758628e-02
6.297409013491811480e-02
7.051779850222864021e-02
7.683487787608953012e-02
8.171378239419074818e-02
8.495620849549087583e-02
8.643489561170417113e-02
8.605125374741864896e-02
8.375005696142484579e-02
7.955582136569364082e-02
7.350885996736852834e-02
6.572492104253634115e-02
5.636473403453005904e-02
4.561318463410310442e-02
3.372057784094179694e-02
2.095001522522395299e-02
7.592752488265161297e-03
-6.035256292181725990e-03
-1.961679300580653970e-02
-3.283281325613267299e-02
-4.536431099274493978e-02
-5.691230114180221428e-02
-6.720353202558429495e-02
-7.597504427631551760e-02
-8.302147703805218271e-02
-8.816146260776269727e-02
-9.125156308303877806e-02
-9.222028834513673612e-02
-9.101112477373263232e-02
-8.764298646594345654e-02
-8.218116710641870659e-02
-7.471941047036656514e-02
-6.543120060854321074e-02
-5.450674165420001105e-02
-4.218447216360041163e-02
-2.874642987039201236e-02
-1.448444655328778516e-02
2.731713394301905559e-04
1.518797344693858208e-02
2.992001446017584707e-02
4.412736928071592235e-02
5.747261345014059025e-02
6.965052279018163484e-02
8.036978098391156511e-02
8.937012084563944470e-02
9.645207034413341707e-02
1.014299818497737538e-01
1.041948653753204113e-01
1.046863304842947096e-01
1.028766220222697148e-01
9.883257490197211448e-02
9.264166204199481003e-02
8.445566025684808631e-02
7.448623486516159353e-02
6.296075839495365867e-02
5.016822084753790739e-02
3.641565791545170461e-02
2.202657622079634558e-02
7.346967522244700864e-03
-7.276917567685238161e-03
-2.150861484850627794e-02
-3.501609177159278191e-02
-4.748760571339518538e-02
-5.865244492800388704e-02
-6.824986489874898532e-02
-7.607840534144708067e-02
-8.197535368219019403e-02
-8.580493875328004671e-02
-8.751204697973191671e-02
-8.705976972543513770e-02
-8.447060066661588040e-02
-7.982403513735789047e-02
-7.321635612247817670e-02
-6.481268714602039793e-02
-5.479919761840319065e-02
-4.339124078256792472e-02
-3.084523348998382403e-02
-1.742379532218864269e-02
-3.412827493658281142e-03
1.089123987265551777e-02
2.519276845162884276e-02
3.919788252101664983e-02
5.261482173141070195e-02
6.517519284609449293e-02
7.662634804295567759e-02
8.673130395848657748e-02
9.530188208354462009e-02
1.021616228095712786e-01
1.071803652327198431e-01
1.102737232921488231e-01
1.113733810385008904e-01
1.104804710021638214e-01
1.076182015000312631e-01
1.028481959416254476e-01
9.628779382246327456e-02
8.806518323368753287e-02
7.835875991672072716e-02
6.737045599541015284e-02
5.531711782270935795e-02
4.244747388159408191e-02
2.901508821426999549e-02
1.528236613977486044e-02
1.517851279251794180e-03
-1.201366739183456003e-02
-2.506013986005985184e-02
-3.737309943377031124e-02
-4.872719197614899800e-02
-5.892060726859767866e-02
-6.776157297307935923e-02
-7.510404080678917405e-02
-8.081703767660008975e-02
-8.480008016997031550e-02
-8.699827038477353502e-02
-8.736687922204930401e-02
-8.591297060501570937e-02
-8.266869377145649733e-02
-7.768883298064893639e-02
-7.107822315329820340e-02
-6.295128008084913129e-02
-5.346036625178064022e-02
-4.278500640468538979e-02
-3.111518010969013120e-02
-1.867438952650912060e-02
-5.693732743287969328e-03
7.583580227200986679e-03
2.090162723609209627e-02
3.400431776042146109e-02
4.663784762463327183e-02
5.854938308424044446e-02
6.949908385087744112e-02
7.926714157698896979e-02
8.764026674311423126e-02
9.444534850115421376e-02
9.952937785316132158e-02
1.027642089482179166e-01
1.040785419971946013e-01
1.034130696866101817e-01
1.007651003738264384e-01
9.617371196622401253e-02
8.969829667945528051e-02
8.146624536464416866e-02
7.162135809301292677e-02
6.034659234587708143e-02
4.786725026876489236e-02
3.441728388045699194e-02
2.026634335082362279e-02
5.696287807996015112e-03
-9.005412208381326916e-03
-2.354238158023317512e-02
-3.761926600751603483e-02
-5.095645134450556279e-02
-6.328246876727727788e-02
-7.434284270565383324e-02
-8.392330617038396001e-02
-9.181880219925875330e-02
-9.787377023567339629e-02
-1.019702852929523784e-01
-1.040109370259320321e-01
-1.039695288312928179e-01
-1.018377862988130156e-01
-9.765621682795871950e-02
-9.151968159390572177e-02
-8.353678641797282478e-02
-7.387774019183798724e-02
-6.273472898414653165e-02
-5.032441211683233440e-02
-3.690352852480162371e-02
-2.273483781558980482e-02
-8.101885991201481646e-03
6.700765674925912921e-03
2.137982094681314255e-02
3.564533553331268589e-02
4.920943129949053446e-02
6.180823015392706427e-02
7.319666082710593602e-02
8.314410442938768853e-02
9.147246303611708540e-02
9.801750911731743621e-02
1.026602146670678728e-01
1.053334440376957060e-01
1.059850668118897110e-01
1.046340969291063017e-01
1.013258303020018736e-01
9.614087145504862653e-02
8.921945576304088354e-02
8.071265499864610504e-02
7.081917090019454464e-02
5.976378508995981720e-02
4.778331820559316573e-02
3.514444101038341484e-02
2.211874529809053358e-02
8.982032913381104294e-03
-3.986494552947379005e-03
-1.651264105676491720e-02
-2.834209409451343004e-02
-3.922622534991707793e-02
-4.894316133940970065e-02
-5.730267926475326318e-02
-6.412514172916719546e-02
-6.928403990612849728e-02
-7.267316594433614885e-02
-7.421748368914668492e-02
-7.389624976875544538e-02
-7.169972407654198743e-02
-6.767227294090769063e-02
-6.188883178153440495e-02
-5.444476915746254003e-02
-4.548808554107675040e-02
-3.517728714961132486e-02
-2.370448552592787153e-02
-1.128975660341101708e-02
1.839254493281110639e-03
1.542781134115965395e-02
2.921420412127061564e-02
4.293181750322484780e-02
5.630805626903832156e-02
6.907210340756836375e-02
8.096660146183806694e-02
9.173960090027044600e-02
1.011568018686559434e-01
1.090156308149965170e-01
1.151215655125790716e-01
1.193281287860833706e-01
1.215168448990067429e-01
1.215939009233219514e-01
1.195313256726363849e-01
1.153153493422243436e-01
1.089882372976148095e-01
1.006403031540268611e-01
9.037949808653275574e-02
7.838089258157746042e-02
6.483796949875481053e-02
4.997683228445946174e-02
3.406456204830898143e-02
1.737497148465994012e-02
2.087812102018939825e-04
-1.712250519109030644e-02
-3.430702683238505413e-02
-5.103231309364576057e-02
-6.698800494091278201e-02
-8.188673991442363409e-02
-9.545498101983290740e-02
-1.074365110036706317e-01
-1.176230652638843854e-01
-1.258173781608483144e-01
-1.318718622108283889e-01
-1.356828220779505711e-01
-1.371649474637142985e-01
-1.363058239460465948e-01
-1.331138754461845541e-01
-1.276422425143204920e-01
-1.200019541367608744e-01
-1.103167094473764265e-01
-9.876979972345073522e-02
-8.556936914717641618e-02
-7.094534425891071971e-02
-5.516920855375621185e-02
-3.851899220281807673e-02
-2.129311345671637545e-02
-3.802610625391389387e-03
1.364199780440259607e-02
3.073224065397425764e-02
4.716109827566405954e-02
6.264271331234264051e-02
7.691049373157857194e-02
8.970997691749210690e-02
1.008377883638071626e-01
1.101058257518466588e-01
1.173672926615472734e-01
1.225305021029121921e-01
1.255177285279202859e-01
1.263221942759016059e-01
1.249677094299862234e-01
1.215112181432694560e-01
1.160749092273694050e-01
1.087929694324255570e-01
9.984935527468213889e-02
8.945980008413420559e-02
7.785272151058328371e-02
6.529295353816171044e-02
5.205253927455346513e-02
3.841229438031709686e-02
2.466126305421614123e-02
1.108579479566856874e-02
-2.041702548685667487e-03
-1.445335173336714102e-02
-2.590346285966317608e-02
-3.617685597047713697e-02
-4.506766322596540003e-02
-5.242155513760891894e-02
-5.810716056627149989e-02
-6.202263960719724828e-02
-6.412617278426413492e-02
-6.438806401037414084e-02
-6.283608050410421919e-02
-5.953581690934531961e-02
-5.457315124853984178e-02
-4.809467404299942739e-02
-4.026027318467124971e-02
-3.126423373673781203e-02
-2.133408345117420585e-02
-1.070395766238457433e-02
3.668614243336346462e-04
1.161158506725363734e-02
2.276411583537976679e-02
3.355933810687443397e-02
4.373573253927839216e-02
5.305832394248366501e-02
6.130437718220076854e-02
6.827394027190922254e-02
7.381489300355009719e-02
7.778566597882111133e-02
8.010076689079509427e-02
8.071275815700651446e-02
7.959675619577874506e-02
7.679775369118238548e-02
7.237666827027838812e-02
6.643945278934811072e-02
5.913690356782621421e-02
5.063049684233338760e-02
4.112507632419626358e-02
3.083910562740646913e-02
2.000142410856377978e-02
8.856025518927383711e-03
-2.352960795173334591e-03
-1.338974304810917546e-02
-2.402252611869198917e-02
-3.403311316758950850e-02
-4.323281143345196476e-02
-5.143975694537671756e-02
-5.851052296067633246e-02
-6.432856973191092287e-02
-6.879337463693835364e-02
-7.185562419822327795e-02
-7.347803780153985831e-02
-7.365822257521958960e-02
-7.242957819152637255e-02
-6.983503238931962342e-02
-6.595806859638450592e-02
-6.089544935304420231e-02
-5.476059855820823719e-02
-4.769202829609495847e-02
-3.983225561735128512e-02
-3.133946682808533279e-02
-2.237947147203954781e-02
-1.312010229291881575e-02
-3.733618880814398161e-03
5.607529706293147218e-03
1.473651113422312815e-02
2.349054302468091271e-02
3.171208965793453904e-02
3.926128283174169092e-02
4.600280137555701893e-02
5.182085393475940188e-02
5.662029312878741338e-02
6.031368282407936765e-02
6.284931848668627585e-02
6.418769661539154570e-02
6.431187045357925069e-02
6.323991236905365798e-02
6.099728131242959650e-02
5.764625260539953111e-02
5.326762099911245413e-02
4.795605128479368817e-02
4.183803220079710533e-02
3.504581323233525725e-02
2.772959550780688953e-02
2.005291969219053644e-02
1.218159213257562906e-02
4.288328397412881354e-03
-3.452861662095810247e-03
-1.087432861283889329e-02
-1.781535028586243505e-02
-2.411981469545505102e-02
-2.965506517899200306e-02
-3.429675809257377167e-02
-3.793923984444910746e-02
-4.050677454751579892e-02
-4.193046742497655993e-02
-4.217779330580848779e-02
-4.123510537668924336e-02
-3.910489073153231715e-02
-3.582787874945411732e-02
-3.145236857603865566e-02
-2.605586332621442902e-02
-1.973823172810554999e-02
-1.260776714393044631e-02
-4.801579619541803540e-03
3.536176940617272689e-03
1.224882526189309886e-02
2.116563449994649654e-02
3.011420130036560755e-02
3.891683699535271324e-02
4.739405239967844213e-02
5.537136262907584039e-02
6.268255012421579397e-02
6.916458075162387753e-02
7.467635319986867803e-02
7.908852033042435004e-02
8.228614055435054531e-02
8.418962463365597948e-02
8.472708517240426507e-02
8.386287735031527912e-02
8.158996070374502363e-02
7.791477383803918633e-02
7.289197081268719569e-02
6.658861846189237377e-02
5.910132487603728113e-02
5.056085635500247311e-02
4.110548044949827867e-02
3.090652823631195173e-02
2.014754809792589779e-02
9.021646500271873759e-03
-2.261822716536214181e-03
-1.349187232277139839e-02
-2.445704232276681850e-02
-3.494562720879852008e-02
-4.475237203964634730e-02
-5.368851110564742263e-02
-6.156946274537093006e-02
-6.823649664370098900e-02
-7.355190810423012371e-02
-7.739016442385010519e-02
-7.967115600013746635e-02
-8.032701835608432872e-02
-7.932510910890322453e-02
-7.667475175401039511e-02
-7.239665274620674107e-02
-6.656615987275252277e-02
-5.927958327225831686e-02
-5.065929044121414426e-02
-4.087335429879079135e-02
-3.009796894205279960e-02
-1.854364155938696690e-02
-6.440397122043610076e-03
5.974517289793238387e-03
1.844537832937273927e-02
3.071366654567943277e-02
4.252458504621409174e-02
5.362645683523700052e-02
6.377502965572992566e-02
7.275584794248060594e-02
8.036300068757026849e-02
8.642399372259562673e-02
9.080736072617562327e-02
9.339434716638905787e-02
9.413085915370184020e-02
9.298843951635102356e-02
8.997400786774686909e-02
8.515848502956013810e-02
7.862505212033235602e-02
7.051331843075789307e-02
6.099600287513574914e-02
5.026292488933226110e-02
3.854942879091971530e-02
2.609955689413333627e-02
1.317531305675022357e-02
5.421279029616584560e-05
-1.298633438605164073e-02
-2.567151036876215431e-02
-3.772765743539521766e-02
-4.889867503091395451e-02
-5.895067626032062663e-02
-6.765840753623839077e-02
-7.484398320054089226e-02
-8.034893613469751283e-02
-8.404598048459044346e-02
-8.586602639616758292e-02
-8.575216034714594482e-02
-8.370925007366669668e-02
-7.977954902291323203e-02
-7.402919273282337898e-02
-6.659022936568448348e-02
-5.760846968159361731e-02
-4.727150755108218416e-02
-3.580411745667282097e-02
-2.344032175682157076e-02
-1.044876952927567895e-02
2.892332359272215339e-03
1.629955180773486750e-02
2.948264383804252708e-02
4.215374410755454160e-02
5.404432935688908979e-02
6.489412998683719014e-02
7.446493874086462794e-02
8.256105736608973511e-02
8.899676177432827573e-02
9.364329258304118775e-02
9.640743401550969094e-02
9.722149396366344676e-02
9.609065863292148846e-02
9.303603109629624002e-02
8.813210653242511960e-02
8.150233349479846234e-02
7.328480209828114322e-02
6.367544121943914670e-02
5.288700391178986077e-02
4.115466914749310590e-02
2.874375117216823941e-02
1.592320547020135979e-02
2.972748175991969145e-03
-9.823319705552922138e-03
-2.218744325280189861e-02
-3.385553391893890429e-02
-4.456787345227725822e-02
-5.409686759746524382e-02
-6.223558856133448031e-02
-6.879526783446557325e-02
-7.364088217440889483e-02
-7.664981506990253823e-02
-7.774758388518482333e-02
-7.690517731724771933e-02
-7.411006648641874084e-02
-6.941832089369445735e-02
-6.290686264472461486e-02
-5.469145136397085549e-02
-4.494163628719032716e-02
-3.383773110721736282e-02
-2.160997839008437643e-02
-8.510932977560014406e-03
5.192128722141132330e-03
1.920188862124136420e-02
3.321693950480563567e-02
4.693109650873381056e-02
6.003501107698740180e-02
7.222690379502008651e-02
8.322878452503773561e-02
9.276902828103583687e-02
1.006141328367064491e-01
1.065677021960261261e-01
1.104502731029957663e-01
1.121567480231161207e-01
1.116055043237826339e-01
1.087660193280166332e-01
1.036807188253291712e-01
9.640830449853673989e-02
8.708867467703906851e-02
7.589921617125694464e-02
6.304904366411356875e-02
4.881415480663309214e-02
3.348209248033955088e-02
1.737828308919535381e-02
8.540442610479532029e-04
-1.573542721131914249e-02
-3.202403573629396955e-02
-4.764426874717339611e-02
-6.224658038209269356e-02
-7.549944266878119703e-02
-8.708369112823052816e-02
-9.673804329163696036e-02
-1.042201991065785927e-01
-1.093364954203682182e-01
-1.119648412421132277e-01
-1.120006876057092760e-01
-1.094326825740019882e-01
-1.042938998373547366e-01
-9.666084797897470104e-02
-8.670457351354551867e-02
-7.461405874502022306e-02
-6.064943984733164178e-02
-4.512098326420879713e-02
-2.835658376504860551e-02
-1.073948535638077559e-02
7.335073794008860511e-03
2.546065378893824435e-02
4.321924045535555092e-02
6.019766834858923665e-02
7.601063431697074879e-02
9.028251146498450508e-02
1.026766316410979152e-01
1.129154312561761742e-01
1.207375777841093734e-01
1.259742606717882130e-01
1.285021803197886892e-01
1.282459623608467880e-01
1.252379085966702776e-01
1.195316126952895852e-01
1.112698407857528049e-01
1.006601146860438833e-01
8.793568088849912368e-02
7.341360461578705365e-02
5.743030799534013658e-02
4.035511396612884161e-02
2.259237157299480089e-02
4.548955342875738578e-03
-1.336383584979059999e-02
-3.073356027461446316e-02
-4.716828304181844289e-02
-6.230815114520744241e-02
-7.580387438550167944e-02
-8.737226017226484842e-02
-9.676366406016159716e-02
-1.037673822982450311e-01
-1.082630544999838018e-01
-1.101490865072149716e-01
-1.094084064908766030e-01
-1.060872035252314605e-01
-1.002603410294853059e-01
-9.209970159679312096e-02
-8.180076617164058761e-02
-6.961188590362457629e-02
-5.583940538736165832e-02
-4.080079737634436515e-02
-2.485886851920367235e-02
-8.392130456116034948e-03
8.216592958331865246e-03
2.457754566615387437e-02
4.030368453538230727e-02
5.503750921433070431e-02
6.843701306837213227e-02
8.018757485249858319e-02
9.004031651716370988e-02
9.776115369086058049e-02
1.031922213874041094e-01
1.062344468859403313e-01
1.068185774340836836e-01
1.049800215976855466e-01
1.007806418274162230e-01
9.434795107885765586e-02
8.588366125920945948e-02
7.560601977634015536e-02
6.380544787117155281e-02
5.079838602834723521e-02
3.692140607363587207e-02
2.254451515048327276e-02
8.040545932757591288e-03
-6.220744728204736368e-03
-1.987130017991698555e-02
-3.255987721290591608e-02
-4.397709646281853374e-02
-5.382382184428683575e-02
-6.186109214981517362e-02
-6.789778031617965670e-02
-7.176873852428758416e-02
-7.340319153223567872e-02
-7.275504495463283594e-02
-6.984306309678589564e-02
-6.476154239191567186e-02
-5.762313456934562567e-02
-4.862446167726361401e-02
-3.799350438934012697e-02
-2.599010813839817968e-02
-1.292870355311030381e-02
8.682988064893969529e-04
1.505356381124891424e-02
2.926592887977618254e-02
4.314806915723059383e-02
5.635292363606320826e-02
6.853734404165369443e-02
7.939576319382785075e-02
8.865339896191726243e-02
9.605593645761784094e-02
1.014265380088918977e-01
1.046094276738517848e-01
1.055104370160673821e-01
1.041093267988444926e-01
1.004053024679130435e-01
9.449058963697731794e-02
8.649332812093105116e-02
7.658278200851570405e-02
6.500086822904396766e-02
5.200173454941951073e-02
3.788715612274049654e-02
2.298619310381917052e-02
7.634647587383372458e-03
-7.814592371252766789e-03
-2.300672955755879434e-02
-3.760253426369344204e-02
-5.127591747290146523e-02
-6.371411331100959585e-02
-7.465728257392112432e-02
-8.386054261236647323e-02
-9.112772561027907003e-02
-9.632290310446497972e-02
-9.932698063038802871e-02
-1.001046447291584207e-01
-9.865400360622592069e-02
-9.501502669708972171e-02
-8.930396029471462938e-02
-8.165122261557175576e-02
-7.224980155520610570e-02
-6.132966531626619228e-02
-4.913817787936597403e-02
-3.596923678461053098e-02
-2.212542452142267704e-02
-7.922966375433704994e-03
6.310046087764753509e-03
2.024868195388256770e-02
3.358309862347446523e-02
4.600823536674073649e-02
5.724812576053284890e-02
6.706387865268396975e-02
7.522925882706546497e-02
8.158597319293259265e-02
8.600374794623089070e-02
8.839304622389176913e-02
8.874091000768802306e-02
8.704970867493647124e-02
8.339557751892645587e-02
7.789961206645362735e-02
7.070786982006324606e-02
6.203557866566607182e-02
5.211197790178592748e-02
4.120052970770685802e-02
2.959536713156587021e-02
1.759457976560390574e-02
5.508864922523438318e-03
-6.347948911826110235e-03
-1.767511887211202851e-02
-2.818908733194807475e-02
-3.761446135018031017e-02
-4.572393847844800907e-02
-5.231070384324227468e-02
-5.720122166974126593e-02
-6.028650169153949162e-02
-6.147112439364980224e-02
-6.072861043307595935e-02
-5.807580600237292195e-02
-5.355609676979394829e-02
-4.728892894972099720e-02
-3.941006573730668205e-02
-3.010345890753864107e-02
-1.959755830383692540e-02
-8.131798810922939019e-03
4.012042221187008331e-03
1.653997323262944644e-02
2.914984193129415910e-02
4.152845137919030510e-02
5.336432511778411297e-02
6.436384129372954566e-02
7.424129701495854605e-02
8.273385866673918509e-02
8.962450169791205679e-02
9.470711904669015802e-02
9.783924221408521471e-02
9.891963674108272819e-02
9.787628624172833858e-02
9.472390243904701967e-02
8.949668403071048273e-02
8.229336518756152907e-02
7.327408104467511563e-02
6.261670523696280521e-02
5.057109865682916927e-02
3.740883951011025887e-02
2.342754118063799726e-02
8.961134623449771783e-03
-5.652849021456999093e-03
-2.007019453003342987e-02
-3.394378002224390789e-02
-4.694036275991896046e-02
-5.875546439386294256e-02
-6.909260994930560562e-02
-7.770937904299418664e-02
-8.439945729206746461e-02
-8.898422445171530470e-02
-9.137007831741270070e-02
-9.148318506238431458e-02
-8.931849929392463028e-02
-8.493840774719352282e-02
-7.842627019779746522e-02
-6.995381165506622811e-02
-5.972042843820760810e-02
-4.796563539417044580e-02
-3.498663081504636146e-02
-2.108960417697653897e-02
-6.615413364204389413e-03
8.079038886612453785e-03
2.263748466569050904e-02
3.670519948854932685e-02
4.993034352144633259e-02
6.199523084624228297e-02
7.260569253001339374e-02
8.149041052260577733e-02
8.845088965445571660e-02
9.330629823155495162e-02
9.594327885458267535e-02
9.631662360923301525e-02
9.440370986910390227e-02
9.028057359046898211e-02
8.405520833251772794e-02
7.588556968207502140e-02
6.600366246226258005e-02
5.465447919313964897e-02
4.213871992308473868e-02
2.878375504031939827e-02
1.492656438221650131e-02
9.249682190388703457e-04
-1.286156624827139439e-02
-2.608867416350971191e-02
-3.842270980894348792e-02
-4.954619294780707173e-02
-5.919527736625367770e-02
-6.711966449544129465e-02
-7.312539209664808970e-02
-7.707712342896233526e-02
-7.885990126355471586e-02
-7.845086863594069593e-02
-7.585801300778904910e-02
-7.114084792800184909e-02
-6.443761217251484097e-02
-5.590174277627883020e-02
-4.575739789078706043e-02
-3.426371014129708792e-02
-2.170030448058797926e-02
-8.392943153915238125e-03
5.325453001034555212e-03
1.911137114927083380e-02
3.261355204663945323e-02
4.548785317304450404e-02
5.741552844346615309e-02
6.808495814712228755e-02
7.722644811695963951e-02
8.461525674189471213e-02
9.004457950097627394e-02
9.339262663376474150e-02
9.456705753358368716e-02
9.352927776844299768e-02
9.032535335616753702e-02
8.501868047518632010e-02
7.775751022302346271e-02
6.873340034181452118e-02
5.816664555491896788e-02
4.634436750312979914e-02
3.356528476015327445e-02
2.015697923288851945e-02
6.468790939321162822e-03
-7.150648794194277083e-03
-2.035718492506168389e-02
-3.280871618378691790e-02
-4.419212952348837431e-02
-5.422633635953378467e-02
-6.264462269232096148e-02
-6.925147516373317269e-02
-7.387685124910564616e-02
-7.639925925926424610e-02
-7.677605853782934475e-02
-7.498138508600304952e-02
-7.107457083298990286e-02
-6.515980821900918540e-02
-5.737379872927281937e-02
-4.793131184386260901e-02
-3.706173469886141908e-02
-2.503969012087194773e-02
-1.217494465294273465e-02
1.215883391328783682e-03
1.479406949672592772e-02
2.821609118639832950e-02
4.114880606313425088e-02
5.327088731759007517e-02
6.427020670743999187e-02
7.388424968035559037e-02
8.186888780671422450e-02
8.802101352330873874e-02
9.220622053259713846e-02
9.430565706137891691e-02
9.428390533084243796e-02
9.215086585623424864e-02
8.795155263250881150e-02
8.181805224530167009e-02
7.389952204278413261e-02
6.440258342682905757e-02
5.357986514864358091e-02
4.169616385495849425e-02
2.905824818035288720e-02
1.598313002900111565e-02
2.791606555879979495e-03
-1.019108535508965116e-02
-2.264424928056056260e-02
-3.427598225802144100e-02
-4.480544655367092038e-02
-5.398173085079526617e-02
-6.160561622058081249e-02
-6.749010609051211973e-02
-7.151654290202841269e-02
-7.360455235009050190e-02
-7.370468846932073936e-02
-7.184669088521980496e-02
-6.807651104823941868e-02
-6.249889364528483232e-02
-5.526709004158756461e-02
-4.655020533242823499e-02
-3.657486249466489203e-02
-2.558267888228692166e-02
-1.383648988573630764e-02
-1.624775135172220816e-03
1.076183284054774321e-02
2.302884725837923627e-02
3.488044028254782408e-02
4.603338528617671732e-02
5.622692665728380029e-02
6.520713104753395051e-02
7.276520275532660786e-02
7.871842803140174927e-02
8.290954259220739697e-02
8.524870248743757206e-02
8.566068222015560396e-02
8.413017315490128878e-02
8.069280533915879072e-02
7.540351973356188009e-02
6.839036829879832635e-02
5.980132228419732243e-02
4.982098105923132153e-02
3.867956243501168706e-02
2.661511756611217167e-02
1.389778247994150583e-02
8.104514621528474683e-04
-1.236154863395281731e-02
-2.532847607671734336e-02
-3.780205904685595558e-02
-4.951432148036361697e-02
-6.020938517959476682e-02
-6.964784771147256026e-02
-7.763554338639441776e-02
-8.398866069719493344e-02
-8.857064119182600503e-02
-9.128632038670464466e-02
-9.205780790437467775e-02
-9.087511516355287200e-02
-8.774748230216633527e-02
-8.272488597175020608e-02
-7.590958707937534022e-02
-6.741509866207603952e-02
-5.740722535416969280e-02
-4.607337821343596845e-02
-3.361930527751084280e-02
-2.028542844567890815e-02
-6.317450065565213477e-03
8.023625686560233519e-03
2.246740706741375340e-02
3.674513991669474400e-02
5.059315429302305156e-02
6.374976284514836944e-02
7.597402445667458815e-02
8.704372387844497294e-02
9.674777535304762699e-02
1.049213912548734307e-01
1.114134896181569467e-01
1.161093317180259543e-01
1.189422511226453927e-01
1.198576812129743818e-01
1.188620527884318712e-01
1.159878605217199155e-01
1.112959078775100363e-01
1.049022511719806539e-01
9.693305999801954398e-02
8.755641614996556577e-02
7.696692879074618077e-02
6.536969302264880599e-02
5.299963967986473512e-02
4.009751161829484128e-02
2.691034094514542507e-02
1.369100883977165950e-02
6.896259601401879755e-04
-1.185741155078229650e-02
-2.371809539358471497e-02
-3.468047774036276537e-02
-4.455995876241694575e-02
-5.318022938268910510e-02
-6.041047134533484436e-02
-6.613995299635827552e-02
-7.028396855479310257e-02
-7.281024095875010538e-02
-7.369706896265851293e-02
-7.297299066292584069e-02
-7.069932982097898444e-02
-6.695505709374210968e-02
-6.187150549437490238e-02
-5.559136747709118170e-02
-4.828636732082678545e-02
-4.015604824509562409e-02
-3.140516265695777326e-02
-2.225786546591984258e-02
-1.294400363746412916e-02
-3.690864627472549911e-03
5.277861964779003226e-03
1.374229779832211035e-02
2.150897712973856568e-02
2.839650026550293374e-02
3.424473894467950502e-02
3.893781738922036384e-02
4.236948894834143692e-02
4.448386746770421202e-02
4.525894689472794580e-02
4.469250911195635223e-02
4.284306849933197658e-02
3.978284063944599602e-02
3.562213532352868917e-02
3.050887198686611651e-02
2.459964778332720398e-02
1.808582378770534280e-02
1.116954911477349363e-02
4.059791270530295308e-03
-3.024609905208584457e-03
-9.865602486279705097e-03
-1.625721660185083448e-02
-2.199920235523532275e-02
-2.690661608982176933e-02
-3.082740954729331490e-02
-3.361720084844777023e-02
-3.517520025056124211e-02
-3.543084836705651802e-02
-3.433276290159311545e-02
-3.189045724053498482e-02
-2.812775449897153557e-02
-2.311227773457939783e-02
-1.695620399046035565e-02
-9.783739152192411082e-03
-1.770084546580549811e-03
6.893059019778796648e-03
1.599575456714377730e-02
2.530084390139977768e-02
3.456827408200625895e-02
4.355260949138989313e-02
5.200586944113872595e-02
5.968985579528263141e-02
6.638816025511519447e-02
7.189037990483793106e-02
7.602727318385898991e-02
7.865902075319458620e-02
7.966658249181382545e-02
7.899925453594683344e-02
7.662294272539038609e-02
7.255698217060704835e-02
6.687670523181002413e-02
5.967317641263329697e-02
5.110634042773168351e-02
4.135919835406240419e-02
3.064274010899928347e-02
1.921102431462159282e-02
7.324146439323672188e-03
-4.738061360746904579e-03
-1.668597550124641463e-02
-2.823440916697219499e-02
-3.910852712569153761e-02
-4.903732207091106299e-02
-5.778315570426429543e-02
-6.513297360815870074e-02
-7.089222775384165787e-02
-7.492932637276369934e-02
-7.712844627798245978e-02
-7.742580201089779846e-02
-7.581380145299931872e-02
-7.230131253974805827e-02
-6.697168409317638682e-02
-5.993406372936190690e-02
-5.133270967900611936e-02
-4.136758102275466670e-02
-3.024816149254478531e-02
-1.822358768527235912e-02
-5.563359633991429160e-03
7.456383446114526851e-03
2.054414917289121983e-02
3.340694132678968115e-02
4.576235150537046048e-02
5.733601062338138793e-02
6.786477211407940247e-02
7.712552608755293693e-02
8.490573524790559490e-02
9.103458676194578492e-02
9.538769194133361884e-02
9.785586096931264688e-02
9.840199210606734304e-02
9.701481990344781869e-02
9.372267634455788698e-02
8.861866471949522706e-02
8.180822726171974035e-02
7.345393106499820135e-02
6.374862979577550215e-02
5.290191328737869902e-02
4.116370079344452287e-02
2.879080418219906456e-02
1.605276066976936422e-02
3.229064897600644225e-03
-9.403494262961480804e-03
-2.157929762867549436e-02
-3.303614424259404547e-02
-4.353551367038124842e-02
-5.286603371293326081e-02
-6.082685795117472732e-02
-6.726996211545302473e-02
-7.206690940319571137e-02
-7.512333309517624236e-02
-7.640233533887694217e-02
-7.587905293799818152e-02
-7.358943052805905216e-02
-6.960267910564055249e-02
-6.401149159971630809e-02
-5.696715049217420529e-02
-4.863233456098133012e-02
-3.920612338623542109e-02
-2.891694932848027505e-02
-1.800037943620691472e-02
-6.716484073472327176e-03
4.668739051217920405e-03
1.589025807166732918e-02
2.668418207312313328e-02
3.679131437086693990e-02
4.598049521176774540e-02
5.403139015061991096e-02
6.075083873361039610e-02
6.599296213525412957e-02
6.962300623313608106e-02
7.156834568365785798e-02
7.179141419152595960e-02
7.028251031705054497e-02
6.710379505592771465e-02
6.233210802660103800e-02
5.609602871951907543e-02
4.856713006469393773e-02
3.992998992326709379e-02
3.041629200433992181e-02
2.026996964336950230e-02
9.748312558251094953e-03
-8.751311710979634007e-04
-1.132716397156034033e-02
-2.134296034911849216e-02
-3.066112990724739751e-02
-3.903828067666733487e-02
-4.626333430238046412e-02
-5.213357767520914593e-02
-5.649687257307852567e-02
-5.923051246441298628e-02
-6.023695282104880172e-02
-5.948569334727572128e-02
-5.696053956720283779e-02
-5.269982261071891327e-02
-4.678856080029068082e-02
-3.932835198796716392e-02
-3.048359682930021353e-02
-2.043587667445326619e-02
-9.396452107489291355e-03
2.386186858482157100e-03
1.465767151044524742e-02
2.714073712441873037e-02
3.954897922150252959e-02
5.159787208740512082e-02
6.300641608262011473e-02
7.349671090201936874e-02
8.281949041169486825e-02
9.074267684668346767e-02
9.705456257160102740e-02
1.015997164972195776e-01
1.042355195730881867e-01
1.048760378201011312e-01
1.034853488999816495e-01
1.000477604602425796e-01
9.462742645077124037e-02
8.731120681790099924e-02
7.823155207104959263e-02
6.757984792206114810e-02
5.555916338422181577e-02
4.242498991619035598e-02
2.845459648785913023e-02
1.393839565007863428e-02
-8.082020869556918313e-04
-1.546731155979603339e-02
-2.972481193261627269e-02
-4.326892073983549386e-02
-5.579984380921648029e-02
-6.705232437502481324e-02
-7.676964291548316055e-02
-8.474061085646128477e-02
-9.079543024106501159e-02
-9.478308893497139342e-02
-9.662970662585668169e-02
-9.628416131080752560e-02
-9.374660682945840096e-02
-8.908550970478426589e-02
-8.238484458584671710e-02
-7.380387604428761961e-02
-6.353423482457715155e-02
-5.179687573379356674e-02
-3.887037176609681177e-02
-2.504274951131670729e-02
-1.063298298572242992e-02
4.020228279314671041e-03
1.857725731267331065e-02
3.269665669349349629e-02
4.603787941811558065e-02
5.828577818799074439e-02
6.914899640873854725e-02
7.835142006825121519e-02
8.568312346910242350e-02
9.095449388448029193e-02
9.402941634088590739e-02
9.484523382951962067e-02
9.335739080501806453e-02
8.961396015122818914e-02
8.370413466644527345e-02
7.575833442421478492e-02
6.599056649683412989e-02
5.462981873246670894e-02
4.196247932604463271e-02
2.831266307831883586e-02
1.401554812237689081e-02
-5.615458869255365859e-04
-1.504536584321647386e-02
-2.906815859889690795e-02
-4.226747881200672990e-02
-5.429071739882940922e-02
-6.483127255423623558e-02
-7.359724703112305311e-02
-8.034268732044039241e-02
-8.488666399695912745e-02
-8.706548473583616832e-02
-8.680806964237905432e-02
-8.408578171511760235e-02
-7.891647571961224461e-02
-7.141528129492547006e-02
-6.171600483122311603e-02
-5.003196422923453235e-02
-3.663035375427527163e-02
-2.180048502152534540e-02
-5.899088488623933230e-03
1.070272618669921433e-02
2.761244326440539035e-02
4.441626236919664350e-02
6.070247507533960141e-02
7.607426474038006536e-02
9.014007668811843677e-02
1.025422687935400312e-01
1.129726756162716672e-01
1.211382860474375101e-01
1.268338484792472798e-01
1.298956222527041238e-01
1.302093564953056282e-01
1.277676762584849801e-01
1.225845947471504160e-01
1.147699361290956399e-01
1.045004460023241932e-01
9.198287330531773609e-02
7.751862988102528607e-02
6.143043212180775842e-02
4.408353074575054736e-02
2.588675187850860218e-02
7.253859378056200582e-03
-1.138621275860864437e-02
-2.959999322609018629e-02
-4.697118562910459344e-02
-6.310932977681091294e-02
-7.763409700561824112e-02
-9.022999143614282569e-02
-1.006131644000263781e-01
-1.085411564385141692e-01
-1.138637837325850721e-01
-1.164501585887753876e-01
-1.162608787056275683e-01
-1.133224063780427504e-01
-1.076937439245007344e-01
-9.954022859394548450e-02
-8.905230813365080933e-02
-7.648128669437304072e-02
-6.214270516173963504e-02
-4.636521565934519779e-02
-2.953074899947025211e-02
-1.203895825993515564e-02
5.703572711770601295e-03
2.327952941383958432e-02
4.027409282992448769e-02
5.630122259321627270e-02
7.098940528263256167e-02
8.399609632932794612e-02
9.504553705882345938e-02
1.038770605969612237e-01
1.103103557881189301e-01
1.142247378841465544e-01
1.155318557597463103e-01
1.142527957226083801e-01
1.104354668980573051e-01
1.041983579137586713e-01
9.573671764543520424e-02
8.526361658961117973e-02
7.306883566114405482e-02
5.946871258104018121e-02
4.480196570551533281e-02
2.944306359950594337e-02
1.376962810781230846e-02
-1.841188431055688218e-03
-1.701252988371637978e-02
-3.138340331277420653e-02
-4.463072605886964778e-02
-5.644080723090421498e-02
-6.655695302143146974e-02
-7.476605798208113551e-02
-8.088041290660505367e-02
-8.480126787371780606e-02
-8.645246180808902059e-02
-8.582138635337366317e-02
-8.296664968069442092e-02
-7.796522517946252728e-02
-7.097716992557942528e-02
-6.219237161452165902e-02
-5.183461351322072447e-02
-4.018351408259981938e-02
-2.752729599604185340e-02
-1.418495825341341623e-02
-4.919119732177939380e-04
1.321649205087176322e-02
2.660543094228682431e-02
3.934197351425589712e-02
5.112127988854388294e-02
6.166064948445497407e-02
7.069511908991504834e-02
7.802467398850493341e-02
8.346655759483495585e-02
8.689471528249503862e-02
8.824856279884554788e-02
8.748627969123162762e-02
8.465522418729709564e-02
7.983587237289271887e-02
7.315130729797567066e-02
6.479698628687818873e-02
5.498095253574872970e-02
4.396363436313300427e-02
3.203430517969192703e-02
1.949207887832621680e-02
6.660410608530856202e-03
-6.133937416958078204e-03
-1.857262417012489619e-02
-3.034414802047882137e-02
-4.114821906592951856e-02
-5.072774667148405303e-02
-5.883760536866042973e-02
-6.527690349407297421e-02
-6.989737719601887833e-02
-7.256665253667252125e-02
-7.323067188530169025e-02
-7.186542487546221381e-02
-6.848826729749107889e-02
-6.318901696443757210e-02
-5.607121523277477232e-02
-4.730116934802530010e-02
-3.708084696786904250e-02
-2.563103244608264802e-02
-1.322104019581818446e-02
-1.291506009577364500e-04
1.334827239841372866e-02
2.689973056277054908e-02
4.021500696685157555e-02
5.299097912215074840e-02
6.492702241743306124e-02
7.574642174282306128e-02
8.520177516401319928e-02
9.305702560475859197e-02
9.913658452125781451e-02
1.032888665659497940e-01
1.054014189617699659e-01
1.054324989815708657e-01
1.033549200714727334e-01
9.921419350221630240e-02
9.309843091075989396e-02
8.512219994268940826e-02
7.547069295894887064e-02
6.434324532083268711e-02
5.197895290268111923e-02
3.865119995975930395e-02
2.464010930235657412e-02
1.024939294921485729e-02
-4.211162580249399809e-03
-1.843613211782613517e-02
-3.212560069502030241e-02
-4.498515957178585850e-02
-5.675421151351680432e-02
-6.718605287884713007e-02
-7.606178147970543701e-02
-8.321432430155570326e-02
-8.848808907555780201e-02
-9.178928457574658806e-02
-9.306146574081258782e-02
-9.227452415566111954e-02
-8.947108161905500956e-02
-8.470927175379100449e-02
-7.809973522473509511e-02
-6.979976944787977255e-02
-5.998104264447374351e-02
-4.887065057901627402e-02
-3.671129593500150473e-02
-2.376699983378627312e-02
-1.032954006177038905e-02
3.306423056866677340e-03
1.683928361157741027e-02
2.996463460611229271e-02
4.238879880895150831e-02
5.383878531527042793e-02
6.404794629912571868e-02
7.279385391427217744e-02
7.988163635029765786e-02
8.514137460504975219e-02
8.847460762554237856e-02
8.979900925080488983e-02
8.909532320968890917e-02
8.640203755693334764e-02
8.177803215501261436e-02
7.536437235005410962e-02
6.732620363568048161e-02
5.786929046415566907e-02
4.725390193706409392e-02
3.574933819513426148e-02
2.366163282567596698e-02
1.131262994541199461e-02
-9.745348273772994757e-04
-1.287428060353476914e-02
-2.406332329070404868e-02
-3.424824071171121698e-02
-4.315479758451654102e-02
-5.053090345829874125e-02
-5.619020723590167216e-02
-5.996181382064742077e-02
-6.173980667670201511e-02
-6.147956622826331735e-02
-5.915914213773324631e-02
-5.485103304610820796e-02
-4.865635875592051046e-02
-4.072751025966299399e-02
-3.128778636795230550e-02
-2.057357620554576411e-02
-8.879005257722741296e-03
3.476079108856665843e-03
1.616087790951690681e-02
2.882236105513267393e-02
4.110611485192002673e-02
5.267391427697724893e-02
6.319825924317068466e-02
7.237070206319173860e-02
7.994153899097750093e-02
8.567543990501971796e-02
8.940200251603652726e-02
9.101393125396586847e-02
9.042760456600393293e-02
8.766099397298557361e-02
8.276381931091100763e-02
7.584220912134109760e-02
6.708270123183232569e-02
5.668694733406851038e-02
4.492458316045716549e-02
3.209652268945380887e-02
1.851951565381330586e-02
4.543505447951166377e-03
-9.477776790499298221e-03
-2.319613819545793265e-02
-3.626716971165034470e-02
-4.836057613157394158e-02
-5.919129602488914371e-02
-6.848568807634278222e-02
-7.602380813448850194e-02
-8.163948564529238672e-02
-8.518679135103601752e-02
-8.660913738574929632e-02
-8.587875330626904002e-02
-8.301984323633149199e-02
-7.813298045396585567e-02
-7.133392805685290217e-02
-6.281002185011599903e-02
-5.278260778074336107e-02
-4.149529862659815521e-02
-2.923995286721060849e-02
-1.631597210641468759e-02
-3.038029909797524894e-03
1.026845771507035876e-02
2.328294876293331497e-02
3.570189038740951420e-02
4.722668799128820760e-02
5.759340487009458748e-02
6.657386395471937002e-02
7.395534616738333455e-02
7.959652806715475371e-02
8.337991105066022701e-02
8.523475316409626079e-02
8.516113548084450202e-02
8.317409255310578842e-02
7.936265639104350678e-02
7.385215311751461287e-02
6.679473793755211219e-02
5.840258834530449167e-02
4.889834948608041271e-02
3.853527577166905582e-02
2.758881692419252671e-02
1.633662395835298875e-02
5.062223745657106616e-03
-5.950247870328512906e-03
-1.643355801234237801e-02
-2.613844306040097321e-02
-3.482546269846910347e-02
-4.230309000792573104e-02
-4.839633684003726705e-02
-5.296562329891684601e-02
-5.592666335679747497e-02
-5.720754523287124166e-02
-5.680062876847185444e-02
-5.473080602548262980e-02
-5.104998759427254590e-02
-4.587250803793654214e-02
-3.932455126312889293e-02
-3.157480110352858110e-02
-2.282370463191965917e-02
-1.328110433073506277e-02
-3.187639283622666075e-03
7.209062012023197130e-03
1.765799358458963741e-02
2.790444997508831695e-02
3.769741586840063413e-02
4.680737120442206300e-02
5.501256763801942729e-02
6.211576623890541216e-02
6.795919491719075445e-02
7.239504794629833540e-02
7.533191311110193356e-02
7.670783034902184383e-02
7.648816854434101198e-02
7.470351465389027390e-02
7.139747366497864456e-02
6.666452377845027977e-02
6.063832820049733924e-02
5.346628776897841689e-02
4.534279826885403986e-02
3.647363941178869556e-02
2.708021170982636769e-02
1.740154534058863806e-02
7.676946409729626560e-03
-1.858114380437949492e-03
-1.096974384019861262e-02
-1.943946649476160915e-02
-2.707441363826812442e-02
-3.368893378272833777e-02
-3.914140549182926893e-02
-4.331392640818697987e-02
-4.611194787735199002e-02
-4.749846987158778261e-02
-4.744842822995572890e-02
-4.598590358892983704e-02
-4.317398679637218795e-02
-3.909093333356230410e-02
-3.386883873796360522e-02
-2.765346659474105656e-02
-2.061546145976550504e-02
-1.295440207798003243e-02
-4.873963580876942286e-03
3.407496212636400117e-03
1.166627735259734289e-02
1.968372452599038286e-02
2.724983897713725151e-02
3.415857027978387583e-02
4.023340705622906882e-02
4.531425402604295771e-02
4.926018449663613352e-02
5.197910971207592157e-02
5.338954514756438091e-02
5.345703009338426820e-02
5.218556898822815371e-02
4.959512042693083739e-02
4.576426565245923089e-02
4.078701744547747615e-02
3.478816374327065725e-02
2.792937005556947808e-02
2.037881371521018878e-02
1.233138597399861813e-02
3.992163519324676106e-03
-4.431925212278422024e-03
-1.273071464563917121e-02
-2.069549377586265768e-02
-2.813525647301799715e-02
-3.486914609439421830e-02
-4.073069609184049034e-02
-4.559136060594815715e-02
-4.933113721690170206e-02
-5.186989013912422786e-02
-5.316108741114238673e-02
-5.317270421010787673e-02
-5.192778725220091596e-02
-4.946439037804851308e-02
-4.585257942908994161e-02
-4.120194877375415315e-02
-3.563006350461756649e-02
-2.928977007665931748e-02
-2.234787364275299393e-02
-1.497958231477366370e-02
-7.375361511786483401e-03
2.731658108063505716e-04
7.779162177589352134e-03
1.495862607275546055e-02
2.163704248310812511e-02
2.766585052120199353e-02
3.290273124819136086e-02
3.723835556744617414e-02
4.059204751759581953e-02
4.289625310452028356e-02
4.413496436844029785e-02
4.430667560842297542e-02
4.344169382831265108e-02
4.161080727255907219e-02
3.889320637561458766e-02
3.540633219502624385e-02
3.128326262138546310e-02
2.666762248364821369e-02
2.172278848400223394e-02
1.661437727611412424e-02
1.150862935811096735e-02
6.572157532904857741e-03
1.965186715639735682e-03
-2.170209989646801341e-03
-5.696459035887418976e-03
-8.500665706263049043e-03
-1.049202119843273620e-02
-1.158961855976117089e-02
-1.175254316578277017e-02
-1.095147691208036775e-02
-9.182534492048630148e-03
-6.475182752258220459e-03
-2.866289140453557802e-03
1.572015588644649041e-03
6.752689410519758899e-03
1.257513350190220605e-02
1.891253796287292038e-02
2.563371438474385325e-02
3.259214498227233636e-02
3.963169559646588513e-02
4.659437760365027492e-02
5.331719390901683286e-02
5.963655234342785105e-02
6.539523384865350564e-02
7.044189602228731473e-02
7.463038121880274933e-02
7.783706042348675913e-02
7.994520087858522639e-02
8.085976456516050237e-02
8.051503504259741040e-02
7.885348245234197195e-02
7.586103463836610383e-02
7.154262691483909142e-02
6.592625576911474716e-02
5.908595314454914010e-02
5.110466898798728119e-02
4.210534502809305801e-02
3.223679391786726106e-02
2.165983218266012700e-02
1.057039908890282202e-02
-8.282901987014205242e-04
-1.231965743483214026e-02
-2.367442842026966712e-02
-3.466364060298642025e-02
-4.506215509718328877e-02
-5.464631351288640887e-02
-6.320887053785781418e-02
-7.056544545477705377e-02
-7.653966533468264943e-02
-8.100175576621806983e-02
-8.384299227728272963e-02
-8.498385481159442811e-02
-8.440499392994155192e-02
-8.209940760876774379e-02
-7.811965667420012194e-02
-7.255802558885968145e-02
-6.552748111776288131e-02
-5.720365781244423492e-02
-4.777593204760496870e-02
-3.746633770573017802e-02
-2.652887676032033432e-02
-1.522245871948587834e-02
-3.823351954431781011e-03
7.387083797213828823e-03
1.813618156250131411e-02
2.816375864020631906e-02
3.721626829345901777e-02
4.508358376429305592e-02
5.157582381253721787e-02
5.653390040164091995e-02
5.986420864576724038e-02
6.148689723592319634e-02
6.138984443839624883e-02
5.960749121957569646e-02
5.619820247053429474e-02
5.129506766474249690e-02
4.504803292665709308e-02
3.764706725689772465e-02
2.932250556810914177e-02
2.031176102656385984e-02
1.087890372163832428e-02
1.296309230374527444e-03
-8.166986180839427845e-03
-1.724689384580804785e-02
-2.568397080101333940e-02
-3.325252286504326582e-02
-3.974308619935439102e-02
-4.497147760315393927e-02
-4.880899730672393771e-02
-5.113876697059627913e-02
-5.190248556554816900e-02
-5.108336166801989708e-02
-4.868600812586156013e-02
-4.478399686012146663e-02
-3.946700023908557980e-02
-3.286499851047937348e-02
-2.514985803671301173e-02
-1.650239208680596981e-02
-7.139878922629393568e-03
2.708446752398874745e-03
1.280665359684791255e-02
2.290859987038067203e-02
3.276887634759041712e-02
4.215521433287335723e-02
5.084188580756117404e-02
5.861899238141642099e-02
6.531254936314574711e-02
7.075684004854149167e-02
7.483180689889529225e-02
7.745074131959298058e-02
7.854595782699547168e-02
7.811325811099686933e-02
7.616385990020577146e-02
7.275150250211084857e-02
6.797545200585991543e-02
6.194613642921929786e-02
5.482217424244040238e-02
4.677862257230405024e-02
3.800658754790394583e-02
2.872240995246953116e-02
1.914526802538720970e-02
9.499671146715130826e-03
1.281295735034489874e-05
-9.095141426795596423e-03
-1.762059355750831419e-02
-2.536438573261650536e-02
-3.215721772623012648e-02
-3.785226512292890616e-02
-4.231693436069589725e-02
-4.546784463809738774e-02
-4.723401350051726483e-02
-4.758140869616361845e-02
-4.651676026305544276e-02
-4.405793626656193812e-02
-4.027330356238209563e-02
-3.524909927347927990e-02
-2.909448269289788974e-02
-2.195577721220109968e-02
-1.398567974787814916e-02
-5.363370750672879009e-03
3.718061091477936706e-03
1.306067583078510466e-02
2.245505554510041774e-02
3.169045181518202747e-02
4.056182908814032206e-02
4.886858387162017203e-02
5.641719833579488669e-02
6.304009852279736370e-02
6.857670768326558364e-02
7.289464269453391210e-02
7.589356737241778617e-02
7.748377147789617392e-02
7.762700085216003854e-02
7.630386875918873657e-02
7.352452521938615537e-02
6.934850358681129978e-02
6.384506998390108989e-02
5.713003503096431013e-02
4.934444196138283723e-02
4.064444592831434333e-02
3.122347865223122979e-02
2.128168532531680632e-02
1.103448760077840526e-02
7.095203983528966182e-04
-9.466263473035651382e-03
-1.926985454920791124e-02
-2.847976091115252822e-02
-3.689218190456051288e-02
-4.432403740970684153e-02
-5.060081861468320591e-02
-5.559234656410972503e-02
-5.918525360697276388e-02
-6.129581091420372579e-02
-6.189139354334919491e-02
-6.095017463196623214e-02
-5.850548707939128706e-02
-5.462151164013130666e-02
-4.938397066218630505e-02
-4.293353851334249377e-02
-3.542172373298076160e-02
-2.703407782593172937e-02
-1.798419894025264990e-02
-8.492137350384565408e-03
1.199666670687047840e-03
1.084326057170712995e-02
2.019290990075650952e-02
2.900555718570207650e-02
3.704298888883102159e-02
4.409609567144233411e-02
4.996722477707952331e-02
5.448534211128652077e-02
5.752675867725888514e-02
5.897869186314101675e-02
5.878865828714396891e-02
5.693895383896049878e-02
5.343839451971690163e-02
4.836570199659494251e-02
4.181401849381394947e-02
3.392597690515455899e-02
2.488622491046354329e-02
1.489158300392839050e-02
4.183597670633747156e-03
-6.984324162324244412e-03
-1.834725991360710087e-02
-2.962596536173724149e-02
-4.054198008963252192e-02
-5.082765756845816774e-02
-6.021982364668986704e-02
-6.847396085045792669e-02
-7.537979475418749020e-02
-8.073565297534332497e-02
-8.439122133249343793e-02
-8.622673247097276117e-02
-8.614756924508637503e-02
-8.412762081818855875e-02
-8.015556822700317663e-02
-7.427560240651745471e-02
-6.658047203211503451e-02
-5.717980438854888131e-02
-4.624831369127755526e-02
-3.397889106042960988e-02
-2.059481474699304329e-02
-6.358308189289183301e-03
8.462342684084609573e-03
2.357540910309603721e-02
3.867958095433203514e-02
5.347536417238235584e-02
6.766676051001778436e-02
8.096076322016085292e-02
9.309259037085348965e-02
1.038147742074643221e-01
1.128995772315644908e-01
1.201750117630269177e-01
1.254818885749138802e-01
1.287165180166691958e-01
1.298252338990034116e-01
1.287740046069034971e-01
1.256076713168124415e-01
1.203939539352167354e-01
1.132447439038569426e-01
1.043302755733700737e-01
9.383207697690057469e-02
8.198216815779094113e-02
6.903402297020161393e-02
5.525348344438313353e-02
4.093042591486738963e-02
2.635728464703872981e-02
1.182393832202059333e-02
-2.381356723446663090e-03
-1.598017328985418609e-02
-2.872309401540152490e-02
-4.036787493694211221e-02
-5.070930887806854998e-02
-5.957658428417745428e-02
-6.681363798064068882e-02
-7.232591359239101680e-02
-7.603733644674173786e-02
-7.791091869583710583e-02
-7.796288101725679098e-02
-7.622110450765559597e-02
-7.276979888693110854e-02
-6.771793420013119680e-02
-6.119620307454502056e-02
-5.337892561659432489e-02
-4.444788347819367269e-02
-3.461092031692149934e-02
-2.409285996097808996e-02
-1.312238347158013047e-02
-1.939086613254741714e-03
9.215670465734645753e-03
2.010725423659983496e-02
3.050746760309968816e-02
4.019434060796394509e-02
4.897416944039807707e-02
5.666217344861868010e-02
6.309983963016380093e-02
6.816551114082544660e-02
7.174718213614894591e-02
7.378415989056860691e-02
7.423905905766717273e-02
7.309998929314376337e-02
7.040793068221051776e-02
6.621400939171562250e-02
6.061285642601010187e-02
5.372832679224948810e-02
4.569708360085392856e-02
3.669461399067524415e-02
2.690480051468158509e-02
1.652795575175831227e-02
5.780590257038880145e-03
-5.119258972970764515e-03
-1.594943678290117878e-02
-2.648669210720532713e-02
-3.651599476323896115e-02
-4.583420565303644723e-02
-5.424276773735207946e-02
-6.157134280664992160e-02
-6.766283779540654963e-02
-7.237865432574347446e-02
-7.561980598718656688e-02
-7.729571436206655877e-02
-7.735774300682415894e-02
-7.578629909670933640e-02
-7.257843694010643332e-02
-6.778381011575565496e-02
-6.146435119615686199e-02
-5.371822615605034018e-02
-4.468040576217255366e-02
-3.449582776542866464e-02
-2.335166111887571755e-02
-1.144873394311318390e-02
9.961673263018657951e-04
1.374246912475729325e-02
2.654673288752448443e-02
3.915810354135668137e-02
5.132219064519229906e-02
6.279093046930325772e-02
7.333035657741118762e-02
8.271071348394740119e-02
9.073322468746927716e-02
9.722122584450287874e-02
1.020148809278655921e-01
1.050097386842044622e-01
1.061149437022094189e-01
1.052866635001679929e-01
1.025302785263820515e-01
9.786642196062741994e-02
9.138368822863104923e-02
8.319348783327132346e-02
7.344078251652044753e-02
6.232209161266377695e-02
5.004298098466316430e-02
3.684782587576186652e-02
2.300029286499378697e-02
8.771493874045643152e-03
-5.550706872332677316e-03
-1.967662211658990565e-02
-3.332377073347012053e-02
-4.621497336254361266e-02
-5.808273123509633679e-02
-6.869304160838013429e-02
-7.782064997795692940e-02
-8.527771506637130128e-02
-9.091673908820213645e-02
-9.460455324652994324e-02
-9.627506564100080100e-02
-9.588551934743111405e-02
-9.343338829335107176e-02
-8.897988547067137155e-02
-8.259920734567124945e-02
-7.442896529591441768e-02
-6.463933003535407562e-02
-5.342280638776498308e-02
-4.102416478887102591e-02
-2.769752483532985504e-02
-1.372309464232972231e-02
5.991379053146778447e-04
1.496755612845995440e-02
2.907641928780576104e-02
4.261967490246331564e-02
5.530872417285346426e-02
6.687436025351489732e-02
7.705761845617972727e-02
8.565155001342344976e-02
9.246797448227878080e-02
9.735792650855767949e-02
1.002365051302342158e-01
1.010330603191962329e-01
9.975183495002717948e-02
9.643674706154950482e-02
9.116265452727015384e-02
8.407922427522790398e-02
7.535055521927930267e-02
6.518979367866850616e-02
5.384841016426036853e-02
4.158824523923354555e-02
2.870623256392082837e-02
1.550763510091011758e-02
2.300640982998790503e-03
-1.060321291052865322e-02
-2.289666444225611774e-02
-3.429847557640807593e-02
-4.453719299770379086e-02
-5.336944041799346339e-02
-6.059914701910504992e-02
-6.604182696266813757e-02
-6.957871757482356201e-02
-7.112697388953864719e-02
-7.063518515871677894e-02
-6.813047490555293462e-02
-6.365605770843207889e-02
-5.731723281063522829e-02
-4.926929154643271136e-02
-3.968540666243079718e-02
-2.880268749786591559e-02
-1.687459483019770196e-02
-4.180851469059308073e-03
8.967840635236836583e-03
2.225759242768315244e-02
3.536602128031536563e-02
4.796772535931637799e-02
5.975044187623215070e-02
7.042476083857571179e-02
7.970888843820633785e-02
8.737279754463250780e-02
9.321564509206289872e-02
9.706718472698719347e-02
9.883623111953585005e-02
9.844862922831132401e-02
9.590218439350955970e-02
9.125441233707598521e-02
8.458617858876613105e-02
7.606494230262664247e-02
6.588119701398945094e-02
5.426847608679345736e-02
4.151262927050581447e-02
2.790811133636389441e-02
1.378351560069451982e-02
-5.193808646163661918e-04
-1.465977590589891827e-02
-2.829866671633632369e-02
-4.110065548310209982e-02
-5.276488376194869712e-02
-6.301057688307840077e-02
-7.158218238159819169e-02
-7.829156373663020974e-02
-8.296570853985801852e-02
-8.549966144965653880e-02
-8.584665745659569858e-02
-8.398407566411397740e-02
-7.998194228180946497e-02
-7.393583961916977421e-02
-6.599398109399667867e-02
-5.637050580499281677e-02
-4.529262493347889496e-02
-3.304537291462812665e-02
-1.993700748382517055e-02
-6.289155436854617851e-03
7.551932984666158422e-03
2.123825181909742149e-02
3.443136440235861073e-02
4.679858290821408556e-02
5.802413323309485449e-02
6.783921809539930625e-02
7.598636683445153528e-02
8.226725552167163391e-02
8.653566940029031040e-02
8.866892874774701117e-02
8.863801185766947976e-02
8.644062499696239521e-02
8.213297357646903718e-02
7.584677690835522901e-02
6.772981382462621436e-02
5.800432569191284887e-02
4.692348152898939695e-02
3.476377458071813059e-02
2.184604067803996158e-02
8.497049663886254572e-03
-4.946076186868094554e-03
-1.813983354200449094e-02
-3.074943081048800431e-02
-4.246547845426641016e-02
-5.298538736282348144e-02
-6.205025945877602062e-02
-6.944085815776826487e-02
-7.495720572142325344e-02
-7.847873596961910114e-02
-7.990830759314565546e-02
-7.920262585130277699e-02
-7.639003062179217096e-02
-7.151513805941051016e-02
-6.470155063597554657e-02
-5.610677649621104851e-02
-4.591921740886611980e-02
-3.438788962991600612e-02
-2.177189554160987098e-02
-8.364585143066888967e-03
5.518893033694842465e-03
1.956055148048075829e-02
3.343497894704008239e-02
4.681632481533810897e-02
5.939793579732038920e-02
7.089111426454250409e-02
8.101979897578653889e-02
8.956303269535789702e-02
9.631677277952846450e-02
1.011226480224697299e-01
1.038849087045214947e-01
1.045234045158167369e-01
1.030380986334623883e-01
9.946447118863771530e-02
9.387442757367409074e-02
8.641362248428616222e-02
7.724112720873624327e-02
6.656911525512088090e-02
5.464461198527417046e-02
4.172645279260354945e-02
2.810802891572629011e-02
1.408948015132474238e-02
-2.675827281467882401e-05
-1.393603904296758164e-02
-2.733935461513883197e-02
-3.996505435075811685e-02
-5.155028729566301510e-02
-6.186270518283929626e-02
-7.071306814623118386e-02
-7.792371299202241475e-02
-8.337943802839914431e-02
-8.699362510265160053e-02
-8.871109474211077983e-02
-8.854235045246192093e-02
-8.651059689150145116e-02
-8.269391904041420438e-02
-7.720753505239569270e-02
-7.018322448051350637e-02
-6.180337098453004413e-02
-5.226141442089086292e-02
-4.177317749291635518e-02
-3.057670712753279146e-02
-1.891250046468795701e-02
-7.028450236569609710e-03
4.825454690191154083e-03
1.640865773692917057e-02
2.749434513018894979e-02
3.786120477390057804e-02
4.732234803822260583e-02
5.570716024998386556e-02
6.286727631338499822e-02
6.870233857166500868e-02
7.312198629191976607e-02
7.608399751360811480e-02
7.757972593090717295e-02
7.761776232698400224e-02
7.626133093487891257e-02
7.358621972774948006e-02
6.969957216879579809e-02
6.474060901418567104e-02
5.885523280685381331e-02
5.221610547317134809e-02
4.500449996226783128e-02
3.740579369169183543e-02
2.961152315213004885e-02
2.181242103319176381e-02
1.418861096473172587e-02
6.915025199176764482e-03
1.554730112059716368e-04
-5.951046080234365793e-03
-1.127112689419539765e-02
-1.570148556127549597e-02
-1.916049299188365626e-02
-2.157919016939510368e-02
-2.293026018137350394e-02
-2.319644711577607821e-02
-2.239039518027386919e-02
-2.055626465821586840e-02
-1.774693422844833557e-02
-1.405350933393742854e-02
-9.579981702740464344e-03
-4.446725363351592200e-03
1.200529876916317865e-03
7.212179798703001292e-03
1.342436966043693974e-02
1.966612212754750844e-02
2.576723318778061447e-02
3.155940770280686591e-02
3.687580917975839812e-02
4.156642147968606787e-02
4.549369200745968789e-02
4.853080318626518119e-02
5.058782868343215250e-02
5.158421435284932244e-02
5.147234656043678941e-02
5.024038586423922731e-02
4.788726135784964616e-02
4.446112998391255761e-02
4.002730062927935262e-02
3.467425370963314601e-02
2.852744379393132995e-02
2.171849370437438712e-02
1.440396902532230759e-02
6.753317679313533377e-03
-1.060792997932791595e-03
-8.858268652687441291e-03
-1.645857246196700055e-02
-2.369065719942243728e-02
-3.039072246716936765e-02
-3.640285056025208132e-02
-4.159927500584870846e-02
-4.585961229352918112e-02
-4.909050327600752300e-02
-5.122882891670355737e-02
-5.222095441869367693e-02
-5.205806737598890621e-02
-5.074750560484119627e-02
-4.832064883370977559e-02
-4.484843214437499170e-02
-4.040930213253578207e-02
-3.511637520021745201e-02
-2.910125781646524107e-02
-2.250570594371139460e-02
-1.549607377974530562e-02
-8.242896855091209202e-03
-9.237955497154587414e-04
6.278034085104171151e-03
1.318195289222529737e-02
1.961756619038605709e-02
2.541754954440925834e-02
3.043411560325728210e-02
3.454200317532647030e-02
3.762467652443551858e-02
3.960960790088344924e-02
4.044067949526630734e-02
4.008988078743382089e-02
3.857688953906070195e-02
3.593110601093441048e-02
3.222994467482513670e-02
2.757723705713799670e-02
2.209332033532632883e-02
1.593988060747403290e-02
9.286290618502286709e-03
2.321356119020787263e-03
-4.750356883598027061e-03
-1.172332010218646997e-02
-1.839001682311849559e-02
-2.454288042573352785e-02
-2.998834988192717460e-02
-3.454950374547428871e-02
-3.805709020758717143e-02
-4.038272554430625411e-02
-4.141376850759161121e-02
-4.106650488054337106e-02
-3.930783538720700881e-02
-3.611549632264429710e-02
-3.152333171286263169e-02
-2.559702653252434595e-02
-1.842431243341072569e-02
-1.014999728664626663e-02
-9.302433644008140795e-04
9.043548129074825692e-03
1.955052628287270305e-02
3.036313001618796276e-02
4.123027097159551180e-02
5.189496303062406113e-02
6.210232153097684088e-02
7.160003452618543540e-02
8.014076753880489123e-02
8.750764981996453362e-02
9.349597436137901951e-02
9.792911598354300806e-02
1.006811376941502689e-01
1.016377415975241172e-01
1.007490348162081717e-01
9.800281716439082635e-02
9.341482123674330063e-02
8.707548531856429408e-02
7.909072798111019265e-02
6.961807578580091194e-02
5.885949717838834944e-02
4.702928590601109654e-02
3.438734109259807686e-02
2.120580715179305048e-02
7.767403699337680628e-03
-5.631808029827448103e-03
-1.869707423225685713e-02
-3.114779143603779027e-02
-4.270925292130166306e-02
-5.312786859146587104e-02
-6.218938089558850163e-02
-6.968916455051132886e-02
-7.547925563602381205e-02
-7.944588357258067224e-02
-8.150180655540079089e-02
-8.163306668707942526e-02
-7.984147092473092844e-02
-7.618453570048464019e-02
-7.076920932939165243e-02
-6.371815752577872360e-02
-5.521483030093040506e-02
-4.545980897071484617e-02
-3.467865290066943218e-02
-2.312939636972644736e-02
-1.107425999373410144e-02
1.210865414157041332e-03
1.344446013091223080e-02
2.535144459967366218e-02
3.666916168446086172e-02
4.713947232786161456e-02
5.653861093274517580e-02
6.466420186004226411e-02
7.133423441803718457e-02
7.642497696893305048e-02
7.982588040712165767e-02
8.147851619084020558e-02
8.137210743273159963e-02
7.951279690472481954e-02
7.597487209022668608e-02
7.085257415410467496e-02
6.427448845615776896e-02
5.641521906803709935e-02
4.745743642923661715e-02
3.761792771367318544e-02
2.712817053299458256e-02
1.622460065260518391e-02
5.153382892374836106e-03
-5.839290005910886816e-03
-1.652013036495431075e-02
-2.666413195248362039e-02
-3.605829688632924968e-02
-4.452532506609813145e-02
-5.189637185267104852e-02
-5.803931577664948188e-02
-6.285662858874907499e-02
-6.626368863668352649e-02
-6.822963232826162461e-02
-6.873988174872641688e-02
-6.780986281049333764e-02
-6.549643696913970414e-02
-6.186472247774233574e-02
-5.701799949295319886e-02
-5.107655756725486967e-02
-4.417290765188140733e-02
-3.646444159015100467e-02
-2.811241952706732689e-02
-1.928796181092447617e-02
-1.016870576487543393e-02
-9.312464664607122272e-04
8.251422187122502833e-03
1.720757159764443878e-02
2.577784668554271644e-02
3.381490173797759013e-02
4.117746299189888742e-02
4.775110684828556828e-02
5.342988360787184754e-02
5.812733407358023491e-02
6.178474296090624013e-02
6.434994594534228229e-02
6.580435168539221225e-02
6.614483731349665718e-02
6.538371307090304341e-02
6.356575703766051411e-02
6.074192637076550327e-02
5.698888036767721377e-02
5.240079500160623599e-02
4.707925001572632606e-02
4.114855520861632893e-02
3.473798334151793898e-02
2.798605405581440844e-02
2.104053387302880912e-02
1.404986478135837602e-02
7.163851440752200955e-03
5.326050082691859144e-04
-5.699856119240705524e-03
-1.139845476154157863e-02
-1.643148303852316056e-02
-2.068811952161775727e-02
-2.406749342099249317e-02
-2.648302965350860655e-02
-2.787923674664822410e-02
-2.820734141027001624e-02
-2.745280167497078649e-02
-2.562512418487120081e-02
-2.274740273494328668e-02
-1.888628019663585525e-02
-1.411860354496656186e-02
-8.549339572618840782e-03
-2.312427548237702343e-03
4.451431297023957998e-03
1.157350038380005469e-02
1.887591788353141370e-02
2.617466614796338381e-02
3.327642100650356205e-02
3.998822834393610942e-02
4.612647737515779972e-02
5.151217701399250781e-02
5.597945913410973251e-02
5.939197129889359217e-02
6.162033103186222854e-02
6.257518417242857733e-02
6.219616158570832887e-02
6.044031136070097260e-02
5.732241333644788606e-02
5.287121763305979716e-02
4.715544010662810204e-02
4.028622309162634835e-02
3.238535619542833033e-02
2.362056507455670765e-02
1.417510651463406955e-02
4.247699426734948339e-03
-5.938835248340702117e-03
-1.615904333917090457e-02
-2.618287474623592209e-02
-3.577799354585735336e-02
-4.471974489081301934e-02
-5.280139895766925578e-02
-5.982107449862283238e-02
-6.560979041111270060e-02
-7.002311938722974305e-02
-7.293299781711742868e-02
-7.426755480576130442e-02
-7.396905214925800220e-02
-7.202395466314431838e-02
-6.846707566891235830e-02
-6.334686619551460618e-02
-5.677363540868948094e-02
-4.887938687804092852e-02
-3.982406151546183382e-02
-2.981250250225302850e-02
-1.905690284538715321e-02
-7.798434643970675317e-03
3.706655597959458964e-03
1.519972733499827533e-02
2.641669255593474472e-02
3.709389462182220015e-02
4.698611138313403546e-02
5.586229963509815183e-02
6.350511139827536011e-02
6.974633916321415494e-02
7.443069555560574702e-02
7.744901057789604915e-02
7.874408827632942143e-02
7.827448224428817936e-02
7.607308589669373178e-02
7.219973727935699581e-02
6.675139923846015733e-02
5.988655738283361896e-02
5.177463218491209357e-02
4.263210978295912945e-02
3.270075254591149616e-02
2.223226396064340374e-02
1.150244783156716827e-02
7.904975554684154360e-04
-9.628926917247152689e-03
-1.948475908095428921e-02
-2.851526434725276671e-02
-3.649393070838338748e-02
-4.320392289433625660e-02
-4.846754909522105192e-02
-5.215257271382799792e-02
-5.414131239789580358e-02
-5.438735048208031414e-02
-5.287095424549900780e-02
-4.961146009678948227e-02
-4.469496734648946423e-02
-3.822032261880870668e-02
-3.034540762696583127e-02
-2.126081782584384253e-02
-1.117469622238423388e-02
-3.393451070618780374e-04
1.098505887714931219e-02
2.252380786825578657e-02
3.399032455260246610e-02
4.510075690564926965e-02
5.558338445623754731e-02
6.517030932077466643e-02
7.362061977776018784e-02
8.072569520943193022e-02
8.628893329741016416e-02
9.017595846697132322e-02
9.227647451909562482e-02
9.251868260469517380e-02
9.089862978505616753e-02
8.742599946259455024e-02
8.217696352324488362e-02
7.526569648750849884e-02
6.682906530850961369e-02
5.706296200880681124e-02
4.617466595500899218e-02
3.440081887277547656e-02
2.200277688505601625e-02
9.245126421607293560e-03
-3.597496098851720586e-03
-1.624821048109496499e-02
-2.844132735442777421e-02
-3.992495606856032164e-02
-5.045418747572533169e-02
-5.982318297842615512e-02
-6.784172797488674522e-02
-7.434726167926344886e-02
-7.922749251651173275e-02
-8.238080413901491261e-02
-8.376061810386534190e-02
-8.335279951701266010e-02
-8.116518586507009969e-02
-7.726472292385436202e-02
-7.173062754092812687e-02
-6.468231927141479543e-02
-5.627408573939462338e-02
-4.667058189820089825e-02
-3.607541584039614807e-02
-2.470285612956551330e-02
-1.278069866341926403e-02
-5.539280151813617825e-04
1.173122182790633031e-02
2.382760210756398531e-02
3.548778548728823146e-02
4.647428366182999177e-02
5.656827529399510029e-02
6.555627668437608024e-02
7.325996969275197501e-02
7.952241551924091323e-02
8.420594931392030857e-02
8.722668991509557879e-02
8.851272001786142374e-02
8.803945832705978303e-02
8.582462582379252192e-02
8.190141899920422297e-02
7.636425164843163582e-02
6.932507977582672010e-02
6.092747654135435148e-02
5.135641776851507245e-02
4.080430112778460350e-02
2.949517582603028779e-02
1.766639523639852716e-02
5.560291827939645853e-03
-6.571240953908616053e-03
-1.847619001334279559e-02
-2.991344194266961493e-02
-4.064871908577455395e-02
-5.045861729012252744e-02
-5.915129416945302115e-02
-6.654239187828514535e-02
-7.248204725508172741e-02
-7.685215949222762299e-02
-7.954777416284830593e-02
-8.051812448403808387e-02
-7.972859592204370460e-02
-7.717917808245161604e-02
-7.291656224343825987e-02
-6.699798870191200906e-02
-5.953215812187991757e-02
-5.065019969360293889e-02
-4.050434407072386195e-02
-2.928884274271894433e-02
-1.720526782228926077e-02
-4.482187252267393063e-03
8.634394899824685346e-03
2.189409459289744231e-02
3.503413579762040819e-02
4.778973962580276846e-02
5.990316827173470388e-02
7.112336398756813338e-02
8.120649803883159268e-02
8.994140221657898060e-02
9.712718051729507529e-02
1.025951818727961762e-01
1.062216087106747364e-01
1.078949004868727246e-01
1.075692216086238662e-01
1.052283360028088144e-01
1.008900265800711515e-01
9.464201343552938739e-02
8.658551285875634718e-02
7.688063804254835487e-02
6.572672343457103272e-02
5.334022605632445652e-02
3.998904868099686927e-02
2.595201163391733581e-02
1.152701726474215926e-02
-2.969379436095152466e-03
-1.722071601989769510e-02
-3.091475628942121079e-02
-4.374096674678236429e-02
-5.540953199261295509e-02
-6.566034383450625178e-02
-7.424332172600275892e-02
-8.096750558052451252e-02
-8.566942886685524616e-02
-8.822189020844231622e-02
-8.857465077449558355e-02
-8.669330671969013857e-02
-8.261894212847883945e-02
-7.644446254118730799e-02
-6.828923616535395591e-02
-5.835514388142491043e-02
-4.686269811194308105e-02
-3.407755384699916873e-02
-2.031083084498231522e-02
-5.881874142022411669e-03
8.858700075103639188e-03
2.355055198052550397e-02
3.783744102134169174e-02
5.136919107283971497e-02
6.380163556716503259e-02
7.483440973997451673e-02
8.418819191478443820e-02
9.161818302928498303e-02
9.695525232314142206e-02
1.000466583257179076e-01
1.008231496168915386e-01
9.927455324270209602e-02
9.542220284886498982e-02
8.938893256581045832e-02
8.132128531875959521e-02
7.142609993021167836e-02
5.997278290004597751e-02
4.724388353488449821e-02
3.357521504120883349e-02
1.931998727992449011e-02
4.838846616646691988e-03
-9.496241648293619192e-03
-2.331563629240880967e-02
-3.627667632816067300e-02
-4.805008965493478418e-02
-5.833415592573249625e-02
-6.688953683174964082e-02
-7.349092142000887562e-02
-7.798773495517763443e-02
-8.028391062541428980e-02
-8.031330431541902626e-02
-7.810932536892228883e-02
-7.372943755778488262e-02
-6.729542157901122201e-02
-5.899782270082219032e-02
-4.904344077343270047e-02
-3.770852948138226496e-02
-2.529295432268673094e-02
-1.211694316253963261e-02
1.467308812021413285e-03
1.510510242903490008e-02
2.844427929792711640e-02
4.113403490023072318e-02
5.284085934917186894e-02
6.327179733339424739e-02
7.214395361640851823e-02
7.923580640810093390e-02
8.437196764242599345e-02
8.740452247058122515e-02
8.828018103221305091e-02
8.696930011391021398e-02
8.350874005446110027e-02
7.800862139242828452e-02
7.059737562417872647e-02
6.148456917859308757e-02
5.090832382819557300e-02
3.913587078355405813e-02
2.648155902531500183e-02
1.326581109564290567e-02
-1.751994117628399850e-04
-1.349707409447288217e-02
-2.636363433690668001e-02
-3.845879896966288014e-02
-4.947235831436156556e-02
-5.913770229688800756e-02
-6.722199668937373085e-02
-7.351400436082428103e-02
-7.787947527628721889e-02
-8.020403673661227750e-02
-8.043168533881092652e-02
-7.857266999216097614e-02
-7.465487065192055738e-02
-6.878735582003353555e-02
-6.110876965711065784e-02
-5.179320755379046570e-02
-4.107393557183305205e-02
-2.919399639128466423e-02
-1.643478403573874272e-02
-3.098432723470437994e-03
1.050818576226203102e-02
2.406684510260476487e-02
3.725860434085178502e-02
4.978087170621996876e-02
6.134410765221107176e-02
7.167213317485221502e-02
8.053875509783287034e-02
8.773132628837854163e-02
9.308472804759101993e-02
9.648942901680557238e-02
9.785247668388047382e-02
9.716127990075579257e-02
9.443352645184774352e-02
8.972820791323204981e-02
8.317540930223057960e-02
7.491834310734260538e-02
6.515874636950955145e-02
5.413102197632978230e-02
4.208506327236823802e-02
2.930992637856404820e-02
1.610138494594864217e-02
2.762962953497087593e-03
-1.039543955274493947e-02
-2.306916023580012076e-02
-3.497513950909353353e-02
-4.583665405595235831e-02
-5.540876285830462905e-02
-6.348482755614567874e-02
-6.987111399510523291e-02
-7.443978511967305756e-02
-7.708866520522400512e-02
-7.775415793845477652e-02
-7.644115246252572438e-02
-7.316818585001005903e-02
-6.801972004454215348e-02
-6.111817490226419819e-02
-5.260884081355975128e-02
-4.269694863824057690e-02
-3.159946109667566977e-02
-1.956496969071150685e-02
-6.868878676149535803e-03
6.209164148937930221e-03
1.937552506880840797e-02
3.233324354679048551e-02
4.479501196945676750e-02
5.648551059745628850e-02
6.713649906183838389e-02
7.652043611408290702e-02
8.442619576906201795e-02
9.067366085580003121e-02
9.513950370259041667e-02
9.771275881703198052e-02
9.834779323423689656e-02
9.703776865190941181e-02
9.380252686116694050e-02
8.873424155712883454e-02
8.194011511907048351e-02
7.357545517209868047e-02
6.383758985060232483e-02
5.293511539758306850e-02
4.111864507208916331e-02
2.865024151103484282e-02
1.580150162263348548e-02
2.856224199106168274e-03
-9.902875419043888350e-03
-2.220561367671102307e-02
-3.378709552038020730e-02
-4.440071395995087017e-02
-5.383443415596904369e-02
-6.188460084842774961e-02
-6.839663275838317458e-02
-7.324599696867620247e-02
-7.633120713038318850e-02
-7.761539383673277115e-02
-7.707578876980245020e-02
-7.474011780514674963e-02
-7.068155399480580137e-02
-6.498827491225639408e-02
-5.780751302090787053e-02
-4.930345336826212621e-02
-3.966717092379418858e-02
-2.912520648976436172e-02
-1.790957798816817520e-02
-6.273389626388752374e-03
5.521360548025643425e-03
1.721393502560381039e-02
2.854611888296330544e-02
3.926209581050605496e-02
4.912981412140478982e-02
5.793222805578913948e-02
6.546874536977734249e-02
7.158668873842685687e-02
7.614453072688173729e-02
7.904799049843574954e-02
8.024660215681667097e-02
7.970659231286658652e-02
7.746286269696706084e-02
7.357080000203439218e-02
6.812415982063013686e-02
6.126885366326561416e-02
5.316082058329195392e-02
4.400112809148154502e-02
3.401060551926172321e-02
2.342113966325040653e-02
1.248673250359608536e-02
1.463835953330165814e-03
-9.393521074295686085e-03
-1.983289106049175576e-02
-2.961096189195761008e-02
-3.851224971436489203e-02
-4.632825088473518926e-02
-5.288620193866724883e-02
-5.804748913421323847e-02
-6.168787098439452304e-02
-6.374459586527006505e-02
-6.417390946709908284e-02
-6.297116750042672240e-02
-6.018652075792867845e-02
-5.588186823872513115e-02
-5.017600195821397130e-02
-4.321346766346344931e-02
-3.515921464739117652e-02
-2.622037030485263598e-02
-1.661092196379014563e-02
-6.564476305205719717e-03
3.672202466878848361e-03
1.385304834675146757e-02
2.373496915089699441e-02
3.307640223633410287e-02
4.165688789494296357e-02
4.927674173305996580e-02
5.574754051896430723e-02
6.093167634135725208e-02
6.470781916011614232e-02
6.699245635252176756e-02
6.775668947562285549e-02
6.698409786763735718e-02
6.472163596231010618e-02
6.104587167627135991e-02
5.605884004308275825e-02
4.991690472006017620e-02
4.278596890183603008e-02
3.486401370853393911e-02
2.637119911401805683e-02
1.753192552547057012e-02
8.583008202247468382e-03
-2.366326289560058416e-04
-8.698167689898981397e-03
-1.658300321214889114e-02
-2.368032108471771272e-02
-2.981638691240913464e-02
-3.482975379915507347e-02
-3.858977750765848341e-02
-4.101166943035815943e-02
-4.202154453719284671e-02
-4.160292009589146300e-02
-3.976699421416388103e-02
-3.655037224384815459e-02
-3.204559724078780841e-02
-2.635569892186228474e-02
-1.962342883090252912e-02
-1.201984849090678362e-02
-3.725284988449735837e-03
5.050658970046400381e-03
1.409199551577327431e-02
2.317767540561373185e-02
3.208135982979562484e-02
4.057944796040370561e-02
4.846400672800611070e-02
5.553257461004161566e-02
6.160324109156705558e-02
6.652563766563446279e-02
7.015790831180498954e-02
7.240669277337374865e-02
7.320276689183008445e-02
7.250193150093867112e-02
7.031688236888866683e-02
6.667164601729171081e-02
6.163775456971204436e-02
5.532163743464735273e-02
4.784381144744790509e-02
3.937126365627296315e-02
3.008189387892408820e-02
2.017352006218253377e-02
9.865407751595726277e-03
-6.207873356028313638e-04
-1.105619193436207029e-02
-2.120962152107006352e-02
-3.085801211825776186e-02
-3.979115541875870299e-02
-4.780369991802298213e-02
-5.472240191148296934e-02
-6.039051135334461834e-02
-6.467176337045366097e-02
-6.747801607098294352e-02
-6.873136238535787479e-02
-6.840178068286031920e-02
-6.649550344461602203e-02
-6.303599645590929335e-02
-5.810586862788116175e-02
-5.180235567246894296e-02
-4.425751320516999043e-02
-3.564202851246754677e-02
-2.613473926802719477e-02
-1.594902314642191246e-02
-5.310426599179258328e-03
5.548597464790160083e-03
1.638434488132377645e-02
2.695339387042686857e-02
3.702415876794400151e-02
4.637134532879098187e-02
5.478463254359293433e-02
6.209013354679742552e-02
6.812240726505029709e-02
7.276163032930613173e-02
7.592357272969746385e-02
7.754236544178741419e-02
7.761739898346139976e-02
7.616474154340405200e-02
7.324186298278828611e-02
6.895356243736623647e-02
6.341520040453108020e-02
5.678859809327996971e-02
4.925253869030501996e-02
4.099934065354718382e-02
3.224406590282402618e-02
2.320405249124818728e-02
1.409750731383624736e-02
5.143088937645395875e-03
-3.449102440627823188e-03
-1.149057558508562518e-02
-1.879819754674225823e-02
-2.522085625306712958e-02
-3.063318676249546235e-02
-3.492354936762419315e-02
-3.803069897903330054e-02
-3.990669012429252926e-02
-4.053781040383264145e-02
-3.995067173853526776e-02
-3.818164606277249518e-02
-3.531205166274198337e-02
-3.144020366431404812e-02
-2.668224789171933647e-02
-2.118523433171512829e-02
-1.510107684357923918e-02
-8.598917101391295725e-03
-1.857575318427234431e-03
4.943567414398307609e-03
1.162394773567378137e-02
1.800361568438675619e-02
2.391609024534577591e-02
2.920605053978680976e-02
3.372678190888593608e-02
3.736475578239586981e-02
4.001561649641293544e-02
4.160348809811605097e-02
4.208706325711330382e-02
4.143452197044747431e-02
3.966037299159948931e-02
3.679724482257169110e-02
3.289996842203656013e-02
2.806306549178176971e-02
2.238817630107433135e-02
1.600714380559252470e-02
9.069322888349396969e-03
1.731099783628392043e-03
-5.832766988793973428e-03
-1.344439778068883332e-02
-2.092490557008247487e-02
-2.809454323578472468e-02
-3.477733332106869996e-02
-4.081306990361601578e-02
-4.604617157475722478e-02
-5.034002841197110500e-02
-5.358176018069833041e-02
-5.566585428996597557e-02
-5.652485828279191910e-02
-5.610671049147743922e-02
-5.438116881132135094e-02
-5.135822873105015673e-02
-4.705599385420974889e-02
-4.153204862356368876e-02
-3.486759062551353372e-02
-2.715827377567202328e-02
-1.853914119615787670e-02
-9.153293567648341372e-03
8.330488965249223041e-04
1.123332633424328070e-02
2.185676772173695409e-02
3.249748256304233612e-02
4.294557698926804862e-02
5.299338767803115496e-02
6.243612657685725792e-02
7.107250499327455451e-02
7.872347584212696647e-02
8.521932689778766168e-02
9.040985488686212324e-02
9.418198973246727501e-02
9.643108031743868880e-02
9.709892637624806255e-02
9.615597572854550634e-02
9.359300642484019717e-02
8.945813809201269562e-02
8.381187709959800336e-02
7.675596264090589482e-02
6.842951064173535825e-02
5.898250864782714209e-02
4.860729577447474997e-02
3.750833811326610701e-02
2.590454282877194259e-02
1.403400083965299951e-02
2.136309734302082979e-03
-9.547672062612803934e-03
-2.077662696908351078e-02
-3.131904464436237323e-02
-4.096270997716340567e-02
-4.950075472546302396e-02
-5.676156981031423715e-02
-6.259596763222938232e-02
-6.687364234663575879e-02
-6.951945061814546190e-02
-7.047081444020522611e-02
-6.971295473024496925e-02
-6.727573614378395961e-02
-6.320452756121205939e-02
-5.760821661979095148e-02
-5.061469069593139969e-02
-4.238376179811327582e-02
-3.311895092949600217e-02
-2.303127695824832774e-02
-1.236312488702182369e-02
-1.370686456389810792e-03
9.686770967831132007e-03
2.054385659790406576e-02
3.093603512141811923e-02
4.061774010700163612e-02
4.935584273143146794e-02
5.693295785016284916e-02
6.317952203043827875e-02
6.793743655738940235e-02
7.109776249298080386e-02
7.259886837498907841e-02
7.239657442243174756e-02
7.052074854817794169e-02
6.702415572349018635e-02
6.200004345749488693e-02
5.559878671889328244e-02
4.798145275013292188e-02
3.935694668510581612e-02
2.995595285672979571e-02
2.002026673334383194e-02
9.814741105227913279e-03
-3.931955423564156837e-04
-1.034014395234995887e-02
-1.976543045308316177e-02
-2.841873906129430832e-02
-3.608258455836017842e-02
-4.254780301891893102e-02
-4.764596870835314385e-02
-5.124904788324680105e-02
-5.324506899464668402e-02
-5.359278680927984789e-02
-5.227358434978604529e-02
-4.931212342656100811e-02
-4.479601852527306111e-02
-3.882575228075178103e-02
-3.156333023414704259e-02
-2.319969272705101407e-02
-1.394552036102659695e-02
-4.053843611720956558e-03
6.215730246337378487e-03
1.659006817006783430e-02
2.678661899632608229e-02
3.652762365981146453e-02
4.555174433980592463e-02
5.360243061582996987e-02
6.045683867237911652e-02
6.592655820811654799e-02
6.983844517586812461e-02
7.208940142522593519e-02
7.259947971050323412e-02
7.133498075939276317e-02
6.833155153349637634e-02
6.363940256237982096e-02
5.738031699744811781e-02
4.971081531757795546e-02
4.081220814500804289e-02
3.092067934675973156e-02
2.028163832010944356e-02
9.164662306694795063e-03
-2.143323151561061374e-03
-1.335612181853054400e-02
-2.419131713503447356e-02
-3.436826583100778543e-02
-4.363079699253772509e-02
-5.174849799617042834e-02
-5.850330387456260245e-02
-6.373597967334779235e-02
-6.730736160073116925e-02
-6.911952540452193094e-02
-6.913829483495062544e-02
-6.734339045495471576e-02
-6.378524155390738470e-02
-5.854969263430163245e-02
-5.175032494348212608e-02
-4.356410559443225916e-02
-3.417960819324614846e-02
-2.382345994838055980e-02
-1.275044335709123178e-02
-1.221446120534822738e-03
1.048344122013065982e-02
2.208017251089395075e-02
3.329209278402324446e-02
4.385056265943593906e-02
5.349439883503291637e-02
6.200106034369823327e-02
6.916168979804282468e-02
7.480115439915829834e-02
7.879807177900663429e-02
8.104370033639282656e-02
8.149757913266891807e-02
8.015453314982640132e-02
7.703949971690360332e-02
7.224847196705386221e-02
6.589117803363908621e-02
5.812718417610874405e-02
4.915406073842106677e-02
3.918101768503721993e-02
2.845625918745216948e-02
1.723716292284685481e-02
5.789004659662675550e-03
-5.614114495969383528e-03
-1.670039742619906092e-02
-2.721375525060003991e-02
-3.690393324489786575e-02
-4.554200880309247634e-02
-5.293412086859400345e-02
-5.889543549532087058e-02
-6.329329582486983852e-02
-6.602286229189516242e-02
-6.700541565184289783e-02
-6.622589947608245597e-02
-6.368230197599913933e-02
-5.942548039289661382e-02
-5.354783975955176856e-02
-4.615810173160599800e-02
-3.742239737994590421e-02
-2.752134097123196121e-02
-1.666350709504920216e-02
-5.089662512397185451e-03
6.954171392790941576e-03
1.920156182666026695e-02
3.137867032488769747e-02
4.321368041218990458e-02
5.443822218700456600e-02
6.478712355038379611e-02
7.402216317487469999e-02
8.191995267187890395e-02
8.827749488879924056e-02
9.294326572635069894e-02
9.577722394838922293e-02
9.669463905815819937e-02
9.565557371378377582e-02
9.264094794268346034e-02
8.770818798413798634e-02
8.093488361456901981e-02
7.244562733816756195e-02
6.242077437681050472e-02
5.105283238775871341e-02
3.858858251689593899e-02
2.529541713762982827e-02
1.145658240505158590e-02
-2.617014099071805419e-03
-1.661161700793205645e-02
-3.021289877557242765e-02
-4.310623029209989521e-02
-5.498839167420261492e-02
-6.558615766548456238e-02
-7.463388323006575620e-02
-8.191188388018127986e-02
-8.723883023043427221e-02
-9.045407723701606728e-02
-9.147591621140013785e-02
-9.024427120445394079e-02
-8.675597452652428210e-02
-8.107742908851253705e-02
-7.329233451642139241e-02
-6.356678980005342483e-02
-5.209930670430595184e-02
-3.912281759350282051e-02
-2.493222249022342824e-02
-9.832446786182870435e-03
5.835680376965348901e-03
2.171037005095406008e-02
3.742840178710683113e-02
5.262337936342083300e-02
6.692997344171947027e-02
8.001132357893012137e-02
9.155505018896223368e-02
1.012668978055127067e-01
1.089251653786696139e-01
1.143288273662976806e-01
1.173381373827096508e-01
1.178905481177362768e-01
1.159438466795696399e-01
1.115565842957600973e-01
1.048282472450234593e-01
9.590445502768812913e-02
8.501648753551341309e-02
7.241058979347492208e-02
5.839261969603318919e-02
4.330433642957609575e-02
2.749827466004570869e-02
1.135584246225686267e-02
-4.737075012074740826e-03
-2.040492034740447672e-02
-3.528128703943435307e-02
-4.901240966063333954e-02
-6.129793637293543679e-02
-7.185331773451855697e-02
-8.044585811593488178e-02
-8.691018284831678042e-02
-9.109937381148464075e-02
-9.296115213798059052e-02
-9.248293093277301646e-02
-8.969885914499256541e-02
-8.473259606711580627e-02
-7.772436090323031621e-02
-6.888519499630052501e-02
-5.847012507475719129e-02
-4.675235342937043848e-02
-3.405593323685636442e-02
-2.071462216330043765e-02
-7.072559342186892500e-03
6.516638255960818457e-03
1.970478067044044435e-02
3.216958162292783696e-02
4.359690461472646300e-02
5.370960540010125822e-02
6.228003638397830444e-02
6.909539498017930326e-02
7.402292415817388060e-02
7.696452328070393922e-02
7.786522000875659155e-02
7.675525636596725043e-02
7.368128787494254706e-02
6.876336337474808769e-02
6.216853000460342837e-02
5.408548855073583295e-02
4.476563984699032106e-02
3.447324848854636803e-02
2.349627699989000409e-02
1.214497960597358227e-02
7.296588674687073256e-04
-1.044317847137423219e-02
-2.106862930287328392e-02
-3.086423497603634630e-02
-3.957848979158046926e-02
-4.697038700047489329e-02
-5.285898739615325220e-02
-5.709019612268077110e-02
-5.954551064100355867e-02
-6.017899015088392506e-02
-5.895929845792339391e-02
-5.592384378615477408e-02
-5.115541882951905178e-02
-4.476014266396736996e-02
-3.691405794484862307e-02
-2.780841915999437974e-02
-1.767108160909650061e-02
-6.765373744708147452e-03
4.639457679429602466e-03
1.625272352086222505e-02
2.777743331397756338e-02
3.892296290009016058e-02
4.940773968805489691e-02
5.895606691373239672e-02
6.733147044247420054e-02
7.431558743252100752e-02
7.971918759821375322e-02
8.341435920086723299e-02
8.528629056554135057e-02
8.528667971451339702e-02
8.341248923201172172e-02
7.968592512227848368e-02
7.420747070014649394e-02
6.709537170335216905e-02
5.851562630938009907e-02
4.868191726030559469e-02
3.781861364408575787e-02
2.619296484414725470e-02
1.408567832429235590e-02
1.785119032533204371e-03
-1.040913315955142165e-02
-2.219879338196346225e-02
-3.330275038681600186e-02
-4.344810688919151925e-02
-5.238214756452391763e-02
-5.989604890590068814e-02
-6.579109973578745052e-02
-6.992513238929437547e-02
-7.219564600395456111e-02
-7.252450511305502667e-02
-7.091179123754157154e-02
-6.737609914593004068e-02
-6.199154960737750936e-02
-5.488939174279651445e-02
-4.621620290065008713e-02
-3.618405930132510134e-02
-2.502650063911151385e-02
-1.300136762754683373e-02
-4.031972361750683215e-04
1.246907659596850626e-02
2.530552399014981274e-02
3.779089819826066121e-02
4.961931258469614442e-02
6.050603133484603463e-02
7.017246281279931885e-02
7.838438810332290507e-02
8.493967335829546994e-02
8.965910040769944911e-02
9.243975770497084299e-02
9.319748665610902427e-02
9.190887143399492643e-02
8.861488729340685766e-02
8.337492790924055930e-02
7.633007812319214658e-02
6.764913212475488768e-02
5.753633935532434518e-02
4.625114439742471911e-02
3.406149190301729218e-02
2.126681333832477691e-02
8.182378284249598385e-03
-4.876849849259425745e-03
-1.759689881661142749e-02
-2.966593370471847652e-02
-4.080058689632917041e-02
-5.073870597707921815e-02
-5.923591539257788002e-02
-6.610925710507070674e-02
-7.119139169953658808e-02
-7.436842660501322144e-02
-7.558484531631073922e-02
-7.480270155410834176e-02
-7.206474964064654709e-02
-6.744206007415889936e-02
-6.104581254363524584e-02
-5.305156274593834931e-02
-4.364636241477876794e-02
-3.306726207798390410e-02
-2.157730425765473636e-02
-9.450416218651905287e-03
3.013868465846876107e-03
1.551254490111633397e-02
2.774697959077396595e-02
3.942189663049935899e-02
5.025207088286576945e-02
5.998894898747864080e-02
6.839387604145828747e-02
7.527028829433027313e-02
8.046899095845308492e-02
8.385667919375991430e-02
8.537650830508541899e-02
8.499937198969345631e-02
8.273911578689593926e-02
7.868066767382303484e-02
7.292258282202834785e-02
6.562688718512391106e-02
5.698965678838556481e-02
4.722542915431461596e-02
3.659373790062284137e-02
2.536179589381346369e-02
1.380963681575253163e-02
2.227442131743193228e-03
-9.098524772858797988e-03
-1.989797990482731690e-02
-2.990539403813275571e-02
-3.888426416290053506e-02
-4.663174582106287963e-02
-5.295727794513144238e-02
-5.773192793793630734e-02
-6.084985465981835456e-02
-6.224282165608465561e-02
-6.190676581408468410e-02
-5.985061588772627034e-02
-5.614707319935462876e-02
-5.090413443398145860e-02
-4.425238935829856751e-02
-3.637938547837156478e-02
-2.748351359914437408e-02
-1.779334481800961751e-02
-7.562067003943956714e-03
2.953403347377333774e-03
1.348428562821505153e-02
2.375921167767298947e-02
3.351768856588573792e-02
4.251221787603655378e-02
5.050292160140906761e-02
5.729202521900772505e-02
6.269809775756708670e-02
6.657227120903369544e-02
6.882299445631787083e-02
6.937133095565936602e-02
6.820532984064839321e-02
6.535127931084830366e-02
6.086279700762054629e-02
5.486471409968305540e-02
4.749617821086185576e-02
3.894192299442298527e-02
2.942499727344725577e-02
1.917785508859740431e-02
8.466457622132739572e-03
-2.434633743250183904e-03
-1.324887430298927332e-02
-2.369727733809266421e-02
-3.350487457499699839e-02
-4.242322298904567524e-02
-5.021455210040071115e-02
-5.666762676918402769e-02
-6.161939536706975001e-02
-6.491804418171778779e-02
-6.647484908155329442e-02
-6.623822620658340043e-02
-6.418494258145868159e-02
-6.036808421728753066e-02
-5.485678328501922274e-02
-4.777598782020910789e-02
-3.929898633184636392e-02
-2.961364741561339775e-02
-1.896264869823833729e-02
-7.603597382326379023e-03
4.188644801397057270e-03
1.611732283039259833e-02
2.788509743487214629e-02
3.920008791682418753e-02
4.977280109701644889e-02
5.933265680622438337e-02
6.764452786469990486e-02
7.448266872351444468e-02
7.967998067792314565e-02
8.310496534005296088e-02
8.465561790476788806e-02
8.431199569863406795e-02
8.207200887796464728e-02
7.799849366968442110e-02
7.221222549639130794e-02
6.485234969338796174e-02
5.612939659817184346e-02
4.627408418245836097e-02
3.554455269828704633e-02
2.423480023733361188e-02
1.264259495047108384e-02
1.074933609564193530e-03
-1.015742831607762200e-02
-2.075595121759533229e-02
-3.044575709553357101e-02
-3.895905924292525357e-02
-4.607695405829523999e-02
-5.161113155733607072e-02
-5.539968826661207518e-02
-5.735662355565778608e-02
-5.741296748943867240e-02
-5.556371732471491326e-02
-5.186268686297298980e-02
-4.638347773803663809e-02
-3.927929101459946143e-02
-3.072669465948552059e-02
-2.093924148186395232e-02
-1.018032676120552218e-02
1.278905155753369723e-03
1.313731372034044470e-02
2.508080743528613363e-02
3.679682819452674558e-02
4.797598263878138924e-02
5.831209377569195745e-02
6.753198210565189430e-02
7.538376039437738596e-02
8.163787921968079786e-02
8.613131119047989781e-02
8.871657497194596065e-02
8.930916075301612023e-02
8.788421649425098847e-02
8.443807674970665866e-02
7.905526289805880902e-02
7.184708202561351786e-02
6.297034867437831251e-02
5.264508613855888031e-02
4.110255970398137004e-02
2.862241836951424923e-02
1.550595862949836513e-02
2.062818904609369300e-03
-1.138037540664362315e-02
-2.449606055499059520e-02
-3.697069310309530205e-02
-4.850005761944937294e-02
-5.879526510162839253e-02
-6.761486540433775394e-02
-7.472904777487507366e-02
-7.996052390555227762e-02
-8.318327309371831291e-02
-8.429110796061534128e-02
-8.326361370924675875e-02
-8.010737304722820307e-02
-7.488041062337330578e-02
-6.771439895283470900e-02
-5.875605617210407500e-02
-4.822360878994123856e-02
-3.636836756654589914e-02
-2.346453989686999794e-02
-9.834673939401607223e-03
4.191317698898404387e-03
1.826869321304367549e-02
3.204254879325055261e-02
4.516431365003827081e-02
5.730656029181769445e-02
6.814794649991326447e-02
7.740929735906348919e-02
8.485384585794863987e-02
9.026407651815740452e-02
9.350970773363623256e-02
9.448886519626301106e-02
9.315827422335112851e-02
8.956114009490101502e-02
8.375911367816876729e-02
7.590485179034048291e-02
6.619446880303771208e-02
5.485626766244514063e-02
4.218867847848094266e-02
2.850185823012377911e-02
1.413771520208135894e-02
-5.394093526734956845e-04
-1.516586866368963005e-02
-2.938192260202786982e-02
-4.282990210727057739e-02
-5.518291861780749014e-02
-6.614597838628033522e-02
-7.543973159185812793e-02
-8.285841098652704795e-02
-8.822096874245838327e-02
-9.139798423742426237e-02
-9.233857928933622561e-02
-9.100904391697980933e-02
-8.746265877321152127e-02
-8.179557266955322925e-02
-7.413806229751815358e-02
-6.469714638787213423e-02
-5.369378465671100636e-02
-4.139524163166825171e-02
-2.810250407261998679e-02
-1.412413987541226781e-02
2.076592843181590889e-04
1.455589745013619735e-02
2.859159547968908449e-02
4.199433323384629130e-02
5.445230432531941722e-02
6.569778418838631562e-02
7.547843237430673646e-02
8.358091556095958996e-02
8.985308361657814991e-02
9.415732768627152471e-02
9.643452429018939398e-02
9.666545993522071556e-02
9.486587062637133472e-02
9.113264088039196853e-02
8.557824514453812870e-02
7.837257725669510844e-02
6.972863008786185646e-02
5.987283191788193848e-02
4.907602885238241536e-02
3.761933535719003824e-02
2.579259038345822416e-02
1.389523008361394536e-02
2.223805033667163381e-03
-8.943949289672792347e-03
-1.933717862176538224e-02
-2.870995995852995003e-02
-3.685669410453743661e-02
-4.358213072745802108e-02
-4.875023810321758855e-02
-5.225604987486347219e-02
-5.402375817879610798e-02
-5.404746010167083003e-02
-5.233537179525797611e-02
-4.895228391972557269e-02
-4.400675145942288535e-02
-3.762404192930241670e-02
-2.998720800005966192e-02
-2.129357212669743052e-02
-1.176584389225097602e-02
-1.655507603758958265e-03
8.782367572813847695e-03
1.928098397668739222e-02
2.956946563033914163e-02
3.938567935098659378e-02
4.848208709335465050e-02
5.661684964777687068e-02
6.358790699387439904e-02
6.921473331527930317e-02
7.334204029334490116e-02
7.587711151384288200e-02
7.674063571641187576e-02
7.591305893160985030e-02
7.342246557652301608e-02
6.931696665952943870e-02
6.371648722723521896e-02
5.675938066293542000e-02
4.862097484221564875e-02
3.951977986000371895e-02
2.968168002556158605e-02
1.936201701129420388e-02
8.827025547796116256e-03
-1.657279437337948191e-03
-1.182529145445083973e-02
-2.141432884464583575e-02
-3.018936543981401432e-02
-3.793081809379144492e-02
-4.444005085901879537e-02
-4.957211053353662716e-02
-5.319393640093539322e-02
-5.522769291594462754e-02
-5.564091248002763640e-02
-5.442083057076808200e-02
-5.162763757791783564e-02
-4.734090290235603432e-02
-4.168167287645356545e-02
-3.482090868350593699e-02
-2.693949753396150670e-02
-1.826143114048756760e-02
-9.027280423500257805e-03
5.133666008018036159e-04
1.009497611156211574e-02
1.945148039620469768e-02
2.832782775076815932e-02
3.647531985763308171e-02
4.366041503781177557e-02
4.968983416627358041e-02
5.437980953503090964e-02
5.759624547745131190e-02
5.924709488123142825e-02
5.925998139376242174e-02
5.763797382406200126e-02
5.440486973952932126e-02
4.963135550017936520e-02
4.344626491827702219e-02
3.599078704281355456e-02
2.746216591831570839e-02
1.807995277634588671e-02
8.079842699285534266e-03
-2.273008853310118718e-03
-1.271013836304416000e-02
-2.296142079365116884e-02
-3.275576098004061298e-02
-4.183220030944527490e-02
-4.995778740709803933e-02
-5.690662552990225637e-02
-6.249403190463052177e-02
-6.657127336349766278e-02
-6.900710871606216545e-02
-6.973962132264616143e-02
-6.872656609030361463e-02
-6.597178547868320919e-02
-6.153802037703764299e-02
-5.550137886050503927e-02
-4.800134108378847214e-02
-3.920346697150689508e-02
-2.929690143789384638e-02
-1.851520118567275691e-02
-7.098831911142399267e-03
4.690387789700625927e-03
1.657759585708751260e-02
2.828914507781123133e-02
3.955538682252957017e-02
5.010867842596117283e-02
5.970618677205635078e-02
6.812737673463593879e-02
7.516546222492842544e-02
8.067073333728697060e-02
8.451030930838840383e-02
8.659607118676784787e-02
8.689885335052055515e-02
8.540403039528246532e-02
8.216951536642250198e-02
7.728405992607007002e-02
7.086771337778779989e-02
6.310132827246439646e-02
5.417626805860543265e-02
4.432321935691237169e-02
3.379764603157545816e-02
2.286104159218511900e-02
1.179154374771885019e-02
8.698169946774964370e-04
-9.634070366801618379e-03
-1.945986262264979769e-02
-2.835698860603742127e-02
-3.611735060951705434e-02
-4.254584261375748272e-02
-4.748571692959210194e-02
-5.083229324317576486e-02
-5.249433922846370726e-02
-5.245023740116011579e-02
-5.070892319840192286e-02
-4.731215835968578809e-02
-4.236749606771569171e-02
-3.599462262958200848e-02
-2.836304004448838428e-02
-1.967461537989978471e-02
-1.014346302351897683e-02
-1.937993911066675928e-05
1.044076111912466825e-02
2.097381364780531374e-02
3.131064510233785847e-02
4.118626335962694701e-02
5.035634600563167196e-02
5.858326611133993223e-02
6.565725933341075293e-02
7.140754335517499052e-02
7.567453269915216940e-02
7.836015327600992508e-02
7.939419999869451461e-02
7.873884649085616250e-02
7.642323043964968643e-02
7.248942400105459760e-02
6.703576889449366916e-02
6.019829604617219637e-02
5.212925602326110019e-02
4.302988323225664241e-02
3.311185875901893200e-02
2.260494986179828469e-02
1.175670387631026770e-02
8.148600718645088517e-04
-9.975566568856224225e-03
-2.037072669590066221e-02
-3.014344057809172778e-02
-3.909056934995589622e-02
-4.701672434397812655e-02
-5.377177393599116839e-02
-5.922674526555175151e-02
-6.327844619137620863e-02
-6.587870520415989306e-02
-6.699037032100155220e-02
-6.662621530757617538e-02
-6.483348552576376211e-02
-6.167574191324661642e-02
-5.726755472178290257e-02
-5.173499074396473163e-02
-4.523019995348769029e-02
-3.793175156219417976e-02
-3.002269124124749139e-02
-2.170276286185290199e-02
-1.317692214143857329e-02
-4.647139762354141404e-03
3.689054566557114796e-03
1.163758616628053633e-02
1.902910522472899338e-02
2.570620461615093222e-02
3.153005219931527547e-02
3.640276615901956447e-02
4.023524765742724635e-02
4.298228981821700101e-02
4.462992368733158244e-02
4.518042008194947390e-02
4.468861974181214530e-02
4.322167210607742727e-02
4.087720681778428400e-02
3.778466263699666039e-02
3.407978923950064076e-02
2.992357617385642266e-02
2.548527070553979756e-02
2.093545283494008952e-02
1.644673838203439958e-02
1.218951743164200900e-02
8.314283268045112585e-03
4.961613048909723628e-03
2.255147975275627499e-03
2.799778723877157163e-04
-8.871515334714415862e-04
-1.211029873368383442e-03
-6.869147051024194345e-04
6.751732006839081257e-04
2.816091939418295491e-03
5.664977604788465695e-03
9.124594055288098512e-03
1.306934823905861118e-02
1.736859677575726402e-02
2.187190027646555845e-02
2.642214627701323232e-02
3.086261044553840344e-02
3.503719000971189379e-02
3.879200584101417937e-02
4.199186732046344961e-02
4.451117875960152598e-02
4.623868517639603826e-02
4.709680647293616740e-02
4.701522841772693556e-02
4.595870892986615719e-02
4.391852099376855612e-02
4.089853754799707003e-02
3.694581004093155929e-02
3.211803869687819557e-02
2.649788983188260463e-02
2.019568949041662329e-02
1.332758028529118510e-02
6.034306213734103898e-03
-1.534725528401186326e-03
-9.224552124720730717e-03
-1.687117127252932974e-02
-2.431032800977450670e-02
-3.138295139404110451e-02
-3.793272721386397456e-02
-4.381158301476627270e-02
-4.889148567888625813e-02
-5.304913254546808621e-02
-5.618763271351685101e-02
-5.823067363405216162e-02
-5.911312873498946602e-02
-5.880968049041131879e-02
-5.730525267192296962e-02
-5.461240589209701707e-02
-5.077524944602530149e-02
-4.584592500724471442e-02
-3.991328880162743620e-02
-3.307964515734804212e-02
-2.546286635144958538e-02
-1.720695943900175245e-02
-8.460198634671269036e-03
6.127295686510630945e-04
9.838211476014447829e-03
1.904108131637179818e-02
2.804248724125551345e-02
3.666360441198612818e-02
4.473515729278587649e-02
5.209553771174024045e-02
5.859041455655508712e-02
6.409279046363239307e-02
6.848311712204456503e-02
7.166809546452101998e-02
7.358530221808196048e-02
7.418174380610140228e-02
7.345060008971165955e-02
7.140256529549313114e-02
6.807324134466267995e-02
6.354135565139634734e-02
5.789382408401837904e-02
5.125519657635747156e-02
4.377115423293161806e-02
3.559812407857883276e-02
2.691990310250909346e-02
1.792512464463609512e-02
8.809758213775812155e-03
-2.241567372466531441e-04
-8.977165655545526340e-03
-1.726090224171455273e-02
-2.489034557968910349e-02
-3.169949271522788659e-02
-3.754539169579938079e-02
-4.229311492131482275e-02
-4.584919884898625009e-02
-4.813643116109395104e-02
-4.910277619559742790e-02
-4.874115629078164258e-02
-4.705364879110388032e-02
-4.408755661361073164e-02
-3.991637674018395227e-02
-3.463019207559753926e-02
-2.836285658188412301e-02
-2.125694613632875610e-02
-1.348020121224148896e-02
-5.221817265532887470e-03
3.324789330745973014e-03
1.195154839170435059e-02
2.044670656582857002e-02
2.860259257548515913e-02
3.621663374078100406e-02
4.309072120847626947e-02
4.905355950035172885e-02
5.394475298344967445e-02
5.762665252251446962e-02
6.000351869674585420e-02
6.098907110012905669e-02
6.054878472475683920e-02
5.867904828661480582e-02
5.539854240600977642e-02
5.078680098766150813e-02
4.493614038942871786e-02
3.798098847587588756e-02
3.009276837568454488e-02
2.145298881847246958e-02
1.228104082791849593e-02
2.806696284985884735e-03
-6.731870801878907934e-03
-1.608567165215284492e-02
-2.500700700956368094e-02
-3.326161163879080146e-02
-4.062091554244275787e-02
-4.687544781435153129e-02
-5.185205703595605758e-02
-5.538646183608061241e-02
-5.736674222738014778e-02
-5.771322656292717651e-02
-5.637104134822885221e-02
-5.335526494083974586e-02
-4.869625249538553358e-02
-4.247815639615715178e-02
-3.483382574114724656e-02
-2.591124902119136542e-02
-1.591785576902390864e-02
-5.078131973724473933e-03
6.360667624422014499e-03
1.812108518748339892e-02
2.992257049735490976e-02
4.147755028793576049e-02
5.249555952474327380e-02
6.269775362569786348e-02
7.182813318220035437e-02
7.963748220713121051e-02
8.592345163806153208e-02
9.051345246963918290e-02
9.326037387993388328e-02
9.409144931582705262e-02
9.295074451567439389e-02
8.984497065987281927e-02
8.483926595624291522e-02
7.801795744181061476e-02
6.954332590076289788e-02
5.960083910280179059e-02
4.841089425782907352e-02
3.624164252644204720e-02
2.336831034542643029e-02
1.009233068585554255e-02
-3.273384675844540764e-03
-1.641892469497987020e-02
-2.904056080905786236e-02
-4.083809880937312731e-02
-5.154436484980380595e-02
-6.091380121806756059e-02
-6.872149159452900502e-02
-7.480483867133580489e-02
-7.901581771811225230e-02
-8.126285162497015602e-02
-8.150860677506074903e-02
-7.973447419364831923e-02
-7.600051846640229480e-02
-7.039105568559900217e-02
-6.303147235743683519e-02
-5.410502834021103241e-02
-4.380566718458450692e-02
-3.237466836305462337e-02
-2.007482951178415215e-02
-7.179915404547465227e-03
6.013583812451183883e-03
1.920662288816415986e-02
3.210385311582829304e-02
4.441242302076857384e-02
5.584964742792844494e-02
6.616502465189275095e-02
7.511624440059730401e-02
8.250184023951120937e-02
8.816078493153656215e-02
9.194849858654718933e-02
9.379292049684709309e-02
9.364518351749878677e-02
9.150203926575803393e-02
8.742650021935546856e-02
8.149545930501461699e-02
7.385314362795911136e-02
6.467541092508533040e-02
5.416153284422609016e-02
4.256097160449269501e-02
3.013147918374961196e-02
1.715334297133285987e-02
3.922520955238904122e-03
-9.265690322698600517e-03
-2.211921357911824162e-02
-3.434759260199638647e-02
-4.568326366868897398e-02
-5.588201599740792030e-02
-6.471152660920451161e-02
-7.199473766124714347e-02
-7.757289968446559603e-02
-8.132750076973646602e-02
-8.320027683290562304e-02
-8.314658182136214215e-02
-8.119170288699148474e-02
-7.739484195675133682e-02
-7.184438154065003745e-02
-6.469330146792756642e-02
-5.610650086660214780e-02
-4.629174058638457073e-02
-3.548750571869569576e-02
-2.394096721193554600e-02
-1.192658082098072350e-02
2.754328801706645846e-04
1.238573458177358831e-02
2.412591122673666752e-02
3.522327695023574901e-02
4.543515826856159984e-02
5.452927040092051675e-02
6.230408944134107480e-02
6.860557689081128729e-02
7.329160773227333392e-02
7.628577500235431130e-02
7.754456037273935176e-02
7.705554080304863329e-02
7.487736417482318552e-02
7.108247367977543751e-02
6.579713625428819379e-02
5.918738533851780614e-02
5.143315899466352481e-02
4.276008490238156906e-02
3.340434292676297545e-02
2.361542937327047037e-02
1.365726140590080989e-02
3.792787595923894587e-03
-5.724281402638224311e-03
-1.464367844597914275e-02
-2.273461137908947688e-02
-2.979728812281507572e-02
-3.564055916317002137e-02
-4.012438845718455105e-02
-4.313513091542608285e-02
-4.458615001427921470e-02
-4.445454922900356209e-02
-4.273042252679783159e-02
-3.945856756542418659e-02
-3.472543661486298533e-02
-2.863455644000372641e-02
-2.134786810836978438e-02
-1.304160259184874299e-02
-3.919884806865125276e-03
5.782035970996564009e-03
1.582432312619803244e-02
2.595042238409638741e-02
3.589798305373723131e-02
4.541044957758667844e-02
5.424079075596179023e-02
6.214673142666634481e-02
6.892097729556151409e-02
7.437487462232120206e-02
7.834360812373733496e-02
8.072052934238488353e-02
8.141153747497970050e-02
8.038065495880336586e-02
7.763751573264784933e-02
7.321208014195848546e-02
6.720634839741798650e-02
5.974062505696092762e-02
5.097493875893155391e-02
4.111498936598326215e-02
3.037519804209551713e-02
1.900635986713142961e-02
7.272554906244925975e-03
-4.557345320294581628e-03
-1.620638887733160879e-02
-2.739877413979387860e-02
-3.787684575066681963e-02
-4.739293015728852920e-02
-5.571684723707789194e-02
-6.266257917283157841e-02
-6.805414140779339482e-02
-7.176601416529312938e-02
-7.371348792731041710e-02
-7.383145376624483669e-02
-7.212673961977861259e-02
-6.862515882483746776e-02
-6.339833906854289158e-02
-5.657218335717085350e-02
-4.828499097222879732e-02
-3.873129368048406490e-02
-2.812697685538252668e-02
-1.670695603939476720e-02
-4.739312745832344534e-03
7.503602648920849189e-03
1.974034723768456137e-02
3.168435436613510625e-02
4.305623220762410525e-02
5.359556838731364264e-02
6.304719810020489867e-02
7.119268956580290797e-02
7.784422177738140047e-02
8.283153846997887149e-02
8.605155880208295582e-02
8.741961613626830774e-02
8.690042447492646316e-02
8.451897963051197005e-02
8.031523693698316979e-02
7.440030476374914770e-02
6.691323391217493533e-02
5.802234974487036068e-02
4.794860231488995428e-02
3.692142482771436363e-02
2.520047584979068570e-02
1.306303382970411264e-02
7.881809676708508711e-04
-1.134070412021843249e-02
-2.304061123623895105e-02
-3.404786382788793642e-02
-4.411538695251594755e-02
-5.300838826261632108e-02
-6.054116969868555270e-02
-6.654198650315504282e-02
-7.087985393942827783e-02
-7.347506300344680552e-02
-7.426141627014298807e-02
-7.323961198222156410e-02
-7.043749549576200364e-02
-6.591470783579045367e-02
-5.978984713323814287e-02
-5.219228148470433232e-02
-4.329742728197889107e-02
-3.330839703978490107e-02
-2.244027389675338352e-02
-1.094063961068440088e-02
9.368716071958488670e-04
1.293116958302427746e-02
2.477456718030653093e-02
3.620259500663144253e-02
4.696569126540249550e-02
5.681893373975947098e-02
6.554094977558394541e-02
7.294089696665082001e-02
7.883791186588412492e-02
8.310489343492469261e-02
8.563730352104031995e-02
8.636271013840962629e-02
8.527011083301577754e-02
8.236090718294239443e-02
7.769660056079144561e-02
7.137596928686815168e-02
6.351874629671731831e-02
5.430378779046222265e-02
4.392219055906589759e-02
3.259618773047281981e-02
2.057639813245717986e-02
8.118029839992751268e-03
-4.507807674149558186e-03
-1.702572677643540699e-02
-2.916744335979917779e-02
-4.067416475328392012e-02
-5.129271717144642112e-02
-6.080471192354933857e-02
-6.900685252693292138e-02
-7.572156272844887681e-02
-8.082205200815612001e-02
-8.419241917768538475e-02
-8.577325369701527258e-02
-8.554127102269698524e-02
-8.349565305308601082e-02
-7.970115647655792723e-02
-7.423686515687843990e-02
-6.722500471492437457e-02
-5.882832479742119286e-02
-4.922013013967876244e-02
-3.861537554185984211e-02
-2.724133972777170731e-02
-1.533706735178972519e-02
-3.157804380448317114e-03
9.040688658219263665e-03
2.100749680266845304e-02
3.249393772603903496e-02
4.326447689532432472e-02
5.311041388440278926e-02
6.182978136388753848e-02
6.926199851846476241e-02
7.527377084678377184e-02
7.975163287833991754e-02
8.264208931996350205e-02
8.390536078005947362e-02
8.354792364457894194e-02
8.162102122125788894e-02
7.818936093964987122e-02
7.337345569814063273e-02
6.731103659316756138e-02
6.016379493925622102e-02
5.212742836826913390e-02
4.340277336556003923e-02
3.420992654166814251e-02
2.477777597127911458e-02
1.533471807402650086e-02
6.108017653182267262e-03
-2.676664887192432840e-03
-1.081191040648111015e-02
-1.810269805402347706e-02
-2.436622057156224985e-02
-2.945806934339532251e-02
-3.324312124012851477e-02
-3.562300187520205108e-02
-3.653598121003039101e-02
-3.593334490685222427e-02
-3.382315707075406880e-02
-3.023170754979343650e-02
-2.521779637155899256e-02
-1.888778588814327836e-02
-1.135758654821616628e-02
-2.788317260050077184e-03
6.637513566242897456e-03
1.672277883888333844e-02
2.723880404593239518e-02
3.795193731246837565e-02
4.861772948478094991e-02
5.898416938754292432e-02
6.880261128978110152e-02
7.783608793108048873e-02
8.585113679536152120e-02
9.264055141173055397e-02
9.802410064183236793e-02
1.018339909136560251e-01
1.039600618017918476e-01
1.043113427398918436e-01
1.028367893480706952e-01
9.954557262742907975e-02
9.445998431379368232e-02
8.766844821335498250e-02
7.929168691861007701e-02
6.947576450051434760e-02
5.842321849876476458e-02
4.634661950912496303e-02
3.349021738443708901e-02
2.012113423516233290e-02
6.510131348248352628e-03
-7.061282748095020281e-03
-2.030979433719154459e-02
-3.296481170743668920e-02
-4.476921008059155799e-02
-5.547468088324439967e-02
-6.487641426684906398e-02
-7.278459592192715322e-02
-7.904420251123706054e-02
-8.355430566709987072e-02
-8.622650285705205087e-02
-8.703871123386083819e-02
-8.600227401306687058e-02
-8.315774437005774011e-02
-7.861289285422987105e-02
-7.248841806816136435e-02
-6.495359904877037738e-02
-5.621386632822394230e-02
-4.648658819979903378e-02
-3.602846217984196492e-02
-2.510523843939578559e-02
-1.399153428112122691e-02
-2.971638145348487123e-03
7.672646883611922326e-03
1.767592025981860882e-02
2.677877098424431834e-02
3.474592979033293283e-02
4.138083487574804181e-02
4.649724537942712815e-02
4.996890065964505745e-02
5.170073290233320046e-02
5.162823878560243718e-02
4.975956311241132995e-02
4.611752832386255274e-02
4.078470820294035487e-02
3.388950229692282157e-02
2.557780727270415888e-02
1.605551141433702103e-02
5.543148315648537168e-03
-5.713789727415215236e-03
-1.744176213918745971e-02
-2.936430613737012196e-02
-4.119678763829783680e-02
-5.265183047894761437e-02
-6.345314991678133176e-02
-7.334280928899264418e-02
-8.206919227021580721e-02
-8.942262643735857108e-02
-9.521594379159412092e-02
-9.928709918603043083e-02
-1.015357473863100768e-01
-1.018746704103303535e-01
-1.002748921389834957e-01
-9.675346956435734724e-02
-9.134760076946266127e-02
-8.416629239453815581e-02
-7.533694633889473358e-02
-6.502745784457544809e-02
-5.345261096061600103e-02
-4.083651624557000509e-02
-2.744296979313663037e-02
-1.355039663664367802e-02
5.558399171448520637e-04
1.457858018326969006e-02
2.822113313122010317e-02
4.120217164954514955e-02
5.324888647255725249e-02
6.410566325830860390e-02
7.356066469901964555e-02
8.141217178811438471e-02
8.751091069981267734e-02
9.175032377265579520e-02
9.404469681464971975e-02
9.438544482688956960e-02
9.278448140101852593e-02
8.930319519268831163e-02
8.406200688165035850e-02
7.719468002712953636e-02
6.889556141243277643e-02
5.938217317724835825e-02
4.889217586578571695e-02
3.769858191342322778e-02
2.607904317042046213e-02
1.432154240563521599e-02
2.719931959692608453e-03
-8.438019112503164498e-03
-1.888081022622314226e-02
-2.834148188222468390e-02
-3.658527297365236214e-02
-4.340444660615264127e-02
-4.860674361456722437e-02
-5.205952809080630767e-02
-5.364665097339369609e-02
-5.329712712508294370e-02
-5.099550120375794665e-02
-4.674072452315982534e-02
-4.060159026296288748e-02
-3.267455964234770860e-02
-2.308820868424095799e-02
-1.202928008444075977e-02
3.052423269101229436e-04
1.367636018322992454e-02
2.782039311906756365e-02
4.246522020006163883e-02
5.731650764216613542e-02
7.207642680373901878e-02
8.645192333085646719e-02
1.001540718464528079e-01
1.129024419901298593e-01
1.244518361877208490e-01
1.345673650119443010e-01
1.430519055700039954e-01
1.497561863460651899e-01
1.545450425891378432e-01
1.573559121430083141e-01
1.581559491579858923e-01
1.569504743382203749e-01
1.538161154114537077e-01
1.488428978408331271e-01
1.421802832217558821e-01
1.340137443476175916e-01
1.245449880523211983e-01
1.140201744618528912e-01
1.026939150450203175e-01
9.083316593952212026e-02
7.871588382327898703e-02
6.661725238731558418e-02
5.479867904830037356e-02
4.351718688680991654e-02
3.300507369402809477e-02
2.346235199460496718e-02
1.507864190344798683e-02
7.987471660016643230e-03
2.298667009549935393e-03
-1.910158298567958893e-03
-4.623472454637506460e-03
-5.838034105060566775e-03
-5.608489280416219247e-03
-4.025649935937456944e-03
-1.199579366688225887e-03
2.705024280232991643e-03
7.512154912870142379e-03
1.301838702737790135e-02
1.899511939115312853e-02
2.521002181523869165e-02
3.141814345249603624e-02
3.737116296220042988e-02
4.282876170518132297e-02
4.756139102640820349e-02
5.134529964775424310e-02
5.399240018738927366e-02
5.533019057450735967e-02
5.521247824107917285e-02
5.354540593766572015e-02
5.024633010208851003e-02
4.529066013756528203e-02
3.869120041061067938e-02
3.048333671808874448e-02
2.076880421680083952e-02
9.663798582655702685e-03
-2.674196891846784135e-03
-1.604863959595866779e-02
-3.025386484229498213e-02
-4.504874192760348339e-02
-6.018165610783441505e-02
-7.539504288935913734e-02
-9.042308676613000640e-02
-1.050015551763122668e-01
-1.188822966575235618e-01
-1.318244498425429068e-01
-1.436058955659248737e-01
-1.540430166042507654e-01
-1.629611566247248511e-01
-1.702366668461381682e-01
-1.757797712264230205e-01
-1.795232943281253324e-01
-1.814687752593344694e-01
-1.816334074248898700e-01
-1.800842755926380379e-01
-1.769370946873567441e-01
-1.723213347656180339e-01
-1.664232480161151051e-01
-1.594466730895507389e-01
-1.516167956406185846e-01
-1.431893172004201908e-01
-1.344233854146419105e-01
-1.255865247111873084e-01
-1.169500573361283158e-01
-1.087756494432757515e-01
-1.013044106984248016e-01
-9.477138999409315256e-02
-8.936834016214517673e-02
-8.525737525047205612e-02
-8.257748003754697419e-02
-8.139474807293897718e-02
-8.175799912588088691e-02
-8.365636805150628019e-02
-8.701904955763353766e-02
-9.175718436700708303e-02
-9.770464447186910650e-02
-1.046705265628978254e-01
-1.124305101029683118e-01
-1.207110336990509514e-01
-1.292313017892746385e-01
-1.376845699285304259e-01
-1.457517840729850300e-01
-1.531171337720667325e-01
-1.594720866720135410e-01
-1.645117432492086973e-01
-1.679663231702883675e-01
-1.695908267213070142e-01
-1.691614355653309476e-01
-1.665234148287435545e-01
-1.615389182132479506e-01
-1.541304898520002020e-01
-1.442831616036395759e-01
-1.320016382798681609e-01
-1.173776680541864514e-01
-1.005318891350472366e-01
-8.162835020863920543e-02
-6.089704016768716227e-02
-3.857965939093205981e-02
-1.496872335607198762e-02
9.618290935078897819e-03
3.485367091534298523e-02
6.038691042578438195e-02
8.586502195384720926e-02
1.109440415460550000e-01
1.352865684983515226e-01
1.585682817084759777e-01
1.805095948050230714e-01
2.008425208646769933e-01
2.193491028200457715e-01
2.358647210915740811e-01
2.502432994518172249e-01
2.624243924275463935e-01
2.723769453952981645e-01
2.801177239588955037e-01
2.857383797664890257e-01
2.893448690506776333e-01
2.911093695523306324e-01
2.912376431335493288e-01
2.899542805913657983e-01
2.875273068420700073e-01
2.842316631232157387e-01
2.803525802035718439e-01
2.761830007214420846e-01
2.720101440713275642e-01
2.681000748606829909e-01
2.647128712687593644e-01
2.620742171749203542e-01
2.603720155138434245e-01
2.597798683361808858e-01
2.604026119933343653e-01
2.623206955619196146e-01
2.655725512481666994e-01
2.701287720251744906e-01
2.759461976849003073e-01
2.829145051539971312e-01
2.908882206934675363e-01
2.996983847297399195e-01
3.091200295247445995e-01
3.189180282346180118e-01
3.288291539751183601e-01
3.385684737681627920e-01
3.478489713836562247e-01
3.563779980728561947e-01
3.638621867115430786e-01
3.700251881409565291e-01
3.746099145322609458e-01
3.773692995060602406e-01
3.781080250151697686e-01
3.766497778284187414e-01
3.728562506498249163e-01
3.666524128898613344e-01
3.579769751900714891e-01
3.468399676818376132e-01
3.332899271304242683e-01
3.174035509691152113e-01
2.993269002639963317e-01
2.792193846585429018e-01
2.572829964184328300e-01
2.337536260055272652e-01
2.088750765153665478e-01
1.829178840667294581e-01
1.561589216445720130e-01
1.288729606813122097e-01
1.013323217218740357e-01
7.380412543784400925e-02
4.652529473779461883e-02
1.972126733727262368e-02
-6.409371134558843747e-03
-3.171414135513019733e-02
-5.605103076004829682e-02
-7.933469712278953812e-02
-1.015113563131672114e-01
-1.225513709064549317e-01
-1.424865103615849948e-01
-1.613608841492534252e-01
-1.792610587906090791e-01
-1.963084298129479099e-01
-2.126345955059024684e-01
-2.284075497268751864e-01
-2.438045700761325152e-01
-2.590114385991808543e-01
-2.742241572907110903e-01
-2.896372972296536452e-01
-3.054328396116509636e-01
-3.217877458126415235e-01
-3.388599396720357038e-01
-3.567736219681017507e-01
-3.756444614801919268e-01
-3.955376245133486179e-01
-4.164892717059533456e-01
-4.385109688304684172e-01
-4.615496389831225121e-01
-4.855386226302882413e-01
-5.103605860901835323e-01
-5.358553600096184200e-01
-5.618485165290509897e-01
-5.881126147505266744e-01
-6.144060280268924812e-01
-6.404667936175912901e-01
-6.660077657638974191e-01
-6.907394624758027568e-01
-7.143674569952065401e-01
-7.365954832250365403e-01
-7.571381718319653009e-01
-7.757300849321729919e-01
-7.921117251194967901e-01
-8.060631115627803212e-01
-8.173876674172974033e-01
-8.259100947449803387e-01
-8.315128828888083135e-01
-8.340910903071493410e-01
-8.335888440140425404e-01
-8.299930109458832916e-01
-8.233059681146989162e-01
-8.135899310587128008e-01
-8.009238239811865556e-01
-7.854170663776511851e-01
-7.672179939195643561e-01
-7.464820812382734205e-01
-7.233953965171014966e-01
-6.981565284730814058e-01
-6.709698909143381185e-01
-6.420508169219071304e-01
-6.116151746498054154e-01
-5.798715459637925340e-01
-5.470240580281606757e-01
-5.132677221358815656e-01
-4.787717659835717399e-01
-4.436992893809895699e-01
-4.081834869918800068e-01
-3.723307139987839798e-01
-3.362358398738207743e-01
-2.999474053194485235e-01
-2.635005078523579569e-01
-2.269018756236036716e-01
-1.901209267471536402e-01
-1.531192767342325345e-01
-1.158223103041264856e-01
-7.814007091695610030e-02
-3.997170919947211354e-02
-1.195276183981049470e-03
3.831389334163096128e-02
7.868367125865857736e-02
1.200439421505639370e-01
1.625191483603061482e-01
2.062176127323545050e-01
2.512434512559293953e-01
2.976756215450736542e-01
3.455698164924668747e-01
3.949707624224082503e-01
4.458772437253019638e-01
4.982742344656134192e-01
5.521148296063143057e-01
6.073089140812522047e-01
6.637562205512962388e-01
7.213059602843471252e-01
7.797852179761527447e-01
8.389991418430459147e-01
8.987089932926950464e-01
9.586681584217912055e-01
1.018599303479349683e+00
1.078205165721967784e+00
1.137181987436037822e+00
1.195207257013390256e+00
1.251954938760104552e+00
1.307099695798161321e+00
1.360316857070411611e+00
1.411286333806398119e+00
1.459709504999508356e+00
1.505294584128885393e+00
1.547773591198558174e+00
1.586911805283757193e+00
1.622483795900455661e+00
1.654314614921357229e+00
1.682252152652358612e+00
1.706170870392185845e+00
1.726000101119886443e+00
1.741679835334769777e+00
1.753196945479889912e+00
1.760569660187905505e+00
1.763830233601833664e+00
1.763053287637261546e+00
1.758322568637184613e+00
1.749739707986088355e+00
1.737423894426515458e+00
1.721495949058249764e+00
1.702081054613836741e+00
1.679305547377180075e+00
1.653287115645438510e+00
1.624130993039171189e+00
1.591937712737310218e+00
1.556779121280276623e+00
1.518713664631884841e+00
1.477781940059895716e+00
1.433986494618498364e+00
1.387322133359828902e+00
1.337747548527596697e+00
1.285196534072249541e+00
1.229591371459977767e+00
1.170818438747813994e+00
1.108756194260524852e+00
1.043268545365231059e+00
9.742046819454021067e-01
9.014136862798305394e-01
8.247473952427436528e-01
7.440588352302289765e-01
6.592182800048989044e-01
5.701216082375838434e-01
4.766735193362937606e-01
3.788325123570383535e-01
2.765830057084861515e-01
1.699438455456873109e-01
5.900961109716035963e-02
-5.610917710761744587e-02
-1.752247719701376383e-01
-2.980945434251705550e-01
-4.244477140783446401e-01
-5.539225776253160483e-01
-6.861361543612214398e-01
-8.206525146095133838e-01
-9.569805487064482197e-01
-1.094617715067391028e+00
-1.233015195084216975e+00
-1.371608989778102083e+00
-1.509828946972085140e+00
-1.647095509152290749e+00
-1.782831294681737289e+00
-1.916483527758340744e+00
-2.047511695475866311e+00
-2.175400367016736336e+00
-2.299691159053469658e+00
-2.419938600035875353e+00
-2.535766588626927387e+00
-2.646849836613294205e+00
-2.752891277600109099e+00
-2.853688204568305409e+00
-2.949060812230965833e+00
-3.038890787027943574e+00
-3.123125840718243396e+00
-3.201729075499915478e+00
-3.274729313304207245e+00
-3.342177790368225043e+00
-3.404143114380630220e+00
-3.460721280683699330e+00
-3.512009556906531049e+00
-3.558095391030835497e+00
-3.599061146748427475e+00
-3.634967846658003765e+00
-3.665826302981847640e+00
-3.691635315755348756e+00
-3.712324194395007826e+00
-3.727769787598346429e+00
-3.737819731597631367e+00
-3.742220899603046380e+00
-3.740695140940011321e+00
-3.732900347426206356e+00
-3.718423653730476897e+00
-3.696837504487096027e+00
-3.667652529443343301e+00
-3.630357727608136464e+00
-3.584435249857420569e+00
-3.529356138804434995e+00
-3.464595329887799835e+00
-3.389671665186077210e+00
-3.304127219993252762e+00
-3.207546912204572997e+00
-3.099619475770930332e+00
-2.980057363782483204e+00
-2.848697992251620903e+00
-2.705476000824767802e+00
-2.550376593682790016e+00
-2.383564248047318479e+00
-2.205249230754393164e+00
-2.015758196758202558e+00
-1.815550473958035038e+00
-1.605115573766724202e+00
-1.385076362393953486e+00
-1.156104240296822239e+00
-9.189091785702299120e-01
-6.742657708773164282e-01
-4.229544030800660437e-01
-1.657518690743400025e-01
9.656706489202748767e-02
3.632580898584378826e-01
6.336534678229962525e-01
9.071040561714753814e-01
1.183068087111093458e+00
1.461089883326577077e+00
1.740756431115752845e+00
2.021810247518104120e+00
2.304034131222788773e+00
2.587295830072668945e+00
2.871562871246506443e+00
3.156817669935766180e+00
3.443097910544175910e+00
3.730461442115127202e+00
