BVP Green Neck Signal
-8.816223211500204271e-03
-2.112503029094432022e-02
-2.906281745554804841e-02
-2.949009540533876345e-02
-2.090689613278385803e-02
-3.839112116232553523e-03
1.920577785661873454e-02
4.420228399936887431e-02
6.638875398989554921e-02
8.120665747412976476e-02
8.521215129169672220e-02
7.678122043236557115e-02
5.646680426624117732e-02
2.693737094698206783e-02
-7.479057721119765356e-03
-4.153481734881622756e-02
-6.993052701095289758e-02
-8.815918179457286896e-02
-9.320684764427168700e-02
-8.402456599833996176e-02
-6.171403479247775103e-02
-2.939945248126119015e-02
8.204508812080762992e-03
4.547809230843768979e-02
7.674802281893851330e-02
9.718612685008173879e-02
1.036102677438156677e-01
9.503615961213215946e-02
7.285936135504512967e-02
4.061970439335023386e-02
3.394286188942975679e-03
-3.305536993476695939e-02
-6.321548179136329826e-02
-8.266466786469227335e-02
-8.869520708053631186e-02
-8.062848161000417402e-02
-5.980755262501562253e-02
-2.930871744243716825e-02
6.552248228296274346e-03
4.283761770760280418e-02
7.465407361439346801e-02
9.779499022132995267e-02
1.092824336983546502e-01
1.077370884095358444e-01
9.352546963475648345e-02
6.866708255598234778e-02
3.651938774504544932e-02
1.290582323536584863e-03
-3.254189821768499469e-02
-6.081240743859911424e-02
-8.015937325884106568e-02
-8.837381785146984636e-02
-8.459266698974178544e-02
-6.935322061146384498e-02
-4.452564619205934271e-02
-1.312708608764291685e-02
2.098365521977003934e-02
5.352000393400901945e-02
8.026049597646144063e-02
9.757543644006524963e-02
1.029285610826184277e-01
9.527996062136821764e-02
7.530876361500526972e-02
4.539076753417632670e-02
9.312831867885319748e-03
-2.823546155013732795e-02
-6.230841640136228210e-02
-8.838756582792535454e-02
-1.030029373384751673e-01
-1.042057725406767554e-01
-9.182771832887472174e-02
-6.749479776323420721e-02
-3.440287623761066615e-02
3.108716012662160466e-03
4.013219995611512492e-02
7.184942278829936635e-02
9.419048708414924642e-02
1.043962238688592586e-01
1.013934699630004294e-01
8.592384688728088582e-02
6.041165428347275435e-02
2.859728054852897494e-02
-5.005925104159439365e-03
-3.574731621779717039e-02
-5.946579540640375972e-02
-7.301099609842758020e-02
-7.459463221593884419e-02
-6.395419122287078484e-02
-4.234513232092224078e-02
-1.238586511760601111e-02
2.222753024769098112e-02
5.712222780358092167e-02
8.773977677083222293e-02
1.098760537448787433e-01
1.202167443175351930e-01
1.168060041082758099e-01
9.937683294414825785e-02
6.947128554689363522e-02
3.030300349815787109e-02
-1.363395826971770808e-02
-5.714852939645369279e-02
-9.503058754611802550e-02
-1.227204482141555503e-01
-1.368811352605853182e-01
-1.358050947801178188e-01
-1.196108725474700346e-01
-9.021441040528548061e-02
-5.108862823164646988e-02
-6.844338317993504950e-03
3.732497914377917725e-02
7.628165739708056559e-02
1.055943356330723143e-01
1.221110433443763077e-01
1.243643245997759078e-01
1.127421932587092807e-01
8.940041889946656606e-02
5.793464787007607947e-02
2.286512357028495229e-02
-1.098872458930136992e-02
-3.915274294184768744e-02
-5.807307231627523159e-02
-6.555395814567917256e-02
-6.101832422787714649e-02
-4.557003467687734122e-02
-2.184483412224217866e-02
6.350871744755820503e-03
3.458463086552713422e-02
5.845625995092824934e-02
7.426806995918060206e-02
7.959589108255608891e-02
7.366174393064195414e-02
5.743604290086975345e-02
3.344040763193666110e-02
5.283472270961812878e-03
-2.297213307153390949e-02
-4.747246123354778580e-02
-6.513094700526696201e-02
-7.399558314880014254e-02
-7.339666150421240987e-02
-6.389593695763655379e-02
-4.708761331285769847e-02
-2.531311680142087073e-02
-1.345961606669124344e-03
2.191785156911861543e-02
4.175344318288070483e-02
5.588601351903119824e-02
6.274663783233441761e-02
6.167507035280193894e-02
5.302729455963042793e-02
3.815363212828092737e-02
1.923653145843108592e-02
-9.964747777958735120e-04
-1.964592782685607025e-02
-3.404193558023939359e-02
-4.210645152074929398e-02
-4.261761103681854790e-02
-3.534577199134050079e-02
-2.106384163531883902e-02
-1.452067462582071200e-03
2.108535719315775617e-02
4.368313041560061005e-02
6.334539528616536797e-02
7.731635788173478463e-02
8.344736783157662152e-02
8.051068926194364372e-02
6.841212247429587223e-02
4.826117939798073297e-02
2.227307357036737920e-02
-6.493247019438729006e-03
-3.452021070949318898e-02
-5.827581462598070694e-02
-7.465536838269724862e-02
-8.137753666355208859e-02
-7.730338225203620128e-02
-6.264357441770186663e-02
-3.901271104741325935e-02
-9.298617803494182987e-03
2.265895208058288368e-02
5.255354544067479539e-02
7.620597532222272985e-02
9.018626303443548486e-02
9.236084368904659558e-02
8.225738931481858807e-02
6.116783288561593313e-02
3.196878208448578756e-02
-1.298698309123935690e-03
-3.400871465831867974e-02
-6.159853191527982219e-02
-8.019916792978225295e-02
-8.717013625882076566e-02
-8.147001816903440274e-02
-6.381390775809597793e-02
-3.659576753386634129e-02
-3.580276183497245468e-03
3.060726106434925181e-02
6.113641958741650867e-02
8.368227179371667823e-02
9.507468976020912177e-02
9.377126908458303933e-02
8.007345122703249385e-02
5.605858763997001448e-02
2.525178818648209783e-02
-7.899802048405207833e-03
-3.866202794482065386e-02
-6.265978814059505742e-02
-7.644677411067185568e-02
-7.794027000934153349e-02
-6.669227382447853736e-02
-4.398192617683209515e-02
-1.271269811335778988e-02
2.289987333551733728e-02
5.784167215056656985e-02
8.696798214027462448e-02
1.057424907407411435e-01
1.109413222227355195e-01
1.012086902679461276e-01
7.735894570775284085e-02
4.235098809201090497e-02
9.188054358593919502e-04
-4.108851573724862927e-02
-7.755039560697228607e-02
-1.029744148873656950e-01
-1.133288976439471157e-01
-1.066958360301342862e-01
-8.364217746868612968e-02
-4.723059493353585353e-02
-2.638679514433389661e-03
4.357785433847755074e-02
8.447629477208960791e-02
1.138205221159818287e-01
1.270961247634423419e-01
1.222635932847964263e-01
1.001013363890604912e-01
6.406794655289257956e-02
1.971586449401329516e-02
-2.621991285181975162e-02
-6.688488016666638281e-02
-9.634350101442591685e-02
-1.104428945606403256e-01
-1.073893470591166382e-01
-8.796909161375726649e-02
-5.539388560027951047e-02
-1.480056194582953649e-02
2.752612757434613755e-02
6.510716025231658155e-02
9.227147881621834691e-02
1.050550444808190237e-01
1.018401155853416451e-01
8.361057063750972074e-02
5.376943781909060416e-02
1.755127239144865098e-02
-1.886305274452884650e-02
-4.937351557276053321e-02
-6.895536942795783830e-02
-7.445595484374066542e-02
-6.506876416314276435e-02
-4.242251297453702302e-02
-1.029021816956263158e-02
2.602399124998237834e-02
6.052789072377236235e-02
8.749497895670833858e-02
1.023864906035441419e-01
1.025892743990631101e-01
8.783819457929216423e-02
6.024696286950702306e-02
2.394533146494493697e-02
-1.560817843069363386e-02
-5.251408855607038462e-02
-8.136455783265569841e-02
-9.806261311431921368e-02
-1.004013276229436952e-01
-8.833303851684053132e-02
-6.391803407036650286e-02
-3.098328440347843105e-02
5.456481406489320507e-03
3.994534058321559666e-02
6.740578657785206707e-02
8.391301680784975237e-02
8.730002031600474222e-02
7.749072327444510300e-02
5.650036816610182894e-02
2.809573004247687897e-02
-2.832697065176172091e-03
-3.107709225992996011e-02
-5.195063421641771956e-02
-6.201208287887767512e-02
-5.956984226033910923e-02
-4.491285910807141235e-02
-2.025866867735415938e-02
1.056649551152852307e-02
4.268112876123859867e-02
7.087363439847907398e-02
9.040564966336006592e-02
9.777752053757389483e-02
9.133497593885372967e-02
7.160768364898255356e-02
4.129982703227845497e-02
4.906628760731467087e-03
-3.199353798076391697e-02
-6.364713667523963503e-02
-8.506695950302541054e-02
-9.284448001745317092e-02
-8.570720038332663160e-02
-6.474117239776427946e-02
-3.324344819419957492e-02
3.782492823065780607e-03
4.041920379315339096e-02
7.079286037527553199e-02
9.003962315986771547e-02
9.511937190854301283e-02
8.533533026863190929e-02
6.245940484110965724e-02
3.042830739938785431e-02
-5.339129074321866120e-03
-3.887106986525360602e-02
-6.463992327652742786e-02
-7.845406005442655262e-02
-7.811060940211449199e-02
-6.372521111657411530e-02
-3.769966258747412674e-02
-4.333145481396322163e-03
3.086805648769150312e-02
6.208031945972174170e-02
8.411677123520773514e-02
9.329626695107233469e-02
8.808073664495319477e-02
6.935793478702625969e-02
4.030049805550962178e-02
5.816272860441465409e-03
-2.830449728225396117e-02
-5.637796680582971010e-02
-7.377162342842556730e-02
-7.765260608788991659e-02
-6.743065731388138417e-02
-4.483473980892678512e-02
-1.361491605887729314e-02
2.108118052538825865e-02
5.355556409318890099e-02
7.849526940487867865e-02
9.184829291795676420e-02
9.149715088036476651e-02
7.760857388831193804e-02
5.258550938268677366e-02
2.062464561821749504e-02
-1.303003758601696538e-02
-4.298390210809169276e-02
-6.456836714446025083e-02
-7.455368639780536599e-02
-7.160046462307896598e-02
-5.640249631134051922e-02
-3.152135478699620574e-02
-9.564688133395157776e-04
3.047398083082419884e-02
5.785151566461430722e-02
7.688280135738603804e-02
8.453877725284715539e-02
7.951390694947911564e-02
6.242511605377597250e-02
3.570868709196604179e-02
3.232070811071137417e-03
-3.030608168832486099e-02
-6.008047808415965807e-02
-8.183350437464491367e-02
-9.245602148133805209e-02
-9.037712993684297869e-02
-7.572341196236009875e-02
-5.025020653989072800e-02
-1.707849641220978570e-02
1.971736525715730992e-02
5.562533479729450669e-02
8.626410471048769069e-02
1.079400722492364073e-01
1.181183034541926774e-01
1.157395393070224793e-01
1.013391110509639509e-01
7.695347098893629001e-02
4.582781134551902613e-02
1.196503131444116852e-02
-2.041771366639798940e-02
-4.744311583576657498e-02
-6.606227260429195502e-02
-7.442421943876423307e-02
-7.209516096579882127e-02
-6.010540273920236820e-02
-4.080543969489996980e-02
-1.752819173565427213e-02
5.911288510597894480e-03
2.580764493252781649e-02
3.915226809469342373e-02
4.411610073905420509e-02
4.034324549988253794e-02
2.899840447171588703e-02
1.255342944301973684e-02
-5.649348427132451153e-03
-2.197352451069508120e-02
-3.310117965001322521e-02
-3.658671408352241750e-02
-3.127846423289123989e-02
-1.755156223717304481e-02
2.691577666563648580e-03
2.627372798040712026e-02
4.922863143884559367e-02
6.745351124205745119e-02
7.742455529431076233e-02
7.685209673068332803e-02
6.515094058236237107e-02
4.362209333838044933e-02
1.529179088501157052e-02
-1.557212002563856945e-02
-4.417142334088101918e-02
-6.597541974583075175e-02
-7.746031358699041747e-02
-7.667151466127224146e-02
-6.352851711641932519e-02
-3.983306751725777806e-02
-8.986256481398995077e-03
2.453388632225474153e-02
5.584761351292923809e-02
8.039961630771227941e-02
9.463455911034972245e-02
9.652616969896270216e-02
8.587546544918518709e-02
6.432256761984098126e-02
3.506842921266196955e-02
2.362724506387935131e-03
-2.914383399552561427e-02
-5.507422818354486271e-02
-7.193230725863680730e-02
-7.756972824396042576e-02
-7.146177827244158676e-02
-5.476406509441009152e-02
-3.014662770384864132e-02
-1.424014331600810535e-03
2.698250691287387010e-02
5.069493296740892191e-02
6.605769549034398724e-02
7.073575376766892686e-02
6.411501703094302229e-02
4.741838208653925690e-02
2.351011180395842087e-02
-3.573658424554461421e-03
-2.928095878556030707e-02
-4.927188421823987252e-02
-6.009735674854783938e-02
-5.972299929283915454e-02
-4.782802069390292010e-02
-2.585355753274018453e-02
3.189664189329054211e-03
3.512627014850763091e-02
6.519414572393691931e-02
8.873471835923635309e-02
1.019043050247740306e-01
1.022930185856169433e-01
8.934202015446622569e-02
6.448167905230278718e-02
3.096030307029797382e-02
-6.615692770073136608e-03
-4.295995791264586861e-02
-7.289282017664387714e-02
-9.210922417538137952e-02
-9.781369108773600718e-02
-8.914153317912926200e-02
-6.731926122878277574e-02
-3.553993126649478140e-02
1.449769854084841103e-03
3.801915086067612914e-02
6.849940160722861604e-02
8.807982240525569217e-02
9.360587408109614926e-02
8.413764434969836503e-02
6.116060134453188413e-02
2.839569493232287425e-02
-8.771734891638287290e-03
-4.414923998666210603e-02
-7.173103638547539962e-02
-8.666295835171576589e-02
-8.603316944069837324e-02
-6.937770197452557130e-02
-3.882356719866320027e-02
1.170470883803745310e-03
4.446144779005468950e-02
8.417487646162528925e-02
1.138150870659240532e-01
1.283481751526495129e-01
1.250692738305409224e-01
1.040944167989226593e-01
6.837643148881211719e-02
2.323234093341376705e-02
-2.452953035103548618e-02
-6.771381802970107000e-02
-9.987284377124047707e-02
-1.162898210988943803e-01
-1.146749934234767981e-01
-9.548845771616062961e-02
-6.184976246863825577e-02
-1.904570904317715030e-02
2.629396376778324329e-02
6.723011268683327935e-02
9.759973374129739254e-02
1.129845458604205877e-01
1.114023078740933176e-01
9.359398052843442839e-02
6.284669409046617083e-02
2.438707945042072056e-02
-1.552825469260149527e-02
-5.064492533309221389e-02
-7.568462869644758395e-02
-8.711554737665698489e-02
-8.362258120840593278e-02
-6.622945622589239412e-02
-3.807351965324626275e-02
-3.880255336054835857e-03
3.078022284806344877e-02
6.035257049960269377e-02
8.015837012320739530e-02
8.713815348135643679e-02
8.034807289262453633e-02
6.110970498668988338e-02
3.277197653034302077e-02
1.274506973730910042e-04
-3.140100717678848130e-02
-5.664884591871437169e-02
-7.152047332951107228e-02
-7.359768066369645756e-02
-6.246654410204105501e-02
-3.973552831075183311e-02
-8.765533614966597442e-03
2.583485975810636409e-02
5.888008271402619259e-02
8.536495741250473002e-02
1.012131931224905385e-01
1.039044584293262047e-01
9.286940862356637960e-02
6.957663537414106314e-02
3.729567309360092009e-02
5.836217515653441268e-04
-3.541002469084951476e-02
-6.570217991775581523e-02
-8.617970533596761018e-02
-9.414962047546460155e-02
-8.867525698628246633e-02
-7.067738159419138799e-02
-4.280549630054131249e-02
-9.094686994227642318e-03
2.556809912147839370e-02
5.612247591457732165e-02
7.807809435056367597e-02
8.821505943951697681e-02
8.512523862189071144e-02
6.949324212994338612e-02
4.404875280493858458e-02
1.317111864476960131e-02
-1.780887182796526275e-02
-4.349863956498613987e-02
-5.936781347957918731e-02
-6.254234247871594266e-02
-5.233244394407302741e-02
-3.040247640599275103e-02
-5.395830865212621064e-04
3.196442563505146051e-02
6.123165791446091855e-02
8.185812487833256379e-02
8.991090422067914145e-02
8.366232203227978725e-02
6.391373670113280336e-02
3.384601044674834247e-02
-1.569917635857683014e-03
-3.647951695935700012e-02
-6.518302092107172707e-02
-8.310345601877656974e-02
-8.751506580905127342e-02
-7.792899873251731002e-02
-5.610384066200348185e-02
-2.570405772383080323e-02
8.330022022981144192e-03
4.060153897286290087e-02
6.613546299278362517e-02
8.117132830459022896e-02
8.373925374363867802e-02
7.392749415668133095e-02
5.380360777103705694e-02
2.701044643469826048e-02
-1.883696425697564680e-03
-2.815573232463553649e-02
-4.767764257608653883e-02
-5.752475723205520419e-02
-5.636708637766622843e-02
-4.461316731622174542e-02
-2.430472104175265130e-02
1.220561156828850469e-03
2.785680313250722684e-02
5.137585328861723338e-02
6.809373538421342742e-02
7.545317658214591161e-02
7.242873211855668791e-02
5.968395563698081219e-02
3.944519073829332034e-02
1.510703139083659566e-02
-9.357758699542306768e-03
-3.006840630313332291e-02
-4.386299299193782697e-02
-4.878357183617772902e-02
-4.435778156547905138e-02
-3.164582775446470736e-02
-1.304737768630328393e-02
8.105594990694808127e-03
2.810664186324643432e-02
4.349096491120776203e-02
5.160856654262589022e-02
5.106192043934206642e-02
4.193409969236968488e-02
2.576185385923361951e-02
5.252419962436943868e-03
-1.620234270223754394e-02
-3.511635685107401816e-02
-4.849176913351097712e-02
-5.429706925744282042e-02
-5.177387637691950595e-02
-4.153288654335864083e-02
-2.542539670703428817e-02
-6.208682051300207227e-03
1.293993782582818913e-02
2.897639373613388955e-02
3.951493867816250477e-02
4.323419484778379812e-02
4.008940889563249177e-02
3.128527941296586207e-02
1.901105463697536427e-02
5.997748469100713797e-03
-4.997935275378753012e-03
-1.167011879475418276e-02
-1.251699266758220588e-02
-7.032791955786621765e-03
4.260253331084973977e-03
1.991564061647013370e-02
3.776835276633500049e-02
5.520955035887390588e-02
6.950491381887424769e-02
7.813989567343038178e-02
7.917323334621703679e-02
7.156306690207440979e-02
5.540948009268180374e-02
3.205306032978973846e-02
3.989656497128554746e-03
-2.540394122448400710e-02
-5.230697155833596151e-02
-7.300420981143398991e-02
-8.447590397959701958e-02
-8.493375839224705237e-02
-7.419772121705674184e-02
-5.382367636329155047e-02
-2.693461494070273354e-02
2.236751407114122292e-03
2.903208019134582984e-02
4.916880816834432594e-02
5.951185810852517577e-02
5.865480850501711418e-02
4.717812021105891734e-02
2.752465945398833297e-02
3.524952169620343412e-03
-2.031919707764291705e-02
-3.964477600417575659e-02
-5.097955027005032086e-02
-5.230595115427935649e-02
-4.334879393618167737e-02
-2.555624241910688099e-02
-1.802810567117854590e-03
2.411455172481127840e-02
4.809916956501875118e-02
6.640604121233481538e-02
7.623067996882522401e-02
7.614430383550546688e-02
6.629994715192169541e-02
4.837386603890586612e-02
2.526009916933954699e-02
5.822950888415279191e-04
-2.188694336199517587e-02
-3.880186461060802783e-02
-4.772458465208687800e-02
-4.744354253386597053e-02
-3.809764990411459995e-02
-2.111284594657903552e-02
1.018008174886220890e-03
2.507626018197019191e-02
4.754641028770234534e-02
6.509345642051019010e-02
7.503363974146028126e-02
7.573242428931156733e-02
6.686784270289844456e-02
4.951437790136085926e-02
2.602412923468798781e-02
-2.924893475277010046e-04
-2.565036539324549308e-02
-4.636384246857944147e-02
-5.941377166701940216e-02
-6.291413161402817367e-02
-5.641216088700920506e-02
-4.098615733075353790e-02
-1.912539126535054909e-02
5.606289237356912314e-03
2.909367438435924574e-02
4.731205316595459703e-02
5.698664314793103203e-02
5.615701052678188226e-02
4.454539020399191085e-02
2.365615848911719471e-02
-3.423570198300068118e-03
-3.249615024055763773e-02
-5.891378729892131350e-02
-7.830365802735911318e-02
-8.723268957982972804e-02
-8.371753840535024749e-02
-6.752416224201218675e-02
-4.022911914277439716e-02
-5.033650799098961237e-03
3.365423412537520143e-02
7.082100846085388757e-02
1.015518839137279916e-01
1.217395145597691963e-01
1.286939353558197441e-01
1.215549834730227513e-01
1.014267265948576163e-01
7.119667711624814987e-02
3.506887297512628621e-02
-2.094982681128024216e-03
-3.549746489275361350e-02
-6.106696232854663675e-02
-7.596684605408279833e-02
-7.889851007586796972e-02
-7.018015426875694185e-02
-5.161546822433154408e-02
-2.619219459173252607e-02
2.337070851380268488e-03
2.994131139248291940e-02
5.281943291092564691e-02
6.788174937464085124e-02
7.314542941236712448e-02
6.798286851313467549e-02
5.318137930712876077e-02
3.080877795662678720e-02
3.914931306399353772e-03
-2.387913977412270405e-02
-4.884533225951032814e-02
-6.760673354155655179e-02
-7.753834093101101554e-02
-7.707421255992009945e-02
-6.590342161918076591e-02
-4.504583605223240472e-02
-1.679386704326110702e-02
1.549854298047919493e-02
4.778538385499118968e-02
7.582950569728280632e-02
9.577264304209150148e-02
1.046916213868000212e-01
1.010548586194313231e-01
8.500123298835349228e-02
5.838195578282477649e-02
2.454234001776273849e-02
-1.212757409559232780e-02
-4.679643215847345550e-02
-7.485019941442473679e-02
-9.251488683977164562e-02
-9.737140407768339612e-02
-8.870395319222106056e-02
-6.763244754601868691e-02
-3.699788846861162828e-02
-1.002845130765955828e-03
3.535299892408844125e-02
6.697215780861663637e-02
8.940220627399134146e-02
9.951409002243351287e-02
9.600041359243505212e-02
7.959555214979904814e-02
5.296909706959515574e-02
2.031180127293957804e-02
-1.330868205726226661e-02
-4.271400600269943670e-02
-6.338843389533573014e-02
-7.215073106881296494e-02
-6.763118620143680759e-02
-5.048711908366573797e-02
-2.332725595854373904e-02
9.647152855512250436e-03
4.324561747692942659e-02
7.206830174296266489e-02
9.136052859927393244e-02
9.780641719741833828e-02
9.011408018200971204e-02
6.927176080936203739e-02
3.841733727844733048e-02
2.340754548020289316e-03
-3.329347331566168133e-02
-6.287034952526260323e-02
-8.173930983625145308e-02
-8.696754238896324540e-02
-7.781025037505907849e-02
-5.582866289615753819e-02
-2.464431305947293802e-02
1.063225489233760729e-02
4.421899640221885197e-02
7.060748539367749099e-02
8.548284053581819975e-02
8.645381704607180140e-02
7.345513480574314413e-02
4.874714688541563479e-02
1.651711722730309084e-02
-1.784051082755477163e-02
-4.863283554392242719e-02
-7.080389799393210781e-02
-8.073515837971124987e-02
-7.678467096636565348e-02
-5.949797351887474439e-02
-3.148423145716690297e-02
3.005389571302273521e-03
3.873285476979865943e-02
7.027335504950374401e-02
9.284591476486940553e-02
1.030447714389491759e-01
9.935218126753515844e-02
8.234994355362475205e-02
5.459745391106869683e-02
2.019782735111714383e-02
-1.587319175324627962e-02
-4.855474359433217812e-02
-7.346109362828630307e-02
-8.748589984936520902e-02
-8.917017401851050351e-02
-7.881026158743634213e-02
-5.832233266071491784e-02
-3.089975842954571783e-02
-5.135776963082899771e-04
2.867552547840003518e-02
5.290917850917199045e-02
6.934142714101854121e-02
7.639673688389875261e-02
7.392899910286154785e-02
6.316086312970339844e-02
4.641588490562478797e-02
2.669662632744484662e-02
7.195314552899199911e-03
-9.170807178088227762e-03
-2.013423357441570388e-02
-2.433585311060531414e-02
-2.146551960328536499e-02
-1.228399264106378591e-02
1.481124493188538949e-03
1.736994572408730175e-02
3.254304592768114679e-02
4.421684749573166762e-02
5.012323935524258534e-02
4.891519618478673559e-02
4.043091851308477230e-02
2.574531526221416483e-02
6.986592799008848470e-03
-1.303974283916138968e-02
-3.133013473675747701e-02
-4.516748643395739060e-02
-5.253458738361231617e-02
-5.240816044804701146e-02
-4.490510029646422457e-02
-3.126689603562726738e-02
-1.368458281067589863e-02
5.015649541808202966e-03
2.179174533635125713e-02
3.386339600103734776e-02
3.918500646566498713e-02
3.683233294590173429e-02
2.721661230088340960e-02
1.206620941965566747e-02
-5.831374204901061675e-03
-2.307968344016631673e-02
-3.623476848884335522e-02
-4.238708141497849607e-02
-3.967481809916399704e-02
-2.764686039522415428e-02
-7.410871412866134808e-03
1.846616121926270698e-02
4.629846604368702268e-02
7.182123091611634924e-02
9.085895613102337731e-02
1.000253632611901450e-01
9.733529421792376513e-02
8.260515303903691320e-02
5.754910762437424887e-02
2.554175426146064465e-02
-8.908913480720995204e-03
-4.087852442206542369e-02
-6.580601166876252905e-02
-8.020461464296632648e-02
-8.218779452197937097e-02
-7.172901816659334184e-02
-5.062672548728033850e-02
-2.219893345253426756e-02
9.232016107306784125e-03
3.898755806565227383e-02
6.272749504182333069e-02
7.709377247575026348e-02
8.020145699905671666e-02
7.189190767083968037e-02
5.370534305382133888e-02
2.858382058795089914e-02
3.634941368023739128e-04
-2.685117343341716228e-02
-4.931965039958884078e-02
-6.419267428098736350e-02
-6.985021351755212049e-02
-6.601609021327187188e-02
-5.366872963332380841e-02
-3.479975788332632936e-02
-1.207747198489298249e-02
1.153467956342466710e-02
3.315831654695978320e-02
5.033451403317040773e-02
6.127780437849510847e-02
6.503458279076340665e-02
6.154742433396270807e-02
5.163119924468625999e-02
3.686400827690140825e-02
1.939844828507614194e-02
1.709685162313106382e-03
-1.369397307936558866e-02
-2.457359360342280946e-02
-2.925602595997434108e-02
-2.689960907068836282e-02
-1.768693871355086350e-02
-2.890067052013015059e-03
1.523518947547238336e-02
3.373491407505183753e-02
4.939177460907465123e-02
5.924591240253847257e-02
6.111683505889203838e-02
5.402781016112635087e-02
3.843948006155377406e-02
1.623418037407272849e-02
-9.549659869397042478e-03
-3.517832327783029095e-02
-5.679434789979735665e-02
-7.101064692254509259e-02
-7.544536966825245161e-02
-6.912174584453360804e-02
-5.266815697363483317e-02
-2.827814872320198042e-02
5.742484537859457450e-04
2.963227503176055211e-02
5.450475277046545886e-02
7.137434856150760842e-02
7.764984155003544497e-02
7.243629026277956240e-02
5.671974189112666265e-02
3.322145515862022502e-02
5.949483703122912526e-03
-2.046573476656514401e-02
-4.153404406899274121e-02
-5.364078622855580208e-02
-5.463654264961800844e-02
-4.418692155039392194e-02
-2.382877563598968795e-02
3.270610115350403024e-03
3.280983790630589980e-02
6.003116234038743948e-02
8.048110040655311048e-02
9.073469942460633819e-02
8.895635946325561316e-02
7.519080553907195319e-02
5.133137059154883192e-02
2.078225302377923606e-02
-1.210888838180677884e-02
-4.273688490997742256e-02
-6.692289065549263116e-02
-8.148738234319703733e-02
-8.463581685772737784e-02
-7.612694180564592850e-02
-5.723739648270410874e-02
-3.055844653262059646e-02
3.405641813752635638e-04
3.135465851764452500e-02
5.835859859994516063e-02
7.774306134681470415e-02
8.690214994865347320e-02
8.460046810266637352e-02
7.116049402125103340e-02
4.843231846798910778e-02
1.953801867387715274e-02
-1.157532100583896079e-02
-4.069571553291640581e-02
-6.391693173169818443e-02
-7.812871019063093170e-02
-8.137429824564389180e-02
-7.306132455725361519e-02
-5.402910344938137432e-02
-2.647377384062178651e-02
6.270365003901948175e-03
4.008773694147976796e-02
7.055610883418896029e-02
9.350211397353082321e-02
1.055820327877097509e-01
1.048088285032033190e-01
9.092866260043422355e-02
6.555754602719697510e-02
3.203007410619264361e-02
-5.028089659256898547e-03
-4.034096093231838431e-02
-6.874406568526582328e-02
-8.596225514518303357e-02
-8.929175232369303272e-02
-7.807648629686210484e-02
-5.388900093085721016e-02
-2.036729897264481087e-02
1.728861676983664553e-02
5.310360742412022217e-02
8.128979645665686260e-02
9.723000085525533576e-02
9.829928949004491934e-02
8.435375139586036297e-02
5.777763296082084193e-02
2.307516812304732240e-02
-1.391168402699960449e-02
-4.701028026618655348e-02
-7.076692989921393173e-02
-8.135713884499141957e-02
-7.720497491644080779e-02
-5.921628058965396069e-02
-3.059989211073206594e-02
3.683696004043404693e-03
3.775614371303306904e-02
6.580958889471097417e-02
8.309199377552349552e-02
8.671795624839097327e-02
7.615199418484880356e-02
5.327146301038820919e-02
2.200421512576654359e-02
-1.237781166492608192e-02
-4.416851882528647494e-02
-6.817542497867412621e-02
-8.054490247210251141e-02
-7.933604942903570156e-02
-6.476792790681183687e-02
-3.912764131118741384e-02
-6.379022016515918658e-03
2.845769650439966547e-02
6.006917857859422893e-02
8.365469534788007311e-02
9.565878152111732813e-02
9.431414489213883756e-02
7.990374189890335488e-02
5.470018417965384627e-02
2.259697325888113811e-02
-1.150527155237303367e-02
-4.245803213011745125e-02
-6.564702204074672476e-02
-7.767177443677639181e-02
-7.682126479365081195e-02
-6.328866693297033330e-02
-3.911374194023765211e-02
-7.872950487302701750e-03
2.584156825824195786e-02
5.709022519996656553e-02
8.131060376932400247e-02
9.498940215504593498e-02
9.617676150420707837e-02
8.476438618600380670e-02
6.248601666585239939e-02
3.263896463774854095e-02
-4.311165917431636352e-04
-3.199622938384691362e-02
-5.764714621986660736e-02
-7.391455052038856111e-02
-7.872554469626591445e-02
-7.165156856240088856e-02
-5.393419952256552075e-02
-2.829293689061111033e-02
1.463618148394726926e-03
3.097710681756890572e-02
5.595871039565487176e-02
7.280519234862245503e-02
7.912842172557872644e-02
7.412032486825635702e-02
5.868612378927109963e-02
3.530699889348289794e-02
7.644496280780885278e-03
-2.004285051937587658e-02
-4.356277686785062914e-02
-5.942182127840400785e-02
-6.533788399684441195e-02
-6.056883601444297549e-02
-4.601449001228026525e-02
-2.407340515355686078e-02
1.730660195896113751e-03
2.730091393077071354e-02
4.861746331801457266e-02
6.238732679616800642e-02
6.658960493104697231e-02
6.081531622653795627e-02
4.632825350307791940e-02
2.582788680854247038e-02
2.963050908626217728e-03
-1.830231939412406417e-02
-3.435129981206469507e-02
-4.249444161325607872e-02
-4.138314658591669970e-02
-3.119912622053953866e-02
-1.359806027282219401e-02
8.573678370232293983e-03
3.173469666399526823e-02
5.212317037544495629e-02
6.637313795776408898e-02
7.203511149701559424e-02
6.796291811250829151e-02
5.449888659197012208e-02
3.342237879075958540e-02
7.675236323826550855e-03
-1.908059388791182726e-02
-4.299893354341611379e-02
-6.060374747194879896e-02
-6.929140445474969712e-02
-6.771522103009113003e-02
-5.599819723651919962e-02
-3.574105458384586875e-02
-9.817782133704777009e-03
1.802588632188206058e-02
4.373068113441776900e-02
6.356499926080680374e-02
7.473991376780562967e-02
7.587299454372395391e-02
6.719929661597240367e-02
5.048723549205280658e-02
2.868717820340312141e-02
5.394419492017549222e-03
-1.576500457436564445e-02
-3.171375911430981270e-02
-4.037150715370210058e-02
-4.090965589340617159e-02
-3.379612707560612772e-02
-2.065377982362056122e-02
-3.974336996036881633e-03
1.327066887503730586e-02
2.808038263219134884e-02
3.788275981459297143e-02
4.093158967830637374e-02
3.657474689689556302e-02
2.534918759538938929e-02
8.891918785363257458e-03
-1.031358499937198511e-02
-2.931275790085902805e-02
-4.511579569367660247e-02
-5.512308325351195082e-02
-5.747810166598570081e-02
-5.131208568389538510e-02
-3.687100358090564245e-02
-1.552386366978062912e-02
1.035533454809823423e-02
3.764112271199814008e-02
6.283653085826886031e-02
8.253959100837378327e-02
9.393117072548183566e-02
9.520947435463859854e-02
8.589999317449123484e-02
6.698180273004766816e-02
4.079547215226173029e-02
1.073768409910727528e-02
-1.920761795640687358e-02
-4.502301288180565048e-02
-6.321597804814346744e-02
-7.131565659368353793e-02
-6.825179862370710226e-02
-5.455972085275439393e-02
-3.236004652578823582e-02
-5.088548753972799155e-03
2.300236646099006188e-02
4.750143609117787880e-02
6.455240568024261938e-02
7.150291587384959013e-02
6.736681140479788832e-02
5.300329000674644520e-02
3.097158612886082366e-02
5.091429232347882000e-03
-2.020126263850442749e-02
-4.058739224484601837e-02
-5.257248972129863196e-02
-5.406789843465663326e-02
-4.475683036033811790e-02
-2.617769239810746607e-02
-1.496609681373113621e-03
2.500489591716708454e-02
4.864920489931189029e-02
6.517338355755278312e-02
7.149357554572856321e-02
6.627925796807149217e-02
5.021538748485177006e-02
2.588990046942888160e-02
-2.670003882561784725e-03
-3.071017274787500584e-02
-5.356592325890088130e-02
-6.743779084899072240e-02
-7.000535299439183956e-02
-6.078965438569650104e-02
-4.121355202631406950e-02
-1.435744513387576110e-02
1.554261143678049850e-02
4.377073591793973623e-02
6.587887500689959541e-02
7.839668523566155345e-02
7.939158709693351634e-02
6.877791285107837105e-02
4.831297583362444137e-02
2.128334635692625751e-02
-8.047902326083766766e-03
-3.512121267582007933e-02
-5.577039959093782473e-02
-6.682234402889040970e-02
-6.653187475876611023e-02
-5.480564149081143532e-02
-3.320051911057072397e-02
-4.711357977059061480e-03
2.661948095335205100e-02
5.623194999491056001e-02
7.967043353150517204e-02
9.323076703194482784e-02
9.453997275646770782e-02
8.296791057081057130e-02
5.979059524899779654e-02
2.806796966169855176e-02
-7.752979399849813102e-03
-4.245747584392954577e-02
-7.081942230874485600e-02
-8.838623441734486108e-02
-9.217467042220503504e-02
-8.117253047196762439e-02
-5.656952627716693716e-02
-2.167310718983236212e-02
1.850302643125428803e-02
5.794956385694505219e-02
9.058671090357148237e-02
1.112585082161623162e-01
1.166145074639524937e-01
1.057062647959156471e-01
8.017944644806690446e-02
4.401998777965983323e-02
2.895039410962037263e-03
-3.679553981797695217e-02
-6.898521531396123452e-02
-8.893102857881698964e-02
-9.395767818049906295e-02
-8.384223486151747007e-02
-6.079368995804861064e-02
-2.904167719559016397e-02
5.898457614682627026e-03
3.816622087139201480e-02
6.254237430856345037e-02
7.530727986647081651e-02
7.482238328291182516e-02
6.174241517602747920e-02
3.883446396421576241e-02
1.044649441594588252e-02
-1.827395871319913850e-02
-4.226741710914317524e-02
-5.739823855064042635e-02
-6.110207682060295187e-02
-5.275740977168864865e-02
-3.374650298775832419e-02
-7.211416125811900835e-03
2.245886144993378825e-02
5.034063609876544138e-02
7.178013146870625139e-02
8.315793393806103495e-02
8.248336279985817032e-02
6.972042695226557396e-02
4.679477616501857840e-02
1.728307686807181720e-02
-1.416265156127961833e-02
-4.255839747583707589e-02
-6.337464445912152633e-02
-7.324178067804403003e-02
-7.047477581150864145e-02
-5.535013104994027794e-02
-3.009626382896495034e-02
1.414368556134103228e-03
3.424496938718527006e-02
6.316927954590267902e-02
8.351924299098811844e-02
9.196141632939196231e-02
8.706633900758641020e-02
6.956656027258943664e-02
4.224798650100060338e-02
9.484499273798928376e-03
-2.350079191046203914e-02
-5.150538031075201084e-02
-7.018601211363043046e-02
-7.672773954853648326e-02
-7.025310416691873949e-02
-5.192836640900091311e-02
-2.476077067649592664e-02
6.884150485003945330e-03
3.797638545325714848e-02
6.362059417986577758e-02
7.983521474426912012e-02
8.418853807499511455e-02
7.618729218141427617e-02
5.734510801350094222e-02
3.090834695414211575e-02
1.284556170379411166e-03
-2.671459617936911696e-02
-4.866745851720299249e-02
-6.123338313006974898e-02
-6.264105874425690557e-02
-5.292142138534502993e-02
-3.386894876676166399e-02
-8.744224363627720042e-03
1.823969059819639804e-02
4.257564550894980121e-02
6.017396122559946076e-02
6.802633800547279452e-02
6.471895833719693014e-02
5.069901036403858668e-02
2.822901073039202000e-02
1.022539144707818037e-03
-2.637367953899506096e-02
-4.933432914298092192e-02
-6.391522616145796365e-02
-6.750151340320335869e-02
-5.925129780056923035e-02
-4.026578632788283679e-02
-1.344870311148769690e-02
1.693652876748858588e-02
4.595114934754957609e-02
6.880240351906982688e-02
8.166982907786925205e-02
8.239310343845532292e-02
7.088611674135343599e-02
4.918099647634597421e-02
2.108038344351245014e-02
-8.513597309635370647e-03
-3.445604971688361051e-02
-5.223991452107427935e-02
-5.875390506407823787e-02
-5.280377544091068021e-02
-3.531940323376175223e-02
-9.212969973162888487e-03
2.109340990703845869e-02
5.039670300086240146e-02
7.358126510030352230e-02
8.648564035486433488e-02
8.662259651812043160e-02
7.362246843673718455e-02
4.931206271541936637e-02
1.741189658977450316e-02
-1.708446045636907024e-02
-4.872488912186899446e-02
-7.246370257747579424e-02
-8.444885593596448969e-02
-8.262983230957211822e-02
-6.710772171670591202e-02
-4.017173686768717861e-02
-5.999820618693363361e-03
2.995268413714002875e-02
6.180200457889668819e-02
8.420290346364904532e-02
9.327770423131757915e-02
8.733239409953659493e-02
6.720136983208259418e-02
3.612924286332808155e-02
-7.959928725927573057e-04
-3.753833782358501070e-02
-6.815237710795027382e-02
-8.776903172543373821e-02
-9.336292070491399031e-02
-8.418788944471997104e-02
-6.182964016622080616e-02
-2.988958646714498513e-02
6.629824136651946143e-03
4.213254909671151904e-02
7.130844826012087967e-02
8.995932869441299051e-02
9.564575019576411485e-02
8.804278856128004704e-02
6.893621789690974888e-02
4.186213762764776081e-02
1.146881090428426841e-02
-1.727020064428917701e-02
-3.984982747210970982e-02
-5.290925918683794804e-02
-5.469779705115428159e-02
-4.528005459042669378e-02
-2.647224766587332606e-02
-1.535331861045499680e-03
2.532977873284894543e-02
4.962804640949076279e-02
6.728234872810259781e-02
7.530927123677716439e-02
7.233642459241583500e-02
5.885128752170539629e-02
3.712240509730242721e-02
1.080453609222131045e-02
-1.569713274489908245e-02
-3.798752354941353077e-02
-5.243294553897881460e-02
-5.677283759795478946e-02
-5.048880603155768421e-02
-3.487566458462991459e-02
-1.281386422239837522e-02
1.171283751788226163e-02
3.428136816559266414e-02
5.077937860915063273e-02
5.812374928275414188e-02
5.481805816376938978e-02
4.123589483493351332e-02
1.956835138527873372e-02
-6.554536842372567229e-03
-3.269284188729858209e-02
-5.435787207973010599e-02
-6.776977311499086942e-02
-7.048184883563725356e-02
-6.177053733275893188e-02
-4.273823189065284467e-02
-1.612978582226437529e-02
1.409568796996897577e-02
4.337375268680451063e-02
6.724524583421695456e-02
8.207054841589368765e-02
8.563258839066874295e-02
7.751693629897793425e-02
5.919188926960879116e-02
3.376905144857261787e-02
5.485822739896853428e-03
-2.100004488391674085e-02
-4.138220046251146755e-02
-5.241017851626397772e-02
-5.240588889554947949e-02
-4.151063479402566925e-02
-2.163520418175311419e-02
3.865412204108981814e-03
3.073780169849664456e-02
5.451786796888544173e-02
7.125861528364109410e-02
7.817755877714140100e-02
7.410629918475096500e-02
5.965905364856464999e-02
3.709362046839762006e-02
9.897983296466628111e-03
-1.781596539125642614e-02
-4.199862972127389044e-02
-5.930467164317421158e-02
-6.758100388743580600e-02
-6.613109498135356923e-02
-5.573744105147179079e-02
-3.846559826753749578e-02
-1.729377785721651281e-02
4.379555946275440204e-03
2.328613032979012093e-02
3.681597601091364524e-02
4.343508392435467547e-02
4.291723200192041482e-02
3.634508408967829229e-02
2.587325941546390201e-02
1.428600635489176048e-02
4.425282205819111754e-03
-1.395427316487332300e-03
-1.860050596191507866e-03
3.105331931674068860e-03
1.235822350589906721e-02
2.381190937551128789e-02
3.487832749737534987e-02
4.298261979078030204e-02
4.604916041314463526e-02
4.287260173145978487e-02
3.331606670664657294e-02
1.831907673099255826e-02
-2.638119407166635011e-04
-1.995128508912228510e-02
-3.800352457832859715e-02
-5.182226958964248481e-02
-5.932855761710789655e-02
-5.926142233072935472e-02
-5.135402656143266131e-02
-3.637133843788434295e-02
-1.601918279687279678e-02
7.255426916754667555e-03
3.055440153873517639e-02
5.088864391512155222e-02
6.557401819892219597e-02
7.261289260518001554e-02
7.100421199099581082e-02
6.092987146400554582e-02
4.377662035442306254e-02
2.197141191346808908e-02
-1.360063979726572336e-03
-2.285992679093303004e-02
-3.944435152174266546e-02
-4.875872890113196190e-02
-4.951462292952418798e-02
-4.167420356232826029e-02
-2.646935966718944044e-02
-6.251642661132431750e-03
1.582019361992390710e-02
3.622662292967726572e-02
5.161318640989261824e-02
5.932281180352429184e-02
5.785440413638784363e-02
4.716793587831704521e-02
2.876698313686371078e-02
5.520040799290418937e-03
-1.876665025411423937e-02
-3.995610312303982808e-02
-5.426171736135455836e-02
-5.888892998438080562e-02
-5.253622329816353548e-02
-3.567400159584470376e-02
-1.054505246798080609e-02
1.913163085264957264e-02
4.872055302708079572e-02
7.340878603542354275e-02
8.900546446232594777e-02
9.266884119727088198e-02
8.343127309961530236e-02
6.241466475637677536e-02
3.267871202355860510e-02
-1.279159478783646609e-03
-3.427308200720136089e-02
-6.127733357958242699e-02
-7.821927051216974458e-02
-8.259193756753904769e-02
-7.380541313772352729e-02
-5.324031468834647396e-02
-2.401059455154429950e-02
9.516132483641803752e-03
4.236263186286097493e-02
6.966048549623500563e-02
8.735362169472654648e-02
9.279848806390018912e-02
8.517136451197793168e-02
6.560522648718911110e-02
3.701843654667785755e-02
3.659067701942443629e-03
-2.955384933046927703e-02
-5.777914539487634393e-02
-7.697509777069251602e-02
-8.448877160910345241e-02
-7.943014234383836969e-02
-6.278025911075428567e-02
-3.722306523839317288e-02
-6.729471615155586950e-03
2.404831501665252030e-02
5.049220445794379980e-02
6.874217298871374004e-02
7.631076715586708470e-02
7.247407014354177723e-02
5.836220442177718348e-02
3.673534063177831543e-02
1.149550013549824334e-02
-1.297127886641298578e-02
-3.250856129820010876e-02
-4.384499392509483978e-02
-4.509324437349532255e-02
-3.602471804275896722e-02
-1.809199559972530721e-02
5.793695970015930174e-03
3.169938900774094820e-02
5.527314030668878386e-02
7.243901607820736610e-02
8.007889781062633994e-02
7.657672714951875570e-02
6.211574651174201628e-02
3.866921978453459474e-02
9.689371605278225552e-03
-2.044541314174252306e-02
-4.712824243164814852e-02
-6.624989464227151736e-02
-7.483598160483422024e-02
-7.149841583758125008e-02
-5.664324325521191694e-02
-3.241767638856668521e-02
-2.408412630154545264e-03
2.887580242710257455e-02
5.667836943135851763e-02
7.673228549944155485e-02
8.593994226593952568e-02
8.287402007475498655e-02
6.800955148301970898e-02
4.364721097615504447e-02
1.354083834359370853e-02
-1.770847571105438334e-02
-4.538638484170656739e-02
-6.539555929687758395e-02
-7.485570601608527996e-02
-7.248621750200502645e-02
-5.873857958622488717e-02
-3.568869723095637048e-02
-6.721375088479926430e-03
2.394903943802106222e-02
5.186375123247547597e-02
7.293754571637264816e-02
8.403163361040665025e-02
8.340887276509276194e-02
7.100782061761798380e-02
4.848293971970694255e-02
1.898293522907027603e-02
-1.331371031810717198e-02
-4.383008474568958479e-02
-6.827462912238298209e-02
-8.326097960752484872e-02
-8.677487878829996670e-02
-7.843393074849512592e-02
-5.951455730236950015e-02
-3.274606348169666059e-02
-1.901241273082096561e-03
2.875685116061582614e-02
5.509173198097772062e-02
7.368699428260502837e-02
8.233193533711767598e-02
8.032415870772909028e-02
6.853709910155524054e-02
4.924298508955428366e-02
2.573337285849002995e-02
1.816104184949554612e-03
-1.872636871354781823e-02
-3.264879575218059687e-02
-3.767454110437871984e-02
-3.280520799151331879e-02
-1.847422774610769577e-02
3.476344210691461808e-03
2.999946342684193037e-02
5.721668831087697166e-02
8.093719096359903997e-02
9.727302693683713419e-02
1.032650698856212718e-01
9.740413491373957344e-02
7.993380914250551583e-02
5.286340802812439926e-02
1.968355189858372184e-02
-1.516358249020658550e-02
-4.696670676810401485e-02
-7.146668768825946427e-02
-8.549991751133827200e-02
-8.746531951206552857e-02
-7.755299462033625468e-02
-5.771322968414116517e-02
-3.137544159848710407e-02
-2.948265499936195133e-03
2.284295273124396092e-02
4.169126216619627873e-02
5.039690250946804451e-02
4.738725170427757205e-02
3.297431197725161911e-02
9.306648305898387180e-03
-1.997229397232914636e-02
-5.029894918927519526e-02
-7.689948316620319468e-02
-9.551669098956473702e-02
-1.030408340487189017e-01
-9.795989796681481288e-02
-8.058154983391284387e-02
-5.300681766967092062e-02
-1.885299753366895259e-02
1.725437486222392708e-02
5.036264470134786675e-02
7.594527145647439470e-02
9.060139891250153232e-02
9.258260829804708381e-02
8.205954652385190340e-02
6.108565295150650276e-02
3.326623740636513310e-02
3.194273912892030276e-03
-2.424342699476801644e-02
-4.457167192116670562e-02
-5.434392390326125283e-02
-5.160457472790813682e-02
-3.615645371367943312e-02
-9.605447433332373053e-03
2.483520256874098900e-02
6.277344957009896309e-02
9.925440855159362030e-02
1.294821420107220011e-01
1.495423552780362209e-01
1.570108944859830435e-01
1.513363348103812789e-01
1.339118326131341075e-01
1.078101341647774158e-01
7.723365583421228087e-02
4.679607578099081316e-02
2.077550797782173886e-02
2.462682373036623185e-03
-6.307253283599746629e-03
-5.385385246348940724e-03
3.719053662190954790e-03
1.811183247299641419e-02
3.398476430749113736e-02
4.721423320693970277e-02
5.400614746105222852e-02
5.150141925174603341e-02
3.825252213132889628e-02
1.448717831368763476e-02
-1.789701115469969489e-02
-5.561220250897493111e-02
-9.448348509157790398e-02
-1.300869709575011024e-01
-1.584218735079145346e-01
-1.765194022330118795e-01
-1.829012808260314649e-01
-1.778180648536996644e-01
-1.632267213744886813e-01
-1.425042250291721491e-01
-1.199292826208867430e-01
-9.999391552152524232e-02
-8.663576827464966601e-02
-8.251251666445565125e-02
-8.845802191880418330e-02
-1.032440131314441706e-01
-1.237131271874180455e-01
-1.452673017108974118e-01
-1.626208468992611511e-01
-1.706804765021847081e-01
-1.653979700131542607e-01
-1.444513499749552343e-01
-1.076454214685333283e-01
-5.697612491379390465e-02
3.639734349213143150e-03
6.892240968268543988e-02
1.329963050859365170e-01
1.902608129205604626e-01
2.362329085486610247e-01
2.682158182979811900e-01
2.856670493331018301e-01
2.901961421413121744e-01
2.851994434031467351e-01
2.752083197286496197e-01
2.650723960043141481e-01
2.591198827547523953e-01
2.604349205891656749e-01
2.703649967069426951e-01
2.883225081908432630e-01
3.118894131425603011e-01
3.371923342390266143e-01
3.594920452239804276e-01
3.739125714068208262e-01
3.762093607028494935e-01
3.634514257032420148e-01
3.344913640455590143e-01
2.901326994011623750e-01
2.329661895406799355e-01
1.669127111818223819e-01
9.656266402979139796e-02
2.643446300322439130e-02
-3.971522667156064668e-02
-9.941346836718778501e-02
-1.517506006418028464e-01
-1.973940428510547185e-01
-2.383546894337325583e-01
-2.775487338920634706e-01
-3.182146470789534165e-01
-3.632655210598610962e-01
-4.146774468307917738e-01
-4.730195573133145759e-01
-5.372113039968047232e-01
-6.045530218503750719e-01
-6.710288761337778185e-01
-7.318341276539087614e-01
-7.820354720785763769e-01
-8.172436518164339914e-01
-8.341760518502411292e-01
-8.310195909028871286e-01
-8.075574900410076307e-01
-7.650719356415244254e-01
-7.060618773684419480e-01
-6.338256501094943207e-01
-5.519657287623406239e-01
-4.638821088918538837e-01
-3.723235829337632197e-01
-2.790563950067166954e-01
-1.846924224044286245e-01
-8.870185942895093822e-02
1.038370188845338243e-02
1.146010134568907768e-01
2.260778850606080526e-01
3.465355138450194050e-01
4.768550823250743975e-01
6.167654294227256084e-01
7.646768874667723148e-01
9.176691221786538177e-01
1.071635459602737317e+00
1.221577595335663569e+00
1.362025706769440347e+00
1.487537131478821273e+00
1.593211068217503801e+00
1.675147941426090803e+00
1.730778857113572489e+00
1.759000008093847711e+00
1.760079088792046553e+00
1.735351942813888160e+00
1.686775258192122706e+00
1.616422345930804250e+00
1.526002562049786571e+00
1.416469320226729556e+00
1.287772464277921802e+00
1.138804504255264582e+00
9.675727349296663338e-01
7.715954700514113807e-01
5.484801188698834595e-01
2.966052915035955473e-01
1.580152283681562908e-02
-2.920940053753049992e-01
-6.229338921189899736e-01
-9.702990144095370306e-01
-1.325900211827710118e+00
-1.680283843674694300e+00
-2.023723144710430244e+00
-2.347152602337448268e+00
-2.643001387748490139e+00
-2.905792311594873389e+00
-3.132397230218036288e+00
-3.321886816688436550e+00
-3.474980201565847526e+00
-3.593173703731268098e+00
-3.677692721057626901e+00
-3.728458570411462780e+00
-3.743284951556384410e+00
-3.717503120637585923e+00
-3.644148737094946355e+00
-3.514731925617070374e+00
-3.320483205166246954e+00
-3.053858345701490062e+00
-2.710020117611137369e+00
-2.288001346626257870e+00
-1.791291520835869289e+00
-1.227679989417185924e+00
-6.083281338232817692e-01
5.379198107819675723e-02
7.458017259191974668e-01
1.456765441321622001e+00
2.179048944743699590e+00
2.908791793286144234e+00
3.645231073499224372e+00
4.388839881057221781e+00
5.138532934911006045e+00
5.888481758009192824e+00
6.625292254308400963e+00
