BVP Green Neck Signal
-2.834017613427288265e-02
1.966228609014998921e-02
5.836127616501433912e-02
8.004258403617883766e-02
8.025706784151934170e-02
5.862480266062851386e-02
1.884213435340104451e-02
-3.209150569082976079e-02
-8.525960685450000021e-02
-1.315478841892358253e-01
-1.633561038124892173e-01
-1.759600224490180664e-01
-1.682501405600165811e-01
-1.427128138128725687e-01
-1.046960496562604898e-01
-6.116222115568560602e-02
-1.922756592705827591e-02
1.519045031774586899e-02
3.834337293879290509e-02
4.906642508054477603e-02
4.860433395121969979e-02
3.996109320069508863e-02
2.699138928157915687e-02
1.347973343407363536e-02
2.407531802474344867e-03
-4.476126563669460476e-03
-6.750256765065423825e-03
-5.125578446459878174e-03
-1.049759356261580068e-03
3.763415412715118147e-03
7.762422715900989256e-03
9.858823903906112351e-03
9.562362254144980700e-03
6.955217766129485890e-03
2.541744020362387418e-03
-2.970428772304214288e-03
-8.895061846987368376e-03
-1.474270325577238354e-02
-2.031229432578535166e-02
-2.568893823762547976e-02
-3.115724447909405323e-02
-3.705252035806849698e-02
-4.358259819209972519e-02
-5.066293615808158124e-02
-5.781137002541902881e-02
-6.413949792905897229e-02
-6.845556984245990129e-02
-6.946739133989836279e-02
-6.605094457667867736e-02
-5.753287112375014833e-02
-4.392335353857498847e-02
-2.603637413153482225e-02
-5.454565493554924122e-03
1.566539584789214054e-02
3.490808955296342830e-02
4.996779031145623384e-02
5.899583888609678806e-02
6.086358143017624178e-02
5.529786003408293515e-02
4.287267755796174418e-02
2.487190273464998450e-02
3.065740500951024544e-03
-2.054428126763936310e-02
-4.396553956554147269e-02
-6.541248500014708311e-02
-8.344974754724404642e-02
-9.707161036277772714e-02
-1.057116235748913752e-01
-1.091851164571859129e-01
-1.075823652805903696e-01
-1.011438041595495024e-01
-9.015566085817809661e-02
-7.490388343093901113e-02
-5.571458734391281087e-02
-3.308617603676393404e-02
-7.881501147252573808e-03
1.849099780829892639e-02
4.400048995667467377e-02
6.610254512265985316e-02
8.206511238182781498e-02
8.947010606825499257e-02
8.677787226623424888e-02
7.379877340752930004e-02
5.191949746556391576e-02
2.398697631324199844e-02
-6.152232449734906100e-03
-3.435586550363751990e-02
-5.695995456620633890e-02
-7.143618868469232830e-02
-7.678942107115650784e-02
-7.362761096418635187e-02
-6.391582592519956529e-02
-5.049178074813914785e-02
-3.646393374800199760e-02
-2.462680385235659075e-02
-1.700776759882714415e-02
-1.461275134094131012e-02
-1.738400690188543485e-02
-2.434013561882994447e-02
-3.384406634418920395e-02
-4.393580450101830515e-02
-5.266867309457835822e-02
-5.839884884578649960e-02
-5.999644164375284028e-02
-5.696572229067072002e-02
-4.947480896925650351e-02
-3.830047262632992056e-02
-2.469839986072117424e-02
-1.021828657190585951e-02
3.507210452935848738e-03
1.496861709573894458e-02
2.295787168097520800e-02
2.670677031652369041e-02
2.597923598089760602e-02
2.110970594849197537e-02
1.297809207077703017e-02
2.914384644623135151e-03
-7.467781297740909777e-03
-1.650085299185855697e-02
-2.273551537589164548e-02
-2.521531719198151153e-02
-2.369604029460986236e-02
-1.874868075728736497e-02
-1.170363169626514183e-02
-4.429879141065237030e-03
1.016527643862456115e-03
2.807821414630210649e-03
-2.624808337477989306e-04
-8.497806182298676264e-03
-2.119803826886580006e-02
-3.676807492301146368e-02
-5.300801151770358211e-02
-6.751150181370191294e-02
-7.808086689031772110e-02
-8.307922460672025056e-02
-8.166733094879423394e-02
-7.390112412251546858e-02
-6.068980193109307919e-02
-4.363434546674266334e-02
-2.478128042701217143e-02
-6.332356940843272136e-03
9.651728839295114354e-03
2.151963604036362041e-02
2.823601558390053182e-02
2.949284221147694882e-02
2.570196537071280443e-02
1.787029053464181047e-02
7.389583099375082731e-03
-4.206971684775602863e-03
-1.546872854005461664e-02
-2.519455858314099267e-02
-3.252670299274698640e-02
-3.697586232131201689e-02
-3.839768718345114296e-02
-3.694767684294235355e-02
-3.303591057535183034e-02
-2.728799637865531730e-02
-2.050417913203768372e-02
-1.360380673904017235e-02
-7.547326244495800376e-03
-3.235887847468321005e-03
-1.395395951681723673e-03
-2.459410744376663155e-03
-6.474583995632022040e-03
-1.305702810088921022e-02
-2.142000573346881931e-02
-3.047355343946744899e-02
-3.897676919912619609e-02
-4.571442644189741000e-02
-4.967108382278530299e-02
-5.017982650821210810e-02
-4.702466480353267864e-02
-4.047902754151888605e-02
-3.127264934113723610e-02
-2.049355325500736014e-02
-9.443194853820537082e-03
5.333341108703995581e-04
8.220580506408604188e-03
1.268742454905515474e-02
1.340035761955271978e-02
1.027754011380242402e-02
3.678868074473599231e-03
-5.657803327093008372e-03
-1.671569942342856011e-02
-2.831497784472937138e-02
-3.923099514933300891e-02
-4.830438233993595426e-02
-5.453651465273433308e-02
-5.716994067850494909e-02
-5.575760349043037967e-02
-5.022170708211727563e-02
-4.089374351343025293e-02
-2.852012485748734241e-02
-1.422024421782281181e-02
6.064385241063736942e-04
1.441809770576634939e-02
2.570080809659816209e-02
3.315319080803980079e-02
3.585856000909291852e-02
3.341157480013615122e-02
2.597234689876267225e-02
1.424053835110341767e-02
-6.360903921366622971e-04
-1.719405478516397578e-02
-3.380729337660044742e-02
-4.885021638365824592e-02
-6.086315462923530539e-02
-6.870907795480574176e-02
-7.170632263032640508e-02
-6.972194205168284753e-02
-6.321235281987570842e-02
-5.319925734250677274e-02
-4.117142538354644221e-02
-2.891153334247979420e-02
-1.826196439867934160e-02
-1.085830217752243622e-02
-7.868732596535872592e-03
-9.781444984120833686e-03
-1.628174456921491903e-02
-2.625316123381109951e-02
-3.791742928773067511e-02
-4.909831977743320253e-02
-5.756515137623051392e-02
-6.139585212844637929e-02
-5.929932393778966637e-02
-5.084544912489173674e-02
-3.656225750517137774e-02
-1.787560325752016177e-02
3.107922157084930942e-03
2.394158490758485983e-02
4.224066423491291966e-02
5.606963577621405792e-02
6.423890969413109664e-02
6.644873946008329757e-02
6.324348360848047745e-02
5.578121944098349272e-02
4.547643223827924075e-02
3.361654185122410488e-02
2.106320288236018454e-02
8.120143121516817247e-03
-5.404306780295079632e-03
-1.996715023328627867e-02
-3.596246594246430006e-02
-5.338889731196062860e-02
-7.161126505047879509e-02
-8.929408542931001336e-02
-1.045395281559018952e-01
-1.152055842643068956e-01
-1.193324640356454164e-01
-1.155806240397393436e-01
-1.035834455274190768e-01
-8.413570864659354609e-02
-5.917131587758109323e-02
-3.152680712496458426e-02
-4.532644838173723739e-03
1.849122945598108067e-02
3.474488821916014991e-02
4.237744889216973898e-02
4.076725543857354084e-02
3.060909252025561730e-02
1.379543365396327173e-02
-6.885507004831811079e-03
-2.818040297389131157e-02
-4.685797269933508757e-02
-6.017912358017156460e-02
-6.628449726902066463e-02
-6.444484173594661192e-02
-5.513551421706364142e-02
-3.992218417677359521e-02
-2.117826786811851172e-02
-1.684762323079916357e-03
1.582006430266766003e-02
2.907025687371005487e-02
3.661369227884112010e-02
3.800683300337263926e-02
3.382357166573282670e-02
2.547351360676885015e-02
1.486724978583392823e-02
4.000540358771110389e-03
-5.455788000248894265e-03
-1.247837023184232910e-02
-1.686301541670072804e-02
-1.921070168129935737e-02
-2.072974246142316249e-02
-2.289593847764156975e-02
-2.704412553151490373e-02
-3.397794731173002514e-02
-4.367968071112224293e-02
-5.518513885810315267e-02
-6.666412052346336325e-02
-7.571312862041416902e-02
-7.982413088322831696e-02
-7.694885053484928905e-02
-6.604547661501920797e-02
-4.748391397008005360e-02
-2.320023670938929986e-02
3.469746237535317052e-03
2.828622412254062565e-02
4.686197386082996408e-02
5.553720341664146465e-02
5.218413569541409391e-02
3.675426911103280014e-02
1.143058258642504210e-02
-1.967129508565292409e-02
-5.121423820101539404e-02
-7.763364593426179405e-02
-9.421486997698416688e-02
-9.802416727110942196e-02
-8.848715462249999442e-02
-6.748607169078227330e-02
-3.895739824715710453e-02
-8.083534074910799644e-03
1.974072596314585190e-02
3.994122255918797215e-02
4.957732093569598708e-02
4.777328185084576961e-02
3.570487543985613466e-02
1.618725384233548129e-02
-7.004430637672320187e-03
-2.991090523884605903e-02
-4.909738349293225890e-02
-6.216960623445209888e-02
-6.802684139672307562e-02
-6.684243126504658961e-02
-5.981951940122885725e-02
-4.880893239754767465e-02
-3.588760119141613802e-02
-2.298149462303268609e-02
-1.158966080518142316e-02
-2.637915883775779347e-03
3.534206482461665910e-03
7.072618957373322246e-03
8.432522438842880025e-03
8.175221244767705980e-03
6.784179985309609501e-03
4.537411279445510010e-03
1.462135830577721007e-03
-2.616622596709989451e-03
-7.943508160861681780e-03
-1.465322344987064415e-02
-2.260110790224080166e-02
-3.126253390020124201e-02
-3.973978814679424154e-02
-4.688374175470370886e-02
-5.150750150557574514e-02
-5.264659530083029559e-02
-4.980600889310880103e-02
-4.313114441598901727e-02
-3.345277702490502547e-02
-2.218609333393502248e-02
-1.110156520539554506e-02
-2.016004385539536120e-03
3.533495696478435033e-03
4.570612806118874716e-03
8.638414146786670134e-04
-7.020624819220380383e-03
-1.780551575843055540e-02
-2.970818265924613649e-02
-4.072375616519899322e-02
-4.893737227443929749e-02
-5.282104443399789073e-02
-5.147652378221435898e-02
-4.478949398773159063e-02
-3.346750614226415288e-02
-1.894971216996364435e-02
-3.198846434115484860e-03
1.159290754551848060e-02
2.333833556360897718e-02
3.037670147953731511e-02
3.172754757794676861e-02
2.722942415400075519e-02
1.753699563239384876e-02
3.981543707196600473e-03
-1.166909548662116436e-02
-2.749681604117625022e-02
-4.170971986836953527e-02
-5.286303667892948421e-02
-5.999528987358671017e-02
-6.267116124674849964e-02
-6.094459311560569692e-02
-5.527182898921347010e-02
-4.640671223206481455e-02
-3.530021401563510075e-02
-2.301224729511403694e-02
-1.063534090644759067e-02
7.724877548932057580e-04
1.024882487995073740e-02
1.698534337756558640e-02
2.038378620427002200e-02
2.010166841376414756e-02
1.607415858153463453e-02
8.503524520599197584e-03
-2.177491011652505498e-03
-1.534846180581259101e-02
-3.022970783335212144e-02
-4.588861441999803059e-02
-6.123290694079029650e-02
-7.501175175137192452e-02
-8.584990378611774553e-02
-9.233754196793507452e-02
-9.318714953052055494e-02
-8.744738879348211424e-02
-7.473798201587814050e-02
-5.545093016342668435e-02
-3.086094158527717332e-02
-3.101603058071580182e-03
2.501263594025328676e-02
5.031056208987243206e-02
6.969579076368140336e-02
8.061763481959663413e-02
8.149365199181719810e-02
7.199860816449855927e-02
5.316133415921636685e-02
2.725136518715081183e-02
-2.524364850304130353e-03
-3.246665464748428598e-02
-5.890443850193409492e-02
-7.871225240803650380e-02
-8.974451073808502322e-02
-9.111900428278341124e-02
-8.330842347937479631e-02
-6.803042196230862926e-02
-4.795585529520268731e-02
-2.628002499412378581e-02
-6.224045673708659271e-03
9.451480184426434145e-03
1.883897268145815970e-02
2.112056152001840978e-02
1.661796406989347538e-02
6.656522377788073180e-03
-6.727139709618580946e-03
-2.117823528347161088e-02
-3.444070404248362333e-02
-4.471382164799710124e-02
-5.088060847844935730e-02
-5.257700819219152111e-02
-5.011418268898537587e-02
-4.429972639401529022e-02
-3.621824659150861547e-02
-2.702750860201112021e-02
-1.780768879146565550e-02
-9.474799938307121999e-03
-2.744349512465476398e-03
1.881437443393838699e-03
4.124000430641441839e-03
3.939564648444200679e-03
1.518440227039476870e-03
-2.742074983662832338e-03
-8.295833871951169974e-03
-1.452975793943986696e-02
-2.085464303422199933e-02
-2.678570092088062432e-02
-3.199194664631284379e-02
-3.629852571085348534e-02
-3.964141935275518336e-02
-4.199435044924960947e-02
-4.330033832940625993e-02
-4.343661036088828503e-02
-4.222533499963465609e-02
-3.948519758564023041e-02
-3.510763025040576635e-02
-2.913607239535819307e-02
-2.182445757720376245e-02
-1.365362996562641089e-02
-5.294827705219006669e-03
2.474081668591154165e-03
8.879455806682593627e-03
1.326447190018338260e-02
1.518146718422692595e-02
1.444818555759659270e-02
1.115877624159281392e-02
5.650242056948289598e-03
-1.561999796870019303e-03
-9.856777702196612215e-03
-1.856796275967667262e-02
-2.702636563129889521e-02
-3.458915812546953933e-02
-4.066798683600453268e-02
-4.476312407864323217e-02
-4.650522104477870788e-02
-4.570230092473188954e-02
-4.238553733738674445e-02
-3.684143030724960910e-02
-2.961423278805331433e-02
-2.146686791100604549e-02
-1.330110347556561629e-02
-6.050923406702473500e-03
-5.690753021109148935e-04
2.475272298108645991e-03
2.675279776091745582e-03
-6.574775733230939223e-05
-5.519857352025751840e-03
-1.315041088527974140e-02
-2.215287312606358666e-02
-3.151751066772078003e-02
-4.011689370485199690e-02
-4.682205878309115415e-02
-5.064241792482020166e-02
-5.087096135953768361e-02
-4.720834132509887926e-02
-3.984182822245758981e-02
-2.946315072094173038e-02
-1.721625557890776176e-02
-4.572467593456239210e-03
6.858192928320742260e-03
1.555417205049499860e-02
2.030872468201848705e-02
2.041337313881079821e-02
1.576529692783944572e-02
6.880259917231661831e-03
-5.190900483392092007e-03
-1.902670612155754962e-02
-3.304794910145530951e-02
-4.573649701364547460e-02
-5.582058597670534750e-02
-6.240257644169600049e-02
-6.502290993212692105e-02
-6.366476064545974201e-02
-5.870748658304132672e-02
-5.083992031850186055e-02
-4.094986532273638125e-02
-3.000953443970475268e-02
-1.897295076247204268e-02
-8.692655055042759066e-03
1.427206621077356519e-04
7.047574600970035047e-03
1.175050062292961120e-02
1.417638938730230239e-02
1.440662926906827526e-02
1.262994611579268747e-02
9.095201320615222546e-03
4.074221870093954617e-03
-2.157523447078920492e-03
-9.314622206572004126e-03
-1.706889336289171138e-02
-2.500344293111322197e-02
-3.257904795076589644e-02
-3.913756940050737432e-02
-4.395363600509172297e-02
-4.632933765536331738e-02
-4.571513562495023442e-02
-4.183371872515301293e-02
-3.477930073122917354e-02
-2.506446123281223445e-02
-1.359516759834588501e-02
-1.572748791324265344e-03
9.658602048116617100e-03
1.878890806207491812e-02
2.471397903583607766e-02
2.667666643156874420e-02
2.435879472176869995e-02
1.791233130942066279e-02
7.930176892235400732e-03
-4.630493623354077840e-03
-1.855386727051558382e-02
-3.248618243911638448e-02
-4.506601220463148788e-02
-5.506161001539204569e-02
-6.150757455345774727e-02
-6.382612798270270726e-02
-6.191647151091755896e-02
-5.619837503767502462e-02
-4.759835705609719025e-02
-3.746822066403997231e-02
-2.743228720967330961e-02
-1.917488719018865112e-02
-1.419760006138211933e-02
-1.358610453246329730e-02
-1.782545466878114257e-02
-2.669470005669747834e-02
-3.926136879111022382e-02
-5.398183452921898051e-02
-6.889324797681307955e-02
-8.186251186823684245e-02
-9.084845993947517073e-02
-9.413948004598034214e-02
-9.054361825584751611e-02
-7.952110952757665552e-02
-6.125598740955887078e-02
-3.666686212940457879e-02
-7.359888859499976593e-03
2.447243200927013904e-02
5.620666248712620494e-02
8.500193995379823342e-02
1.080710007933136790e-01
1.229917091117967015e-01
1.280209512004487904e-01
1.223590792795238441e-01
1.063131865443239649e-01
8.131898465988708635e-02
4.980014405286477264e-02
1.487136115974166048e-02
-2.007274544028845795e-02
-5.180674444470408091e-02
-7.767210682370907782e-02
-9.585316848900908571e-02
-1.055024321073333854e-01
-1.067263608216597187e-01
-1.004643338624244542e-01
-8.829591979757393794e-02
-7.220437548649741299e-02
-5.431649561156529082e-02
-3.663689159427904046e-02
-2.080215247796090780e-02
-7.895235017887386464e-03
1.628617077537430208e-03
7.863166316657003996e-03
1.121786257152479135e-02
1.208483046689224141e-02
1.050795280668962925e-02
5.969695249512373125e-03
-2.612972326732531519e-03
-1.664430028567574771e-02
-3.738323495395375062e-02
-6.534611553263604267e-02
-9.972081627367908319e-02
-1.379545872370241399e-01
-1.756576564167056653e-01
-2.069091754583877729e-01
-2.249776354471207107e-01
-2.233899462763403732e-01
-1.972081209809895819e-01
-1.443028362853395752e-01
-6.636295289664102814e-02
3.062399214609714052e-02
1.366225541457659898e-01
2.386087869582453613e-01
3.223567911589091950e-01
3.747108949309709280e-01
3.859672645441905026e-01
3.519051696568920029e-01
2.750080487047385502e-01
1.645264623006959248e-01
3.525794456201501725e-02
-9.479503481629013295e-02
-2.074604045284136888e-01
-2.875282858134137198e-01
-3.253578582631102556e-01
-3.184546943183824141e-01
-2.717332280181479764e-01
-1.964432682329430024e-01
-1.079893745825501600e-01
-2.306181002174443814e-02
4.339447780376709529e-02
8.082352221386580882e-02
8.482639528763454007e-02
5.771440473155690920e-02
7.740210363807644572e-03
-5.282191563819041424e-02
-1.103211953226501257e-01
-1.525215380898455597e-01
-1.709500093673972931e-01
-1.623410781810075421e-01
-1.289328979834094280e-01
-7.762240134458116281e-02
-1.821962382414719570e-02
3.878061767366290657e-02
8.440187595156121991e-02
1.128773426467314239e-01
1.224768317222235531e-01
1.153364156075426666e-01
9.640693194775588892e-02
7.185197019036017319e-02
4.734933444650331336e-02
2.674928990320949232e-02
1.142001105607938841e-02
4.052802892151978476e-04
-8.706131015513051546e-03
-1.848702376266195616e-02
-3.035136393199935542e-02
-4.361573988147192382e-02
-5.525951366610484805e-02
-6.051776202928728365e-02
-5.420872187942761544e-02
-3.247979836659536240e-02
5.483545401457071838e-03
5.626789615839647429e-02
1.119534343580185359e-01
1.609533651610199345e-01
1.899270927195355896e-01
1.864567696891731574e-01
1.419601190232700760e-01
5.420507483398744053e-02
-7.117760866958285082e-02
-2.206249558795103372e-01
-3.741867544703730841e-01
-5.085183585359267511e-01
-6.008153580780195568e-01
-6.329330518186141452e-01
-5.948520453565563360e-01
-4.867718174854362423e-01
-3.194040510977628755e-01
-1.124154178839799761e-01
1.086597420929386743e-01
3.164325698369231388e-01
4.858496388728811843e-01
5.978248144681658216e-01
6.417348937198696923e-01
6.164517969062590641e-01
5.298650216268770974e-01
3.971015574664200076e-01
2.378383923539227618e-01
7.320441926436523083e-02
-7.722398182821214874e-02
-1.979070544671920617e-01
-2.790111888313056010e-01
-3.171165347584137817e-01
-3.149501164311138690e-01
-2.802524577097367242e-01
-2.240009201588923082e-01
-1.583147331374319122e-01
-9.442125860684737193e-02
-4.103558500211927640e-02
-3.394871232363653318e-03
1.696588124523433841e-02
2.175675506116031901e-02
1.496222182309929136e-02
1.591570645720900845e-03
-1.357962498487324740e-02
-2.701082350252035150e-02
-3.693694236649024132e-02
-4.336716421927359899e-02
-4.760939563412087960e-02
-5.150810188050428118e-02
-5.664007357115279084e-02
-6.369799842127972511e-02
-7.221619723944178171e-02
-8.067963560209086282e-02
-8.694300855751305179e-02
-8.881121144011393242e-02
-8.461502758550187853e-02
-7.364380916349878847e-02
-5.634434141636614213e-02
-3.424843302639156428e-02
-9.652045173214208323e-03
1.486806648836285286e-02
3.696874108815359494e-02
5.495055790657844830e-02
6.797081900715551406e-02
7.603339093069447219e-02
7.979024628289350940e-02
8.022715124479717907e-02
7.832195916330457475e-02
7.476415228903209031e-02
6.980663063173701832e-02
6.328255778527051845e-02
5.477049481027497502e-02
4.384844915839881951e-02
3.035527661015090597e-02
1.457833768843115954e-02
-2.693200322891203119e-03
-2.027161960713158920e-02
-3.680298076468213608e-02
-5.105724128316141419e-02
-6.218776658880598163e-02
-6.988973627790570631e-02
-7.442798303091488488e-02
-7.654623887069568478e-02
-7.729513782219712970e-02
-7.782387150331583625e-02
-7.917673861268650914e-02
-8.212559607981660681e-02
-8.705364958971999190e-02
-9.388906720302846176e-02
-1.020772083534320501e-01
-1.105842674536518383e-01
-1.179392946690614313e-01
-1.223341232028894859e-01
-1.218017250291039133e-01
-1.144812903130576071e-01
-9.895653996715758627e-02
-7.462570148975718187e-02
-4.203123660554590468e-02
-3.055716791157039175e-03
3.910583814755891341e-02
8.024687545002638644e-02
1.157054188838564784e-01
1.410856178742200262e-01
1.530037768808803489e-01
1.497011723755741486e-01
1.313876244718295838e-01
1.002368936843343467e-01
6.003567156998147747e-02
1.556927055487214787e-02
-2.811785799570696784e-02
-6.643634170556178553e-02
-9.581763885971716910e-02
-1.140572622655062485e-01
-1.204141602334259514e-01
-1.154912873314045824e-01
-1.009579192024055577e-01
-7.919344123675636782e-02
-5.292973766927715207e-02
-2.494702494956651737e-02
2.152619111880322428e-03
2.609587666399275016e-02
4.503060144848256008e-02
5.758412376776862740e-02
6.290970285578244281e-02
6.073167334811524487e-02
5.138018047240910935e-02
3.578948562465532335e-02
1.543299981343855889e-02
-7.813526422366389584e-03
-3.186368659001809212e-02
-5.463342037767045245e-02
-7.424070288071075996e-02
-8.916613773640030827e-02
-9.835944773639181127e-02
-1.012873516074875441e-01
-9.792947911646802950e-02
-8.873802698863327010e-02
-7.457784329436217829e-02
-5.665539042152492599e-02
-3.643507650833643224e-02
-1.553881971462815412e-02
4.369867503685401916e-03
2.170981410593235753e-02
3.510513561123683457e-02
4.349878203339820060e-02
4.624600752290100592e-02
4.317252780571287363e-02
3.458158078611360542e-02
2.120204029720470021e-02
4.083656714240577884e-03
-1.554135136016257870e-02
-3.640358559752548961e-02
-5.732048251676803707e-02
-7.727486495834266778e-02
-9.543396865801077877e-02
-1.111113608091439942e-01
-1.236917576293804638e-01
-1.325484227307593132e-01
-1.369808206207702994e-01
-1.361924664760572889e-01
-1.293233166210952523e-01
-1.155471374942006330e-01
-9.423466959909333751e-02
-6.516467675164885898e-02
-2.874401040523382259e-02
1.381433651701770640e-02
6.040491093940678069e-02
1.080738363168025212e-01
1.532149740714653374e-01
1.919162537916927480e-01
2.204220183206875017e-01
2.356425917062000275e-01
2.356186198952644195e-01
2.198463607949815712e-01
1.893921244589270303e-01
1.467618595395337178e-01
9.553590217264677775e-02
3.982188991929683231e-02
-1.638353077987137960e-02
-6.980432678877472596e-02
-1.183312454118461560e-01
-1.611807341709350083e-01
-1.986924769686639336e-01
-2.317834991321701954e-01
-2.611946927122094086e-01
-2.867673922995124247e-01
-3.070188940162536517e-01
-3.192107183410122784e-01
-3.199349634609906512e-01
-3.060490227147817932e-01
-2.756561712964862854e-01
-2.288180252487750366e-01
-1.677897421403869715e-01
-9.673275702108241614e-02
-2.101437566768164442e-02
5.369794840535775660e-02
1.223137385786069592e-01
1.809723008273927680e-01
2.273551689418571164e-01
2.606372212582087067e-01
2.811442998500733870e-01
2.898510964145858959e-01
2.878832893187505682e-01
2.761748968153522887e-01
2.553764054730345290e-01
2.260237216739141020e-01
1.888874279334271933e-01
1.453575728084860186e-01
9.770382098087938838e-02
4.908611129564384445e-02
3.261275528273283736e-03
-3.598410093346275651e-02
-6.556271890346851428e-02
-8.380548622259635649e-02
-9.098038739103159189e-02
-8.945910343897710282e-02
-8.346254343273711018e-02
-7.841208290820476934e-02
-7.998851886904252695e-02
-9.304663006840352413e-02
-1.205599769430660551e-01
-1.627846010942487764e-01
-2.168227841992884930e-01
-2.767242329296815684e-01
-3.341772773738629909e-01
-3.797299607300380075e-01
-4.043654922318679623e-01
-4.011645976790016999e-01
-3.667406970379687992e-01
-3.021500856276102542e-01
-2.130656250233158577e-01
-1.091450950299486383e-01
-2.688636632269019583e-03
9.318054488059139551e-02
1.664970292128938323e-01
2.082720576465993678e-01
2.138803876136282922e-01
1.838313949408557357e-01
1.238280556151625938e-01
4.408856208162310886e-02
-4.203135577171944470e-02
-1.199935434756888991e-01
-1.763651338094506249e-01
-2.010573059566239940e-01
-1.890545978513755165e-01
-1.412262806258444692e-01
-6.401090415109338128e-02
3.195026104620093954e-02
1.338934618358620099e-01
2.292399673617391276e-01
3.076385299187561206e-01
3.623642910020973273e-01
3.908812314061642090e-01
3.945799847377703951e-01
3.778756420718262787e-01
3.469511458333043308e-01
3.084471637583053316e-01
2.683456885610672749e-01
2.312044270284882297e-01
1.998004573935144579e-01
1.751526425202657999e-01
1.568265412510669032e-01
1.433936565389040407e-01
1.329200620991194959e-01
1.233871158330015344e-01
1.129838186181686549e-01
1.002469151704385303e-01
8.405969504190602404e-02
6.355246270694057953e-02
3.796902634767872209e-02
6.564991950170202123e-03
-3.141502480485233728e-02
-7.666266660250874165e-02
-1.296426199234278764e-01
-1.903735331151036048e-01
-2.582056789341227176e-01
-3.316597763507495578e-01
-4.083854109295638191e-01
-4.852697564828579169e-01
-5.586874190957933362e-01
-6.248481008156741012e-01
-6.801827123760387783e-01
-7.217093990709435580e-01
-7.473300727508290775e-01
-7.560208228277360831e-01
-7.478974218291675191e-01
-7.241587967880643850e-01
-6.869278940674502509e-01
-6.390124961750145438e-01
-5.836017177015735413e-01
-5.239105137684363367e-01
-4.627940637514756372e-01
-4.023725824374387305e-01
-3.437230258486185241e-01
-2.866985296933643457e-01
-2.299273262919076521e-01
-1.710202403925100700e-01
-1.069789938656206946e-01
-3.475089686001424372e-02
4.816644589309138080e-02
1.431858442214092864e-01
2.502601088450975841e-01
3.677488593021350782e-01
4.925477115240925463e-01
6.204629747900969328e-01
7.467749315873255522e-01
8.668957310586802301e-01
9.770019676761304561e-01
1.074517986805585856e+00
1.158348129337597454e+00
1.228799842094184358e+00
1.287197128951708569e+00
1.335247946062928737e+00
1.374289092035862136e+00
1.404571076669323348e+00
1.424747910510525850e+00
1.431700199943975127e+00
1.420756947743099907e+00
1.386309029119629166e+00
1.322734984538095349e+00
1.225491111065998728e+00
1.092162841899492864e+00
9.232539057977920960e-01
7.225215098747849174e-01
4.967473310919327534e-01
2.549433771006690552e-01
7.103174901347115294e-03
-2.372960757247435104e-01
-4.707700795656276083e-01
-6.889940384203949719e-01
-8.914109801896598073e-01
-1.081131058126461264e+00
-1.264105474964120512e+00
-1.447700619416026235e+00
-1.638921199425293240e+00
-1.842615184392566441e+00
-2.060018465457449821e+00
-2.287945553755652117e+00
-2.518802547162688921e+00
-2.741417687894974087e+00
-2.942505414974752487e+00
-3.108454741751030870e+00
-3.227090941472924968e+00
-3.289098882770288945e+00
-3.288894449783834162e+00
-3.224857894544693959e+00
-3.098969982439238713e+00
-2.915991734627212839e+00
-2.682384195746349231e+00
-2.405174139159410363e+00
-2.090945964986912209e+00
-1.745092487324832353e+00
-1.371395495169803747e+00
-9.719358129172255278e-01
-5.472641824615712691e-01
-9.672284058748291391e-02
3.811818983190377597e-01
8.883916490898352558e-01
1.426844126715459904e+00
1.997855966280188911e+00
2.601250710000003519e+00
3.234220530977288455e+00
3.890030334832963899e+00
4.556800594654480285e+00
5.216702798912619343e+00
5.845932022438374176e+00
6.415758621274080475e+00
6.894798787987873823e+00
7.252396855938966880e+00
7.462715586198333639e+00
