BVP Green Neck Signal
-2.621488155207648760e-02
-6.220838174486702232e-03
1.306639982745183906e-02
3.109414379085631217e-02
4.730970505284393113e-02
6.116040154718309363e-02
7.214352107929254687e-02
7.992660376466513561e-02
8.422219130723077041e-02
8.488484706986930417e-02
8.188427964691842587e-02
7.525679824342182411e-02
6.522280395058908942e-02
5.204553193918655396e-02
3.611342206053418102e-02
1.790309085473904341e-02
-2.073295057982775871e-03
-2.321955697400242616e-02
-4.492594662303817099e-02
-6.657514628010274826e-02
-8.754539406227358767e-02
-1.072452489142070586e-01
-1.251483630902049671e-01
-1.407501885766503091e-01
-1.536661909673346926e-01
-1.635759043963485315e-01
-1.702404317280331869e-01
-1.735705459092819480e-01
-1.735137885368018273e-01
-1.701723571821728287e-01
-1.637198237299611614e-01
-1.544008428127726651e-01
-1.425731238256168210e-01
-1.286156269678062347e-01
-1.129777369355823569e-01
-9.613641656040158856e-02
-7.857223507927367512e-02
-6.077067219462455039e-02
-4.320732737399547718e-02
-2.630279440015272779e-02
-1.045730686016214939e-02
3.993882961954901833e-03
1.679370757568200354e-02
2.771559583467340590e-02
3.665101625827774101e-02
4.352819716457814736e-02
4.835251560363876266e-02
5.121004421483969782e-02
5.221109668279182159e-02
5.154543781829132310e-02
4.942358002179758625e-02
4.608426016703047468e-02
4.179188169628461624e-02
3.681040610238806021e-02
3.139923667066632507e-02
2.581489669772485049e-02
2.028374003973557396e-02
1.500825709449310139e-02
1.017058121063281820e-02
5.897098287346014961e-03
2.300356011072320073e-03
-5.583319466702686695e-04
-2.652856385629153921e-03
-3.978134715631223908e-03
-4.578403480050200966e-03
-4.508028881882442801e-03
-3.850555805030511300e-03
-2.706899953180737922e-03
-1.183292771810260519e-03
6.034239693460605181e-04
2.535943587875743449e-03
4.504444883553018752e-03
6.403066921650869131e-03
8.136822747619655571e-03
9.630244158488343587e-03
1.081349632630917643e-02
1.164290044697576312e-02
1.208658877360728814e-02
1.212723145070671721e-02
1.177006783208218998e-02
1.102531369580019016e-02
9.921767853453125618e-03
8.495417097932993211e-03
6.787720886550687588e-03
4.847514934177312579e-03
2.723905185952408409e-03
4.646805944430419666e-04
-1.882994658367047325e-03
-4.278108145416422911e-03
-6.686866998821015123e-03
-9.078910778239246415e-03
-1.143727828472651357e-02
-1.374911789714083898e-02
-1.601100303954976212e-02
-1.822912236283647652e-02
-2.041254859703672819e-02
-2.257961048318386788e-02
-2.475092172600312779e-02
-2.694897059111216533e-02
-2.919790735788395028e-02
-3.152017998789659325e-02
-3.393257127896408959e-02
-3.645000767008246823e-02
-3.907664555712845461e-02
-4.180833294515717141e-02
-4.463421532035677375e-02
-4.752558628945920127e-02
-5.044938878969641716e-02
-5.335660594701237269e-02
-5.618752881135052890e-02
-5.887652986606509153e-02
-6.134447593664948961e-02
-6.350985111321498511e-02
-6.528675115292531528e-02
-6.658675398948914192e-02
-6.732473758602373903e-02
-6.742234619758438741e-02
-6.680426867133688884e-02
-6.541388594612619622e-02
-6.320411207038323376e-02
-6.014371727703528292e-02
-5.622916199165364781e-02
-5.146464972854968012e-02
-4.588927923438231027e-02
-3.955752618141566979e-02
-3.254369515935467277e-02
-2.495211436335273425e-02
-1.689390782778411523e-02
-8.505779297978428161e-03
6.593304937676722211e-05
8.667599084568197720e-03
1.713600141476868607e-02
2.530824702850941257e-02
3.302640266314206541e-02
4.013457040350414118e-02
4.649076783427648352e-02
5.196893923333396892e-02
5.645148083014589480e-02
5.985345803050345914e-02
6.209996306167184232e-02
6.314404389378755478e-02
6.296656498103518629e-02
6.156001786674177023e-02
5.895516593918948001e-02
5.519291878672523410e-02
5.033876000248022065e-02
4.447943206229366953e-02
3.770922985975197483e-02
3.014388817608340890e-02
2.190389263840731085e-02
1.311793351904315744e-02
3.920865486018235146e-03
-5.552568768975583643e-03
-1.516832790770120468e-02
-2.479318075358839801e-02
-3.430207800409143526e-02
-4.357533037000396736e-02
-5.249992428886728069e-02
-6.097797003990496068e-02
-6.891548236253294824e-02
-7.623592139187325423e-02
-8.287266201564015555e-02
-8.876845142536082811e-02
-9.388435862473340499e-02
-9.818556972627440205e-02
-1.016532689600975620e-01
-1.042765136736343440e-01
-1.060507773526793152e-01
-1.069824103256631631e-01
-1.070797315736673472e-01
-1.063572523089204719e-01
-1.048320964457042787e-01
-1.025223013906400998e-01
-9.944724377828355333e-02
-9.562629429196746467e-02
-9.107816222865504352e-02
-8.582133647475700955e-02
-7.987496273290851934e-02
-7.325903092691489482e-02
-6.599501875753571722e-02
-5.811145398275434359e-02
-4.963941644786352969e-02
-4.062091993538304024e-02
-3.111018290970857247e-02
-2.116799073103652756e-02
-1.087994435143794028e-02
-3.391058066473107147e-04
1.034041325545482712e-02
2.102407308165958957e-02
3.156968703741301618e-02
4.181079635077955547e-02
5.157509815067148895e-02
6.068278097655235848e-02
6.894770200387659309e-02
7.618784466539334221e-02
8.223434923919895057e-02
8.692318236537117937e-02
9.012275653832885203e-02
9.172530263355713198e-02
9.164647340358826610e-02
8.986147901461279119e-02
8.636057913653222284e-02
8.119643395797553065e-02
7.446148081709194622e-02
6.627715745973219996e-02
5.682832760415545970e-02
4.631285333929088810e-02
3.497006886081671651e-02
2.306216176244043140e-02
1.085800449187751190e-02
-1.361104445903402876e-03
-1.331505879353216473e-02
-2.474432173225685205e-02
-3.539948813195575861e-02
-4.505873606211129034e-02
-5.354608751024456104e-02
-6.070004262258944794e-02
-6.642649790053693770e-02
-7.065969682402535590e-02
-7.337650618135409253e-02
-7.461519023790123828e-02
-7.442954588600907140e-02
-7.293387007759691287e-02
-7.026430670453565064e-02
-6.658202609236635316e-02
-6.207952346566954216e-02
-5.695372571343956802e-02
-5.141327788277341715e-02
-4.566994411731035985e-02
-3.992526591339295994e-02
-3.436965470847226645e-02
-2.918427730006923140e-02
-2.451496289130762618e-02
-2.049690345731862082e-02
-1.723086475104548126e-02
-1.478502662822602301e-02
-1.321241563635781185e-02
-1.251797679170460649e-02
-1.269426867467685419e-02
-1.370109318183502373e-02
-1.547129702606934824e-02
-1.792714331011778170e-02
-2.096195758409653137e-02
-2.446285686601960135e-02
-2.830511763285969290e-02
-3.235555929722290502e-02
-3.648118256441382212e-02
-4.054991034728794297e-02
-4.443091550425310593e-02
-4.800554000403282895e-02
-5.116271440037857554e-02
-5.380157207159552701e-02
-5.584321170863144890e-02
-5.721446894879296530e-02
-5.786819308550562868e-02
-5.777130034995142660e-02
-5.690533090433620711e-02
-5.527902596560832493e-02
-5.290749000140687608e-02
-4.983157846008910707e-02
-4.610420995761115026e-02
-4.178995441169076897e-02
-3.697219052926136590e-02
-3.173798754668798183e-02
-2.618711818815449427e-02
-2.042444349323367658e-02
-1.455697316196276694e-02
-8.694722221572232998e-03
-2.946913728216522463e-03
2.582792758561571617e-03
7.792886707814240116e-03
1.259062039083000753e-02
1.689394963578456574e-02
2.062571079488508333e-02
2.372838901376340612e-02
2.615081804702678800e-02
2.785845107814878888e-02
2.883438739344388810e-02
2.906905581560026083e-02
2.857849657845003624e-02
2.738599721891159591e-02
2.553319726775512069e-02
2.307867855751582001e-02
2.008767480968636984e-02
1.664568796175158391e-02
1.284313045849861529e-02
8.780729841589150070e-03
4.567489820933582495e-03
3.135738171160945553e-04
-3.868189437166996356e-03
-7.865116315389527116e-03
-1.157255594285865746e-02
-1.489147640408215040e-02
-1.773159882994655365e-02
-2.002393818309344473e-02
-2.170539994764784930e-02
-2.274126229011637357e-02
-2.311402293395004026e-02
-2.282282303747417557e-02
-2.190157701656487987e-02
-2.039222611222290052e-02
-1.836849099200709573e-02
-1.592079629204616598e-02
-1.315194076726664517e-02
-1.018708762933285411e-02
-7.154899292041166578e-03
-4.192297806392041026e-03
-1.439830910548701992e-03
9.675352845321567863e-04
2.903693404676103984e-03
4.247690221253676984e-03
4.905938532201312846e-03
4.795982325696057647e-03
3.860158147371818560e-03
2.074783288327441966e-03
-5.728378790515048502e-04
-4.050144273961935049e-03
-8.308786480856079210e-03
-1.327368079481998191e-02
-1.883790323773554265e-02
-2.488659672339552445e-02
-3.127749913120059927e-02
-3.786035482349572878e-02
-4.447840931818619614e-02
-5.096817837619598002e-02
-5.716838908182557411e-02
-6.292746145155689308e-02
-6.809715209526816249e-02
-7.254856375325054174e-02
-7.617021974930703043e-02
-7.886225070630500933e-02
-8.056075488378207361e-02
-8.121130083561817203e-02
-8.079197150181115228e-02
-7.930630317875894675e-02
-7.677199030984388495e-02
-7.324443734047327015e-02
-6.878770443356450881e-02
-6.349219109009812678e-02
-5.746620615667326348e-02
-5.082637214194488107e-02
-4.370843523238096551e-02
-3.625154225936044750e-02
-2.860093418656996234e-02
-2.090541703622340874e-02
-1.331094634008755245e-02
-5.957499977051012793e-03
1.017670633250700174e-03
7.494341418868975813e-03
1.336109644338922056e-02
1.852062646782934655e-02
2.290063284163114735e-02
2.643575238444010808e-02
2.909193946169929754e-02
3.084916403557709172e-02
3.170564326091213081e-02
3.168764379909758122e-02
3.082813331479710220e-02
2.918624321048244805e-02
2.683118840287081544e-02
2.384271311088200992e-02
2.031462210051812947e-02
1.634286663292811373e-02
1.202940432325236286e-02
7.478034627914301874e-03
2.789847300746519515e-03
-1.937217399450550520e-03
-6.608028151441019613e-03
-1.113899650688200856e-02
-1.545017550081611082e-02
-1.947281583120426263e-02
-2.314947830764435555e-02
-2.642766814531918168e-02
-2.927148179116933341e-02
-3.164952492964183406e-02
-3.354213950221542062e-02
-3.493997419860519343e-02
-3.583813856932931141e-02
-3.624482511386960260e-02
-3.617143606393657257e-02
-3.563841810303210178e-02
-3.467312270028198584e-02
-3.330648572648094857e-02
-3.157872296245178845e-02
-2.953216775191537524e-02
-2.721582349714812485e-02
-2.468311666741886817e-02
-2.198976912515997889e-02
-1.919667738180889927e-02
-1.636565304317135275e-02
-1.356027804393526888e-02
-1.084514052592306169e-02
-8.283694080224578149e-03
-5.937087859278135371e-03
-3.865335201914156527e-03
-2.121313558218831941e-03
-7.542882154913319037e-04
1.931969198734687088e-04
6.902219390514593989e-04
7.094137830385947863e-04
2.400470314585512188e-04
-7.213107814740271628e-04
-2.166994377867437205e-03
-4.072695750304096071e-03
-6.409702868820449373e-03
-9.131418212715045751e-03
-1.218448970609713536e-02
-1.550701723557652671e-02
-1.902596423377255277e-02
-2.266619336305680799e-02
-2.634579579204274907e-02
-2.998077379979278978e-02
-3.348790693916893491e-02
-3.678485635402239246e-02
-3.979143959932218699e-02
-4.243646041361039123e-02
-4.465162343732970163e-02
-4.638000406464837938e-02
-4.757587939239877467e-02
-4.819960184258955532e-02
-4.823184608056105965e-02
-4.765886186906709288e-02
-4.648399197036248709e-02
-4.472521997529835258e-02
-4.240758955114999618e-02
-3.957652569743910775e-02
-3.628231266970773777e-02
-3.258844875259339635e-02
-2.856826781915119962e-02
-2.429886081989444599e-02
-1.986664426929172708e-02
-1.535970439714460720e-02
-1.086780620088532469e-02
-6.481787165456080399e-03
-2.290060162412739519e-03
1.624512408834630911e-03
5.181034681713912043e-03
8.310155041590102515e-03
1.094903590655295703e-02
1.304335515482023602e-02
1.455532257707923063e-02
1.545142941013370394e-02
1.571717561488165590e-02
1.534735795268775752e-02
1.434722618523418328e-02
1.273961241569735933e-02
1.055144409972409714e-02
7.825873694228047128e-03
4.612919563991388361e-03
9.697772795560048731e-04
-3.035871875150827556e-03
-7.334280093071545575e-03
-1.184864308254119682e-02
-1.649961567922732589e-02
-2.120664671935036660e-02
-2.588765503577027810e-02
-3.046107159981540496e-02
-3.484830102632323345e-02
-3.897182817763812646e-02
-4.275905165076077097e-02
-4.614280028961135344e-02
-4.905876928739165421e-02
-5.145335876492400373e-02
-5.327620908479527295e-02
-5.448703350471499618e-02
-5.505522368390958210e-02
-5.495520206692698639e-02
-5.417774950322906680e-02
-5.271809260162421684e-02
-5.058575198459056010e-02
-4.780218986080274346e-02
-4.439535262812750738e-02
-4.041159112414736965e-02
-3.590171800942359298e-02
-3.093045403978402635e-02
-2.557261752505939414e-02
-1.990802367052876137e-02
-1.402877260071269151e-02
-8.029418881184443094e-03
-2.010177582413565436e-03
3.925178983497996238e-03
9.673297987164493350e-03
1.513187686937341944e-02
2.019967228282478974e-02
2.478399518857487757e-02
2.879688344504638745e-02
3.215870998904060696e-02
3.480565195377022247e-02
3.667843918205419829e-02
3.773944829305317383e-02
3.796140584077455082e-02
3.733069755630208375e-02
3.585612965043734335e-02
3.355216280581284349e-02
3.045664336730790137e-02
2.661709579138756346e-02
2.209281800512611152e-02
1.695989039234705939e-02
1.129816568223394879e-02
5.201311503007510773e-03
-1.232096877965251081e-03
-7.898854714337183447e-03
-1.469002121940451294e-02
-2.149629779281655301e-02
-2.820838281549488055e-02
-3.471716662098056627e-02
-4.091863608240626365e-02
-4.671427144460231495e-02
-5.200940349014041009e-02
-5.672375824679155853e-02
-6.078141745132781271e-02
-6.412156738037813608e-02
-6.669754942846688184e-02
-6.847039325894442585e-02
-6.942560255984266127e-02
-6.955519934666880288e-02
-6.887209375274230827e-02
-6.740621534418039795e-02
-6.519655767544794978e-02
-6.230717964921590746e-02
-5.880803519681802871e-02
-5.478672851621510520e-02
-5.034335804593266517e-02
-4.558345484857924401e-02
-4.062550173891826821e-02
-3.559020943263666720e-02
-3.060080926074042196e-02
-2.578205542241214163e-02
-2.125473212843763740e-02
-1.713102556456198508e-02
-1.351988722940409768e-02
-1.051117337888230960e-02
-8.184475561763293952e-03
-6.604320898957401903e-03
-5.807426965900849836e-03
-5.822956851602096792e-03
-6.645846706952264482e-03
-8.255095129167656226e-03
-1.060988974060192089e-02
-1.363771838929863332e-02
-1.725863670223794916e-02
-2.136356632017036988e-02
-2.583175350617255422e-02
-3.053160868986405652e-02
-3.531648732020314929e-02
-4.003816601559524735e-02
-4.454591581069628631e-02
-4.868843659342041164e-02
-5.232345337950305986e-02
-5.531960771056991522e-02
-5.755238109439182737e-02
-5.892566506563078066e-02
-5.935258375105492701e-02
-5.877354342589891090e-02
-5.715763001175717950e-02
-5.448639631406650141e-02
-5.078480499912091384e-02
-4.608998046437436102e-02
-4.046964225816626626e-02
-3.401947396748371960e-02
-2.684542796915934809e-02
-1.908423226417901505e-02
-1.087979996835016991e-02
-2.388380494932458575e-03
6.223980141251913428e-03
1.479194744347043025e-02
2.315297911009272028e-02
3.114637904976441315e-02
3.862869175825892065e-02
4.546838789364648914e-02
5.154758498274679412e-02
5.678109801833834680e-02
6.109204918316940569e-02
6.443942399029685408e-02
6.680373523961498361e-02
6.818298944019501873e-02
6.861127496577143492e-02
6.813016924708041600e-02
6.680697038888111505e-02
6.472231517244091126e-02
6.196268374934502110e-02
5.862493000725839398e-02
5.480619050675829274e-02
5.059766968344188431e-02
4.608775371587768566e-02
4.135375052680706487e-02
3.645563885406971627e-02
3.144779048354844064e-02
2.635923844991154910e-02
2.120901148183316001e-02
1.600212827396285328e-02
1.072460750910673305e-02
5.358767238750165862e-03
-1.253748997409737109e-04
-5.761764770323954746e-03
-1.158255033847543566e-02
-1.761775623327669488e-02
-2.389322663639639743e-02
-3.041669809460421925e-02
-3.718999611044095099e-02
-4.419418376548374383e-02
-5.138903655172241680e-02
-5.872482613160225073e-02
-6.611940033517753335e-02
-7.348185618049604684e-02
-8.070142241340237665e-02
-8.764961696646031419e-02
-9.419378475582243504e-02
-1.001897689752218740e-01
-1.054915137991041807e-01
-1.099593684260698756e-01
-1.134586560715597769e-01
-1.158647236684185317e-01
-1.170802918728248154e-01
-1.170158239095737268e-01
-1.156192627169432829e-01
-1.128638145455307384e-01
-1.087444353455963575e-01
-1.033065768290768738e-01
-9.660755600956885680e-02
-8.875075407101329361e-02
-7.986649249481692081e-02
-7.010411291639585818e-02
-5.965111774876051542e-02
-4.870212057591245813e-02
-3.747249406821573370e-02
-2.618804657488353616e-02
-1.507444474445085621e-02
-4.356965986659633305e-03
5.742304388627904321e-03
1.502368378407057184e-02
2.329760902592859992e-02
3.039866214648543133e-02
3.619822117472402956e-02
4.057979270298794905e-02
4.348111092773600250e-02
4.486096336258534045e-02
4.471479623317416163e-02
4.308655386830596845e-02
4.003404546825194144e-02
3.566874424792601528e-02
3.012007544845743748e-02
2.354446663268173687e-02
1.612939874989443093e-02
8.068887171655984847e-03
-4.221624867075043919e-04
-9.123219470284089569e-03
-1.781454917921613049e-02
-2.627721337716149019e-02
-3.429834649730564150e-02
-4.168736949088444610e-02
-4.826053234839350337e-02
-5.386464154425239792e-02
-5.837307351219266083e-02
-6.167618480251481350e-02
-6.371498273655758215e-02
-6.444346516513563272e-02
-6.386001154628366538e-02
-6.199654752304226135e-02
-5.890369244135892912e-02
-5.468014950317401368e-02
-4.943526089041634652e-02
-4.330962522323193731e-02
-3.646434858114797756e-02
-2.906845074776188281e-02
-2.130840595174366900e-02
-1.337295847389738043e-02
-5.449026229001905156e-03
2.277584214706095816e-03
9.631044462986598775e-03
1.645534672341361290e-02
2.260101620005788500e-02
2.795291018395212532e-02
3.241299284295159899e-02
3.590706479194402667e-02
3.840168039158334268e-02
3.987383497710758617e-02
4.034480914177571154e-02
3.985495077760511928e-02
3.846636565816471953e-02
3.627343699282165046e-02
3.337697970806199899e-02
2.990000583279345606e-02
2.597361094275093749e-02
2.173121371811024757e-02
1.730921829554378857e-02
1.284122143573119407e-02
8.445942227681996206e-03
4.236800762266998421e-03
3.071317792153159532e-04
-3.272261863799617171e-03
-6.440673092020076512e-03
-9.174889229265632828e-03
-1.146278881169775568e-02
-1.331909176788446426e-02
-1.478469730106025948e-02
-1.590934154544684787e-02
-1.677055560429542916e-02
-1.745264974711292771e-02
-1.804948959064503478e-02
-1.866304063744481795e-02
-1.939347204797590637e-02
-2.033467271349114966e-02
-2.157791654020687483e-02
-2.319461334009286294e-02
-2.524151820590878753e-02
-2.776115576882303565e-02
-3.075968723737136992e-02
-3.423413637581172730e-02
-3.814415035292632178e-02
-4.242543164997768929e-02
-4.699653206807367922e-02
-5.173831880461120247e-02
-5.652398943068281945e-02
-6.120274529817100462e-02
-6.561050616582686512e-02
-6.958051805393694611e-02
-7.294111840018246973e-02
-7.552247932758066051e-02
-7.717380800192358281e-02
-7.775370971316285240e-02
-7.714477033980045306e-02
-7.526963019728818982e-02
-7.206395801361045739e-02
-6.752502464758962375e-02
-6.167618957679459057e-02
-5.458236467882936205e-02
-4.636862502020831084e-02
-3.717589504029632230e-02
-2.720810253847283366e-02
-1.669205478296533970e-02
-5.881106404183602046e-03
4.937992775322308514e-03
1.547482901316883305e-02
2.543160352228913609e-02
3.450912161811460488e-02
4.243053530510715321e-02
4.894344788369285604e-02
5.381367735899485194e-02
5.687650539537715544e-02
5.798829399300510501e-02
5.707511334869402875e-02
5.412934591808066243e-02
4.917511116790175552e-02
4.233798633645136089e-02
3.376979068067596790e-02
2.369164561724267440e-02
1.238198525212809431e-02
1.395237865088362617e-04
-1.268181798537235117e-02
-2.571724423409400828e-02
-3.859309871667175595e-02
-5.092939855253694748e-02
-6.236066991680677685e-02
-7.255874679140038308e-02
-8.120769885434266089e-02
-8.806229966104690832e-02
-9.292156860748040925e-02
-9.563154861930962813e-02
-9.613973820055715658e-02
-9.441812929477534644e-02
-9.054045642706026742e-02
-8.463564311003859975e-02
-7.687836555281893358e-02
-6.752863078055706958e-02
-5.686281857538325046e-02
-4.521049527641240323e-02
-3.292599579824615624e-02
-2.036880636100764363e-02
-7.906596014799656402e-03
4.097841500217493799e-03
1.531824685344880879e-02
2.544387479160791291e-02
3.420822016902816398e-02
4.140728834495462085e-02
4.685871683800552079e-02
5.047306185424195457e-02
5.219439413816437390e-02
5.202691454627292322e-02
5.004862062350809437e-02
4.635786412568174142e-02
4.112696455072267776e-02
3.455098079372850850e-02
2.685486966269117273e-02
1.829549038660302843e-02
9.133160343903830303e-03
-3.642334770893734808e-04
-9.927831487383591627e-03
-1.930710800410232603e-02
-2.826854889160482567e-02
-3.659334876845156403e-02
-4.411035139827881868e-02
-5.066139841795390397e-02
-5.613518237171498393e-02
-6.045818999413336836e-02
-6.357764496070993088e-02
-6.549764296493029714e-02
-6.623548803985475353e-02
-6.584734905887218437e-02
-6.441663034416232614e-02
-6.203849723296304963e-02
-5.883587478937291060e-02
-5.493670162602633245e-02
-5.047734560935911163e-02
-4.559926907644749894e-02
-4.044073749202685419e-02
-3.513305162759093603e-02
-2.980458630056854671e-02
-2.456562547784630138e-02
-1.951683593363411767e-02
-1.474586227874752353e-02
-1.031656632201340129e-02
-6.286877933213712646e-03
-2.689511866407605714e-03
4.544023725053074336e-04
3.135780472510656808e-03
5.364603774653035201e-03
7.154678253646802599e-03
8.533206539258486600e-03
9.532654582859057674e-03
1.018821105636698657e-02
1.053880286446567949e-02
1.062291681984788363e-02
1.047523287864816216e-02
1.012897184062001507e-02
9.611040349293716728e-03
8.940785458276402642e-03
8.134523001786419377e-03
7.196830367344735774e-03
6.128683431658742825e-03
4.924322751229538719e-03
3.570979037779514059e-03
2.054664780892254822e-03
3.579490521344597109e-04
-1.537238966632943626e-03
-3.645261746552925716e-03
-5.977125394858747928e-03
-8.539838441659765300e-03
-1.132764466772447597e-02
-1.433125291919595812e-02
-1.752729015747926666e-02
-2.088130403663106954e-02
-2.435250827493702988e-02
-2.788313838774830050e-02
-3.141167361386301704e-02
-3.486663676410398788e-02
-3.816975371113076609e-02
-4.124181414325252260e-02
-4.400166625219276845e-02
-4.636871699282937853e-02
-4.827112605062032491e-02
-4.964228884233201633e-02
-5.042521956619491763e-02
-5.058275004377625617e-02
-5.008329031823559319e-02
-4.892209439701890317e-02
-4.710830070977900519e-02
-4.466688426606604811e-02
-4.165098392835232116e-02
-3.812017180499520375e-02
-3.415939969456553704e-02
-2.986493911029073495e-02
-2.534214368560625680e-02
-2.071036929598261273e-02
-1.609052087381070487e-02
-1.160560997518828019e-02
-7.379260502172543465e-03
-3.527380570059190923e-03
-1.555032963211563923e-04
2.636422183387426149e-03
4.773622362156601517e-03
6.190183637404755856e-03
6.842582211349597376e-03
6.713435259533318683e-03
5.795038034791914761e-03
4.115846030209147077e-03
1.715254582528101535e-03
-1.344342788859861221e-03
-4.977207244575688680e-03
-9.090476714726118679e-03
-1.356845596387629138e-02
-1.828968009359847532e-02
-2.312505745307046751e-02
-2.793876636873420666e-02
-3.259602080428103399e-02
-3.696608897620815015e-02
-4.091999809644913944e-02
-4.434289736137291688e-02
-4.713077836185841640e-02
-4.919005233795607779e-02
-5.045488436252566766e-02
-5.086663370153197972e-02
-5.039685248256849104e-02
-4.903723448679189745e-02
-4.679496625104886953e-02
-4.371274535028037145e-02
-3.984130838524733986e-02
-3.526092508274945164e-02
-3.006895579550411188e-02
-2.437384403826652404e-02
-1.830601410996982384e-02
-1.199969322268880541e-02
-5.598747878628842697e-03
7.481880305321916835e-04
6.894859254746508320e-03
1.269922203167495739e-02
1.802227855298786999e-02
2.274344190117174799e-02
2.675032276530394867e-02
2.994799671038616759e-02
3.226788160399270133e-02
3.364969778516312127e-02
3.406945601289759762e-02
3.351708134436366671e-02
3.200541331391829059e-02
2.957730263139564039e-02
2.628365203112774037e-02
2.220568550877243322e-02
1.743460058111990715e-02
1.207474006847861561e-02
6.245413539139443165e-03
6.826805411482353425e-05
-6.328518054324007089e-03
-1.281520866895503874e-02
-1.926639483671039807e-02
-2.556095186835628807e-02
-3.158230197294412123e-02
-3.722979122568325500e-02
-4.240735015906399452e-02
-4.703588656097450887e-02
-5.105092324742176169e-02
-5.439602917915251079e-02
-5.703832569573981381e-02
-5.895075327191960646e-02
-6.012417686589036081e-02
-6.056287349203746950e-02
-6.027796931891661603e-02
-5.929796107653317883e-02
-5.765516303071985260e-02
-5.539312098288833031e-02
-5.256267914103629479e-02
-4.921837626200391280e-02
-4.542291042402406276e-02
-4.124055070683192714e-02
-3.673979703578612865e-02
-3.199152917468729707e-02
-2.706729408985329710e-02
-2.203989995098254787e-02
-1.698212194519453655e-02
-1.196527689294513142e-02
-7.059946766903090615e-03
-2.334505260472239871e-03
2.146420858025195610e-03
6.319525806429939635e-03
1.012801860273596782e-02
1.351792647740882730e-02
1.644064423384280701e-02
1.885545918956174974e-02
2.072423810187369944e-02
2.202006546692892100e-02
2.272024496013471881e-02
2.280993327542481588e-02
2.228431887452806195e-02
2.114167693519078059e-02
1.939218641818023572e-02
1.704990989093901552e-02
1.413585379289442404e-02
1.067873616646045423e-02
6.709633294887440425e-03
2.267766972915877255e-03
-2.605289867958715533e-03
-7.862967492196551098e-03
-1.345387104441705950e-02
-1.932454380540154712e-02
-2.541491559484763615e-02
-3.166312788064145484e-02
-3.800179508475057255e-02
-4.435889106330995202e-02
-5.065988504476613696e-02
-5.682310429860228107e-02
-6.276517773711315362e-02
-6.839786194176206147e-02
-7.362936021890781335e-02
-7.836702990156663162e-02
-8.251624652988878705e-02
-8.598244756721169779e-02
-8.867534972981246100e-02
-9.050740433093797110e-02
-9.139732718516435650e-02
-9.127767127709109085e-02
-9.008530570479619803e-02
-8.778007349640490342e-02
-8.433452505681433842e-02
-7.973791281916603468e-02
-7.401125842103628560e-02
-6.718394063681455697e-02
-5.932271125787548505e-02
-5.051224164924052185e-02
-4.085801234929767323e-02
-3.049981261947889641e-02
-1.958519096175215246e-02
-8.291649615415201333e-03
3.190959821692190140e-03
1.466308100899898700e-02
2.591127252050795873e-02
3.672154247599374033e-02
4.688282950587004116e-02
5.618552934488316164e-02
6.443559775051099781e-02
7.145838479757904427e-02
7.708960245537475886e-02
8.120843932461387082e-02
8.370846072927778936e-02
8.452245580206300957e-02
8.362570129766794258e-02
8.101073960363426585e-02
7.673137804371554793e-02
7.085892368530578855e-02
6.350620755170738319e-02
5.482516857805645738e-02
4.498151961488215667e-02
3.418319419838114492e-02
2.264828112702844606e-02
1.061241276662921659e-02
-1.674418836719680087e-03
-1.396222030782917796e-02
-2.600223671711044890e-02
-3.754748391923118378e-02
-4.837152533185207215e-02
-5.826257067737769524e-02
-6.702613631860661336e-02
-7.451055172887946498e-02
-8.057535136734524095e-02
-8.512998862943643719e-02
-8.811481293589924768e-02
-8.949721704884000539e-02
-8.930217087878405957e-02
-8.756781026014427705e-02
-8.438345466082108892e-02
-7.986589116479941852e-02
-7.415311533442844882e-02
-6.742224875596554423e-02
-5.985762443957960699e-02
-5.166583642403667354e-02
-4.306371369577123576e-02
-3.426870479652645296e-02
-2.549917187434404264e-02
-1.697039304405293172e-02
-8.877336923850110556e-03
-1.406456536365473242e-03
5.278841955339196035e-03
1.104738889302278940e-02
1.577938336569461100e-02
1.940373424928826598e-02
2.186680984579273193e-02
2.314838618694172942e-02
2.326883315390247328e-02
2.226076872029970552e-02
2.020206887076428717e-02
1.718454968825866222e-02
1.332247142401003781e-02
8.753805703070854927e-03
3.621273352324642925e-03
-1.918198641454855677e-03
-7.704374244866106503e-03
-1.358062230816471476e-02
-1.939362396857962842e-02
-2.499643770686905270e-02
-3.026307061011396585e-02
-3.507348992317155245e-02
-3.933263403161552096e-02
-4.296538619256635994e-02
-4.590896020997978222e-02
-4.813425256272904629e-02
-4.962014239211581801e-02
-5.037115744859745059e-02
-5.040962301921179944e-02
-4.976691942344303732e-02
-4.849575016634756486e-02
-4.665303254602123917e-02
-4.430631310298420444e-02
-4.152952759326543342e-02
-3.839794062701568089e-02
-3.498943510587700090e-02
-3.138181659347225039e-02
-2.764929568867206117e-02
-2.386417813957194406e-02
-2.009497147236269723e-02
-1.640330285040004360e-02
-1.284891475651212325e-02
-9.483030876325028100e-03
-6.352982404049601142e-03
-3.500919335827424803e-03
-9.608644940487347241e-04
1.235405820613703909e-03
3.065655014670615880e-03
4.511455218471623757e-03
5.560680405088527095e-03
6.209795785491082493e-03
6.457854472401134555e-03
6.314306906306577094e-03
5.792213698930601812e-03
4.910784375066357815e-03
3.696515268315579000e-03
2.177824693177884963e-03
3.898596346297612814e-04
-1.630258195385807241e-03
-3.843269232157379978e-03
-6.207711080117358365e-03
-8.682314509394875243e-03
-1.122693419200509156e-02
-1.380188577622840779e-02
-1.637114791684407197e-02
-1.890198129603303315e-02
-2.136394176126673108e-02
-2.373367961029347606e-02
-2.598967020926390425e-02
-2.811622800743369954e-02
-3.010221485079887793e-02
-3.193840904947201076e-02
-3.362058710170131443e-02
-3.514549891633104300e-02
-3.651127109241471269e-02
-3.771695795758658876e-02
-3.876098078813977610e-02
-3.964020894519683369e-02
-4.035100214725132611e-02
-4.088682812211058559e-02
-4.123945421453630023e-02
-4.139938548603662449e-02
-4.135457943260507918e-02
-4.109264382998567555e-02
-4.060087254670851492e-02
-3.986641889826288143e-02
-3.887804385840040733e-02
-3.762735987122874798e-02
-3.610718357014058855e-02
-3.431685049522252562e-02
-3.225862625854254706e-02
-2.994015744973646184e-02
-2.737732836734764474e-02
-2.458840072852300912e-02
-2.160177794310332022e-02
-1.844978367286103163e-02
-1.517011525803457772e-02
-1.180761301889820050e-02
-8.408559572316129729e-03
-5.024093866950862103e-03
-1.706902860966957175e-03
1.490445013185060646e-03
4.515519143553869269e-03
7.317111776909239473e-03
9.849313725144106385e-03
1.206795275282935426e-02
1.393566057610025680e-02
1.542190696542321618e-02
1.649970219650662498e-02
1.715408612557241599e-02
1.737341534346855190e-02
1.715564300663542999e-02
1.650710796082768481e-02
1.543785797909138710e-02
1.396878592060065913e-02
1.212336418270170205e-02
9.931499823541259375e-03
7.427986492597540152e-03
4.649381653329551223e-03
1.636686290580776498e-03
-1.568223884649153077e-03
-4.921913282071534515e-03
-8.379919089448665051e-03
-1.189774498290080418e-02
-1.543085880375805012e-02
-1.893482872164343675e-02
-2.236626425566679011e-02
-2.568237668183133426e-02
-2.884146985397853524e-02
-3.180401819104410055e-02
-3.453118698356993227e-02
-3.698770901416920109e-02
-3.914010925377196803e-02
-4.095786405811775027e-02
-4.241552545078634134e-02
-4.348922634101978768e-02
-4.416257105649612491e-02
-4.442243344594283549e-02
-4.426134741196435102e-02
-4.368029475149722007e-02
-4.268286172873161921e-02
-4.128385282617212659e-02
-3.950233740433899826e-02
-3.736466075187858116e-02
-3.490660279643212349e-02
-3.216655668537743429e-02
-2.919279335148537713e-02
-2.603680033486664713e-02
-2.275433386893315618e-02
-1.940596210666106422e-02
-1.605285634819679508e-02
-1.275765322498835855e-02
-9.583257345897685034e-03
-6.589909794023312076e-03
-3.835240755539882571e-03
-1.374482530821480308e-03
7.453877737292960437e-04
2.479775311009888017e-03
3.793221195090217684e-03
4.658053345831848074e-03
5.051322475220401675e-03
4.963844067936422355e-03
4.389917275995188634e-03
3.335766206959554087e-03
1.816450249088039093e-03
-1.476745515183106039e-04
-2.522855927559432970e-03
-5.272270051385629167e-03
-8.348778753071259273e-03
-1.169860621725835395e-02
-1.526399801052191058e-02
-1.897845356714367160e-02
-2.277376189737595133e-02
-2.657684181545358695e-02
-3.031190577187477253e-02
-3.390301404151604969e-02
-3.727398701461924480e-02
-4.034932364407425170e-02
-4.305916658839675781e-02
-4.533645192760399345e-02
-4.712077655068093451e-02
-4.836291786094075451e-02
-4.901733858844700698e-02
-4.905607980720577688e-02
-4.845867976664680610e-02
-4.721737076677602618e-02
-4.534285948725702564e-02
-4.285123086103108381e-02
-3.978088347397737423e-02
-3.617845664656944155e-02
-3.210353644393791617e-02
-2.763208097028349575e-02
-2.284416597370904703e-02
-1.783469932989018014e-02
-1.270322761834396900e-02
-7.553686657720239811e-03
-2.494837842318178497e-03
2.365257529538877107e-03
6.922438959468299458e-03
1.107404086427671297e-02
1.472783249248650270e-02
1.780155943240545671e-02
2.021977690206738440e-02
2.192951229515993292e-02
2.288398938978052424e-02
2.305789147318876645e-02
2.244374031551843104e-02
2.104382863984767191e-02
1.888805879922393974e-02
1.601294715030545865e-02
1.247505074992867960e-02
8.345402432351028271e-03
3.701670869144729065e-03
-1.362301491806591769e-03
-6.749574646065945038e-03
-1.235712954660412102e-02
-1.807815032219400875e-02
-2.380703160992234113e-02
-2.944095962324469462e-02
-3.487859981664725995e-02
-4.002886561076808569e-02
-4.480628991329814459e-02
-4.913362501542685445e-02
-5.294911015712937263e-02
-5.619510509664554787e-02
-5.883249685794268713e-02
-6.083097267784144668e-02
-6.217089956498321468e-02
-6.285007964098043853e-02
-6.287055587059287021e-02
-6.225149922470740727e-02
-6.101912372049471400e-02
-5.920778866499608328e-02
-5.686340471798491392e-02
-5.403432736884514198e-02
-5.077756182461391765e-02
-4.715315372775144565e-02
-4.322347248696320476e-02
-3.905375176431388762e-02
-3.470920057472139802e-02
-3.025408042335527709e-02
-2.575225226881437332e-02
-2.126437161129010600e-02
-1.684765618027564762e-02
-1.255730721321624693e-02
-8.441135935582553054e-03
-4.544771334351813130e-03
-9.070328200021758602e-04
2.439609906775851156e-03
5.465754559341701180e-03
8.151623455920659067e-03
1.047991807308584766e-02
1.244031903573479883e-02
1.402816468127566704e-02
1.524131074065860139e-02
1.608446199831919596e-02
1.656386192014265915e-02
1.668969163721796198e-02
1.647490525203463771e-02
1.593351177201624350e-02
1.508200504185404009e-02
1.393733128320427325e-02
1.251721062992235817e-02
1.083983501831297172e-02
8.923387396706262964e-03
6.786017063403343430e-03
4.445891743738016044e-03
1.921383160859421735e-03
-7.690208708218647382e-04
-3.605962640383606269e-03
-6.568478847921548069e-03
-9.634930038829328525e-03
-1.277990198560977411e-02
-1.597621747972990600e-02
-1.919359936764722385e-02
-2.239682930174572567e-02
-2.554938755367594516e-02
-2.860931552319164947e-02
-3.153248723881868498e-02
-3.427280398851910437e-02
-3.678143995115673581e-02
-3.900955439523264706e-02
-4.090930343871504449e-02
-4.243330506821951786e-02
-4.353841443182224213e-02
-4.418658552064815698e-02
-4.434273419913768027e-02
-4.398391720063887789e-02
-4.309112609808823935e-02
-4.165713220816120999e-02
-3.968702828996546750e-02
-3.719137215086922021e-02
-3.419970790188413268e-02
-3.074688240742093695e-02
-2.688120929479881349e-02
-2.266324948590641569e-02
-1.815804207680476665e-02
-1.344397922731549108e-02
-8.602545986024830865e-03
-3.720404857383148925e-03
1.111690896827551706e-03
5.803415962883022583e-03
1.026597112894475985e-02
1.441144508208437938e-02
1.815976942232344973e-02
2.143627452346561976e-02
2.417259853061021549e-02
2.631541955418351467e-02
2.781532991136206542e-02
2.864041892076835474e-02
2.876923274383714688e-02
2.818992941824583973e-02
2.691042973307501349e-02
2.494322246482891595e-02
2.231897268178847579e-02
1.907776683924003805e-02
1.526789952914430967e-02
1.095230412104367113e-02
6.196942263117795335e-03
1.078677504045801733e-03
-4.320747049098232206e-03
-9.916164379138772342e-03
-1.561710658263371944e-02
-2.133258373101350885e-02
-2.697121930101318080e-02
-3.244157139792786665e-02
-3.765566464591401513e-02
-4.253020800743703006e-02
-4.698448846239251797e-02
-5.094950988529370339e-02
-5.436045001649156272e-02
-5.716392168428051368e-02
-5.931995579319533640e-02
-6.079415533311527398e-02
-6.157344522065862080e-02
-6.165135804617231929e-02
-6.103805055894606646e-02
-5.976063915050780495e-02
-5.785304771909963173e-02
-5.537202391606826923e-02
-5.238048728550380451e-02
-4.895603378068892619e-02
-4.518927719275610266e-02
-4.117512782598234389e-02
-3.702087361200101512e-02
-3.283644338164656146e-02
-2.873409236161944547e-02
-2.482786434237576126e-02
-2.122896179602407063e-02
-1.804064274826358907e-02
-1.536350787304313972e-02
-1.328224972865155520e-02
-1.187088448266215499e-02
-1.119227243196799747e-02
-1.128340743946130292e-02
-1.217473991244011518e-02
-1.386836061251201999e-02
-1.634983575228877994e-02
-1.958984384962527900e-02
-2.352922997061693972e-02
-2.810218245310144858e-02
-3.321734849778405080e-02
-3.877048805144953786e-02
-4.464763041500272728e-02
-5.071790359348397892e-02
-5.684770072567642274e-02
-6.289618092065894783e-02
-6.871942982802434208e-02
-7.417591598343345471e-02
-7.912774513837279866e-02
-8.343976002572663087e-02
-8.699132807318368799e-02
-8.966754287686383440e-02
-9.136789476969431334e-02
-9.201083058205665466e-02
-9.152180117383947044e-02
-8.985519064994211547e-02
-8.697525396650131191e-02
-8.286790248519580737e-02
-7.754383098418393683e-02
-7.102269463263682914e-02
-6.335691720905370361e-02
-5.460871988080066852e-02
-4.486243922322305511e-02
-3.422441700304031803e-02
-2.280908211455415571e-02
-1.075706286733018983e-02
1.784171222961847963e-03
1.465220399321791669e-02
2.767168942885877073e-02
4.066368245812437832e-02
5.343930977219170375e-02
6.580787640786656123e-02
7.758034792471202312e-02
8.856894767464842944e-02
9.859177361598540912e-02
1.074825640621735190e-01
1.150798511803690777e-01
1.212481615815384633e-01
1.258690371011361719e-01
1.288418414685638669e-01
1.301062073963718535e-01
1.296119819163071840e-01
1.273536902618019051e-01
1.233512499203068408e-01
1.176486152990480066e-01
1.103367311109900301e-01
1.015171705411337666e-01
9.133310132832914152e-02
7.994815757477484464e-02
6.754237986067281041e-02
5.432361772000873779e-02
4.050420898514185686e-02
2.630858909954986516e-02
1.196617998648184800e-02
-2.298080823310236914e-03
-1.626592007783001642e-02
-2.972398187960105867e-02
-4.248429545091479687e-02
-5.436864724449137765e-02
-6.522282074653436290e-02
-7.492341342439068352e-02
-8.335786843935859280e-02
-9.045704554691262611e-02
-9.616616801498019396e-02
-1.004595258847618133e-01
-1.033438518432908959e-01
-1.048364688832001679e-01
-1.049919091641610680e-01
-1.038753989557000823e-01
-1.015729719791105129e-01
-9.819085495399097752e-02
-9.384113123285561797e-02
-8.865380618798786305e-02
-8.276316649497873768e-02
-7.630845931215775313e-02
-6.943311519630548934e-02
-6.227890657355877879e-02
-5.498216259401132733e-02
-4.767719525776560607e-02
-4.048460965605997497e-02
-3.351494922697458023e-02
-2.686912250708115360e-02
-2.062355405441705300e-02
-1.484854288751634790e-02
-9.589433118871688172e-03
-4.875664140223787482e-03
-7.256684402237069398e-04
2.866165513594993303e-03
5.910117845042753976e-03
8.429747056469739930e-03
1.045590813208084266e-02
1.201916977508594997e-02
1.314940340247787789e-02
1.387447618623783088e-02
1.420706353950688602e-02
1.415244514279402274e-02
1.370192769153204954e-02
1.282361717272937837e-02
1.147954165476678182e-02
9.605925871560921925e-03
7.128282925478190285e-03
3.962851933797407328e-03
1.253248829364769779e-05
-4.819877172445089647e-03
-1.062629882890200189e-02
-1.749622774162946925e-02
-2.549831900743975907e-02
-3.467512189189320138e-02
-4.505508334224812839e-02
-5.660711061442288972e-02
-6.928031510259874404e-02
-8.296939637335093432e-02
-9.750981929434669737e-02
-1.127134199359654532e-01
-1.283080313592497856e-01
-1.439976230136151558e-01
-1.594340270274254290e-01
-1.742197262703445437e-01
-1.879442282332466629e-01
-2.001587906018131580e-01
-2.104068538795500487e-01
-2.182395459940458804e-01
-2.232143366730712231e-01
-2.249114032764445437e-01
-2.229775378630685367e-01
-2.170795876978843519e-01
-2.069889021259031792e-01
-1.925516394729341885e-01
-1.736813005769131113e-01
-1.504578787077153756e-01
-1.230027915893383283e-01
-9.160755610217254097e-02
-5.666943964014808932e-02
-1.866708391526718594e-02
2.174714663357859776e-02
6.388438053385990523e-02
1.069309879388330720e-01
1.500062670940327525e-01
1.922013828958364090e-01
2.325558837834526549e-01
2.701093156253556726e-01
3.039447198260156746e-01
3.331664477610788988e-01
3.569622305003251062e-01
3.746549681134676013e-01
3.856170215151992764e-01
3.894600291604216058e-01
3.858944563564930541e-01
3.748110941994727274e-01
3.563541224094930460e-01
3.307422573141457489e-01
2.984975454666148886e-01
2.602499532046438357e-01
2.167927543411543034e-01
1.691186303819305625e-01
1.182638223866963739e-01
6.541058830394047563e-02
1.178377969122999108e-02
-4.138602357246133623e-02
-9.286216400279270755e-02
-1.414417161840397785e-01
-1.860563022439418734e-01
-2.256802580965782679e-01
-2.594771407390523699e-01
-2.867851988571295530e-01
-3.070452256664548685e-01
-3.200213849900377383e-01
-3.255626455061519930e-01
-3.237854865453170805e-01
-3.150210952176964452e-01
-2.997049273472242037e-01
-2.785549770021550908e-01
-2.523519505707643162e-01
-2.220345196782988473e-01
-1.886514319996550337e-01
-1.532762746174480550e-01
-1.170383500954357558e-01
-8.106879095540286961e-02
-4.642853045623181185e-02
-1.413561588104789157e-02
1.488085713050526712e-02
3.987908016597106753e-02
6.017015026664053468e-02
7.532187970330865567e-02
8.503754920485953606e-02
8.917278808425491143e-02
8.785968585679355958e-02
8.129431327646544081e-02
6.992858463260512303e-02
5.433103218979395965e-02
3.517087041838219685e-02
1.327573055982683367e-02
-1.050318298815758680e-02
-3.525478743481101629e-02
-6.004577098233823684e-02
-8.398232625019179387e-02
-1.062249081835063280e-01
-1.259700368212783861e-01
-1.425848181401290216e-01
-1.554975796140082578e-01
-1.642925948296461158e-01
-1.687398909510144651e-01
-1.686758812037838506e-01
-1.641876034636770287e-01
-1.554388843286687583e-01
-1.427433576511447089e-01
-1.265697940417251921e-01
-1.074284972535218818e-01
-8.596177555816242322e-02
-6.284481818699141908e-02
-3.877546480261302719e-02
-1.447194253736863376e-02
9.368289838327006902e-03
3.211815619525854038e-02
5.317271600498774120e-02
7.204590902972322908e-02
8.834475820304885096e-02
1.017437274148374482e-01
1.120990092195125881e-01
1.193103535701040413e-01
1.234274476253194724e-01
1.246019472663815880e-01
1.230386914790415759e-01
1.190654305723532341e-01
1.130326287021079373e-01
1.053387329436228925e-01
9.641033841434465401e-02
8.666349105846660184e-02
7.649171932147587338e-02
6.627653980497967556e-02
5.632041098345477725e-02
4.688497159145292581e-02
3.817326878954778457e-02
3.028452875618612219e-02
2.329300691052543434e-02
1.717042979757297042e-02
1.184301059856796359e-02
7.199213418293458344e-03
3.069582293798410466e-03
-7.214612565719057125e-04
-4.356635209092841327e-03
-8.020546251353543807e-03
-1.186481936012351301e-02
-1.599695630656449222e-02
-2.050260562640340845e-02
-2.537061899328457715e-02
-3.055636908764182078e-02
-3.594258601797231667e-02
-4.132761253824272091e-02
-4.648625596717147201e-02
-5.111089246734673575e-02
-5.487064749129282049e-02
-5.741918221342817708e-02
-5.839453896777081765e-02
-5.744980982154046512e-02
-5.429685771488769463e-02
-4.866698502753689926e-02
-4.039684110011378809e-02
-2.941559909675194040e-02
-1.571578149036197830e-02
5.184726776990937480e-04
1.905360952414534778e-02
3.948812039439178467e-02
6.129227899996728124e-02
8.387220015290269837e-02
1.064682103823653969e-01
1.282868043602308772e-01
1.484634567313143916e-01
1.660866972917843798e-01
1.802600693173593560e-01
1.901241216299708325e-01
1.948401115140814543e-01
1.937228271641004973e-01
1.861760064881759769e-01
1.717367634517255326e-01
1.502081906467148398e-01
1.214651376657955723e-01
8.571364310278772880e-02
4.332588988653210405e-02
-5.138968975337042736e-03
-5.879924637196702608e-02
-1.167010063499300948e-01
-1.776109711663506341e-01
-2.401752403595450447e-01
-3.029505391412830595e-01
-3.643599071729133332e-01
-4.228190565183154170e-01
-4.767655260704423692e-01
-5.246481585638190781e-01
-5.650463023255269945e-01
-5.967095067733010350e-01
-6.184717521539920826e-01
-6.295325797816073710e-01
-6.292164627468758153e-01
-6.171602519318176716e-01
-5.933547322675279956e-01
-5.579217165132384082e-01
-5.114600367228135935e-01
-4.547086959852273957e-01
-3.887008684898107802e-01
-3.147595232134017262e-01
-2.342929746159803372e-01
-1.489746903837008418e-01
-6.054188512656857868e-02
2.920406721229447042e-02
1.184068672478032352e-01
2.052427251145632348e-01
2.879939309391360003e-01
3.649788737945138806e-01
4.347383756280893685e-01
4.959789739426139210e-01
5.475522861853304724e-01
5.886835160224805907e-01
6.186908126711447853e-01
6.372624787039393723e-01
6.443263627133107851e-01
6.399844071651595856e-01
6.247251043200013898e-01
5.991207869719932244e-01
5.640366558124583207e-01
5.205022144275892604e-01
4.696443777852245538e-01
4.127772600745922560e-01
3.512440145857817497e-01
2.864466936623686899e-01
2.198152446569635876e-01
1.527419250075650325e-01
8.655492834596033302e-02
2.255017713032242063e-02
-3.815296877613374299e-02
-9.451124137266155023e-02
-1.456307798428763955e-01
-1.908363189470794474e-01
-2.295196019414366129e-01
-2.613565565047750172e-01
-2.861288437554143638e-01
-3.037929948745008435e-01
-3.145277934251551888e-01
-3.185725306264877155e-01
-3.163909091459387035e-01
-3.085183530981589484e-01
-2.955892800102257190e-01
-2.783474939787036750e-01
-2.575544912694796018e-01
-2.340215974129588872e-01
-2.085715787213418826e-01
-1.819960589042027010e-01
-1.550567374863295045e-01
-1.284813675378505826e-01
-1.028822779612548199e-01
-7.883905516447900497e-02
-5.680712181898492363e-02
-3.713816963767913731e-02
-2.012550000531575581e-02
-5.896330707345812105e-03
5.462085102717027796e-03
1.398390126708153394e-02
1.979140856495995374e-02
2.304737741650295449e-02
2.401373210389972160e-02
2.297163574596403426e-02
2.024152148219782524e-02
1.616849146084318664e-02
1.109279532316330419e-02
5.343099878109370399e-03
-7.591152423186281473e-04
-6.944854175286238954e-03
-1.297402208993218495e-02
-1.864630873077902790e-02
-2.383671871444152310e-02
-2.843855835361278062e-02
-3.242183531881761421e-02
-3.579299814121383871e-02
-3.859034348141587856e-02
-4.090432724451376068e-02
-4.283378799398505216e-02
-4.450062450705589978e-02
-4.603588074033396205e-02
-4.756284618865496555e-02
-4.919369521203272033e-02
-5.103239302226011964e-02
-5.314198671079273240e-02
-5.557039407870539849e-02
-5.833098340998814357e-02
-6.139428973731413108e-02
-6.471794146316273144e-02
-6.821116660408707566e-02
-7.176814801050000747e-02
-7.526302669153445146e-02
-7.854834354317329070e-02
-8.147504188114464141e-02
-8.389194611286202030e-02
-8.564822598723020874e-02
-8.661106867734562342e-02
-8.666454677334096968e-02
-8.570618203704429006e-02
-8.367734970973568498e-02
-8.053137977690418003e-02
-7.626351558368550665e-02
-7.090315066529413734e-02
-6.449740253265383305e-02
-5.714232813081641937e-02
-4.894509189568065077e-02
-4.004200433262495445e-02
-3.058999821654880338e-02
-2.075129761254772276e-02
-1.070029481134885524e-02
-6.123604753663705602e-04
9.346864411582819776e-03
1.901777401592717395e-02
2.825389358558439215e-02
3.693684240857769696e-02
4.495587933272027215e-02
5.223624043043287313e-02
5.872241184551925397e-02
6.437798579023618073e-02
6.920171910477446175e-02
7.319986425931623852e-02
7.640641026497969890e-02
7.886814212343384867e-02
8.063999472423677428e-02
8.178989214256114637e-02
8.238680677671422758e-02
8.249891863222424959e-02
8.219391767684439132e-02
8.153131453235790138e-02
8.055922821818869983e-02
7.932118994112458132e-02
7.784050358640209888e-02
7.613329039830001033e-02
7.420292270405851043e-02
7.203735932648375195e-02
6.962105286574389595e-02
6.692659211766945060e-02
6.392316020066572679e-02
6.057988596036187334e-02
5.686584149343405781e-02
5.275318167189904650e-02
4.822612278467899860e-02
4.327262193143452396e-02
3.789624902539789897e-02
3.211484456165407397e-02
2.595374021177530507e-02
1.946146922944829230e-02
1.269233337303693129e-02
5.715452639938421037e-03
-1.388281142633413651e-03
-8.534970321744456828e-03
-1.563308963650478917e-02
-2.259014391481849876e-02
-2.931844538921107163e-02
-3.573364164076313354e-02
-4.175842047195969797e-02
-4.733247384201511726e-02
-5.240012875208326093e-02
-5.692766678935416713e-02
-6.089455445753905183e-02
-6.429201941416207156e-02
-6.713558365385322024e-02
-6.944610913981169587e-02
-7.126437350406479576e-02
-7.264150819250922431e-02
-7.363559930326984970e-02
-7.431716290105237765e-02
-7.475857912360282798e-02
-7.503629700752365017e-02
-7.522853173624713397e-02
-7.541079994059109171e-02
-7.565437952976293567e-02
-7.602823111677112222e-02
-7.658926551742308020e-02
-7.738954440873367646e-02
-7.847052362211863474e-02
-7.985926824669976887e-02
-8.157798623207611344e-02
-8.362879026411733363e-02
-8.600677710901452611e-02
-8.869289706927814543e-02
-9.165141878279106646e-02
-9.484086858151312416e-02
-9.819843359266018645e-02
-1.016547709793912402e-01
-1.051265637859904734e-01
-1.085161675953560112e-01
-1.117212201786784015e-01
-1.146239130049878513e-01
-1.171024620493580498e-01
-1.190292633230953107e-01
-1.202715255207482958e-01
-1.206975355433335534e-01
-1.201796586523148774e-01
-1.185921151355285030e-01
-1.158246972452428858e-01
-1.117792747319084484e-01
-1.063708170558480270e-01
-9.954966528690881167e-02
-9.127577819681260973e-02
-8.155278572561325268e-02
-7.041375342845519747e-02
-5.791678554739911056e-02
-4.417810254770912493e-02
-2.932760531903854523e-02
-1.354845912677411432e-02
2.945022484187417855e-03
1.991697188751810968e-02
3.708829246045278194e-02
5.417228194261158869e-02
7.086252781592528027e-02
8.684277375473627159e-02
1.018025412428914811e-01
1.154416712317560406e-01
1.274671668600040608e-01
1.376294571767706365e-01
1.456984935004544401e-01
1.514856492910167940e-01
1.548654098842427440e-01
1.557320899750842536e-01
1.540671685761301479e-01
1.498858660695201184e-01
1.432582959407266432e-01
1.343271883117586607e-01
1.232544741952653483e-01
1.102744900673188061e-01
9.564557997561440317e-02
7.965609668161878487e-02
6.262890183349834050e-02
4.489134381693020426e-02
2.678195625029944696e-02
8.641640336692065633e-03
-9.203947343855618107e-03
-2.644439511348674332e-02
-4.278258995394704223e-02
-5.796805792047976524e-02
-7.176371182180867059e-02
-8.398004154402291532e-02
-9.446890519646229667e-02
-1.031043616198939611e-01
-1.098259983764950654e-01
-1.145896430912198005e-01
-1.174003082079330268e-01
-1.183001786217499213e-01
-1.173495849609391684e-01
-1.146552266852224333e-01
-1.103337808925646812e-01
-1.045287201625457046e-01
-9.740109666799577626e-02
-8.911849343713493243e-02
-7.986287164336959565e-02
-6.981835491829792295e-02
-5.917043319816940594e-02
-4.810534171747157112e-02
-3.680541313991274321e-02
-2.544520120574586541e-02
-1.419664857639758165e-02
-3.217837777348209541e-03
7.340056752860538852e-03
1.733563704649898965e-02
2.664422147626514456e-02
3.514571841207803082e-02
4.274031968788634395e-02
4.933701131071829837e-02
5.485803122306565083e-02
5.924529109056432541e-02
6.244653331463062562e-02
6.443416994370014528e-02
6.518996890069335415e-02
6.471254306726083316e-02
6.302223986737703898e-02
6.014628279401211530e-02
5.613881150262864383e-02
5.106285659056544746e-02
4.499791241998472857e-02
3.804194103410486749e-02
3.029819194973689192e-02
2.188806246872567959e-02
1.293803987487557663e-02
3.581480846685025643e-03
-6.041558094637237974e-03
-1.579080160526417573e-02
-2.552618791126543690e-02
-3.510811421847145897e-02
-4.440412332321753974e-02
-5.328781906086124676e-02
-6.163829221504897593e-02
-6.935083392351405751e-02
-7.632506208968284356e-02
-8.247795397469201428e-02
-8.773928661740261481e-02
-9.204773352175041334e-02
-9.536448027173702324e-02
-9.765607461793171518e-02
-9.890882499292083518e-02
-9.912169903823093986e-02
-9.830270114159989081e-02
-9.647969026918740143e-02
-9.368496778489313059e-02
-8.996729158843286278e-02
-8.538457339754849940e-02
-8.000199306648959896e-02
-7.389862361322041551e-02
-6.715648182957324741e-02
-5.986832669942175611e-02
-5.213208976828744012e-02
-4.404945573657896574e-02
-3.572833997630829594e-02
-2.727752374728775048e-02
-1.880760752144819067e-02
-1.042989614174739260e-02
-2.253584947089218998e-03
5.615193991229412013e-03
1.307212850440338595e-02
2.002184926004891077e-02
2.637237861249574003e-02
3.204073590381728565e-02
3.695526426047285318e-02
4.104883908385302538e-02
4.427266282505151751e-02
4.658397349791022768e-02
4.795449784337860177e-02
4.837181441043184038e-02
4.782955928744359042e-02
4.634286265520567993e-02
4.393302352414373002e-02
4.063545591027943604e-02
3.649900105018553942e-02
3.157715037379726919e-02
2.593774805203747855e-02
1.965214385471501443e-02
1.279803850750149685e-02
5.458384055440773652e-03
-2.283219992910106091e-03
-1.034171737691821913e-02
-1.863203864087701125e-02
-2.707257684999873903e-02
-3.558421796043129137e-02
-4.409084509170298205e-02
-5.252383638152618994e-02
-6.081641968178078117e-02
-6.890928782902165650e-02
-7.674779492336508691e-02
-8.428026517476143453e-02
-9.146136926523311395e-02
-9.824693235491785415e-02
-1.045956718644286826e-01
-1.104678593779231249e-01
-1.158234602865863966e-01
-1.206218338611030061e-01
-1.248218384360581801e-01
-1.283789935322436071e-01
-1.312472324505517818e-01
-1.333779953979414290e-01
-1.347186687796241289e-01
-1.352157763599195206e-01
-1.348126676053682804e-01
-1.334514372350562028e-01
-1.310747561413432571e-01
-1.276261147148337882e-01
-1.230505512681078634e-01
-1.173012737068814260e-01
-1.103346178259948934e-01
-1.021184341172612225e-01
-9.263470837992134055e-02
-8.187226003821307385e-02
-6.984779007935033868e-02
-5.658710724900853362e-02
-4.214119724631389119e-02
-2.658791199005262201e-02
-1.001654786827337398e-02
7.443290729781996962e-03
2.565055613650639096e-02
4.443547770420533394e-02
6.360163542381198909e-02
8.294281808523319699e-02
1.022230602875644906e-01
1.211993918242723484e-01
1.396174389308176000e-01
1.572136354025984450e-01
1.737263672709903062e-01
1.889004250679768571e-01
2.024836596068960992e-01
2.142487769560776356e-01
2.239859360995218596e-01
2.315054281748095966e-01
2.366665492863790354e-01
2.393414476090401921e-01
2.394599925027064424e-01
2.369872480636094347e-01
2.319200223032225339e-01
2.243217155793267581e-01
2.142709679043939830e-01
2.019060227318068557e-01
1.873966226848590433e-01
1.709367871233689329e-01
1.527646526766243684e-01
1.331261228026940358e-01
1.122897151588176518e-01
9.053412745359024072e-02
6.813533331451132602e-02
4.536489476538452248e-02
2.248890904029344009e-02
-2.584733192229626830e-04
-2.265622830556072650e-02
-4.451548898940904664e-02
-6.569168924043490565e-02
-8.605480625532474503e-02
-1.055352090301120427e-01
-1.240843864159671128e-01
-1.416878889601727587e-01
-1.583720367701445808e-01
-1.741715075718192340e-01
-1.891480132824385763e-01
-2.033707075010854903e-01
-2.169031549526940494e-01
-2.298031029583412210e-01
-2.421171783674375966e-01
-2.538500828733293857e-01
-2.649939668424008965e-01
-2.754940843318529065e-01
-2.852532514370826333e-01
-2.941548239349326410e-01
-3.020231171563895201e-01
-3.086686403500514264e-01
-3.138760752126370512e-01
-3.174098009693577249e-01
-3.190376009256470358e-01
-3.185383746608908551e-01
-3.156967976628918815e-01
-3.103457236325439794e-01
-3.023509988131153348e-01
-2.916149124626679079e-01
-2.781261107721736403e-01
-2.618946039359635880e-01
-2.430194977253601341e-01
-2.216528200114413760e-01
-1.979864394754351498e-01
-1.722934661041975180e-01
-1.448629459803761899e-01
-1.160342155221908422e-01
-8.617237257256092631e-02
-5.564923041812165627e-02
-2.484825927450718536e-02
5.849423707803450695e-03
3.608850088305286252e-02
6.552553459511606393e-02
9.384870143474094428e-02
1.207951037896005525e-01
1.461173060622763253e-01
1.696366744791842629e-01
1.912015551401138880e-01
2.107017907443452520e-01
2.280829464813450558e-01
2.433044138318907201e-01
2.563769649645789017e-01
2.673285885679429486e-01
2.762061774828820648e-01
2.830786901929748800e-01
2.880175666539741552e-01
2.910996819638870803e-01
2.924030954163570062e-01
2.919984486824324654e-01
2.899488536812230288e-01
2.863132194890367632e-01
2.811359359542694447e-01
2.744577200209043499e-01
2.663143633704328495e-01
2.567373122926966400e-01
2.457609822006544542e-01
2.334297694562097458e-01
2.197916010738044656e-01
2.049172763093259630e-01
1.888951521561429703e-01
1.718285594870551103e-01
1.538605758329958939e-01
1.351439381214227242e-01
1.158668212310740714e-01
9.624101773863445730e-02
7.649030769101494709e-02
5.686560682831885705e-02
3.762194933346288406e-02
1.901666784225254300e-02
1.308318095735366837e-03
-1.525868215245050272e-02
-3.046851373886174524e-02
-4.411589742276835618e-02
-5.605479658202799920e-02
-6.616918312936642677e-02
-7.438829327633182664e-02
-8.071997221072912954e-02
-8.519300377144657654e-02
-8.792767980577750886e-02
-8.908434279478728846e-02
-8.887122964608318298e-02
-8.756871548417302642e-02
-8.547223088000979740e-02
-8.293099937039585812e-02
-8.031420952941194236e-02
-7.799882768094566765e-02
-7.637197591681384179e-02
-7.581425971967505062e-02
-7.666998941481766028e-02
-7.927014352764462368e-02
-8.388896632426161293e-02
-9.073609435913705668e-02
-9.998903269243630820e-02
-1.117026311501139318e-01
-1.258943142234693613e-01
-1.424781831922712627e-01
-1.612660430694303482e-01
-1.820272894818582010e-01
-2.043925072103784379e-01
-2.279559464385743917e-01
-2.522284820703710739e-01
-2.766492241903946714e-01
-3.006380904954942257e-01
-3.235625674678559438e-01
-3.447810273698188044e-01
-3.636669442567632138e-01
-3.796051440376766450e-01
-3.920151499751856061e-01
-4.004081082685426729e-01
-4.043219646478242724e-01
-4.034319112379818884e-01
-3.975024943059230487e-01
-3.863835275834354710e-01
-3.701161892032593381e-01
-3.487876836252986057e-01
-3.226733714470564340e-01
-2.921548932644744134e-01
-2.576997650545879703e-01
-2.199421932913444566e-01
-1.795496545964647417e-01
-1.373013859127978908e-01
-9.403102601921571602e-02
-5.059209329000234623e-02
-7.871303464205087197e-03
3.324875672483670885e-02
7.193560985110425410e-02
1.073791421486746805e-01
1.388465882759166714e-01
1.657190056146097823e-01
1.874200501126060958e-01
2.035662676631628254e-01
2.138470335689739155e-01
2.180972675748460432e-01
2.163378224742724121e-01
2.086492566635371748e-01
1.953449687763702536e-01
1.768144343607420399e-01
1.535861125021354689e-01
1.263428126303684229e-01
9.580964488933692291e-02
6.285434878202592057e-02
2.838363641298590964e-02
-6.655754268455684602e-03
-4.127843641449324696e-02
-7.451121966859601542e-02
-1.054297527380080451e-01
-1.331273956535680425e-01
-1.568153774838774439e-01
-1.758039071643809903e-01
-1.894815207854137762e-01
-1.974644326030538521e-01
-1.994277658230161343e-01
-1.952677654208227476e-01
-1.850420642166036300e-01
-1.689068974718307692e-01
-1.472643346938691533e-01
-1.205703226367516312e-01
-8.944606041668569374e-02
-5.461739307606053306e-02
-1.685228518315698421e-02
2.299128790455709850e-02
6.404420526212803444e-02
1.054466133173855569e-01
1.463441530075246799e-01
1.859317484284342681e-01
2.234986904075717262e-01
2.583647819482727814e-01
2.900054524021926650e-01
3.179709590189667145e-01
3.419132841659818789e-01
3.616522522929500605e-01
3.770493835496140367e-01
3.881374270949623506e-01
3.950202165908577312e-01
3.978811903487832757e-01
3.970178054216477737e-01
3.927500751158612413e-01
3.854748734728339343e-01
3.756161293493502362e-01
3.636096769705435827e-01
3.499061571810427318e-01
3.349504984490375148e-01
3.191560536440446461e-01
3.029250988726422400e-01
2.866144683833706797e-01
2.705317723787937223e-01
2.549620583913567162e-01
2.401090388179732416e-01
2.261530106335951640e-01
2.132153602839452766e-01
2.013619911995969403e-01
1.906378035028606643e-01
1.810227597146964462e-01
1.724807358823934877e-01
1.649409447004547835e-01
1.583042196735237606e-01
1.524632855955803390e-01
1.472894697885877013e-01
1.426500130728557136e-01
1.384098692528434316e-01
1.344323767221135002e-01
1.305847928604774444e-01
1.267443350648540523e-01
1.227910764620964018e-01
1.186194241174470670e-01
1.141326530700036562e-01
1.092411271692535352e-01
1.038702784020543168e-01
9.794862538862995904e-02
9.141482437672372729e-02
8.421295448629291525e-02
7.628945427749585229e-02
6.759507387969337922e-02
5.808102343840286508e-02
4.769842164149065700e-02
3.639833523322134889e-02
2.413116358806264086e-02
1.084622869607878778e-02
-3.506924172845508544e-03
-1.897668992188070169e-02
-3.561052749404952644e-02
-5.345021318800170784e-02
-7.252957078748335784e-02
-9.287827396259674961e-02
-1.145066682524051027e-01
-1.374179899722348663e-01
-1.615961203617923003e-01
-1.870014193700560157e-01
-2.135847418584544133e-01
-2.412595956434914202e-01
-2.699276268342741258e-01
-2.994628431886828257e-01
-3.297100531062921447e-01
-3.605038457160771315e-01
-3.916441313478654651e-01
-4.229214179620662817e-01
-4.541087453320015177e-01
-4.849631078274833640e-01
-5.152386627272823594e-01
-5.446820596187239572e-01
-5.730388770296124257e-01
-6.000625835437050082e-01
-6.255129552846292462e-01
-6.491590077895064148e-01
-6.707956839260950099e-01
-6.902251359748012849e-01
-7.072829239067380813e-01
-7.218278117095169311e-01
-7.337379727297345111e-01
-7.429380210481575375e-01
-7.493638207654136352e-01
-7.529962774835196049e-01
-7.538434690679219896e-01
-7.519353528266733422e-01
-7.473472358136007410e-01
-7.401644769346433783e-01
-7.305102724139771464e-01
-7.185276124625594729e-01
-7.043748649222721925e-01
-6.882380668750002206e-01
-6.703083957377812263e-01
-6.507933066114826026e-01
-6.299075468251067456e-01
-6.078666596678109491e-01
-5.848873877422614553e-01
-5.611840980492900366e-01
-5.369557162088404167e-01
-5.123947813942385521e-01
-4.876739844685059611e-01
-4.629389414475635345e-01
-4.383245375178044800e-01
-4.139192999945013329e-01
-3.897953818019551098e-01
-3.659886468576109553e-01
-3.424919510593463778e-01
-3.192833023245969515e-01
-2.962852694620227711e-01
-2.734035246801832519e-01
-2.505109113070722038e-01
-2.274464452500847278e-01
-2.040402711588780449e-01
-1.800945695487166653e-01
-1.554047329265592636e-01
-1.297640398690617369e-01
-1.029638772541964648e-01
-7.480311441708917264e-02
-4.510519872374182948e-02
-1.370117757556124811e-02
1.953823836014661683e-02
5.471143472371808869e-02
9.189271229063393498e-02
1.310916325670946625e-01
1.723016456825320342e-01
2.154549873903304213e-01
2.604424526228281689e-01
3.071274192152773086e-01
3.553097143096068944e-01
4.047755949043280177e-01
4.552674477912994067e-01
5.065019193180702040e-01
5.581845019464378721e-01
6.099984544793134456e-01
6.616249544318956177e-01
7.127507034504988459e-01
7.630653939195995994e-01
8.122763499833961509e-01
8.601221068184919938e-01
9.063519684057183001e-01
9.507693479642892465e-01
9.932018633511402461e-01
1.033515024687813311e+00
1.071632328587563521e+00
1.107492540307478901e+00
1.141096954612038195e+00
1.172470927861895218e+00
1.201668468635682441e+00
1.228781664302125654e+00
1.253908693112963268e+00
1.277165430719635841e+00
1.298673042976564718e+00
1.318541617451227888e+00
1.336868431159774495e+00
1.353738726035130124e+00
1.369188378864296896e+00
1.383237563500760769e+00
1.395854197213130865e+00
1.406953678860041856e+00
1.416427257165848941e+00
1.424085082751399112e+00
1.429715496298865851e+00
1.433052179030156914e+00
1.433781051786390925e+00
1.431572735918479555e+00
1.426054518533952598e+00
1.416845033552483590e+00
1.403561434126327612e+00
1.385819777064550840e+00
1.363253306056766201e+00
1.335541847444743357e+00
1.302379883757013967e+00
1.263543833878950862e+00
1.218864282619719130e+00
1.168226964031238824e+00
1.111643456406712582e+00
1.049156515529254374e+00
9.809408989973554815e-01
9.072470937076377862e-01
8.283900659809869671e-01
7.448119439834101074e-01
6.569814319144338111e-01
5.654616204201381446e-01
4.708623512394572441e-01
3.738170688367335459e-01
2.749994173575401879e-01
1.750838759923288024e-01
7.472305177272858812e-02
-2.544065630837593489e-02
-1.248161767423445895e-01
-2.228891514966594434e-01
-3.191754147007939690e-01
-4.133310406551056748e-01
-5.050658269117066501e-01
-5.941963357483023289e-01
-6.806775867758148024e-01
-7.645071419878282093e-01
-8.458483999934128805e-01
-9.249193148197647485e-01
-1.002025438301541005e+00
-1.077571071660492041e+00
-1.151981142089043786e+00
-1.225745593341869721e+00
-1.299371068556566033e+00
-1.373352762856277165e+00
-1.448174648814438914e+00
-1.524293219049905224e+00
-1.602067532719599674e+00
-1.681827431283256180e+00
-1.763775642614936467e+00
-1.848006551259856245e+00
-1.934546436920339785e+00
-2.023222696668337761e+00
-2.113812945548535271e+00
-2.205930293328349556e+00
-2.299065986381158222e+00
-2.392648409281548094e+00
-2.485948009811030257e+00
-2.578202414677274401e+00
-2.668566802058969234e+00
-2.756143402803469478e+00
-2.840027664913752581e+00
-2.919301672523125113e+00
-2.993051881747450071e+00
-3.060424087217723521e+00
-3.120597548555828382e+00
-3.172813313485685960e+00
-3.216432059895500739e+00
-3.250848018686359975e+00
-3.275613367470057824e+00
-3.290357248374803589e+00
-3.294803358127746939e+00
-3.288833713120806745e+00
-3.272368651256506222e+00
-3.245484139647929478e+00
-3.208321735665916385e+00
-3.161095192661477871e+00
-3.104123230217139984e+00
-3.037745828470296505e+00
-2.962376798020568636e+00
-2.878456461499193875e+00
-2.786440301157083077e+00
-2.686802945058316183e+00
-2.580015837795287759e+00
-2.466529075510981439e+00
-2.346784936991300530e+00
-2.221188053769007187e+00
-2.090101660194875866e+00
-1.953869013884496741e+00
-1.812759875656928754e+00
-1.667022434975119483e+00
-1.516848350464306439e+00
-1.362375234954165126e+00
-1.203719046075590438e+00
-1.040927411109093592e+00
-8.740305014827564056e-01
-7.030165584985489380e-01
-5.278389726847890762e-01
-3.484379301100804516e-01
-1.647172809885982803e-01
2.342711589426953525e-02
2.161160793081838005e-01
4.134824634073422933e-01
6.156597886823841348e-01
8.227825996012113619e-01
1.034983621908057705e+00
1.252373494514614327e+00
1.475048901139506041e+00
1.703079003727582252e+00
1.936472875740877564e+00
2.175220357618030675e+00
2.419207360955420771e+00
2.668262801577506060e+00
2.922131544695111938e+00
3.180400078755724280e+00
3.442609392715899830e+00
3.708084971053169365e+00
3.976049656683562805e+00
4.245582427730724362e+00
4.515527250801132375e+00
4.784666272325218017e+00
5.051520360944253163e+00
5.314502732712344191e+00
5.571892027487556298e+00
5.821776000742099555e+00
6.062206896825832025e+00
6.291121064916919359e+00
6.506414971318688067e+00
6.705983649394084978e+00
6.887720409089030937e+00
7.049586060482052829e+00
7.189859139034390445e+00
7.306911434135147765e+00
7.399114747483941379e+00
7.464840880780530874e+00
