BVP Signal
-4.308241790506035784e-02
-6.600301179429543530e-02
-8.702237230034667870e-02
-1.060343714555044281e-01
-1.236438675492903538e-01
-1.390544062763184874e-01
-1.512839433570783432e-01
-1.593864566702145047e-01
-1.635352746690345582e-01
-1.641320362698399093e-01
-1.609075103676144702e-01
-1.537381620491812262e-01
-1.425988491301374839e-01
-1.279634724313859495e-01
-1.104124669478750986e-01
-9.034266924324935166e-02
-6.809078664364509592e-02
-4.431563125981657913e-02
-1.960180501202529735e-02
5.383342128898127577e-03
2.991493743299383778e-02
5.366401975410040048e-02
7.576388903255504292e-02
9.586190932566984735e-02
1.134558827669489567e-01
1.279743670087619689e-01
1.393797986240012388e-01
1.470464726809724287e-01
1.511506924979322264e-01
1.513719885259625364e-01
1.477149834136058659e-01
1.404603025065502830e-01
1.294384543828411283e-01
1.152887748663393441e-01
9.797644504785163466e-02
7.802822482629398482e-02
5.586894382873011655e-02
3.185256083988673159e-02
6.671174203743121534e-03
-1.934950580448989432e-02
-4.550908622163644945e-02
-7.140371073449361394e-02
-9.632274216761481378e-02
-1.199515753293701747e-01
-1.416259004108495478e-01
-1.609024564454923090e-01
-1.775141321438934994e-01
-1.907454336331698697e-01
-2.008484354058809873e-01
-2.070650437648078324e-01
-2.094804163388306328e-01
-2.080520442948685655e-01
-2.024212213385974124e-01
-1.932696642707273371e-01
-1.801255114525731615e-01
-1.635501988751686397e-01
-1.437632445674228432e-01
-1.208898116633471131e-01
-9.574486960426453752e-02
-6.835078013899298366e-02
-3.941467077603699742e-02
-9.377808435729440006e-03
2.131680916458844610e-02
5.205135301484220545e-02
8.235277084676201342e-02
1.117946656441706210e-01
1.398050762103134059e-01
1.659426872301019151e-01
1.899747403909099741e-01
2.111924693278779963e-01
2.296997488861156067e-01
2.448791701112237318e-01
2.565400963320255689e-01
2.647978872554022090e-01
2.689758286525308906e-01
2.696500376118926012e-01
2.662775052723405089e-01
2.590006917696792699e-01
2.481471190260226556e-01
2.333452167724072712e-01
2.153806019027668661e-01
1.940140405617150066e-01
1.696606825717733025e-01
1.427859843656867911e-01
1.135183072059536835e-01
8.254372305709406499e-02
5.017307943256443803e-02
1.690771836158200259e-02
-1.666584649590568956e-02
-4.995371023217143325e-02
-8.262472294525252670e-02
-1.137908858398414824e-01
-1.431505879630113887e-01
-1.700794647810227600e-01
-1.938773333631929330e-01
-2.146313506017038242e-01
-2.312933345580995559e-01
-2.440051838397255257e-01
-2.523075678874657779e-01
-2.558619710953138338e-01
-2.551348111719065614e-01
-2.494643010242311165e-01
-2.394865318611224536e-01
-2.251130632538186904e-01
-2.066100121243540366e-01
-1.846713263924555926e-01
-1.593270952628619841e-01
-1.314613443455186215e-01
-1.014152088331250479e-01
-6.989492563309321338e-02
-3.757321951095625445e-02
-5.065635250037656134e-03
2.694505859184407465e-02
5.782439637940043481e-02
8.689656817890087370e-02
1.137474155264013992e-01
1.375983145543288044e-01
1.583450951297709353e-01
1.753125330831785678e-01
1.883059374186803470e-01
1.972619128904135044e-01
2.016951096659536091e-01
2.021244582423847858e-01
1.980869628190365384e-01
1.900048428010475132e-01
1.781011053235430075e-01
1.624352193907075970e-01
1.438514068517683375e-01
1.222933405331159962e-01
9.857294155195556185e-02
7.308112270544012135e-02
4.637624162893737301e-02
1.918527281753347469e-02
-8.081515398644378845e-03
-3.467068411494801661e-02
-6.015271926928579538e-02
-8.380318029017153059e-02
-1.053534882106767212e-01
-1.241233928346481830e-01
-1.398443436450514110e-01
-1.522008532431363692e-01
-1.607651046887513813e-01
-1.657701350767188386e-01
-1.666977784007295238e-01
-1.639024508069967245e-01
-1.573127323447963688e-01
-1.470674576659188326e-01
-1.337132033756672223e-01
-1.172051504911042485e-01
-9.828383272762883371e-02
-7.714500064723581185e-02
-5.438587595113439366e-02
-3.053973026612435970e-02
-6.040932134831492051e-03
1.845949542371379259e-02
4.257920857811125365e-02
6.564422135272740544e-02
8.739305615774260738e-02
1.071475072796134881e-01
1.247299881894705226e-01
1.396743373954912604e-01
1.515989395316049426e-01
1.605529882545731479e-01
1.659289760078311027e-01
1.680839440610690516e-01
1.665961195904721581e-01
1.615416841091306954e-01
1.531718007218004218e-01
1.412363334681311089e-01
1.263962605222734015e-01
1.084830682554118741e-01
8.796346841466635980e-02
6.519582873623694375e-02
4.044957759851927626e-02
1.434068641720880749e-02
-1.282421553469924314e-02
-4.043786356952414063e-02
-6.807452437157035519e-02
-9.502708113893390540e-02
-1.210255006079052620e-01
-1.452729054332291270e-01
-1.673674357522239031e-01
-1.868978214021752293e-01
-2.031024809462816383e-01
-2.161433154938653123e-01
-2.251263627241569254e-01
-2.301175064402343207e-01
-2.308915085510316878e-01
-2.270874266757592075e-01
-2.192407668012131827e-01
-2.068639950663558325e-01
-1.905143229266284266e-01
-1.703131325399072638e-01
-1.465083747728244123e-01
-1.198105352254647399e-01
-9.040391392160940232e-02
-5.904587353129897576e-02
-2.622612334782629950e-02
7.391990286453375969e-03
4.119882112498213234e-02
7.445999920696103058e-02
1.066703936665329144e-01
1.371027650437900147e-01
1.651300600535451635e-01
1.904430944915789514e-01
2.121578562785519373e-01
2.303346569944514921e-01
2.442310161523364720e-01
2.536627160847935158e-01
2.586585386194686365e-01
2.586436235913245896e-01
2.542291298950569156e-01
2.449377197221086766e-01
2.311667543499823230e-01
2.132255077510323837e-01
1.911632666860264285e-01
1.658388204183990355e-01
1.373154342052059496e-01
1.063799594083665867e-01
7.354585157358253800e-02
3.948788710959577619e-02
4.882958436365186783e-03
-2.957135735931665232e-02
-6.314373162126206418e-02
-9.523660612895304411e-02
-1.249385289006274269e-01
-1.520493041737298323e-01
-1.755473016292572741e-01
-1.952079596592147803e-01
-2.105488755502752385e-01
-2.210059579418729991e-01
-2.268906517941648715e-01
-2.274509931521429551e-01
-2.231507254350884595e-01
-2.138376388049213206e-01
-1.996745138290709765e-01
-1.813244129965458917e-01
-1.587339203428022871e-01
-1.328368737933051935e-01
-1.039057834962031635e-01
-7.273648697496860882e-02
-4.003779923412127684e-02
-6.450197746311531199e-03
2.715092216608770703e-02
6.016822936778720710e-02
9.168143841862416710e-02
1.212423860647231511e-01
1.479228038823107161e-01
1.714213053999620873e-01
1.910600017443212506e-01
2.063709116364157437e-01
2.173173838023387261e-01
2.232182436349122723e-01
2.245186473992297205e-01
2.207422518194732952e-01
2.121455722816537048e-01
1.990553509455773307e-01
1.813949650503482725e-01
1.600867566987445867e-01
1.350819079316976645e-01
1.071815905813320730e-01
7.691328937139188526e-02
4.481823466189951977e-02
1.176828557284825827e-02
-2.177049072537218244e-02
-5.495018463573206335e-02
-8.722034215841695248e-02
-1.177481612609307393e-01
-1.461685375398287801e-01
-1.716573361002740050e-01
-1.938324939970502148e-01
-2.122786988341461289e-01
-2.263865164926679996e-01
-2.363696432002536096e-01
-2.415039631287237698e-01
-2.420757917034354334e-01
-2.379311968808638378e-01
-2.290555620531830039e-01
-2.160345308384485352e-01
-1.986651710342142163e-01
-1.777140431580107316e-01
-1.533608194566930261e-01
-1.261889775916629763e-01
-9.684637400379353389e-02
-6.577874760152047084e-02
-3.378973131921630957e-02
-1.383226920550262307e-03
3.061377247450058903e-02
6.172299005176618003e-02
9.109272595502049263e-02
1.183066385374460516e-01
1.426688299523486414e-01
1.636077990238153923e-01
1.809040230229806978e-01
1.938009866646921431e-01
2.024584780218832147e-01
2.062816766863223017e-01
2.053327689877429696e-01
1.996760225950642287e-01
1.891635549312131459e-01
1.744369509256324946e-01
1.553806089060172091e-01
1.327351398895658674e-01
1.068543043509012636e-01
7.839464082567926262e-02
4.814130093505658570e-02
1.664645118460944540e-02
-1.505963400021115284e-02
-4.644572472262498142e-02
-7.639435303141545175e-02
-1.044437524047426291e-01
-1.296237870246303436e-01
-1.512704350722244295e-01
-1.689558615300563171e-01
-1.818449817701852655e-01
-1.900632147807691519e-01
-1.928844161651952216e-01
-1.904650940709151641e-01
-1.827655356625824679e-01
-1.698062971631765505e-01
-1.522437038200244730e-01
-1.300892591748925575e-01
-1.042244284435724089e-01
-7.505072570128323850e-02
-4.340220632715373339e-02
-1.007858994532813413e-02
2.420366896533301254e-02
5.845131235698056149e-02
9.203258150567371343e-02
1.238961155382320573e-01
1.535639518217823962e-01
1.800726700243061307e-01
2.029961218059170291e-01
2.217623782109033603e-01
2.357810323537270769e-01
2.451188994099249840e-01
2.490975840221348325e-01
2.481251728438333970e-01
2.419033064616675222e-01
2.306118617664431603e-01
2.147561313978224029e-01
1.942542750677519747e-01
1.700602456718484923e-01
1.422588318600901403e-01
1.115938573729045036e-01
7.872597784073132043e-02
4.414842638626906290e-02
8.752386733476853059e-03
-2.696446082009356857e-02
-6.221757211295082801e-02
-9.642882443458068720e-02
-1.288080516947404941e-01
-1.590437538269708628e-01
-1.862932054936228543e-01
-2.102227786406612453e-01
-2.304474539547347878e-01
-2.462961420514388211e-01
-2.581224812127084212e-01
-2.650586651931802762e-01
-2.674100717891779722e-01
-2.650417015192793047e-01
-2.577658217738249546e-01
-2.463229931610459722e-01
-2.302707168483256739e-01
-2.103762217500934062e-01
-1.868034494710623661e-01
-1.599355407629179937e-01
-1.305498722081024909e-01
-9.886412421097785785e-02
-6.570087703078911212e-02
-3.153471138475184843e-02
2.917364636720168325e-03
3.710744153336964501e-02
7.026811744105089519e-02
1.019442474360259115e-01
1.314329024443012250e-01
1.581121188118758125e-01
1.817662304516032834e-01
2.014868233931648434e-01
2.174077340321264873e-01
2.288098103950476081e-01
2.355499659375443200e-01
2.377212048802684885e-01
2.347813075555700291e-01
2.273872320192193985e-01
2.151271694013759950e-01
1.984790348207602084e-01
1.777946451340416401e-01
1.532447654864320385e-01
1.257117946200758951e-01
9.537899350171516466e-02
6.314110158801795880e-02
2.953634344789262539e-02
-4.608321633052529093e-03
-3.861177697757482014e-02
-7.169035452088595717e-02
-1.030377895028679602e-01
-1.321005232822305975e-01
-1.578934840988616140e-01
-1.803004124006178654e-01
-1.983299640854899737e-01
-2.117915997792096661e-01
-2.203685744897840304e-01
-2.235798535608640170e-01
-2.218998109722475631e-01
-2.147671920396697631e-01
-2.027646896542059929e-01
-1.859889621579959296e-01
-1.647746944805271174e-01
-1.399449863171366715e-01
-1.116771954196142669e-01
-8.098779583966245199e-02
-4.834130454231568008e-02
-1.462727649632869498e-02
1.940819994169291213e-02
5.302631486094988578e-02
8.541312654309694830e-02
1.159551042814372934e-01
1.438155706851337867e-01
1.686689060006295315e-01
1.896821836559234309e-01
2.067370482796259124e-01
2.193114798961103840e-01
2.271389586243676151e-01
2.303887452177386663e-01
2.285835417925983493e-01
2.223452314636390759e-01
2.114229686753859860e-01
1.962377994762543043e-01
1.772863449708330097e-01
1.546542969884870666e-01
1.293069860732282417e-01
1.013654475257341481e-01
7.162922502004098746e-02
4.067288013619882459e-02
9.050416852701179127e-03
-2.249545622352260021e-02
-5.346008244905937901e-02
-8.317192417457242026e-02
-1.111661892823613274e-01
-1.367278649248383493e-01
-1.597436708821974305e-01
-1.794418617936726634e-01
-1.956826944170326765e-01
-2.082070744649504868e-01
-2.165283957923593849e-01
-2.211284465652027797e-01
-2.213167587143174408e-01
-2.175438605613240484e-01
-2.097896169068572958e-01
-1.980353372192273920e-01
-1.830404929111836831e-01
-1.645295673041403950e-01
-1.432703422053274445e-01
-1.194770969592420518e-01
-9.356101940779443238e-02
-6.620198522515513551e-02
-3.765905523898511326e-02
-8.598561309680355369e-03
2.055376184095451461e-02
4.921277777390112990e-02
7.700380682196900084e-02
1.032538499898012219e-01
1.277340413056201329e-01
1.498628085047235270e-01
1.692001893703263815e-01
1.857129193064019912e-01
1.986148001264529395e-01
2.082166852574079130e-01
2.139182678561606099e-01
2.156567071808664082e-01
2.136631572027633541e-01
2.074056839600811053e-01
1.975966354227827459e-01
1.838609888338633702e-01
1.665683871124630233e-01
1.461327362663978335e-01
1.225544401032333808e-01
9.664413986484259034e-02
6.850473565929703079e-02
3.876711038374905383e-02
7.948541984329537957e-03
-2.340245238390387117e-02
-5.475564211678436710e-02
-8.545432698076105282e-02
-1.149662648348808158e-01
-1.427917940682104647e-01
-1.681308615575881071e-01
-1.910014805637978430e-01
-2.104188323984323428e-01
-2.262968516242979122e-01
-2.383009029668723411e-01
-2.458357729643348422e-01
-2.494197272043998381e-01
-2.482238146441156645e-01
-2.426982247906225576e-01
-2.327880873165724396e-01
-2.184054180769933740e-01
-2.003406063318333152e-01
-1.782913403969141608e-01
-1.530370256938861084e-01
-1.248476159854934320e-01
-9.413529630212552624e-02
-6.166389852577147668e-02
-2.776729382303627647e-02
6.841532705994191055e-03
4.158966323609020188e-02
7.584472170928369117e-02
1.090966750420176434e-01
1.405545137756156193e-01
1.699480124907585543e-01
1.965126565193754948e-01
2.197919263095503284e-01
2.396303086775825875e-01
2.551719516428977430e-01
2.667619171890903695e-01
2.736669398578875922e-01
2.759037900420832634e-01
2.736586189669445446e-01
2.664283782396164590e-01
2.550453016464828138e-01
2.390915658234121777e-01
2.190831677974106051e-01
1.954671071432304563e-01
1.683283359055264272e-01
1.386139335514754434e-01
1.064530969305559349e-01
7.259158358870232419e-02
3.762678896103777149e-02
2.163815028910720528e-03
-3.317920652775663282e-02
-6.768421472461960686e-02
-1.008071294032344967e-01
-1.319356382544110140e-01
-1.603121605728452526e-01
-1.858749412012341007e-01
-2.076235212567124622e-01
-2.255538100631736542e-01
-2.392027292356005419e-01
-2.481254228242855686e-01
-2.527700703734440113e-01
-2.523608838699835100e-01
-2.474912605219068973e-01
-2.379997729326359668e-01
-2.240188254301345161e-01
-2.062781024618695891e-01
-1.845844786903992341e-01
-1.598484661355412673e-01
-1.322694169357733207e-01
-1.024514630541634719e-01
-7.109097120156898653e-02
-3.861156170835328139e-02
-5.766994941451164536e-03
2.692428280950365238e-02
5.876172042091809544e-02
8.930683632856362131e-02
1.177673310639946735e-01
1.439226990336984202e-01
1.670540900226656356e-01
1.867660468773412186e-01
2.029357521049408031e-01
2.148005531250203881e-01
2.227698264817833118e-01
2.261491853882783842e-01
2.250821304898923125e-01
2.197289397930767274e-01
2.097448197756479338e-01
1.959798733206834509e-01
1.780728742607177173e-01
1.566646063312544246e-01
1.321498865015226787e-01
1.047851815548975496e-01
7.547805395599177514e-02
4.443160429775953185e-02
1.245631106266444077e-02
-1.990600379199158887e-02
-5.195557993303501210e-02
-8.315083072867004987e-02
-1.127627657262795791e-01
-1.402791568764572283e-01
-1.651723165894410927e-01
-1.867511753945999553e-01
-2.050212469872840781e-01
-2.191386502104644141e-01
-2.291988080322830967e-01
-2.348776724626815415e-01
-2.359189364800265976e-01
-2.328270148241968207e-01
-2.250874950816432185e-01
-2.133825416695259158e-01
-1.977128623405213226e-01
-1.783758988836650627e-01
-1.561301130371689494e-01
-1.309902011807312361e-01
-1.038578701344849420e-01
-7.504466831124645410e-02
-4.515009569127066691e-02
-1.485222691555372621e-02
1.541388597080695089e-02
4.503605646373554094e-02
7.350163254614716646e-02
1.003273475873331932e-01
1.251511183043163555e-01
1.473856631095649128e-01
1.670367334870181963e-01
1.835055328486079329e-01
1.967135038349711040e-01
2.066372271890870582e-01
2.127886889294728912e-01
2.157597574014428199e-01
2.149829824774550646e-01
2.108041962429370031e-01
2.034210623594876477e-01
1.926116367841689270e-01
1.792314652187034785e-01
1.629168235672976417e-01
1.442368424854389430e-01
1.234972433652608004e-01
1.008145980734812541e-01
7.689145131897942576e-02
5.178537726233591737e-02
2.600274423212713126e-02
-7.488388688081659694e-05
-2.604508750632689162e-02
-5.159928434859056834e-02
-7.618489118851912156e-02
-9.957675887452888119e-02
-1.213195126266147783e-01
-1.409274812314146308e-01
-1.584525118341176819e-01
-1.730884836025931017e-01
-1.849761029759332542e-01
-1.936701305291487207e-01
-1.988722480115759916e-01
-2.008965422650882404e-01
-1.990836663623011260e-01
-1.939211395251554393e-01
-1.851650482346411941e-01
-1.729122839208947493e-01
-1.576480258886803210e-01
-1.392086089623858491e-01
-1.182743455960763579e-01
-9.497822753462695222e-02
-6.979263333826496440e-02
-4.325289204883183553e-02
-1.575944773057358708e-02
1.211813586054030778e-02
3.986548143497739560e-02
6.692368351530625370e-02
9.287393792078213473e-02
1.170043715257813588e-01
1.391748382157053654e-01
1.586660136075892513e-01
1.752026193839077983e-01
1.886075729381452293e-01
1.982474860797086569e-01
2.045270606416406123e-01
2.067822558729563998e-01
2.052196023293875737e-01
1.999269857755612279e-01
1.906589240811996100e-01
1.781883325348619929e-01
1.621678799376897184e-01
1.431946729055177669e-01
1.215743517395500850e-01
9.756019583536013062e-02
7.188337254568719081e-02
4.473884515999704270e-02
1.677994528813182493e-02
-1.153893589836978151e-02
-3.963886974993055534e-02
-6.709747079535809122e-02
-9.326478010474463509e-02
-1.177777174521962150e-01
-1.401312350208088475e-01
-1.597684269355918452e-01
-1.766794881343675683e-01
-1.900889143663336278e-01
-2.001407031704174611e-01
-2.064307947461016535e-01
-2.087566342274935205e-01
-2.074804336985448527e-01
-2.020862388307358426e-01
-1.931887563262027763e-01
-1.806375450759191703e-01
-1.646936358915896681e-01
-1.459208101380146949e-01
-1.242886739677477870e-01
-1.005763997067605220e-01
-7.496745544311811393e-02
-4.800680323516642867e-02
-2.023544038124536204e-02
7.916756777562317104e-03
3.592417330545510934e-02
6.328235751908972695e-02
8.950355069032195354e-02
1.142344303730490340e-01
1.368049928953187222e-01
1.572343808490169192e-01
1.747960121372959530e-01
1.893477835648573748e-01
2.007672422127091960e-01
2.084353313651043926e-01
2.129195479559557180e-01
2.134650685215030153e-01
2.103610474801154151e-01
2.036853346119974206e-01
1.931430124142513305e-01
1.795513237812567386e-01
1.624627752171950712e-01
1.424546365529330560e-01
1.197933828149868041e-01
9.465320946441635463e-02
6.773630062047908407e-02
3.919630182955868847e-02
9.621614972853187453e-03
-2.052310606903817725e-02
-5.069784992891734898e-02
-8.049027421156818018e-02
-1.091933103463320620e-01
-1.364811470472973021e-01
-1.617466084166488960e-01
-1.843928624585664533e-01
-2.043639346081198571e-01
-2.207391073615514454e-01
-2.336557680774675738e-01
-2.425470001181899149e-01
-2.471263279540778235e-01
-2.476911177041261902e-01
-2.435726797416744027e-01
-2.353904269175022268e-01
-2.228658563651506053e-01
-2.062184536353579845e-01
-1.860183258136720863e-01
-1.621667658597808481e-01
-1.355299404815623610e-01
-1.062814689495851783e-01
-7.501523501179785391e-02
-4.240223486525829255e-02
-8.902653843685326418e-03
2.479099000737561287e-02
5.807161177144321007e-02
9.036351805473669119e-02
1.211045075279617023e-01
1.495745089938037009e-01
1.756427026507144107e-01
1.984536254886739570e-01
2.178537117435723203e-01
2.335455333381374343e-01
2.449350626176673151e-01
2.525785526135658765e-01
2.556397853782754193e-01
2.545409973653968150e-01
2.492912400421538055e-01
2.397126368084185333e-01
2.267049028504707353e-01
2.098189568532258797e-01
1.898163431285776470e-01
1.669577408382564299e-01
1.414763153139061980e-01
1.142281939394788060e-01
8.526909102858770684e-02
5.530803199837036610e-02
2.478723591715387142e-02
-5.857409461605816992e-03
-3.608238866406218714e-02
-6.539900633894410453e-02
-9.348543742020865022e-02
-1.197720670677735744e-01
-1.438869772686650617e-01
-1.656764110561786962e-01
-1.844382993576422769e-01
-2.003822224761091786e-01
-2.129051711418224468e-01
-2.219113353859159810e-01
-2.275859936037036013e-01
-2.293113470233520412e-01
-2.277563417848968985e-01
-2.224503245634834592e-01
-2.136431844988165019e-01
-2.017497131343383154e-01
-1.864824607305813342e-01
-1.687016277514462592e-01
-1.482417166777775519e-01
-1.255726159916393248e-01
-1.011946056666931937e-01
-7.522963105299801390e-02
-4.835294553497065939e-02
-2.080724132937661341e-02
6.977071315899641135e-03
3.454017919820828730e-02
6.143713515772519784e-02
8.747842695077701070e-02
1.120031131292883453e-01
1.348561531140773928e-01
1.556687768372394531e-01
1.738757263064208969e-01
1.897889207025915681e-01
2.025048469378953886e-01
2.122226655270620377e-01
2.186759219119861486e-01
2.214426660213013598e-01
2.210914734126329662e-01
2.168618061835216326e-01
2.092260758035976997e-01
1.980898752068121493e-01
1.833930858376410789e-01
1.657520961473571419e-01
1.449169395708631847e-01
1.214886155198369178e-01
9.568412535865361557e-02
6.787512591825328734e-02
3.861024696523496225e-02
8.308536704467517353e-03
-2.251171286833675289e-02
-5.326340275355945231e-02
-8.333619025901861654e-02
-1.123353387384764535e-01
-1.393863244982784799e-01
-1.643088285583087504e-01
-1.863068263473999231e-01
-2.049290292250540713e-01
-2.200340790116517287e-01
-2.307896956217000417e-01
-2.375215153866885309e-01
-2.395682244760626300e-01
-2.369908095712603968e-01
-2.299734120116855296e-01
-2.182135009418605387e-01
-2.024718499765973956e-01
-1.825630671325077503e-01
-1.591016301016526802e-01
-1.325608374036240100e-01
-1.033324157201438998e-01
-7.225632016109539979e-02
-3.975021337470907579e-02
-6.627810029813663295e-03
2.651891499796810159e-02
5.886597572638896381e-02
8.995907058392227373e-02
1.189386774572923633e-01
1.453189858588241901e-01
1.686043629192621740e-01
1.880675589778225687e-01
2.038275268380521643e-01
2.150330642886385535e-01
2.218405807146986986e-01
2.240112896282503430e-01
2.213523825294863023e-01
2.144344725490033854e-01
2.028494853804382880e-01
1.873198090910678792e-01
1.679330459726312563e-01
1.451210381291331286e-01
1.196040390339806470e-01
9.160082469594083010e-02
6.199649117635042117e-02
3.118956026028250200e-02
-4.182749977263422458e-05
-3.113533944857131003e-02
-6.138188748225140851e-02
-9.022975152131904042e-02
-1.170763070780027892e-01
-1.412688977462019380e-01
-1.625970121573719340e-01
-1.802433723611178429e-01
-1.943134732368090867e-01
-2.042020036874529210e-01
-2.097713145467658691e-01
-2.111942016217991103e-01
-2.079616924556740576e-01
-2.007950589220044990e-01
-1.893165317850795115e-01
-1.739674240208232969e-01
-1.551776453165860381e-01
-1.329715926880027932e-01
-1.082821426837918266e-01
-8.113739652637722011e-02
-5.226683682720149882e-02
-2.216810187131967869e-02
8.645170006021357656e-03
3.955647517860339663e-02
7.004998818191765508e-02
9.955012162966571376e-02
1.276223626520924248e-01
1.535225319119940812e-01
1.772359776292685984e-01
1.978726984445390302e-01
2.153186682092338156e-01
2.292482655419673387e-01
2.390438203309585563e-01
2.451708637720928508e-01
2.467474599742719710e-01
2.441521156196252429e-01
2.372293515799633046e-01
2.257839825925000432e-01
2.105134973720436675e-01
1.909825515292031262e-01
1.678954218487813677e-01
1.414061866783453414e-01
1.118499516576577923e-01
7.994475649801077721e-02
4.596303230825524860e-02
1.062922603357897844e-02
-2.549358707870033602e-02
-6.172962546881653745e-02
-9.750264727851284952e-02
-1.319517028319021346e-01
-1.646951691316708155e-01
-1.948625112974316786e-01
-2.218678080281986653e-01
-2.454217938010543332e-01
-2.645432222552195345e-01
-2.794609277087658494e-01
-2.893204708887469057e-01
-2.940509500686367406e-01
-2.937563850449693703e-01
-2.878766451129085024e-01
-2.772450501630820408e-01
-2.614045221581274836e-01
-2.409161210407716469e-01
-2.162603172570383148e-01
-1.875671856629947953e-01
-1.559140229603572791e-01
-1.214576555953719161e-01
-8.507295823864666207e-02
-4.744677437541122700e-02
-9.247490079726278234e-03
2.876172725062720037e-02
6.585193399581774909e-02
1.013956113962375116e-01
1.347291805944791920e-01
1.651085802714024053e-01
1.924060087176451272e-01
2.156686168614385113e-01
2.349134575925599100e-01
2.496707216264694162e-01
2.595681684594518535e-01
2.650596770007485614e-01
2.654010360304590588e-01
2.612575418909044433e-01
2.524375962900082815e-01
2.391150331481600722e-01
2.220424228342433581e-01
2.009724441780386117e-01
1.768805828135742164e-01
1.498970316254133461e-01
1.206000641220567049e-01
8.972923007873689905e-02
5.758539774352350316e-02
2.498011613082185001e-02
-7.633395739414960968e-03
-3.962529957374866241e-02
-7.048277433388799862e-02
-9.955411818493879739e-02
-1.265751155285455565e-01
-1.508631791532208388e-01
-1.721093757484211395e-01
-1.901188906395788747e-01
-2.042288410722893910e-01
-2.148492404106107645e-01
-2.212670037936962930e-01
-2.236866007714980453e-01
-2.222226697264826356e-01
-2.165034401687835341e-01
-2.074337273044393193e-01
-1.945089905697832133e-01
-1.783532732728611014e-01
-1.593084590209046247e-01
-1.374102986136687132e-01
-1.136489285354025380e-01
-8.791086855503960074e-02
-6.090674877327845183e-02
-3.308566610122276597e-02
-4.805488920132994224e-03
2.332497672880690098e-02
5.093754572824496507e-02
7.762319654197652463e-02
1.029273721729596774e-01
1.264140380180178158e-01
1.479958717985874195e-01
1.670052146264808246e-01
1.835150267983274575e-01
1.971246286056196617e-01
2.075399019897783137e-01
2.150958576966976454e-01
2.190888999725979502e-01
2.200133229173309724e-01
2.175729943596562410e-01
2.117257819881717684e-01
2.030111053854952441e-01
1.909520055366021873e-01
1.762340935846901102e-01
1.587615085032849094e-01
1.387395921382115205e-01
1.167260328239476952e-01
9.266373367827425434e-02
6.715899616677553641e-02
4.044334431255058870e-02
1.286688073781692282e-02
-1.508441907906455520e-02
-4.301430437679895635e-02
-7.061660613367853889e-02
-9.728274082331039851e-02
-1.227028387516312519e-01
-1.465027809258040437e-01
-1.680129406976331174e-01
-1.873565841820112321e-01
-2.036829616104934848e-01
-2.169366285529945038e-01
-2.269189833528334477e-01
-2.330259219489315969e-01
-2.358215610588640654e-01
-2.345292199019797519e-01
-2.294823371151253066e-01
-2.207469938119825947e-01
-2.081186244396082685e-01
-1.924014143681331002e-01
-1.732749082703559929e-01
-1.513602131159800246e-01
-1.270081938184660086e-01
-1.004909475712618683e-01
-7.254006680158175957e-02
-4.342862274517647614e-02
-1.374687612873665143e-02
1.596625185251815404e-02
4.519667270204918985e-02
7.352698144251314238e-02
1.002877978532323439e-01
1.252519804985927077e-01
1.478414887733978667e-01
1.676444586838494732e-01
1.846573098435673188e-01
1.981404657170174333e-01
2.083853535651351840e-01
2.149126485225357208e-01
2.176551828466877780e-01
2.169486568663482884e-01
2.122849936704400142e-01
2.043633295699635311e-01
1.929214974068478305e-01
1.782636763750197473e-01
1.608948548130159917e-01
1.407141266967324722e-01
1.185187061663084129e-01
9.436663717042682864e-02
6.875769172130241635e-02
4.220575405255598544e-02
1.501944277201388081e-02
-1.225957632084345196e-02
-3.920574185317009935e-02
-6.540292207160017246e-02
-9.043620367759580558e-02
-1.137509945521856247e-01
-1.353104910806781636e-01
-1.543912466946030237e-01
-1.709080508681738997e-01
-1.846118892607802320e-01
-1.949590913024903116e-01
-2.024599121770769838e-01
-2.063027422496009899e-01
-2.068262556943921138e-01
-2.039907698639632505e-01
-1.975295011690922919e-01
-1.882180010233501788e-01
-1.755360499118603923e-01
-1.600882436748052862e-01
-1.420500770002035007e-01
-1.215068703062218702e-01
-9.920237428911654609e-02
-7.508343429012384607e-02
-4.973153417616116290e-02
-2.350149149921437752e-02
3.276800476064684053e-03
3.013960596327808217e-02
5.667358195110001884e-02
8.260539499286122245e-02
1.074358090505543595e-01
1.307784761643884519e-01
1.525327441809586904e-01
1.719584604296218455e-01
1.892221546926938502e-01
2.037223550675803518e-01
2.151960142188404090e-01
2.238289588140503494e-01
2.288139525566351140e-01
2.306944339501780794e-01
2.288939131895613710e-01
2.233998234999256538e-01
2.145601869613473767e-01
2.018377790829207763e-01
1.859501440625847546e-01
1.666031384430174955e-01
1.440771898738847090e-01
1.188228896200045764e-01
9.086775917693662441e-02
6.084986653494051101e-02
2.904888774260802262e-02
-4.054720104822891191e-03
-3.791271545619254169e-02
-7.187291539265731888e-02
-1.056321159411809651e-01
-1.382444222111522958e-01
-1.692958558831783034e-01
-1.982104836011483462e-01
-2.240328160057154794e-01
-2.469302910999586764e-01
-2.656409394277965408e-01
-2.801394564369309448e-01
-2.900179703477042126e-01
-2.945780601251626329e-01
-2.944272708669234961e-01
-2.886269332218976413e-01
-2.776976259413939663e-01
-2.616225560476493905e-01
-2.403656399181907655e-01
-2.148241496182918819e-01
-1.848270638201309768e-01
-1.512691254495861504e-01
-1.146069630549112484e-01
-7.543495839017133608e-02
-3.464225485710531460e-02
7.156046790301323623e-03
4.916428498462177554e-02
9.056438847216892463e-02
1.305656239207170222e-01
1.685951600019165442e-01
2.036164099726906207e-01
2.354218849583798456e-01
2.630718371105954523e-01
2.861174243813019435e-01
3.044646152449821952e-01
3.171781681901542083e-01
3.248356004366490524e-01
3.266625630855005680e-01
3.228594857974875776e-01
3.137757341572281478e-01
2.989907773212758801e-01
2.796326326528281170e-01
2.553503490966314571e-01
2.268880175057701454e-01
1.948683481987377730e-01
1.595109198907140868e-01
1.219566348455871641e-01
8.244611490495495909e-02
4.183553804176798341e-02
8.392442300759195284e-04
-3.986045307547772532e-02
-7.964242076871687337e-02
-1.176740655525810031e-01
-1.534849836324063688e-01
-1.864099842709136812e-01
-2.157183634281342466e-01
-2.414682856460161897e-01
-2.625839164646334156e-01
-2.792490645483493017e-01
-2.909770305321945916e-01
-2.974129721311068453e-01
-2.991416860741164530e-01
-2.953511674195123948e-01
-2.868189706671377404e-01
-2.733737929526570687e-01
-2.552362578966782536e-01
-2.332337029168126963e-01
-2.071797758141118995e-01
-1.780952202161369402e-01
-1.462123807986312196e-01
-1.121847195094713007e-01
-7.677874647632579319e-02
-4.046148749042310921e-02
-4.006650164421407534e-03
3.198099554088514040e-02
6.681690856324055960e-02
1.000107427770758617e-01
1.307323902409837368e-01
1.588273593053143584e-01
1.834736439322803836e-01
2.043655405443468021e-01
2.213520637025380156e-01
2.336727481291448472e-01
2.418546958956411252e-01
2.451199778680401009e-01
2.437398425493889631e-01
2.378635388559055541e-01
2.271780902403987834e-01
2.126428806486157785e-01
1.938396486120985973e-01
1.715114813480965172e-01
1.460414735507389317e-01
1.177107155149021422e-01
8.747897863942721841e-02
5.551591583508402872e-02
2.266968045042661029e-02
-1.052723062239996343e-02
-4.337128724136407598e-02
-7.531972766838629374e-02
-1.056409640102535241e-01
-1.338368502101462965e-01
-1.593634817836211415e-01
-1.815366184963723151e-01
-2.003708061948633601e-01
-2.149902708776896820e-01
-2.255298468411089385e-01
-2.316251481586263372e-01
-2.330257125101747040e-01
-2.302603276810750443e-01
-2.227609000894286151e-01
-2.112719252174423135e-01
-1.957531715970178554e-01
-1.765011167420300620e-01
-1.543315748608331539e-01
-1.291868334256320305e-01
-1.020482254816976742e-01
-7.319147900685707420e-02
-4.319549653102028319e-02
-1.280935592153353841e-02
1.762937484531690302e-02
4.744912117427302345e-02
7.618737637649841687e-02
1.034147806413771020e-01
1.287372732241238715e-01
1.516695655236044993e-01
1.722216360305141025e-01
1.898405121504596060e-01
2.045048588646458110e-01
2.162038492323871686e-01
2.244633116700705255e-01
2.299295367847892235e-01
2.319777421597432887e-01
2.309377906107075717e-01
2.270007234973028254e-01
2.197722434708474781e-01
2.101708024411687858e-01
1.975979836607448248e-01
1.825126459319938443e-01
1.651648907098436370e-01
1.453549441419734189e-01
1.238460874895323527e-01
1.003818601593542970e-01
7.534989066202402164e-02
4.909598957726357682e-02
2.174116263119268977e-02
-6.283343965109711160e-03
-3.462687141821982340e-02
-6.306239242492889252e-02
-9.104555763641819510e-02
-1.181549466967547757e-01
-1.442343292330842686e-01
-1.684176145717275197e-01
-1.907042211839465318e-01
-2.104125417811955057e-01
-2.270678033020880893e-01
-2.407795700560258489e-01
-2.505785375215028865e-01
-2.568102889524911947e-01
-2.589267908488056547e-01
-2.567476719546326058e-01
-2.506957161169074966e-01
-2.401777665308539866e-01
-2.259079548885822297e-01
-2.077450385242458064e-01
-1.859612352273951608e-01
-1.612335643417956432e-01
-1.335713503176233496e-01
-1.038110976802910090e-01
-7.228653199495524428e-02
-3.952642825329905074e-02
-6.227632325601299701e-03
2.712267776809118569e-02
6.001536842631167989e-02
9.176407478251438765e-02
1.219857155430354723e-01
1.502115205712454271e-01
1.757692800109155185e-01
1.988161204581723740e-01
2.184624797952411379e-01
2.347567824421190608e-01
2.475246962018379238e-01
2.561565237481530088e-01
2.614508437550618902e-01
2.624575898214318581e-01
2.596569519154565686e-01
2.530897343052596060e-01
2.424209367067741150e-01
2.286123696084016443e-01
2.110357449469471014e-01
1.903409095708104570e-01
1.667396809121560741e-01
1.402644442384433643e-01
1.117073831585085331e-01
8.102500265589823725e-02
4.878490175491245751e-02
1.543420414389690132e-02
-1.864522963405157441e-02
-5.295616003177305853e-02
-8.687972704546015335e-02
-1.201185862096980500e-01
-1.519436603575614331e-01
-1.818126462348891303e-01
-2.095143326980248299e-01
-2.340194933809874311e-01
-2.554351859417303694e-01
-2.729044083596515180e-01
-2.860671258849412091e-01
-2.950056359163512609e-01
-2.988014605767385645e-01
-2.980324322856088837e-01
-2.920748741745602950e-01
-2.810619038612562348e-01
-2.654177017346875944e-01
-2.448247016220498062e-01
-2.202307597152981522e-01
-1.915881160889684187e-01
-1.595375339887264987e-01
-1.248039091063118805e-01
-8.778541344691626058e-02
-4.944043132509440275e-02
-1.035095230659976995e-02
2.872544314365949036e-02
6.699332203863139767e-02
1.036843977707640474e-01
1.383365399732721657e-01
1.700058969155609501e-01
1.983793690774482421e-01
2.228931199757914206e-01
2.429494652494201823e-01
2.588462167030086691e-01
2.697018438173038879e-01
2.759338446619161722e-01
2.773637102139984156e-01
2.738976864915816378e-01
2.663916707941092477e-01
2.543472122860466755e-01
2.386977706987901682e-01
2.195849005561438805e-01
1.973372657212197345e-01
1.729259564238836144e-01
1.462673359482736801e-01
1.182945279022572654e-01
8.932374003124146644e-02
5.978303682958471810e-02
3.036669231258827539e-02
1.302505276209189877e-03
-2.693205736475531853e-02
-5.390889887634264799e-02
-7.938217000920258504e-02
-1.030597601453536183e-01
-1.245195163438782560e-01
-1.438934979336219944e-01
-1.606350782639142660e-01
-1.747832340006120755e-01
-1.863562089811405253e-01
-1.948588685166274259e-01
-2.009033791560226323e-01
-2.038732884586650917e-01
-2.040441252207112477e-01
-2.016116034840525206e-01
-1.961506603161943807e-01
-1.884928505223077422e-01
-1.781158006787427195e-01
-1.654164888832450053e-01
-1.507016444870871164e-01
-1.337540515029423949e-01
-1.153562375098479142e-01
-9.528826563293021912e-02
-7.392951918403825595e-02
-5.167156059916662436e-02
-2.856913196618017514e-02
-5.114288483338870483e-03
1.847478203683837472e-02
4.198873359953886331e-02
6.499265364087654373e-02
8.721811414961816444e-02
1.085741241188755979e-01
1.284538416691023421e-01
1.469143788155956309e-01
1.635313802307663822e-01
1.779630390569000020e-01
1.904607546003784790e-01
2.002454616539108279e-01
2.076391792697652172e-01
2.122918671342891861e-01
2.139399041966867643e-01
2.130519747174060008e-01
2.089411572611709067e-01
2.021133139545421287e-01
1.923819539070169005e-01
1.796779962066406555e-01
1.645487074360932056e-01
1.466485565068974817e-01
1.265200166657584058e-01
1.042570869912089471e-01
8.002023683844511348e-02
5.433601429605025568e-02
2.735193961550889952e-02
-5.298854496560562177e-04
-2.883961705310148643e-02
-5.727103242040416237e-02
-8.537721079767235377e-02
-1.125590417222973871e-01
-1.387291150218521452e-01
-1.630738413002548182e-01
-1.853453541726286513e-01
-2.052417713001650768e-01
-2.219771053180475129e-01
-2.358972719742481461e-01
-2.460676224972457304e-01
-2.525325480172095904e-01
-2.552245701531457578e-01
-2.535546824497377782e-01
-2.482756683052392832e-01
-2.386858799082488547e-01
-2.252186567273338491e-01
-2.081014108756542857e-01
-1.872513970250853366e-01
-1.635147390476139606e-01
-1.367981223113953759e-01
-1.077275574205054792e-01
-7.678877576378524694e-02
-4.439262628174838604e-02
-1.116521565730791733e-02
2.234291595607122011e-02
5.565322940468633850e-02
8.812467691172576334e-02
1.191272146652193747e-01
1.484373737193519227e-01
1.751021391849420794e-01
1.990754958946694686e-01
2.196872315098137574e-01
2.364493176174854994e-01
2.495532441598455886e-01
2.580442058018558860e-01
2.624027547614252720e-01
2.621051290586514093e-01
2.570869856044776802e-01
2.478491414748234256e-01
2.338488907127710126e-01
2.159413663573033493e-01
1.939597268802589203e-01
1.683143216311163148e-01
1.396605647986166043e-01
1.081013169583133759e-01
7.451405722255785569e-02
3.924243796909526738e-02
2.946231325271886359e-03
-3.372184929552302091e-02
-7.008741052008138350e-02
-1.056596480638792857e-01
-1.396058271857429367e-01
-1.714177594114362213e-01
-2.005955016998897666e-01
-2.262501517204207890e-01
-2.485609032855155276e-01
-2.664503592025500023e-01
-2.799206366465851747e-01
-2.887523763836686852e-01
-2.923077459281517299e-01
-2.913914223165176565e-01
-2.851176823745861788e-01
-2.740764656403862909e-01
-2.584003527696943081e-01
-2.380210635038618738e-01
-2.139895883464255077e-01
-1.860393089960619417e-01
-1.550614019217539385e-01
-1.215157159508213069e-01
-8.584124636739814962e-02
-4.895769962804780162e-02
-1.125025708322263673e-02
2.654672163852989097e-02
6.376224386255396892e-02
9.979999791671365084e-02
1.341491980058275857e-01
1.660310311044707610e-01
1.952544822527650381e-01
2.210920076050448824e-01
2.431878823488948793e-01
2.615021686352557162e-01
2.752539218450633651e-01
2.848927118098220079e-01
2.898066444016353937e-01
2.901051825980527354e-01
2.860988459666427008e-01
2.773584028128839307e-01
2.647486726539305391e-01
2.479637957494786882e-01
2.275328023353260787e-01
2.039446304448481184e-01
1.773028680075279528e-01
1.484878869263572265e-01
1.176714710179422724e-01
8.553856189016535716e-02
5.264168243328974650e-02
1.955192823467719054e-02
-1.320118388329497017e-02
-4.493653102757316775e-02
-7.517213784449150449e-02
-1.033743508665208588e-01
-1.288271967029323561e-01
-1.515558201780002612e-01
-1.706068590370364568e-01
-1.860067856547856779e-01
-1.973659241263137354e-01
-2.043025035279566748e-01
-2.072713951809558308e-01
-2.055955368998838018e-01
-1.998506227842890004e-01
-1.899334195623970378e-01
-1.760828828230057985e-01
-1.589514968791068406e-01
-1.385075973563653640e-01
-1.156282417435181564e-01
-9.054894522795861600e-02
-6.401607511643805926e-02
-3.660645625888800381e-02
-8.897394281241130520e-03
1.837495942301364121e-02
4.473617529153393196e-02
6.937899819452919559e-02
9.201598042643582831e-02
1.118480293158127525e-01
1.286629111751990684e-01
1.419588587762808662e-01
1.513534984173303399e-01
1.569154143144923241e-01
1.581137246268228269e-01
1.553560905964367911e-01
1.483581441869066542e-01
1.373921598130299349e-01
1.228127563003246769e-01
1.046783548890629911e-01
8.377810690921590198e-02
6.022509400091263787e-02
3.478378698430298344e-02
7.940053080600611990e-03
-1.969362016563121209e-02
-4.739621533970550527e-02
-7.466413073595914995e-02
-1.007138889687111405e-01
-1.251230045356802600e-01
-1.471071423415162838e-01
-1.664244387640602674e-01
-1.824137412860163954e-01
-1.947622978481356459e-01
-2.032775143626920356e-01
-2.075049241081334261e-01
-2.077645689393477491e-01
-2.036298505671011450e-01
-1.954304529147490310e-01
-1.832790968089332007e-01
-1.673405319661824819e-01
-1.482377422018183455e-01
-1.260789834160771228e-01
-1.015900607944527634e-01
-7.515360826954506357e-02
-4.742379977049654416e-02
-1.899967658011281202e-02
9.530320116514556794e-03
3.749813308192423422e-02
6.436903810696481543e-02
8.943514836180721517e-02
1.123454020467661296e-01
1.323840122474174708e-01
1.493230496508805016e-01
1.626657223040682831e-01
1.721266552581637299e-01
1.776756440149546701e-01
1.789382411032775511e-01
1.762452413485359748e-01
1.693805679159587907e-01
1.587175401849715006e-01
1.445100610744943503e-01
1.270230165724319793e-01
1.069456551328711036e-01
8.450753657368671734e-02
6.056228154977619932e-02
3.551959784514491236e-02
1.017645732281008408e-02
-1.483935258853075201e-02
-3.892861273753128737e-02
-6.127641888771434564e-02
-8.152457916028899021e-02
-9.883556208063926096e-02
-1.130502914996338593e-01
-1.235404837977406300e-01
-1.300683985289460276e-01
-1.325384519562513574e-01
-1.306330823988722245e-01
-1.247778246303823391e-01
-1.147217867969730909e-01
-1.009664087672016430e-01
-8.374855377518061750e-02
-6.349633324849682237e-02
-4.090164170007037914e-02
-1.630453323320929515e-02
9.418133516363572100e-03
3.582596286817966991e-02
6.205400007342884439e-02
8.755379389930013911e-02
1.116335841483692276e-01
1.336214348744545199e-01
1.531056931450336389e-01
1.693657506200898777e-01
1.822759199703795630e-01
1.912449636501543648e-01
1.962094924059072376e-01
1.969874955818559648e-01
1.934466973571251636e-01
1.858893511860995051e-01
1.741951452377630272e-01
1.588884373760300339e-01
1.401179704238979529e-01
1.183765416112947944e-01
9.419557449173326935e-02
6.800775490749635943e-02
4.054638323938120070e-02
1.227817312742346401e-02
-1.603688029316419073e-02
-4.388053873135086547e-02
-7.051876322369315941e-02
-9.547924865582316234e-02
-1.181317147760340414e-01
-1.379690218393035683e-01
-1.546752064131583504e-01
-1.676730356780103404e-01
-1.770323175941428961e-01
-1.822445629595997874e-01
-1.834127707505498750e-01
-1.805179836454624820e-01
-1.735317682792937022e-01
-1.629921526873434334e-01
-1.488050392204691708e-01
-1.316401072387809179e-01
-1.117516629444402498e-01
-8.973394716032867535e-02
-6.618921976888025860e-02
-4.157465962244713542e-02
-1.668946535771123618e-02
8.076153867761892702e-03
3.184581914943529490e-02
5.433069027247072746e-02
7.475374782648250283e-02
9.269698485786126430e-02
1.078170306910028742e-01
1.194668604118288013e-01
1.278203708261398397e-01
1.321977114040401025e-01
1.328108074367878311e-01
1.295003300079597131e-01
1.221868713994821720e-01
1.113831432227580381e-01
9.684847920555487988e-02
7.927455975897979013e-02
5.875826906015065021e-02
3.577831794249203279e-02
1.091702583232729076e-02
-1.550886227057766964e-02
-4.275515336386620513e-02
-7.044848918503503199e-02
-9.786339770309820940e-02
-1.245953963772127582e-01
-1.499093416159654468e-01
-1.734648809766944355e-01
-1.946660538051456224e-01
-2.129615122799173865e-01
-2.282646571778564892e-01
-2.397372945384799725e-01
-2.476997772928856145e-01
-2.514881567828399223e-01
-2.510258147872406753e-01
-2.465730038961211901e-01
-2.375222474268167683e-01
-2.247920294329341928e-01
-2.078775624470326489e-01
-1.871943121523640396e-01
-1.632808744345863872e-01
-1.359557678769541256e-01
-1.063301504115436447e-01
-7.429489765325886230e-02
-4.045890695984544205e-02
-5.493593793723855478e-03
3.038760073016505414e-02
6.640469973167033302e-02
1.021504222417209812e-01
1.372448070853433677e-01
1.710239933179094618e-01
2.030875710654237443e-01
2.332331767924847032e-01
2.606566762067528131e-01
2.854524158624092700e-01
3.070242590883322520e-01
3.249843918630345163e-01
3.396640113376050429e-01
3.500736431873231469e-01
3.567613970907567156e-01
3.592232415938036993e-01
3.572147466902804158e-01
3.513679432254228630e-01
3.408092009300260905e-01
3.263216317439413539e-01
3.076138813307507380e-01
2.846710791531312790e-01
2.582187905856758725e-01
2.278591276566678259e-01
1.943442439144432710e-01
1.578523063675755234e-01
1.186281533627996376e-01
7.742192456637564391e-02
3.456186884676859528e-02
-9.464030038823179058e-03
-5.379218962491788547e-02
-9.803499688906092135e-02
-1.414358924792248340e-01
-1.830284215414372251e-01
-2.227921524465077963e-01
-2.592713404117389375e-01
-2.922451746276569784e-01
-3.210734691044644373e-01
-3.446439612635050498e-01
-3.635465520960791119e-01
-3.762322090524490847e-01
-3.830028087964268413e-01
-3.835756919918056340e-01
-3.773874356666580554e-01
-3.654341914788782342e-01
-3.468849555610651336e-01
-3.226000157065724849e-01
-2.928313677255227621e-01
-2.578945149287473759e-01
-2.188895643307112726e-01
-1.760588598483059375e-01
-1.304735613537513217e-01
-8.288276529017846173e-02
-3.423882846784731537e-02
1.462218766722800378e-02
6.259959098062106708e-02
1.089860360984442611e-01
1.527612229756378781e-01
1.929667145807327788e-01
2.292855236245925354e-01
2.603697367818338382e-01
2.863137785015774650e-01
3.061484875170673581e-01
3.195310278735390974e-01
3.266837062850521112e-01
3.267050032450804498e-01
3.205034847313018576e-01
3.075053100136020401e-01
2.882341323959479729e-01
2.632899453088189401e-01
2.326722969245911821e-01
1.976790821296512402e-01
1.584159919487619916e-01
1.160220209041346040e-01
7.126035986735912431e-02
2.502655392088293240e-02
-2.163238870587125273e-02
-6.786784425400238518e-02
-1.125580115244556589e-01
-1.550000544296761262e-01
-1.938994348564679893e-01
-2.290145828097576164e-01
-2.590536934939052793e-01
-2.835955551220776805e-01
-3.022306829690851737e-01
-3.140288585282660083e-01
-3.196678196993985033e-01
-3.180711088891571836e-01
-3.098120576878840571e-01
-2.949464809197201998e-01
-2.734728225964007109e-01
-2.465737138328334133e-01
-2.140268417020712577e-01
-1.770642223100252766e-01
-1.361991389521941542e-01
-9.229675698775652304e-02
-4.646119897207445781e-02
6.072481321633960150e-04
4.776123551345390350e-02
9.421480214184352331e-02
1.388185801166607058e-01
1.810350146713162189e-01
2.196346508669200226e-01
2.542380598669272684e-01
2.840112492649536913e-01
3.081897485286080318e-01
3.269251948741345171e-01
3.390382927757790155e-01
3.451210992851720949e-01
3.445066668220614359e-01
3.371920316224068515e-01
3.238161084402935708e-01
3.037723369508006366e-01
2.782927933860115388e-01
2.471334870474931056e-01
2.109990706185696230e-01
1.707288380297509733e-01
1.265666429211505239e-01
7.975680952834030002e-02
3.073362744893309850e-02
-1.950146755248999275e-02
-7.010849352485981623e-02
-1.200881756724819782e-01
-1.687874319521424082e-01
-2.150340040064789293e-01
-2.581040425984332254e-01
-2.973027295616001986e-01
-3.313557436885288254e-01
-3.605619104354463866e-01
-3.833415893591224366e-01
-3.997404561694628544e-01
-4.094031575107594523e-01
-4.114936309854980157e-01
-4.070817228451276137e-01
-3.949912319506884151e-01
-3.761068577508929756e-01
-3.505993678097263921e-01
-3.184782493739069520e-01
-2.812283280783607897e-01
-2.385780351752611883e-01
-1.918683181903305668e-01
-1.418011333433853438e-01
-8.906903312280520235e-02
-3.504810629524637844e-02
1.966893783103051963e-02
7.400937596555537401e-02
1.269671191158553702e-01
1.777611172282066165e-01
2.256149440385302740e-01
2.695061793260951633e-01
3.092724392834459990e-01
3.438863580079613014e-01
3.730388005809124885e-01
3.967332540956571840e-01
4.139732708503884862e-01
4.256483335859820860e-01
4.308789448766370267e-01
4.299829546720206341e-01
4.235461098838742000e-01
4.108562177083781020e-01
3.934325036283789490e-01
3.706392024306677246e-01
3.431632878018662791e-01
3.118179009150813807e-01
2.762685473998188757e-01
2.379842262409566367e-01
1.967433138263082748e-01
1.531997615784769506e-01
1.081785001146035041e-01
6.176968554470597950e-02
1.486099203773241784e-02
-3.209630120496467787e-02
-7.876879195072952755e-02
-1.243201454830507036e-01
-1.682621012343040456e-01
-2.104446698824853912e-01
-2.496825916377235499e-01
-2.860847387993410429e-01
-3.187975016819028506e-01
-3.471800652051814096e-01
-3.716399063653307855e-01
-3.906982373886672688e-01
-4.049184189332661332e-01
-4.136115114829612693e-01
-4.163559389998217619e-01
-4.139761865821689479e-01
-4.053124980565950830e-01
-3.913430597088337626e-01
-3.718349273244862530e-01
-3.468462823628559732e-01
-3.174983579025615343e-01
-2.833613471082556123e-01
-2.456017348780938636e-01
-2.045803321424259913e-01
-1.607431685631793283e-01
-1.152571502285643923e-01
-6.839815959442993587e-02
-2.105813411308343763e-02
2.594258003348970387e-02
7.217507597180344847e-02
1.167640733854699575e-01
1.590557522922301237e-01
1.988919777162295732e-01
2.352282544353783145e-01
2.680376319745234603e-01
2.969254052651135733e-01
3.211756091703750204e-01
3.414976901336526094e-01
3.567781298155874303e-01
3.674791619745275684e-01
3.736245070944497204e-01
3.745935519298938532e-01
3.716928567668261740e-01
3.638567253594682249e-01
3.518326164032408165e-01
3.358955878824294583e-01
3.156091577433313144e-01
2.923669422115060534e-01
2.654129160671903631e-01
2.354720667862162387e-01
2.030010411594947717e-01
1.678585957684810837e-01
1.310660122391017479e-01
9.254824212808493433e-02
5.276272741974770419e-02
1.239314558130696908e-02
-2.839940966755541418e-02
-6.902536895424332686e-02
-1.088524571529881912e-01
-1.477791766773485505e-01
-1.848899292926982629e-01
-2.198501770744171746e-01
-2.524586897185018830e-01
-2.816371282073463767e-01
-3.076972076145642609e-01
-3.296591802588798581e-01
-3.472758898936402772e-01
-3.607259611598126470e-01
-3.689438518988206184e-01
-3.726859939416528045e-01
-3.712111705452226795e-01
-3.646026084981162096e-01
-3.534293798607059944e-01
-3.370452172857156814e-01
-3.165489644641060751e-01
-2.916851156182437843e-01
-2.628832116240757411e-01
-2.310101749189301668e-01
-1.959624700297883937e-01
-1.588574522270901901e-01
-1.199666201637125118e-01
-7.979271927308567713e-02
-3.926826872844890737e-02
1.337976646021254989e-03
4.133953551046973263e-02
8.006470163893394942e-02
1.173215416635077779e-01
1.523591082561240040e-01
1.847976298497324976e-01
2.147059836404389965e-01
2.411508155714533475e-01
2.644663208539356769e-01
2.841862629246804661e-01
2.999973895779105559e-01
3.126135398361948869e-01
3.210288560587354900e-01
3.259803454101238285e-01
3.272394653944634135e-01
3.245864457452640739e-01
3.190133552735257005e-01
3.096302652199021677e-01
2.972679118478943616e-01
2.818793218932745814e-01
2.633082652920258337e-01
2.424945394025287415e-01
2.188521165431656645e-01
1.930309587278802863e-01
1.652092215943775366e-01
1.353073672615911216e-01
1.040601232820067557e-01
7.137353324155976120e-02
3.758871860437509871e-02
3.232056019245310718e-03
-3.165411186990195469e-02
-6.651851114012655164e-02
-1.008892504391941808e-01
-1.347477484746348320e-01
-1.671727760584135192e-01
-1.980373942229129713e-01
-2.269365662663796468e-01
-2.530087028173509389e-01
-2.765770875865186107e-01
-2.965093612001891143e-01
-3.127797523820295966e-01
-3.252077013999267185e-01
-3.329412759612381256e-01
-3.366959479043455383e-01
-3.355062353672084163e-01
-3.296663837828610610e-01
-3.193676090837039849e-01
-3.041620920389034866e-01
-2.851161460902438272e-01
-2.617789580736030741e-01
-2.347850132221944719e-01
-2.047292381487801904e-01
-1.716892143030492035e-01
-1.367679145434781418e-01
-1.001449226888124489e-01
-6.247623073219465972e-02
-2.456898180964933731e-02
1.322270547998424112e-02
5.018200767670541462e-02
8.570197403962596938e-02
1.195423987674870958e-01
1.509513700571381289e-01
1.796698814776144237e-01
2.055847936547961219e-01
2.279741521363919388e-01
2.472141017986690115e-01
2.627364471047307082e-01
2.745475626582615236e-01
2.830518905182869416e-01
2.875788828605503333e-01
2.889620905844759724e-01
2.867909756308306690e-01
2.812553225685507918e-01
2.729838478326204743e-01
2.614283087723915933e-01
2.475092762521917955e-01
2.309648368929849704e-01
2.120054752395121311e-01
1.912375881273390144e-01
1.683394789820635562e-01
1.439959510520396058e-01
1.182198793394043657e-01
9.115475558758465158e-02
6.332219277011265357e-02
3.476168477424275427e-02
5.771904308303654751e-03
-2.318727498518555891e-02
-5.205406685421518076e-02
-8.034356879950045605e-02
-1.076160162541829335e-01
-1.339812311076092610e-01
-1.585052490060891994e-01
-1.812448297375654493e-01
-2.017558858195652172e-01
-2.193638030483227586e-01
-2.345838023488169000e-01
-2.462398336278646960e-01
-2.546159387722892742e-01
-2.594391533945412109e-01
-2.601687501066350383e-01
-2.575646489766835190e-01
-2.507375141980375810e-01
-2.402243225229172829e-01
-2.260711742761060683e-01
-2.081271733772245003e-01
-1.872692265193882932e-01
-1.631870341052478468e-01
-1.365505411030517036e-01
-1.077473121390240540e-01
-7.701280636714039063e-02
-4.511457375598405817e-02
-1.233826131524546482e-02
2.081124416975162206e-02
5.370871255098136343e-02
8.595732525853584660e-02
1.171324900830971183e-01
1.465312230024037876e-01
1.741156735801994981e-01
1.991492829182737734e-01
2.213402621849924201e-01
2.406933195822624216e-01
2.563301980622451071e-01
2.687781123275530537e-01
2.772838226870648626e-01
2.818113728969918741e-01
2.826994663701748456e-01
2.791398252489425968e-01
2.720621475385986976e-01
2.608291124615874645e-01
2.456682947194507027e-01
2.271024863073107247e-01
2.046376197819777532e-01
1.792920454247672601e-01
1.507809130968947586e-01
1.195025963699163640e-01
8.608683235413476520e-02
5.054083252647624536e-02
1.365006077925201566e-02
-2.426031580664443632e-02
-6.278706192420493992e-02
-1.012100424152162226e-01
-1.390215423905587222e-01
-1.758993023084550467e-01
-2.108663201110466123e-01
-2.437441013098810838e-01
-2.738057657843893100e-01
-3.003425497497763108e-01
-3.235366623774558192e-01
-3.421570631861546863e-01
-3.564516549349896479e-01
-3.658932790568587001e-01
-3.699963263708556660e-01
-3.694169473316363250e-01
-3.631998402345494870e-01
-3.520683732542108091e-01
-3.359012282525479232e-01
-3.146904530868774308e-01
-2.894044943073526555e-01
-2.597000584574475357e-01
-2.265401353606456836e-01
-1.902715537097271481e-01
-1.512738833369449698e-01
-1.105443403154301174e-01
-6.835702057712481072e-02
-2.547973315181370491e-02
1.735305410436371876e-02
5.971379124833720020e-02
1.008332336172904076e-01
1.400608208314939040e-01
1.771957079673814883e-01
2.112640454203783547e-01
2.421348208825091497e-01
2.693738356310249049e-01
2.922855547624162442e-01
3.113349534970538679e-01
3.255128935837687809e-01
3.351484891674795241e-01
3.401321537120459704e-01
3.400333933057055891e-01
3.357922251691415338e-01
3.266502701974742795e-01
3.133246752248249889e-01
2.960008113058162360e-01
2.747034796525344436e-01
2.504636589065205587e-01
2.230737516544484544e-01
1.933529665270676268e-01
1.617496796022004635e-01
1.287031509963337816e-01
9.494049519984588958e-02
6.092012620646281018e-02
2.718785597899564532e-02
-5.620770121755602755e-03
-3.696439828050446241e-02
-6.653520768693932386e-02
-9.351611283993044310e-02
-1.178779968499420461e-01
-1.389493748231641623e-01
-1.564627834165501774e-01
-1.705028082102233444e-01
-1.803499552419334240e-01
-1.865274083197749899e-01
-1.885316116634105921e-01
-1.865976945924205932e-01
-1.810753731934637845e-01
-1.717132015798475964e-01
-1.593682671263711992e-01
-1.438746260685360712e-01
-1.259051807346832641e-01
-1.058866885698062088e-01
-8.413007413923528910e-02
-6.142316557953536593e-02
-3.798220137068281099e-02
-1.458006864134225866e-02
8.463913191678079651e-03
3.048688402595488289e-02
5.115332788545758069e-02
6.996420264874157746e-02
8.644693644248066522e-02
1.004786156311682777e-01
1.114082314186041756e-01
1.194770209289759966e-01
1.241060181991072153e-01
1.253379013539692721e-01
1.232255955328083741e-01
1.174649489286019866e-01
1.086851754743997645e-01
9.651378049211645216e-02
8.145427970420421326e-02
6.370503596805021651e-02
4.350575188000441185e-02
2.148548230749661170e-02
-2.201897367792665650e-03
-2.687651595246404179e-02
-5.219930495634751699e-02
-7.748783319032026551e-02
-1.023604487626779413e-01
-1.261513983318905963e-01
-1.483505975748464767e-01
-1.685383552863109480e-01
-1.859656680951759511e-01
-2.005965215697390613e-01
-2.116246090143352743e-01
-2.189851610986599806e-01
-2.223605961274741638e-01
-2.213881532278946240e-01
-2.163799971964441848e-01
-2.068973101317457264e-01
-1.933828273406364984e-01
-1.758559261490121872e-01
-1.545725404830793626e-01
-1.300926568449576881e-01
-1.026448164733111401e-01
-7.293751970904793769e-02
-4.143322468366766875e-02
-8.822276120576622027e-03
2.428457934893851755e-02
5.712121878266013253e-02
8.914052197612107320e-02
1.195611285450534911e-01
1.477452867780042756e-01
1.732328871647595137e-01
1.951968042428665340e-01
2.135783569997027342e-01
2.275987344470383755e-01
2.371341524634229259e-01
2.420058626684845338e-01
2.418657842501414912e-01
2.371676590218736447e-01
2.275393846972836309e-01
2.135160599061210196e-01
1.952578665049878870e-01
1.731856002402044348e-01
1.479849915208091282e-01
1.199877007670656082e-01
9.011609212615684372e-02
5.884136518904298230e-02
2.715575018490506976e-02
-4.362128900311290636e-03
-3.481057903832046607e-02
-6.341002337976792136e-02
-8.955839433425899498e-02
-1.123358057531498866e-01
-1.314932198354294424e-01
-1.461784877009963401e-01
-1.562337827686120784e-01
-1.612535495807244368e-01
-1.610719549371925907e-01
-1.558520775446118889e-01
-1.454573449467767565e-01
-1.304656215922377072e-01
-1.109562464473510673e-01
-8.773535313533500912e-02
-6.125276143009162483e-02
-3.230540986032671286e-02
-1.826079749835682678e-03
2.960054951488724079e-02
6.064772332354946560e-02
9.087120040253274245e-02
1.189688167900488647e-01
1.442954976669665879e-01
1.660771489168582082e-01
1.833012745920639119e-01
1.958316895765997989e-01
2.026738501387949087e-01
2.039264458697015447e-01
1.991260154667340299e-01
1.882141356556605860e-01
1.715072928073786418e-01
1.489807250691876916e-01
1.214150298181257970e-01
8.906322230798058293e-02
5.281884057284425005e-02
1.336713701716196745e-02
-2.827370733321576957e-02
-7.119339374887156957e-02
-1.143678381156267854e-01
-1.566067060035389868e-01
-1.971388800317910306e-01
-2.345155664543063789e-01
-2.683227729132999784e-01
-2.972336102105954669e-01
-3.206179905096897542e-01
-3.379894489699604154e-01
-3.483889011495554522e-01
-3.521758586803543922e-01
-3.484887698847994875e-01
-3.377119094574541069e-01
-3.199139891265689317e-01
-2.951972242103765298e-01
-2.645338649386652086e-01
-2.280213562853463660e-01
-1.868124202026393288e-01
-1.415594696434223643e-01
-9.326860287444027620e-02
-4.304528786618233571e-02
8.141936657285020473e-03
5.914401095261290209e-02
1.089451179227471922e-01
1.563863326858043745e-01
2.007229288794776245e-01
2.407057101905354379e-01
2.759530259399936014e-01
3.054456481965714953e-01
3.286831573984245747e-01
3.455181963222648811e-01
3.551310738118720334e-01
3.581559875596338482e-01
3.539345913891702722e-01
3.429675042749775749e-01
3.256370179321754765e-01
3.019841589180640717e-01
2.732766557870198731e-01
2.394892849530472212e-01
2.018247262938528408e-01
1.609664655618128215e-01
1.177617272565720796e-01
7.337824944896231827e-02
2.849372152318263574e-02
-1.571534361771176336e-02
-5.851983632638435573e-02
-9.877348754942349984e-02
-1.360300060754582319e-01
-1.691671853267135983e-01
-1.977425451182341920e-01
-2.212077151980538225e-01
-2.388228607161562156e-01
-2.509518630130509464e-01
-2.566494603621849446e-01
-2.564490110382955379e-01
-2.501515227187496304e-01
-2.378676704078532822e-01
-2.204738848030065590e-01
-1.977137645418136636e-01
-1.707740786659426302e-01
-1.398609321091679458e-01
-1.058414726943359696e-01
-6.962156786988327184e-02
-3.172601650500017634e-02
6.698464364453204922e-03
4.511910303566146752e-02
8.245287621826458135e-02
1.181661686013418811e-01
1.512729789424810400e-01
1.812984979682890074e-01
2.075465212568669005e-01
2.293305295203620364e-01
2.466243536227772370e-01
2.584934824014537558e-01
2.653524010254910692e-01
2.665715573148085826e-01
2.622008805872919623e-01
2.526274995309990001e-01
2.374234829087605858e-01
2.176320650086508435e-01
1.929703294757829091e-01
1.641424179116992565e-01
1.317713793232216379e-01
9.612726948964363249e-02
5.832979703556984141e-02
1.867226574615434009e-02
-2.191685785804430367e-02
-6.273790063237623393e-02
-1.029843931063313955e-01
-1.420134416830509672e-01
-1.789438392733537497e-01
-2.131748402891476268e-01
-2.440859036567013529e-01
-2.708177177957702408e-01
-2.934276288785477860e-01
-3.108523000356254729e-01
-3.231834133306844548e-01
-3.300619688749999447e-01
-3.310924921517515163e-01
-3.269343971558449358e-01
-3.169006418040076767e-01
-3.017637780521220670e-01
-2.815730768571267362e-01
-2.565996966655743616e-01
-2.278125870481453319e-01
-1.952092052911640341e-01
-1.598487915640973700e-01
-1.222007949994956544e-01
-8.296246499516568562e-02
-4.303049894957755583e-02
-2.988522922664493819e-03
3.640388749283607339e-02
7.440122107726088174e-02
1.103895836765556027e-01
1.438497716802080717e-01
1.739872938938207270e-01
2.007767382081460106e-01
2.234040169164810408e-01
2.417573770893328700e-01
2.557789954147779987e-01
2.648465389473662057e-01
2.696926966903880896e-01
2.696240519925190426e-01
2.651074816290455161e-01
2.564253068214568110e-01
2.433424764306808541e-01
2.269801277914744730e-01
2.069356607810197701e-01
1.839937728702851771e-01
1.585937036401974254e-01
1.309065435181890891e-01
1.019107636692275776e-01
7.164943786876909471e-02
4.081568494104859113e-02
9.884838535441087259e-03
-2.068562702074627779e-02
-5.047311604568305299e-02
-7.890805000501233124e-02
-1.057232940388441733e-01
-1.304540286580815334e-01
-1.525846303314963848e-01
-1.722804664462413982e-01
-1.886526500838390241e-01
-2.019607128740312785e-01
-2.118027308161538613e-01
-2.178323511581914396e-01
-2.206399061943533635e-01
-2.193610939094348122e-01
-2.146794803637395166e-01
-2.063512051435651973e-01
-1.943306330128267145e-01
-1.793940145775210215e-01
-1.610160165451082204e-01
-1.400334344149797294e-01
-1.164586530224058780e-01
-9.052162169940414227e-02
-6.293331521364375902e-02
-3.367890862298328347e-02
-3.394240771980416849e-03
2.758176102312531741e-02
5.889497841709936954e-02
9.007107989968383965e-02
1.206047416229046321e-01
1.503361268824295327e-01
1.785568985134586839e-01
2.049633110810874514e-01
2.293360093389282817e-01
2.507861561817799068e-01
2.696993201029074250e-01
2.850556814979607889e-01
2.967480437309437669e-01
3.047576541335095257e-01
3.081281751517619405e-01
3.076812373986621552e-01
3.023847846237011083e-01
2.924482146586053766e-01
2.780766396218563585e-01
2.587001811856008970e-01
2.353262964277682556e-01
2.074431735655570819e-01
1.755767504624241582e-01
1.402519939129351911e-01
1.016089452807200644e-01
6.052748941491614687e-02
1.742864627249129938e-02
-2.706252810561693423e-02
-7.208492028397639473e-02
-1.169068668594999139e-01
-1.609591296565078267e-01
-2.030626559732144898e-01
-2.428539708399766184e-01
-2.793233968164150482e-01
-3.116464733446999702e-01
-3.397432455013476016e-01
-3.622553078301322671e-01
-3.794419788145644290e-01
-3.904932180754050464e-01
-3.950598493049941595e-01
-3.936355703343199508e-01
-3.853262216593158485e-01
-3.710947063467298079e-01
-3.506496590826317927e-01
-3.243595976523989677e-01
-2.931656548851373500e-01
-2.569723410810134112e-01
-2.170819214020269783e-01
-1.738289155729306756e-01
-1.280258561281666374e-01
-8.072077069599092880e-02
-3.249068801404852991e-02
1.569637367606890876e-02
6.300242709031778077e-02
1.087695417753078431e-01
1.522063671714102284e-01
1.924672130601159381e-01
2.294796163899412988e-01
2.621047723181222366e-01
2.903183085503493466e-01
3.137373879133491528e-01
3.316198201944455803e-01
3.448696939951076956e-01
3.522456208495730046e-01
3.544192698850903156e-01
3.513507241833730976e-01
3.426577270625816851e-01
3.296669723445144751e-01
3.114548266742879212e-01
2.890267450462223331e-01
2.625942665034270984e-01
2.321890284109733582e-01
1.990239530573557625e-01
1.628033472424799122e-01
1.244347500329245904e-01
8.439369866405721510e-02
4.303408677917408554e-02
1.190694321541840850e-03
-4.071019190959868084e-02
-8.216950675277390204e-02
-1.224082283716958486e-01
-1.609587696060570394e-01
-1.974102027153321615e-01
-2.308145061357782524e-01
-2.612481424795038976e-01
-2.877395331502761167e-01
-3.100007727723204098e-01
-3.280339758210057965e-01
-3.408150809991390418e-01
-3.490302566451113364e-01
-3.518139121461452135e-01
-3.493012496651797250e-01
-3.419059193520723738e-01
-3.289806069907754704e-01
-3.116787185890395051e-01
-2.895627394025517276e-01
-2.631985612658880314e-01
-2.333388118027475144e-01
-1.999019430270916331e-01
-1.641309731059799049e-01
-1.261482178437294266e-01
-8.663675351509958489e-02
-4.646629316233230611e-02
-5.964705774742284916e-03
3.406160449506323573e-02
7.301741401853512059e-02
1.105594129592013530e-01
1.459584145981391856e-01
1.787798010983028263e-01
2.090029687679031412e-01
2.357269570208533338e-01
2.592044755601605743e-01
2.789528828398086802e-01
2.946551337650511471e-01
3.069380554134202299e-01
3.148383185309562293e-01
3.190776331904299212e-01
3.193768452001268798e-01
3.155820315118766928e-01
3.085930881242848756e-01
2.975953681826712938e-01
2.834476321598291548e-01
2.660467319710004830e-01
2.453762373879087022e-01
2.222767459993555406e-01
1.963116082101077353e-01
1.681734574019166928e-01
1.380398442986692231e-01
1.060275131735579635e-01
7.279623016023073490e-02
3.847753715265334051e-02
3.437912774151286044e-03
-3.171590433111148855e-02
-6.676100967913534134e-02
-1.011949374065927998e-01
-1.343292668511955057e-01
-1.661917469917071344e-01
-1.957608849314742550e-01
-2.228479831559571078e-01
-2.471151130664945850e-01
-2.676130967155388451e-01
-2.848200959459541437e-01
-2.975837706957924489e-01
-3.059889953478371893e-01
-3.099821422929194270e-01
-3.088148553352789705e-01
-3.034251095045163993e-01
-2.929592344494489353e-01
-2.779268890527095692e-01
-2.586680862754278110e-01
-2.349651798617777843e-01
-2.080127375095113251e-01
-1.775552428243045711e-01
-1.443647851441731689e-01
-1.090976441432722766e-01
-7.205913279124231963e-02
-3.419555435348797801e-02
4.073264201849724486e-03
4.216858879165030771e-02
7.934346523900615011e-02
1.151070028336214079e-01
1.490742155848927553e-01
1.804372815066024316e-01
2.091645242084574363e-01
2.345961512802823279e-01
2.563804971819756418e-01
2.747359816935315280e-01
2.887581711690145880e-01
2.990087757197166241e-01
3.049666382100113537e-01
3.065550144413009548e-01
3.043698303008852690e-01
2.976513151067194940e-01
2.873034361539055226e-01
2.729896275934251548e-01
2.548854083198861531e-01
2.336956992520811127e-01
2.090276587273578457e-01
1.817807275089649011e-01
1.519525246326978163e-01
1.198761887301174056e-01
8.623717002709696544e-02
5.115246905725712168e-02
1.524595509492598921e-02
-2.099027583113155515e-02
-5.721219159129375953e-02
-9.276693749133713141e-02
-1.270977002242403842e-01
-1.600062750643438392e-01
-1.905445993686996076e-01
-2.184829224745534759e-01
-2.432704767345832408e-01
-2.646662908605605935e-01
-2.825954850314964517e-01
-2.957326910134625564e-01
-3.042125637884218747e-01
-3.082394569282165264e-01
-3.083722406181834685e-01
-3.043968106475674062e-01
-2.945305507906077480e-01
-2.794310857827593253e-01
-2.610667940360578143e-01
-2.412280236558146385e-01
-2.187241457451341020e-01
-1.905003444010762159e-01
-1.577819556514401533e-01
-1.258811202447613908e-01
-9.848966264665115489e-02
-7.159059060360917215e-02
-3.743911050072767921e-02
3.265080044222656852e-03
3.643261385083462756e-02
4.591131927513103506e-02
3.011635930329603639e-02
5.404407026750934762e-03
