BVP Green Neck Signal
-2.877765047102856522e-02
-1.464349107417619103e-02
8.136839561102379714e-03
3.068610971215980296e-02
4.733620052724171745e-02
5.854099753631339387e-02
6.807824664458334007e-02
7.679815995873097434e-02
8.256914971929581182e-02
8.334959225823021511e-02
7.925387879849780937e-02
7.206300746351775033e-02
6.241778903104777676e-02
4.979510491964478369e-02
3.382927246450760650e-02
1.515586078182521237e-02
-5.059559916699636270e-03
-2.604948989159348166e-02
-4.758612094389364638e-02
-6.929231341501014552e-02
-9.038588740955753875e-02
-1.101729133168118102e-01
-1.279960767931037080e-01
-1.435549783456287198e-01
-1.564798083203093326e-01
-1.663421646283624322e-01
-1.730069812065075097e-01
-1.762681634904472161e-01
-1.762019974476743966e-01
-1.728047225231836015e-01
-1.662912098546351636e-01
-1.569520401398677989e-01
-1.450175266401619589e-01
-1.310722705237646890e-01
-1.153617886711213042e-01
-9.848539443455985032e-02
-8.090649602282777575e-02
-6.303446815756323651e-02
-4.549803581764951671e-02
-2.856821600313154408e-02
-1.272020371399396055e-02
1.713101265444279264e-03
1.450688592728195322e-02
2.541215665416125466e-02
3.430081182444812138e-02
4.117552897290252534e-02
4.594926621978111247e-02
4.874808088284149354e-02
4.976265136484740725e-02
4.900841022361117350e-02
4.690952086325295145e-02
4.351371341008920812e-02
3.916974281399517033e-02
3.422488303852216918e-02
2.873655447605292027e-02
2.320143208495510298e-02
1.763699676455661100e-02
1.234799425675961113e-02
7.550801094918294792e-03
3.245595210451743262e-03
-3.045788958013495584e-04
-3.163975160832915856e-03
-5.245512236032959588e-03
-6.545333606014145517e-03
-7.134644742146247984e-03
-7.050497375506128983e-03
-6.373562778083204788e-03
-5.220068315770083275e-03
-3.693040684118676503e-03
-1.879360326344219068e-03
2.882232414689808730e-05
2.017603744160587076e-03
3.906113383575535170e-03
5.628585690171983985e-03
7.139664787498202492e-03
8.281805331990542418e-03
9.121799796311721303e-03
9.540643672106410150e-03
9.570246108948077257e-03
9.211920463031268019e-03
8.437397529248311101e-03
7.336951094059771666e-03
5.885074641289778780e-03
4.178572681395355259e-03
2.222118168839350844e-03
9.387047978296272910e-05
-2.162741605999506794e-03
-4.529828378915039602e-03
-6.910290287434254705e-03
-9.342724520287665549e-03
-1.172237230160175052e-02
-1.407611352699737403e-02
-1.640561119838108289e-02
-1.864931719727743256e-02
-2.088994277513973874e-02
-2.306678041717809269e-02
-2.522982789302767592e-02
-2.742401934709180061e-02
-2.961348869894435409e-02
-3.187876113145254875e-02
-3.421446576982085930e-02
-3.662357137105538840e-02
-3.916853507188725048e-02
-4.180064170499100951e-02
-4.453317820361883672e-02
-4.738962247351426182e-02
-5.026840059720803083e-02
-5.321285905804470917e-02
-5.612834465031878162e-02
-5.893102340979887444e-02
-6.164862539640875161e-02
-6.407799355717226641e-02
-6.624131886875271602e-02
-6.800947466004496345e-02
-6.924521991184934278e-02
-6.998811909782996776e-02
-7.001473358666074343e-02
-6.936492721093100167e-02
-6.793947177194192832e-02
-6.564208991022284223e-02
-6.255729382443253606e-02
-5.855952957387411395e-02
-5.374445038018252352e-02
-4.812419091794822162e-02
-4.171487716715152616e-02
-3.466637774450388731e-02
-2.702445991971285516e-02
-1.892067084678623543e-02
-1.051463742526426506e-02
-1.912166684799560673e-03
6.703033889490117581e-03
1.514525824680999430e-02
2.333944780182273596e-02
3.101820406846380815e-02
3.809596535093048852e-02
4.442563761949779033e-02
4.979746045024679990e-02
5.427306236492106251e-02
5.757927670745482951e-02
5.975251321311372821e-02
6.073876068129614725e-02
6.041369921327267856e-02
5.898366731219362169e-02
5.626114214541681757e-02
5.241965346566583583e-02
4.750680671518842102e-02
4.151290307368431243e-02
3.472439030011126304e-02
2.706709290991871422e-02
1.877199433001801657e-02
9.958237265867517229e-03
6.799989852443316662e-04
-8.792586561626949612e-03
-1.843890684231293264e-02
-2.808686213809219109e-02
-3.757698574906598310e-02
-4.686548479278591223e-02
-5.577020627219891891e-02
-6.420560754622677002e-02
-7.214512024385934252e-02
-7.940524614285443539e-02
-8.600164781056450491e-02
-9.186917886563740476e-02
-9.688030909974261473e-02
-1.011791628383537506e-01
-1.045643617175233131e-01
-1.071123741036807825e-01
-1.088612538950913533e-01
-1.096507071906313996e-01
-1.097492422905018139e-01
-1.089417967734856302e-01
-1.073242316939537616e-01
-1.049925215049001270e-01
-1.017657269856766800e-01
-9.793954737945013977e-02
-9.331448604968060889e-02
-8.795748465897675061e-02
-8.198296925428104343e-02
-7.523742921442069798e-02
-6.793922489654234675e-02
-5.999505126174561886e-02
-5.142501086776840591e-02
-4.237166376294258796e-02
-3.278516578510651258e-02
-2.278227297935786141e-02
-1.247477410285935395e-02
-1.865159725122425560e-03
8.825047831441178853e-03
1.949976113555279902e-02
3.008231440383786828e-02
4.025871905362840564e-02
5.002015836882704736e-02
5.906405769239649051e-02
6.721286981842389263e-02
7.441001858200761709e-02
8.028655809173858293e-02
8.488159767840486314e-02
8.792807488084611323e-02
8.933490252366367568e-02
8.913311165636758626e-02
8.712424723812393912e-02
8.348325845667313450e-02
7.814103565616754843e-02
7.122295916568051333e-02
6.291406517104342067e-02
5.330359507644776007e-02
4.269387457701713517e-02
3.126007736634993373e-02
1.928329179174579841e-02
7.051498872812058533e-03
-5.170365633612152012e-03
-1.710918839969614164e-02
-2.847529321704955763e-02
-3.905987112175341586e-02
-4.861924835801695322e-02
-5.695796572391463586e-02
-6.401135705779943674e-02
-6.955935403253719895e-02
-7.365795120914277183e-02
-7.621168096682429116e-02
-7.725826811481227574e-02
-7.697443339884102453e-02
-7.529854492073533023e-02
-7.254128737210183142e-02
-6.873611115734644395e-02
-6.412700710804088156e-02
-5.897401012592849712e-02
-5.335260049887032008e-02
-4.762678973084080725e-02
-4.186285048300247835e-02
-3.633105110069336646e-02
-3.120144269915542390e-02
-2.657225278914060115e-02
-2.264836135824952607e-02
-1.945397362004040384e-02
-1.711131986169390010e-02
-1.563151927392844587e-02
-1.504112628697442181e-02
-1.531100037794700525e-02
-1.641519822693706179e-02
-1.827583268554227106e-02
-2.080038611799033682e-02
-2.391792201445060856e-02
-2.744923502135516308e-02
-3.134689723196002614e-02
-3.540928059065921035e-02
-3.954248921437027164e-02
-4.361470510136918055e-02
-4.745023246183444066e-02
-5.100660868333880410e-02
-5.409112782313536816e-02
-5.667760407877098228e-02
-5.864129758895218758e-02
-5.992258642680386993e-02
-6.049969453097969740e-02
-6.028894628828138091e-02
-5.934223647382275146e-02
-5.760359492709890561e-02
-5.514526630217661540e-02
-5.198306210465453159e-02
-4.816039925441475966e-02
-4.378183338903730848e-02
-3.888369069119390620e-02
-3.360425994342922801e-02
-2.801200146043039685e-02
-2.221595333493743205e-02
-1.633808823451620221e-02
-1.047439436190436904e-02
-4.738044912871223341e-03
7.580502492875382248e-04
5.931854436270232039e-03
1.067386489332682042e-02
1.490204170649763946e-02
1.857117324184465526e-02
2.157563278629564749e-02
2.391773199927813356e-02
2.552338813209980087e-02
2.639114107584134353e-02
2.653830875374357454e-02
2.593139722189645793e-02
2.465843349839454482e-02
2.270443114122169467e-02
2.016765631999909228e-02
1.710788490694556060e-02
1.359302462605752396e-02
9.754049869540617340e-03
5.646676519961008056e-03
1.421792912943534853e-03
-2.838644442986957422e-03
-7.007127794041632940e-03
-1.097305236500711358e-02
-1.463803575058816170e-02
-1.789421933510926266e-02
-2.066556211576600285e-02
-2.286826392764117546e-02
-2.446852203785038898e-02
-2.539853749432135349e-02
-2.568281402787603307e-02
-2.528797469651110699e-02
-2.427065384953338081e-02
-2.268886169690087148e-02
-2.057295314779102047e-02
-1.808939781601530752e-02
-1.525903288675831485e-02
-1.227959002458467279e-02
-9.248079473426460556e-03
-6.284328294771391807e-03
-3.599279843589445194e-03
-1.227247739293724216e-03
6.078876735801062858e-04
1.862083535561592090e-03
2.419422252047484512e-03
2.164053282188327376e-03
1.115469881526155033e-03
-8.255315914687602619e-04
-3.599914342998649514e-03
-7.205416144181015295e-03
-1.159513097024872895e-02
-1.666337562838068193e-02
-2.232486862468190114e-02
-2.844708938268493068e-02
-3.488669003952858672e-02
-4.149559453400220033e-02
-4.812050462181789723e-02
-5.457054458269955388e-02
-6.073446816126289172e-02
-6.640776536198148006e-02
-7.147901018727294276e-02
-7.582028986437584772e-02
-7.927840629598142952e-02
-8.184128254407022074e-02
-8.335442499389628113e-02
-8.384111927456983082e-02
-8.325121631953626145e-02
-8.156636246628647113e-02
-7.888310264492119639e-02
-7.516777468833983622e-02
-7.057212767287206201e-02
-6.513934110368951869e-02
-5.898005675716608276e-02
-5.225319631331484804e-02
-4.504386110055454140e-02
-3.753861385739243328e-02
-2.985949628552248339e-02
-2.215333364598121371e-02
-1.457968021803000142e-02
-7.277241354353258806e-03
-3.544020385270671425e-04
6.024874079330798382e-03
1.179154117668179333e-02
1.683411304834541225e-02
2.105002908467686409e-02
2.447535664183019335e-02
2.695833307409857896e-02
2.857229544249812250e-02
2.927806127360759250e-02
2.907514352733517674e-02
2.811167834330375107e-02
2.630897847609134713e-02
2.384750621096958303e-02
2.074956136133267529e-02
1.710684944091702894e-02
1.308583616646187900e-02
8.694793924099535748e-03
4.115829915659448973e-03
-5.989665481955612492e-04
-5.336475778360938449e-03
-9.991039351498065199e-03
-1.449936394417671026e-02
-1.877049320562007920e-02
-2.274281884258350442e-02
-2.635060840208840877e-02
-2.956845847652424947e-02
-3.231933898403518968e-02
-3.462817448434174494e-02
-3.642772438974338500e-02
-3.772772281624424406e-02
-3.855072639492483633e-02
-3.884293150533933703e-02
-3.870535576356445157e-02
-3.807583173445637514e-02
-3.702889786335722411e-02
-3.559735690363764749e-02
-3.378142222816395146e-02
-3.169674566788537040e-02
-2.931691208160059486e-02
-2.675008788540040108e-02
-2.402603836488637068e-02
-2.120931361954188354e-02
-1.838027957915018551e-02
-1.557309063679728281e-02
-1.288675219516359841e-02
-1.034792943892596725e-02
-8.057175343033818118e-03
-6.032381562465381417e-03
-4.354442990542706921e-03
-3.070503467005387954e-03
-2.197245309882061431e-03
-1.811675536015168453e-03
-1.870560709043785769e-03
-2.444130187862110504e-03
-3.505006553114201756e-03
-5.042130640168982630e-03
-7.053246368941609029e-03
-9.463382601389460150e-03
-1.226746495647976914e-02
-1.538171116785146120e-02
-1.875813851325060927e-02
-2.231314313099368521e-02
-2.597554394697238270e-02
-2.965984859013743452e-02
-3.327909739376742893e-02
-3.676291132175235621e-02
-3.999958953546438323e-02
-4.295601790752817672e-02
-4.551382466223580225e-02
-4.763985738234518402e-02
-4.927078744503733676e-02
-5.033645320286998792e-02
-5.085730115307821042e-02
-5.074929420507894723e-02
-5.005795122016818560e-02
-4.875898557643899844e-02
-4.686603131659471122e-02
-4.444504568482132018e-02
-4.149423848199867287e-02
-3.811290571534921984e-02
-3.433561918201693403e-02
-3.024654413362470179e-02
-2.592941663597178939e-02
-2.146569392802956736e-02
-1.694531954274382593e-02
-1.245986829805420526e-02
-8.104770466830195016e-03
-3.949486905754313881e-03
-1.161410741432923610e-04
3.377237218144257813e-03
6.406177862865337219e-03
8.930779795075210331e-03
1.091891925338864949e-02
1.226979135421312275e-02
1.306141071977706333e-02
1.317792934938448110e-02
1.266704592986589786e-02
1.154060105374580050e-02
9.770441994006763553e-03
7.482773638823714268e-03
4.628011757798398268e-03
1.310996965204067749e-03
-2.421357809327662897e-03
-6.518570067541537907e-03
-1.086982508011243888e-02
-1.543458771116400924e-02
-2.011261793324389813e-02
-2.483278130901349356e-02
-2.949784389402853799e-02
-3.405608826465343630e-02
-3.838873795640057596e-02
-4.245613653213035910e-02
-4.617078984356676186e-02
-4.943749473195253874e-02
-5.227203810203294443e-02
-5.451977413228449587e-02
-5.622498184416060973e-02
-5.729769666426015595e-02
-5.768884156850118128e-02
-5.746445289020984948e-02
-5.649596593289513136e-02
-5.489763422381642444e-02
-5.260928085159247147e-02
-4.965252939650627306e-02
-4.612369825128222189e-02
-4.197959218630593903e-02
-3.736283654735590709e-02
-3.228488372171167686e-02
-2.682812906845185100e-02
-2.110212292560435104e-02
-1.517056843832237552e-02
-9.144791824938540425e-03
-3.128612944614819757e-03
2.783301105926505592e-03
8.488834253887009296e-03
1.385034995444434439e-02
1.884502180668032670e-02
2.329780825786683870e-02
2.716663269246295462e-02
3.038319145519103801e-02
3.281138559623696105e-02
3.453566204735705747e-02
3.538045147250243327e-02
3.539672693995812858e-02
3.457418262126697728e-02
3.285240883006571022e-02
3.038539783377184125e-02
2.708039239783505484e-02
2.306223595349033220e-02
1.838417295702545959e-02
1.307855959058229836e-02
7.312333988916008831e-03
1.104114492811492793e-03
-5.409660527132331004e-03
-1.212222209734968754e-02
-1.894666672761750187e-02
-2.575000607420887405e-02
-3.242514804725463856e-02
-3.888939369851750205e-02
-4.500124847517900095e-02
-5.068576808278386914e-02
-5.586267065663562403e-02
-6.040306311687650143e-02
-6.431423386719678503e-02
-6.745769955889965863e-02
-6.983350743210009481e-02
-7.141399037191711874e-02
-7.213305345283058112e-02
-7.207984330273839446e-02
-7.117437732567655218e-02
-6.951535296758222515e-02
-6.712205338321750037e-02
-6.404759984345882728e-02
-6.041572844469382531e-02
-5.625280335773689966e-02
-5.172134019360842550e-02
-4.688013818370063979e-02
-4.188844610193668411e-02
-3.684114801376396631e-02
-3.187026117154983379e-02
-2.711893740732756325e-02
-2.266545259170016022e-02
-1.868514647558107075e-02
-1.519517735082544750e-02
-1.236232778884253231e-02
-1.022346482545030341e-02
-8.839515680987600557e-03
-8.277702423188083164e-03
-8.485846081460315937e-03
-9.539866096141455185e-03
-1.134221034128656685e-02
-1.389849204310476122e-02
-1.710137878338970768e-02
-2.086286265388186817e-02
-2.510014959574248181e-02
-2.963198199961929180e-02
-3.440080460522704914e-02
-3.916935632785578658e-02
-4.387230142966678376e-02
-4.830552461549188215e-02
-5.231727745859668377e-02
-5.582487130268534714e-02
-5.859274375215924036e-02
-6.063688832259975237e-02
-6.174653999314617947e-02
-6.190456624301556021e-02
-6.106440223941465850e-02
-5.911969930406006657e-02
-5.619451978277986703e-02
-5.218225600461103009e-02
-4.723001978914660726e-02
-4.137345257098060114e-02
-3.467375141096135788e-02
-2.734070855684299708e-02
-1.940412575488491970e-02
-1.110515966524032797e-02
-2.557082537257133331e-03
6.090087488891091777e-03
1.461336309888411691e-02
2.291114945543027900e-02
3.078666050388302253e-02
3.810351110005635866e-02
4.476261789652569156e-02
5.061749165060605571e-02
5.559334709467544933e-02
5.966407320093534972e-02
6.272387964242748248e-02
6.482146798058908976e-02
6.593714258092978064e-02
6.606784073232432886e-02
6.538170121460193385e-02
6.381052268294468144e-02
6.152650121651885573e-02
5.860692549476093083e-02
5.506811804157744905e-02
5.117272362208011294e-02
4.684365606577738095e-02
4.225089378039528776e-02
3.748639261297871672e-02
3.249058999448613261e-02
2.749309901799602482e-02
2.236691530533975111e-02
1.717315740725560910e-02
1.197567047367087065e-02
6.616654420370349232e-03
1.238033808403073144e-03
-4.291541799153246461e-03
-1.002249725282682198e-02
-1.587580360410975611e-02
-2.202478073897078462e-02
-2.837772489303439644e-02
-3.496178536623110317e-02
-4.186295928596492355e-02
-4.890769789480593766e-02
-5.617639209401885381e-02
-6.356501642451813094e-02
-7.092698063461379265e-02
-7.832174543186856686e-02
-8.546067624735995127e-02
-9.230693129626052484e-02
-9.873860084948350713e-02
-1.044912748107872102e-01
-1.096142977097276788e-01
-1.137925946933188576e-01
-1.169619506690730143e-01
-1.190479208539805128e-01
-1.198279918072599481e-01
-1.194027157757052149e-01
-1.175803739481638688e-01
-1.143868493162664007e-01
-1.098696968973621596e-01
-1.039965236015787386e-01
-9.693614283224058492e-02
-8.873490992566353264e-02
-7.953769654709151593e-02
-6.953077124786903596e-02
-5.889044085551324581e-02
-4.779809493760850403e-02
-3.652437698974418667e-02
-2.523819893005414469e-02
-1.420359192034683846e-02
-3.669185066974615245e-03
6.251699306086797719e-03
1.521751924155545152e-02
2.317823246166994880e-02
2.989347716397862745e-02
3.523205081696291485e-02
3.920637386717065742e-02
4.158733201719129469e-02
4.252471101148953825e-02
4.188938590455730526e-02
3.977961764484994056e-02
3.632423286862752898e-02
3.151580082577108699e-02
2.565377444324315123e-02
1.875470014596078080e-02
1.110312653786468817e-02
2.874026623374634909e-03
-5.743865946063164349e-03
-1.445710458899037917e-02
-2.313457079481465867e-02
-3.147416534468555627e-02
-3.934113920422882549e-02
-4.648658395699491186e-02
-5.278222491075272582e-02
-5.806031442132224274e-02
-6.218124679261553822e-02
-6.510841104108157362e-02
-6.669032636348228016e-02
-6.702993972599635697e-02
-6.601169202613338394e-02
-6.373553643172323591e-02
-6.027334709197186557e-02
-5.565060907906810295e-02
-5.014020836211729309e-02
-4.372879575458669954e-02
-3.668156552295957079e-02
-2.913945322152756284e-02
-2.126010318226352960e-02
-1.332594359549043803e-02
-5.418658475489706444e-03
2.208251354507723141e-03
9.413388838227947086e-03
1.604733004445218006e-02
2.194464390679065277e-02
2.701771833995365510e-02
3.117549247617696848e-02
3.434050539639710298e-02
3.649591294049157886e-02
3.764372184703085322e-02
3.777179218590286103e-02
3.699121384716938521e-02
3.531171727292352347e-02
3.286000093503158026e-02
2.976953825081847874e-02
2.609680145119474756e-02
2.206687798965029437e-02
1.773755466895858904e-02
1.326726258232622038e-02
8.827546078048791739e-03
4.453812607380206595e-03
3.404445655793321424e-04
-3.477185715663907301e-03
-6.948452115415346478e-03
-9.950598185734819620e-03
-1.255384140100673784e-02
-1.469310266969877515e-02
-1.639501152661661590e-02
-1.777022982720126432e-02
-1.877448181393339896e-02
-1.957349726026364964e-02
-2.023125426313008082e-02
-2.079915344343887321e-02
-2.147562384939944932e-02
-2.225724047595886365e-02
-2.328729861212205585e-02
-2.468502282727396899e-02
-2.642528309588600827e-02
-2.865810097515532340e-02
-3.135237857458860605e-02
-3.449329056510648528e-02
-3.817301139146407618e-02
-4.220845840863661491e-02
-4.661234460295963361e-02
-5.128274223661895281e-02
-5.601602270447869625e-02
-6.083081133723283740e-02
-6.542365873176474167e-02
-6.969266620532819922e-02
-7.349369391479942948e-02
-7.655552712700396112e-02
-7.885577355745421180e-02
-8.013078383506851143e-02
-8.028658436462515757e-02
-7.924402116338934154e-02
-7.687123764437338302e-02
-7.318685139621423918e-02
-6.816516361948538050e-02
-6.183951691181782673e-02
-5.431352697442687338e-02
-4.572452128312685937e-02
-3.619268349338325419e-02
-2.600287706757339196e-02
-1.532078920959654283e-02
-4.447937514950945498e-03
6.288131734168252857e-03
1.669866104243650576e-02
2.634584128017465263e-02
3.506831746833181940e-02
4.251703755730343315e-02
4.843565581663718256e-02
5.269655444312154602e-02
5.501991843250547687e-02
5.542454458244248927e-02
5.374821814846375556e-02
5.004727566190485255e-02
4.437987834078654936e-02
3.684934050916290060e-02
2.770394105800970050e-02
1.709968336341407755e-02
5.409358330639931628e-03
-7.125879408609094370e-03
-2.007860493051386377e-02
-3.311971511563983894e-02
-4.587064014575790993e-02
-5.790613573055690411e-02
-6.895520227145288117e-02
-7.858943871143865556e-02
-8.663097686236616302e-02
-9.276107827500454373e-02
-9.683033221493070331e-02
-9.873155908574544892e-02
-9.836942900660362865e-02
-9.585233815863260232e-02
-9.116087583696474983e-02
-8.454360993393089663e-02
-7.612997037660065858e-02
-6.622425602700343639e-02
-5.514621999256438811e-02
-4.316867699652555956e-02
-3.074804260505296927e-02
-1.814344497614036461e-02
-5.808850207203782728e-03
5.955756697631049701e-03
1.681510696190575624e-02
2.645274422490543828e-02
3.466708833023617042e-02
4.120598360373063651e-02
4.598737142540201828e-02
4.886202404788089759e-02
4.987513232994383872e-02
4.899223030574315074e-02
4.632893288315949321e-02
4.203370612811033191e-02
3.621374051595194210e-02
2.920642016369749336e-02
2.111056127101456834e-02
1.228160022838915497e-02
2.949502626678531664e-03
-6.647814081245977114e-03
-1.615029928760008254e-02
-2.542836661241731216e-02
-3.416718772336158061e-02
-4.221318560004516662e-02
-4.938216453471264145e-02
-5.553247563058945346e-02
-6.057205464217001178e-02
-6.443308898835557741e-02
-6.709148856992350196e-02
-6.852025864057312288e-02
-6.884110645229588044e-02
-6.800928983195531075e-02
-6.620555655779754300e-02
-6.348538786636141740e-02
-5.995370748883516177e-02
-5.585291774914889762e-02
-5.117278255784960678e-02
-4.618064110260163002e-02
-4.093824359767599119e-02
-3.557407508389677508e-02
-3.029022440108424669e-02
-2.508518195246435545e-02
-2.014049182323581627e-02
-1.549221342952251772e-02
-1.119689337631458309e-02
-7.338837443020653981e-03
-3.914222853802402230e-03
-9.417998868744038854e-04
1.554094638366729925e-03
3.610463405824021477e-03
5.244116281882371666e-03
6.448198557199393000e-03
7.331448146609888250e-03
7.849747954740735056e-03
8.084096143688813269e-03
8.089133689627710927e-03
7.825006043134193068e-03
7.435795048252577533e-03
6.843168052216044156e-03
6.105355309344265291e-03
5.262112212831494829e-03
4.238531461580596904e-03
3.136135071813601904e-03
1.865327853777215550e-03
4.325260965268064306e-04
-1.146428136839752754e-03
-2.944063951866256190e-03
-4.922620428799880099e-03
-7.123634578334547135e-03
-9.565956905003985405e-03
-1.222316775560514449e-02
-1.510500754262084772e-02
-1.820886569561551427e-02
-2.147145161267293920e-02
-2.489387610610824253e-02
-2.840474584339258701e-02
-3.193068704762074689e-02
-3.546490322460883055e-02
-3.885709046070243144e-02
-4.208422817451137887e-02
-4.504315597954685474e-02
-4.763025479594937966e-02
-4.983428894319232028e-02
-5.150762986506479679e-02
-5.264408847264291647e-02
-5.316792656807939332e-02
-5.303670425481714357e-02
-5.226650598882406906e-02
-5.081337774417135633e-02
-4.873084894045865562e-02
-4.602922171161600434e-02
-4.278112487432126493e-02
-3.904805069690210628e-02
-3.492529557603298723e-02
-3.051453276632924705e-02
-2.591628408440836001e-02
-2.127864628362270000e-02
-1.668230463285593282e-02
-1.229771604473181221e-02
-8.205975124034823112e-03
-4.539140580562980171e-03
-1.412921817111924272e-03
1.122384869957818165e-03
2.940446994319400459e-03
4.046281632436865561e-03
4.357604913820648657e-03
3.882540223407407454e-03
2.632397032336222104e-03
6.174053111317814868e-04
-2.069345200298645937e-03
-5.405865417969569695e-03
-9.257084429559001709e-03
-1.355965999236320718e-02
-1.816356336566149823e-02
-2.295736488846127077e-02
-2.781770171888219012e-02
-3.257181767204200828e-02
-3.714409556463299511e-02
-4.133247133673294271e-02
-4.508807748832525247e-02
-4.825020051493303375e-02
-5.072123597645116638e-02
-5.245721337019529362e-02
-5.332641505262046555e-02
-5.337374603716915633e-02
-5.250076458957472769e-02
-5.074516971849851732e-02
-4.812769146851360313e-02
-4.466503099735239651e-02
-4.047685056082206412e-02
-3.559363658009416509e-02
-3.016094963154880917e-02
-2.427075332826112916e-02
-1.806912444764012873e-02
-1.169200249764969224e-02
-5.285560115267134290e-03
9.977091429507339848e-04
7.025157710592776217e-03
1.262628210233275941e-02
1.771723664920344873e-02
2.212256446465505830e-02
2.579256464969777521e-02
2.861053504497497110e-02
3.050036042386554055e-02
3.147341872727105194e-02
3.142658323255606567e-02
3.045806150643227614e-02
2.851876731670723378e-02
2.567536872463531059e-02
2.202643810991179382e-02
1.758763508010509694e-02
1.254903777149983871e-02
6.945062718705978522e-03
9.282831536120625393e-04
-5.368926331626278081e-03
-1.184383635685653906e-02
-1.833468143341920181e-02
-2.474009728705800840e-02
-3.093536407192059440e-02
-3.681068720179256348e-02
-4.224794806809933911e-02
-4.721109568130545109e-02
-5.156062215679853289e-02
-5.528570565853598018e-02
-5.832337063769017782e-02
-6.060391645774221292e-02
-6.221567878969162801e-02
-6.302665369445913102e-02
-6.314101720497977688e-02
-6.253544910815075908e-02
-6.120802101951484941e-02
-5.930613141765722629e-02
-5.674273665178813930e-02
-5.367448478248283694e-02
-5.010866850318324017e-02
-4.609459314676885022e-02
-4.177017322116141629e-02
-3.712007922825136252e-02
-3.227787275816690338e-02
-2.728838239037874314e-02
-2.222100416065612982e-02
-1.716596269769387478e-02
-1.218736723393236236e-02
-7.339843641319359138e-03
-2.715218001746705356e-03
1.629805014701130733e-03
5.663538909509872876e-03
9.259931339501249054e-03
1.246824004511233250e-02
1.515591861590730519e-02
1.730458235554139731e-02
1.893886716806301648e-02
1.990923671737153053e-02
2.036249387726482216e-02
2.015325442511803691e-02
1.931244375178075082e-02
1.791029151299433284e-02
1.581826281379767815e-02
1.323762311375572057e-02
1.004888111548238316e-02
6.317180243224813918e-03
2.135018180714723379e-03
-2.568969542046384280e-03
-7.615084699763581544e-03
-1.304972452329368482e-02
-1.880734275205661263e-02
-2.479141539592742000e-02
-3.098443488271653348e-02
-3.730339957515836635e-02
-4.366132277129375350e-02
-5.002380177238983927e-02
-5.628550971317640428e-02
-6.233442634809548133e-02
-6.818721699362072231e-02
-7.362132302061016875e-02
-7.864433528730734035e-02
-8.313255634812852235e-02
-8.691445085189873632e-02
-9.007696157524920644e-02
-9.232681966922043348e-02
-9.372274166836543074e-02
-9.414705008432712463e-02
-9.345105936047667927e-02
-9.176759239081129504e-02
-8.886237111544585676e-02
-8.485461450338142864e-02
-7.970513403158065169e-02
-7.337979825652819754e-02
-6.605198083918301100e-02
-5.767667414288037142e-02
-4.841792557629492899e-02
-3.839101093827136657e-02
-2.770405414026357732e-02
-1.656145982843500175e-02
-5.144941271942995997e-03
6.400908342511987814e-03
1.779586527505743962e-02
2.886726547295439052e-02
3.941965435882466284e-02
4.914364908878146587e-02
5.800901681393108578e-02
6.566050879752924341e-02
7.200736229995581550e-02
7.693219485848958039e-02
8.018508523064293847e-02
8.191428068283113095e-02
8.184454970871986312e-02
8.007717511863375603e-02
7.663090783646725468e-02
7.147178569095867517e-02
6.487829840438102957e-02
5.679824040319433887e-02
4.749672813008068428e-02
3.713182583177876417e-02
2.589354458605684986e-02
1.407053676842263609e-02
1.849896466629658703e-03
-1.048905802980755475e-02
-2.270452482622751719e-02
-3.452960187395210517e-02
-4.577379299211700031e-02
-5.614355600656470435e-02
-6.551587452155853419e-02
-7.365531849123432839e-02
-8.041501176266063755e-02
-8.576351180692680376e-02
-8.948176657807155321e-02
-9.168991842284726634e-02
-9.224435082713337841e-02
-9.123286892069790155e-02
-8.876945288065823947e-02
-8.482736762788256613e-02
-7.971364490105502243e-02
-7.341852336237413013e-02
-6.622116895911196732e-02
-5.830742931098747972e-02
-4.983041774759742332e-02
-4.111843794523563356e-02
-3.227480727605586130e-02
-2.359889360828729826e-02
-1.525464137855789271e-02
-7.448693187127526302e-03
-3.550860481954347392e-04
5.882178205603775384e-03
1.112789192859700571e-02
1.530826947549617303e-02
1.830991121650201239e-02
2.019171582977220478e-02
2.084740073446859562e-02
2.037927667139452850e-02
1.881439638451749483e-02
1.619913237020348049e-02
1.276249061361598922e-02
8.477932535097265632e-03
3.604573913613969005e-03
-1.773140853400582279e-03
-7.494076533157315728e-03
-1.332815021943868465e-02
-1.922093401500120369e-02
-2.493439535329894027e-02
-3.039147054898902814e-02
-3.544139930902444335e-02
-3.997511242237754975e-02
-4.392187511351340612e-02
-4.719918431203405651e-02
-4.977412839727064775e-02
-5.160113547561186176e-02
-5.271180716918467957e-02
-5.306735533790647719e-02
-5.275106123226432076e-02
-5.176334939445084715e-02
-5.016562051429124258e-02
-4.806062104501135357e-02
-4.544881483950243689e-02
-4.248719008572759970e-02
-3.918591201627175113e-02
-3.564881279289285054e-02
-3.197061359672309644e-02
-2.817906207152848924e-02
-2.439982537308424404e-02
-2.065388530243945572e-02
-1.702099604420980600e-02
-1.355738351529032354e-02
-1.030759440706754786e-02
-7.313177736294067949e-03
-4.623389406238272506e-03
-2.260775950914721555e-03
-2.506809977038948478e-04
1.359397910070649085e-03
2.613692508554144034e-03
3.437931963371814587e-03
3.871368301225350250e-03
3.913714866575372653e-03
3.535033330503728477e-03
2.841342944887401134e-03
1.761091257542864857e-03
3.761794932221722287e-04
-1.288512824267683959e-03
-3.235834228366884363e-03
-5.347020017024034164e-03
-7.661008527735175405e-03
-1.009592477952674094e-02
-1.261076970186569488e-02
-1.519669696326421231e-02
-1.776606610421922749e-02
-2.032444340204388189e-02
-2.283036550715634994e-02
-2.524241031024532927e-02
-2.756121042490186634e-02
-2.975254282835161634e-02
-3.179986560608681623e-02
-3.371718042238296131e-02
-3.546755097743551494e-02
-3.706211901996416674e-02
-3.851277748115818078e-02
-3.977808957646357391e-02
-4.090953079371026369e-02
-4.186222712424486625e-02
-4.263923987307755015e-02
-4.327156152052877292e-02
-4.368792494781595370e-02
-4.394880214328310275e-02
-4.399646824932483546e-02
-4.381718046280916323e-02
-4.344543009238756304e-02
-4.279815312047541287e-02
-4.193256486497731750e-02
-4.079871292634419666e-02
-3.937999576189096795e-02
-3.771982833302654076e-02
-3.575962668640228492e-02
-3.355551247601470943e-02
-3.109802390344453688e-02
-2.838777767698773963e-02
-2.548806940924474435e-02
-2.239308137992140901e-02
-1.915582234457072208e-02
-1.582564882698633824e-02
-1.242163670259747651e-02
-9.022403093739566476e-03
-5.671116374223081694e-03
-2.397646024874546672e-03
7.027964496574765074e-04
3.618115595062681294e-03
6.277482209670084273e-03
8.623673765735796054e-03
1.066880085713822410e-02
1.231186260740925117e-02
1.357489951649988938e-02
1.441763184249580595e-02
1.480464790300849501e-02
1.479390596324845278e-02
1.431354300410628624e-02
1.342485198809017719e-02
1.212590202156147920e-02
1.041678998143830137e-02
8.380784267539444221e-03
5.990768627092656062e-03
3.321197138868064308e-03
4.022510259839469360e-04
-2.743016375124213840e-03
-6.037813147600228428e-03
-9.464629950091802552e-03
-1.297354236127222851e-02
-1.650639960887494845e-02
-2.003771778630600991e-02
-2.351371755845443196e-02
-2.687815808999732131e-02
-3.012774974346519447e-02
-3.317504275569804068e-02
-3.600856988005736448e-02
-3.859620217993446623e-02
-4.086058331809379329e-02
-4.284688845327926793e-02
-4.444977398668790991e-02
-4.568472178784194898e-02
-4.653792909382453713e-02
-4.694360286191875953e-02
-4.698176873522706687e-02
-4.656202721732419919e-02
-4.573243540506591320e-02
-4.450142327551090404e-02
-4.285017187895870383e-02
-4.086935593584530013e-02
-3.852612256754149589e-02
-3.589199842275816316e-02
-3.300359571854129953e-02
-2.990522532074953860e-02
-2.666304681837926988e-02
-2.332766255609539444e-02
-1.996261915449027216e-02
-1.662642034910076505e-02
-1.340075906534203901e-02
-1.030769483754049101e-02
-7.453341370468477556e-03
-4.858837636301011412e-03
-2.586545087079145100e-03
-7.075654753535449981e-04
8.031021736772982200e-04
1.837120808668702560e-03
2.431607407388822889e-03
2.540580691924875650e-03
2.143906163510619217e-03
1.297357439857978884e-03
-5.729072182082337039e-05
-1.840070592386625070e-03
-4.061535911948681299e-03
-6.678764811607408244e-03
-9.629686114401644556e-03
-1.289139809825825753e-02
-1.638001088496122276e-02
-2.005444973778243434e-02
-2.382880606490545006e-02
-2.765126158591295347e-02
-3.142109918931777768e-02
-3.509128298402412749e-02
-3.856663677458972705e-02
-4.176209782721417019e-02
-4.464415391345638584e-02
-4.707987853003228751e-02
-4.908644572879151263e-02
-5.054623384143775572e-02
-5.142684613231034152e-02
-5.172450454655622143e-02
-5.134758837430461464e-02
-5.037873444487653285e-02
-4.873919252729258522e-02
-4.647641531558610595e-02
-4.362818913763784334e-02
-4.020223717929130580e-02
-3.630890728334471018e-02
-3.196865525688576820e-02
-2.728540243589534092e-02
-2.233951033613259390e-02
-1.723729378653585109e-02
-1.206753948301707985e-02
-6.955357755947544698e-03
-1.997836189073107227e-03
2.703159818691170529e-03
7.009072858777529863e-03
1.089206346485238966e-02
1.418733237819802886e-02
1.687423122852472687e-02
1.887029512510897053e-02
2.009250763141287935e-02
2.059421031384261677e-02
2.025563575710613920e-02
1.916296597318779479e-02
1.728951501367474372e-02
1.465506404754867917e-02
1.137810801414467984e-02
7.434158386388611817e-03
2.979788760529789027e-03
-1.945280568015350653e-03
-7.243418286959027452e-03
-1.277824773295801672e-02
-1.848861722224198062e-02
-2.423287514015287636e-02
-2.992201171995081607e-02
-3.545697234743529908e-02
-4.073467462933447192e-02
-4.565928720198790536e-02
-5.018318809633493666e-02
-5.419496806476471751e-02
-5.766404456071576312e-02
-6.054525013827898039e-02
-6.275897318391748803e-02
-6.437622910330503823e-02
-6.528712337923239795e-02
-6.555051051098675918e-02
-6.517565193518402855e-02
-6.412594432188714610e-02
-6.255733187461916256e-02
-6.038402030749254190e-02
-5.772278690711378502e-02
-5.462154853318806902e-02
-5.108851456282964554e-02
-4.728304976451312008e-02
-4.317666672946762763e-02
-3.887815783002539216e-02
-3.445819246792925644e-02
-2.994177838542488868e-02
-2.544431950460888936e-02
-2.098960293273640504e-02
-1.662990234159607283e-02
-1.244812117562129131e-02
-8.456609309524971974e-03
-4.709706886405784845e-03
-1.263714288474757086e-03
1.904237163272322342e-03
4.709039749188060481e-03
7.166610800160528455e-03
9.278530711046152624e-03
1.097820217222674963e-02
1.235060290806147890e-02
1.331749298022625108e-02
1.391682940558105694e-02
1.418616804050293681e-02
1.406248968975364402e-02
1.365675710304949456e-02
1.290547538583472140e-02
1.184911372170524210e-02
1.053800076014043199e-02
8.923014486170152693e-03
7.100002050089294914e-03
5.032738798644846578e-03
2.746878337306538076e-03
2.898254771189871792e-04
-2.359723219315566778e-03
-5.151962935681105027e-03
-8.074499697380265253e-03
-1.112111019848024789e-02
-1.424661511543650824e-02
-1.742483617886052272e-02
-2.066125450455558177e-02
-2.386902806204307254e-02
-2.705475401569855387e-02
-3.016364074397483858e-02
-3.311691213412544521e-02
-3.596170655508408587e-02
-3.854377172405416829e-02
-4.088178047205092563e-02
-4.291308959023939357e-02
-4.453838789745882820e-02
-4.582810517944704842e-02
-4.661767144885776981e-02
-4.694934197376313123e-02
-4.677688765107546054e-02
-4.603382574110254088e-02
-4.480958227200138033e-02
-4.299863903446204255e-02
-4.067833093725502225e-02
-3.785100676476593762e-02
-3.452376586455786767e-02
-3.079909936546001287e-02
-2.667592728093662324e-02
-2.225217388703943852e-02
-1.759290396046666455e-02
-1.277253292805408807e-02
-7.884203629915294623e-03
-3.022536943570446749e-03
1.741294071864910725e-03
6.296938482885268418e-03
1.055593673616894365e-02
1.446561719193994663e-02
1.789018256624915967e-02
2.083467956118978046e-02
2.318027707012749669e-02
2.488613721375876678e-02
2.595792239733487813e-02
2.628547427052416521e-02
2.596337934394628635e-02
2.490485553154998463e-02
2.314561924682722802e-02
2.074513973424147936e-02
1.766439206092758687e-02
1.405024974871009122e-02
9.880213043752524710e-03
5.244300711322605335e-03
2.365334587115450193e-04
-5.105263412563917566e-03
-1.064793646259114095e-02
-1.633242061769221709e-02
-2.206937259376172064e-02
-2.774766381757613060e-02
-3.328715952511498294e-02
-3.861078300066618507e-02
-4.359881103645179418e-02
-4.821335367768990465e-02
-5.234352931368840833e-02
-5.593100957650745664e-02
-5.895339925020248728e-02
-6.130257086231692687e-02
-6.301325630175103054e-02
-6.400406330936400656e-02
-6.429764944345855993e-02
-6.390737651720924950e-02
-6.281589709577109493e-02
-6.111359664646209833e-02
-5.878484890005514218e-02
-5.595027334030583388e-02
-5.263707534709503866e-02
-4.895824338447009316e-02
-4.500932600928643501e-02
-4.086219083677165853e-02
-3.669175146902643736e-02
-3.251899783301537283e-02
-2.855327134932984789e-02
-2.483024216171471690e-02
-2.148836921001126901e-02
-1.866624755937766611e-02
-1.635802034280565628e-02
-1.476909692374036437e-02
-1.383175597791666024e-02
-1.368558653292184513e-02
-1.434958755649233184e-02
-1.577968658477742897e-02
-1.806593045760458358e-02
-2.105552137230038909e-02
-2.480787595233091558e-02
-2.920556827874880995e-02
-3.417497778837372269e-02
-3.963044089310532175e-02
-4.542304685204368031e-02
-5.147250565715437431e-02
-5.759552615020820110e-02
-6.371785410036173714e-02
-6.960468727542104550e-02
-7.522287235139793471e-02
-8.035091895431036024e-02
-8.485573365984815097e-02
-8.869415108793515801e-02
-9.158223221116940094e-02
-9.364370710016252375e-02
-9.459530861511881994e-02
-9.443250051454248062e-02
-9.316181169830088649e-02
-9.055976093635202673e-02
-8.687547839610836042e-02
-8.187292847794590267e-02
-7.568110377746820050e-02
-6.837117919875425331e-02
-5.985126731930405508e-02
-5.042263782047915616e-02
-3.999460385866564216e-02
-2.876499443192367944e-02
-1.689069433439701826e-02
-4.416409618372509061e-03
8.375832870616470999e-03
2.138731497757729791e-02
3.445017142409104172e-02
4.730853948279686860e-02
5.984287061271635622e-02
7.183829982779058043e-02
8.304825515063096741e-02
9.342728917777307074e-02
1.026529737229073674e-01
1.106364707464411179e-01
1.172681512755320565e-01
1.222766954064264666e-01
1.257944207206990461e-01
1.275286286065278885e-01
1.275166076379561364e-01
1.257894151531921967e-01
1.221899288152306917e-01
1.170135899822166425e-01
1.101148599447106802e-01
1.016728417847800880e-01
9.186953276867641793e-02
8.072943140643809579e-02
6.860406240773808673e-02
5.556914188625661222e-02
4.184854935695977995e-02
2.773464786556033637e-02
1.337277381750559893e-02
-9.669752193816050223e-04
-1.503273193929576673e-02
-2.871047025573279093e-02
-4.168039833820928047e-02
-5.382413656045889616e-02
-6.503412509714072420e-02
-7.502067463868536401e-02
-8.387865530685692517e-02
-9.133416459359043615e-02
-9.740578083241654972e-02
-1.021469539771251295e-01
-1.053422279635686243e-01
-1.072766688350669517e-01
-1.077587024356281703e-01
-1.069499013975788726e-01
-1.050030882776195051e-01
-1.018223748639855708e-01
-9.777374340784988904e-02
-9.276431054774793294e-02
-8.701985974229765886e-02
-8.072379752874397907e-02
-7.388535142748504925e-02
-6.681415935595515221e-02
-5.951882483879604446e-02
-5.217723219503925258e-02
-4.494273874407282710e-02
-3.788151807010796401e-02
-3.112220372788549599e-02
-2.476099763238680598e-02
-1.883555211910662580e-02
-1.341532228286683448e-02
-8.588954338856726739e-03
-4.224078325145520785e-03
-5.046823711397363521e-04
2.690988703499212070e-03
5.388241459904918179e-03
7.443569400440393224e-03
9.238222650564408694e-03
1.044495181902910935e-02
1.126868666851668990e-02
1.176305175180098264e-02
1.167526653061999944e-02
1.145569819624225535e-02
1.064713977209390608e-02
9.407980222182941998e-03
7.737294857576348939e-03
5.284784604633153277e-03
2.400988815158058842e-03
-1.387204662156464596e-03
-6.020386732525263504e-03
-1.154066609563268904e-02
-1.823113153131991973e-02
-2.592063905623900877e-02
-3.482887304285427893e-02
-4.495665380358555840e-02
-5.624048995337752044e-02
-6.865727482712556673e-02
-8.218741570442868183e-02
-9.651242304288407126e-02
-1.116439994494119320e-01
-1.272363040616258101e-01
-1.428536719550634326e-01
-1.585553934051139036e-01
-1.734383186158751367e-01
-1.875545097233274339e-01
-2.002569975648617051e-01
-2.108779579348470934e-01
-2.195280146165963231e-01
-2.250639884648939493e-01
-2.276798500709475148e-01
-2.266938839893771207e-01
-2.216123549271958315e-01
-2.126684685793547580e-01
-1.991035804402345177e-01
-1.813283087156061513e-01
-1.591180697640506292e-01
-1.325197901596190386e-01
-1.020270652431392866e-01
-6.779664064805897283e-02
-3.038450098835988530e-02
9.562732346881885198e-03
5.144685188895141426e-02
9.446587428822428301e-02
1.375561215955610483e-01
1.802508975174476613e-01
2.211232846278063935e-01
2.594660852677922458e-01
2.943787144195348371e-01
3.245774977972660236e-01
3.499358125023340205e-01
3.690114019694950009e-01
3.816071908403834145e-01
3.871760667517350485e-01
3.851327289072892235e-01
3.759252504347187496e-01
3.589822291626722506e-01
3.349825117678417175e-01
3.041475444095546043e-01
2.670524152064975842e-01
2.247089753588065175e-01
1.777553521303468775e-01
1.274798065517997181e-01
7.487162701737584691e-02
2.123474056192702422e-02
-3.224235983158339064e-02
-8.424479900196475690e-02
-1.336862215600285730e-01
-1.793199677400362235e-01
-2.201680129883823167e-01
-2.554272579649545238e-01
-2.841296414819790561e-01
-3.061536529908447379e-01
-3.206711282272832753e-01
-3.278852268033294326e-01
-3.277174274927104336e-01
-3.202719068365565414e-01
-3.065086066055725533e-01
-2.863823811400421082e-01
-2.612604060259864358e-01
-2.316789430977271580e-01
-1.987078559850448400e-01
-1.637721383274796938e-01
-1.274391342035730013e-01
-9.136707336113762679e-02
-5.625430263200345560e-02
-2.330944475011296688e-02
6.473692260376164714e-03
3.246822100827577440e-02
5.380796675348206715e-02
7.011761449104575439e-02
8.098120865723819339e-02
8.635183048391072147e-02
8.611297260246879304e-02
8.068809023494384614e-02
7.022285634633201878e-02
5.541560583973895171e-02
3.698407250376381517e-02
1.544795950236927881e-02
-7.915141772699732861e-03
-3.266523432886138389e-02
-5.753800448219591190e-02
-8.171538977648953872e-02
-1.044947030570027163e-01
-1.247310397595744330e-01
-1.421387923058690939e-01
-1.558252389568789698e-01
-1.655050966566749548e-01
-1.708826801984897337e-01
-1.717082131401983236e-01
-1.681304560990897756e-01
-1.601825530569329359e-01
-1.482656835384352223e-01
-1.326926070943032776e-01
-1.141176778746826881e-01
-9.302042463477025458e-02
-7.014062107024143788e-02
-4.620242298572359990e-02
-2.180101144562508753e-02
2.157535865687374571e-03
2.522404542194777236e-02
4.668659882726580723e-02
6.603307732853012924e-02
8.291085463722458471e-02
9.690448017191442831e-02
1.078696835288039668e-01
1.157259370500874907e-01
1.204392360135701501e-01
1.221369002151973804e-01
1.211444032339664412e-01
1.175583342479090687e-01
1.119245206199159792e-01
1.045105260950761200e-01
9.570264816207606218e-02
8.616324952496039191e-02
7.596854258807542171e-02
6.575598660073213308e-02
5.571757865227505713e-02
4.609411955045265852e-02
3.727633220877724085e-02
2.917950125909997763e-02
2.200773319916863105e-02
1.571154547632288082e-02
1.022575320303727858e-02
5.427368671922373766e-03
1.230636505527689384e-03
-2.662069165893100886e-03
-6.334239648261647676e-03
-9.932105705443569979e-03
-1.384639264671469472e-02
-1.783752398601422956e-02
-2.235604259536515259e-02
-2.718463138376423643e-02
-3.222968935608015034e-02
-3.772244734447238734e-02
-4.300775617713689658e-02
-4.830425255292820907e-02
-5.305381583870459605e-02
-5.691194369808647013e-02
-5.976498729645010610e-02
-6.096015744978601492e-02
-6.039328024438041231e-02
-5.761498295715170026e-02
-5.241473280350017472e-02
-4.454212251831879410e-02
-3.406457932794646620e-02
-2.073135109714630692e-02
-4.851033356414735653e-03
1.324714074851106663e-02
3.359787576342455895e-02
5.501112638644853337e-02
7.773432021363331501e-02
1.004467899248965290e-01
1.223319412235621129e-01
1.431115732954744146e-01
1.609063331173460065e-01
1.759986921676176819e-01
1.866508820830408144e-01
1.921424254978582047e-01
1.922246881568240862e-01
1.854866575110836191e-01
1.723654594105809845e-01
1.519542384860741169e-01
1.242755274550557676e-01
8.966003586249904345e-02
4.817545050727772837e-02
5.818670569288711403e-04
-5.237069261907167927e-02
-1.097698172981591974e-01
-1.704427511552241425e-01
-2.327865642951758296e-01
-2.959155659924508908e-01
-3.576278794493218394e-01
-4.167939273194591898e-01
-4.717731394752515683e-01
-5.205034156680768964e-01
-5.625481698205649916e-01
-5.954768276995722198e-01
-6.190138603953316832e-01
-6.319154579801353755e-01
-6.331262527759066172e-01
-6.231970119801211183e-01
-6.008858664613873080e-01
-5.673486087801349331e-01
-5.225023829448550705e-01
-4.670135954135916645e-01
-4.024304638460147743e-01
-3.293031232959132137e-01
-2.497187086964534897e-01
-1.648975319310752863e-01
-7.662281059056663679e-02
1.315189100931866625e-02
1.026672306747249130e-01
1.901925319541424020e-01
2.737280781510295635e-01
3.518262491130640934e-01
4.229226366941939985e-01
4.853217648645076765e-01
5.387985534823505063e-01
5.813948044345744748e-01
6.132042152780757815e-01
6.335595211129011473e-01
6.419459137893041012e-01
6.396642398076947122e-01
6.256617198600624707e-01
6.016236406558181926e-01
5.678077742000450234e-01
5.250651752284175577e-01
4.754310108825583470e-01
4.190110613327282518e-01
3.580967395165765010e-01
2.935593744098161095e-01
2.268574700804070754e-01
1.597927859364999814e-01
9.321358461301701426e-02
2.873180647903765192e-02
-3.256753395982853183e-02
-8.970702150293016763e-02
-1.417204638723555121e-01
-1.877293400802086953e-01
-2.275848049324824263e-01
-2.603108221163495384e-01
-2.861015776441525604e-01
-3.048770775482442796e-01
-3.162817529787295134e-01
-3.215390891810682716e-01
-3.199709416078578839e-01
-3.128508738802245337e-01
-3.006423104899362264e-01
-2.836004772295166454e-01
-2.635304370942947449e-01
-2.400787621368789260e-01
-2.148480520510597513e-01
-1.883838494411042841e-01
-1.611920411597252134e-01
-1.346978218541966532e-01
-1.087765729138431420e-01
-8.448850108589170405e-02
-6.214885129522722262e-02
-4.205845666706206631e-02
-2.469428969655706324e-02
-1.007525806138978922e-02
1.706385523500504597e-03
1.059562885223696779e-02
1.668834002077417347e-02
2.037999142797919730e-02
2.153018658022921514e-02
2.081220638500764705e-02
1.825861319859657314e-02
1.422097683306915508e-02
9.407560507534325905e-03
3.584894075982857087e-03
-2.398405976022532915e-03
-8.614970230732672124e-03
-1.478241476899595959e-02
-2.038553531597599860e-02
-2.576044281251925819e-02
-3.037577429453725691e-02
-3.445222717930983281e-02
-3.796976528603241557e-02
-4.076864476619533606e-02
-4.320178477977124759e-02
-4.515559645875631689e-02
-4.685018318103519042e-02
-4.843489399179762289e-02
-4.994499164171833233e-02
-5.157211224962497675e-02
-5.340506549702270234e-02
-5.547760140203228385e-02
-5.788059102343709461e-02
-6.062593515804209909e-02
-6.363467394759513007e-02
-6.697134010948808946e-02
-7.045050971930430506e-02
-7.399472187740674389e-02
-7.754128210354747919e-02
-8.081546704696218608e-02
-8.382579511141309558e-02
-8.631098203833950655e-02
-8.811567878052407876e-02
-8.921065043137882400e-02
-8.931518084914112643e-02
-8.849705841400445916e-02
-8.658978193892721831e-02
-8.352212423153838883e-02
-7.940653421860971450e-02
-7.409974277224094796e-02
-6.782096767670363346e-02
-6.055970519158122845e-02
-5.239884472889116962e-02
-4.358848767692501125e-02
-3.412843823768730439e-02
-2.433295338878264241e-02
-1.429300156363667168e-02
-4.156182787973861092e-03
5.800582976349603903e-03
1.555523272975753782e-02
2.483739949067912886e-02
3.357675910396046293e-02
4.170907409546933953e-02
4.904163889361844164e-02
5.564062039566285145e-02
6.138250179425368269e-02
6.627094478326009397e-02
7.038914814342399351e-02
7.364630529336305131e-02
7.619266547902968367e-02
7.803870627860128029e-02
7.921808301778740513e-02
7.989870988361048865e-02
8.003510658649093390e-02
7.976443924919990325e-02
7.914809415166297601e-02
7.817349785771762760e-02
7.697879982061525683e-02
7.551328503997917219e-02
7.380762370584571797e-02
7.191426873047752910e-02
6.974685465791002903e-02
6.735356021701170703e-02
6.469353380547879229e-02
6.168474378982163886e-02
5.838884791281145903e-02
5.469418733159776835e-02
5.059578196634931246e-02
4.612575168059822317e-02
4.116321833818345488e-02
3.583881787450733658e-02
3.008430241052474294e-02
2.391891944608439194e-02
1.748039585957894201e-02
1.067959329071201807e-02
3.736221879970195309e-03
-3.366926025725650029e-03
-1.054712699424086020e-02
-1.762166178582822568e-02
-2.464638685961752923e-02
-3.137001284666281198e-02
-3.782732126183215027e-02
-4.390433188665476827e-02
-4.948601806126387559e-02
-5.464312211141390818e-02
-5.917771510508144928e-02
-6.321398874748694607e-02
-6.665229353825873060e-02
-6.951418278978732657e-02
-7.190307429856590549e-02
-7.371382502079353027e-02
-7.515934324802293898e-02
-7.615702298802613790e-02
-7.684960655841902022e-02
-7.733181671719002725e-02
-7.757825439595514294e-02
-7.781712236268419070e-02
-7.796588830989018004e-02
-7.821051580794016744e-02
-7.858359782749033129e-02
-7.910443310853830512e-02
-7.992247701258931025e-02
-8.096028068351894535e-02
-8.234535249461243100e-02
-8.404168991464593119e-02
-8.606900781467781425e-02
-8.843942763876640190e-02
-9.111077514485285689e-02
-9.406155963756458738e-02
-9.724179675705035830e-02
-1.006113201605367269e-01
-1.040471466442555865e-01
-1.075604876266421511e-01
-1.109342054069582667e-01
-1.141775228056844393e-01
-1.171314937714525439e-01
-1.195959204112595625e-01
-1.216242906094397586e-01
-1.228454738916064243e-01
-1.233674914898965774e-01
-1.229295932609626996e-01
-1.213484239901864992e-01
-1.187166648897643034e-01
-1.146629964205089364e-01
-1.093696765781979746e-01
-1.026343255694366352e-01
-9.437734645415984946e-02
-8.477469969239551095e-02
-7.363931877337731580e-02
-6.121485181261357433e-02
-4.753816402355906523e-02
-3.267576235554749131e-02
-1.694978516509248329e-02
-4.487097866737663199e-04
1.654884452498075684e-02
3.370365277355759359e-02
5.087158985510936704e-02
6.759836310658094705e-02
8.362160151012025533e-02
9.871342394913956708e-02
1.123768120635161294e-01
1.245631228867851714e-01
1.348240188016831265e-01
1.429673584972167844e-01
1.489386703516612787e-01
1.523510587362640056e-01
1.534034563557827024e-01
1.518365454509518209e-01
1.477235925805580052e-01
1.412458929731407187e-01
1.323209081123683795e-01
1.213766133258063484e-01
1.084410325730107427e-01
9.383017295145133774e-02
7.789424591604063308e-02
6.084090892554437635e-02
4.311272449120040484e-02
2.498801692631945001e-02
6.795953404341293497e-03
-1.109344754217506460e-02
-2.836232455449617246e-02
-4.481773131465160986e-02
-6.003999685438796141e-02
-7.394157758609064268e-02
-8.624957073455630230e-02
-9.674236773993379057e-02
-1.055639628202593855e-01
-1.122975300788763842e-01
-1.171831022473894396e-01
-1.200739073890965264e-01
-1.209484568654079495e-01
-1.201707662010222388e-01
-1.174447668077711893e-01
-1.132204885962472124e-01
-1.074505840803073597e-01
-1.002786310931596536e-01
-9.209962835558428706e-02
-8.278637224364439329e-02
-7.278581357244089112e-02
-6.212993851003929813e-02
-5.101791335077838357e-02
-3.973761508146474858e-02
-2.832911407419674843e-02
-1.706139616619792992e-02
-6.054379262146906970e-03
4.541866538489452987e-03
1.458230378043403816e-02
2.390227262770592762e-02
3.247664351832120488e-02
4.009590953143861436e-02
4.671871208263463082e-02
5.231381711301061332e-02
5.666944753071363750e-02
5.997163827646384560e-02
6.196739402597488400e-02
6.273590917862184591e-02
6.232794638330138581e-02
6.057652180826422761e-02
5.779499041922792069e-02
5.377853074989412396e-02
4.869913187994680259e-02
4.267705961669215897e-02
3.565471014713342268e-02
2.796670909786777917e-02
1.953945534837371253e-02
1.056746722433372573e-02
1.221779025044316541e-03
-8.445540194538780562e-03
-1.819693980908121053e-02
-2.794355007797677537e-02
-3.756392455166088218e-02
-4.687179826955652218e-02
-5.576649420053131356e-02
-6.416753016296501688e-02
-7.187285745091663569e-02
-7.889474344806669814e-02
-8.506650052783430727e-02
-9.031029347040125943e-02
-9.468936777895879675e-02
-9.797623850501673004e-02
-1.003138163075805722e-01
-1.015794126769487271e-01
-1.017568442477736756e-01
-1.010007100785400153e-01
-9.913258193829790899e-02
-9.637001577761572513e-02
-9.265447610723329119e-02
-8.803050290951155987e-02
-8.268474043008576524e-02
-7.653782096227915166e-02
-6.980313910317902104e-02
-6.251051332984824960e-02
-5.473692720090160557e-02
-4.665997866200636418e-02
-3.831664860172959847e-02
-2.984248413915644924e-02
-2.137082658048780268e-02
-1.296576463274243425e-02
-4.770725620333350625e-03
3.083812297932572721e-03
1.059344807960040449e-02
1.753306354893451394e-02
2.389787320913235383e-02
2.959681131003559854e-02
3.445538079752756555e-02
3.862260190065817944e-02
4.182055377293664167e-02
4.413181464217287575e-02
4.553379634572284063e-02
4.585924053165292558e-02
4.539958935131485629e-02
4.387494570689470796e-02
4.145098200535445032e-02
3.818087838124299693e-02
3.394553710691082526e-02
2.908958726024230348e-02
2.341021251720133353e-02
1.709847928228592703e-02
1.026856451702118020e-02
2.839788038770999640e-03
-4.859506145412093372e-03
-1.294776882003367477e-02
-2.127310341714016076e-02
-2.969100377446542982e-02
-3.826889629703142393e-02
-4.675926546696428099e-02
-5.520120852957444146e-02
-6.353507804068062037e-02
-7.160824520112223091e-02
-7.948007921607040671e-02
-8.702460697247541010e-02
-9.418525847589288846e-02
-1.010171571136137675e-01
-1.073527169175672036e-01
-1.132174162900867198e-01
-1.186143843687682692e-01
-1.233541876747305255e-01
-1.276046312221881529e-01
-1.311556920362494660e-01
-1.339705844602516738e-01
-1.361666118690316452e-01
-1.374028483538595746e-01
-1.379512355454343420e-01
-1.375430897767901950e-01
-1.360840176920961875e-01
-1.337814639145123718e-01
-1.301830983070231540e-01
-1.256517955011190180e-01
-1.198893063780761409e-01
-1.127914796577508261e-01
-1.046380910228124073e-01
-9.497868866982879521e-02
-8.424129885185967226e-02
-7.219392958713380382e-02
-5.879059504752956467e-02
-4.438316801485570062e-02
-2.867847698855546107e-02
-1.209537473961005451e-02
5.380319912978822477e-03
2.371250035171560896e-02
4.247722120769228948e-02
6.172146299137937220e-02
8.110399538542541198e-02
1.003602616177096118e-01
1.194158207220435697e-01
1.378082686073550112e-01
1.553810012337275004e-01
1.719358828959296759e-01
1.870160579458890471e-01
2.006176456243842499e-01
2.123293145008050831e-01
2.219414558761104161e-01
2.294820316944672645e-01
2.344769438453985222e-01
2.371164392458159353e-01
2.371569549249147313e-01
2.344894230748246766e-01
2.294278440742360536e-01
2.216258264554134827e-01
2.115146512550718783e-01
1.990831189285313663e-01
1.843580468413646145e-01
1.679208228897074440e-01
1.495620682434602444e-01
1.298726223907550603e-01
1.090276250921992651e-01
8.707729556793042391e-02
6.474937959983610714e-02
4.185271141567321884e-02
1.895119114487269288e-02
-3.726356803052249811e-03
-2.628129181629812461e-02
-4.802493460414961057e-02
-6.925525623599865233e-02
-8.963735336318824631e-02
-1.089946422561284406e-01
-1.276724315200078452e-01
-1.451591557369238672e-01
-1.618385249638650270e-01
-1.776901677833552518e-01
-1.925385747429528560e-01
-2.068717641817038599e-01
-2.203311911174637427e-01
-2.331833250555564729e-01
-2.455876418105831238e-01
-2.572057450649297139e-01
-2.684191355256365097e-01
-2.788861362944786149e-01
-2.885317916256969206e-01
-2.975136793579216676e-01
-3.052441003640186667e-01
-3.118636171500913656e-01
-3.170279363020914731e-01
-3.203397680354161947e-01
-3.219800462072292535e-01
-3.212792578729106174e-01
-3.182895183151023821e-01
-3.128564344435291189e-01
-3.045405471673504616e-01
-2.937497426573529302e-01
-2.800217623530300570e-01
-2.635717658605714608e-01
-2.446175009350004814e-01
-2.229163032549355550e-01
-1.991986178210528868e-01
-1.733181079442677741e-01
-1.456967130889970929e-01
-1.168708633499261629e-01
-8.676223558883118525e-02
-5.626722284941446106e-02
-2.541106561298858701e-02
5.388004462543352635e-03
3.549877446918521529e-02
6.505328139830507395e-02
9.325303598134786209e-02
1.201065114602423989e-01
1.454554525423160105e-01
1.687472422673881312e-01
1.903296609070202206e-01
2.096574670769592585e-01
2.268421910602564373e-01
2.420707217412081946e-01
2.548839918586214837e-01
2.658033107622840840e-01
2.745170882764720321e-01
2.811648396024343244e-01
2.861044211253073177e-01
2.889525625035836431e-01
2.901914404001105230e-01
2.896548989423276543e-01
2.873955989714490067e-01
2.837256046029526524e-01
2.783624041933783766e-01
2.715699412770956056e-01
2.633199562471890132e-01
2.535555067255738093e-01
2.424879381601374173e-01
2.300304504414355522e-01
2.162228673081475205e-01
2.012754259205685736e-01
1.851016745862753832e-01
1.679211215711639560e-01
1.499178736880533991e-01
1.310229911831002625e-01
1.117554544209253820e-01
9.204856018289571395e-02
7.225079820082030979e-02
5.271727412010691893e-02
3.336507304206651203e-02
1.490617856711186698e-02
-2.793406483172587024e-03
-1.926275711278565769e-02
-3.427477848986613951e-02
-4.791578717688681904e-02
-5.958435057191270590e-02
-6.964500628813863337e-02
-7.763454759293202112e-02
-8.377498155748422382e-02
-8.816310308187345901e-02
-9.061676347882392790e-02
-9.178003569411885554e-02
-9.132341809131414023e-02
-8.999513857767678371e-02
-8.783362502019433082e-02
-8.515696061317322429e-02
-8.269847519303479000e-02
-8.027388471647727008e-02
-7.886640121509067014e-02
-7.835620618046501562e-02
-7.930584784064588499e-02
-8.220870432212538936e-02
-8.691841170449152165e-02
-9.413211943512057867e-02
-1.035635378052589539e-01
-1.155241109905515151e-01
-1.300309712866700718e-01
-1.468175605504465908e-01
-1.658948522082706323e-01
-1.868434313544639069e-01
-2.093852509472238499e-01
-2.330768465831716263e-01
-2.574540548895591363e-01
-2.818490884552141140e-01
-3.058440464417550020e-01
-3.286420637908570308e-01
-3.496576157067565194e-01
-3.683636210492823859e-01
-3.838751651965961464e-01
-3.959966866941057595e-01
-4.039095309178792337e-01
-4.073181471537590248e-01
-4.059685580310142261e-01
-3.993754743032936760e-01
-3.877584567274363625e-01
-3.708844444325680723e-01
-3.489669949703520513e-01
-3.223602533055044961e-01
-2.912868414356881708e-01
-2.563948484432512220e-01
-2.182991520591029966e-01
-1.775232749901200779e-01
-1.350993576778214411e-01
-9.169498949368430629e-02
-4.817386693415179333e-02
-5.679349761597991472e-03
3.543890647630651425e-02
7.377546201869315812e-02
1.088642852115522253e-01
1.399449663118911003e-01
1.660593250608757843e-01
1.874116075380541091e-01
2.027812664581278568e-01
2.124423988317377388e-01
2.159995750589388530e-01
2.133612644817234338e-01
2.051721800996617051e-01
1.910498649076334543e-01
1.720155204221735790e-01
1.481603980557965883e-01
1.204076235248077720e-01
8.954626893288462897e-02
5.620093316243755799e-02
2.166457574170363096e-02
-1.355616990775634217e-02
-4.800742436727045703e-02
-8.115236655476419647e-02
-1.117631076399859397e-01
-1.390203014988923569e-01
-1.623137258313581410e-01
-1.805187768079502819e-01
-1.937236122546037442e-01
-2.008454155998842250e-01
-2.021254889864083082e-01
-1.972488776995239002e-01
-1.860690836783314150e-01
-1.694036087515510269e-01
-1.468452290381821457e-01
-1.196632351628734020e-01
-8.798039488895527394e-02
-5.254732765001404737e-02
-1.458316410926027012e-02
2.573266273551863895e-02
6.678658105659550370e-02
1.082408078386585537e-01
1.491595930389968405e-01
1.884626573993868348e-01
2.259039730844103755e-01
2.603375032300875858e-01
2.915377788458726749e-01
3.191058599576790389e-01
3.424489645111403746e-01
3.616962298877572368e-01
3.765299370267167212e-01
3.869923158216719838e-01
3.934180050858872568e-01
3.956874195671549188e-01
3.943499224153373950e-01
3.896734851683923417e-01
3.819304296876463445e-01
3.718148219017224365e-01
3.594664729586953267e-01
3.455627470915782484e-01
3.304427291518354792e-01
3.145085738920215257e-01
2.982451735755157762e-01
2.818918018653440161e-01
2.658831522222074861e-01
2.503194738904495065e-01
2.356136288386619926e-01
2.217097158467165319e-01
2.089276189008060780e-01
1.972565749136465374e-01
1.865860645899594106e-01
1.772454195022919177e-01
1.686938354949896746e-01
1.613681986690314318e-01
1.548492443931301643e-01
1.490362141033643728e-01
1.441044800709860019e-01
1.393452005799694360e-01
1.352837115027041293e-01
1.312765342499544463e-01
1.274308736790001617e-01
1.237032374812691571e-01
1.195682433381293486e-01
1.155082436889255937e-01
1.108499317244785176e-01
1.059707407458430894e-01
1.005448477228492732e-01
9.446035996180193739e-02
8.797035936488079022e-02
8.049427236893519355e-02
7.261551502500089572e-02
6.368267967630962534e-02
5.407582771705844726e-02
4.366159795134681720e-02
3.201259594913835604e-02
1.980751741852464567e-02
6.093845954853328861e-03
-8.276756956630829803e-03
-2.386987220160647835e-02
-4.090668632508985547e-02
-5.869601548043408556e-02
-7.832978539581735011e-02
-9.866861315987263126e-02
-1.205042952269029521e-01
-1.438248485066349891e-01
-1.679637555546588945e-01
-1.939568141841089000e-01
-2.204897710392270949e-01
-2.483935986183941902e-01
-2.773822738145700351e-01
-3.068368177222121074e-01
-3.375698236146467690e-01
-3.682102819273854188e-01
-3.994961868221858503e-01
-4.308907130750539993e-01
-4.618793996992920925e-01
-4.929881944332549781e-01
-5.229431791768909266e-01
-5.523607775279087972e-01
-5.805587921695035680e-01
-6.072260865962325616e-01
-6.326416890982868857e-01
-6.557914221747007666e-01
-6.772190092113612447e-01
-6.962259332390573485e-01
-7.128071883712371326e-01
-7.270678240791700331e-01
-7.383750344010004962e-01
-7.472597287303425206e-01
-7.530903730682387831e-01
-7.562354157560593482e-01
-7.566585230411393415e-01
-7.541669350252290238e-01
-7.492838377154491525e-01
-7.414626822548554541e-01
-7.314458672602189848e-01
-7.190212315673847332e-01
-7.044422107850841774e-01
-6.881395118122176635e-01
-6.696526391125824373e-01
-6.500036081786171316e-01
-6.287421945641107346e-01
-6.065333563252829352e-01
-5.835215802061801682e-01
-5.594582234888585415e-01
-5.353449208294451811e-01
-5.104929909783412212e-01
-4.858816414164180975e-01
-4.611623729766162194e-01
-4.364158352052029954e-01
-4.122777509713131949e-01
-3.878919167922378342e-01
-3.643818073687948300e-01
-3.407953938417775386e-01
-3.176083130009747513e-01
-2.948328691425381454e-01
-2.716198733169590818e-01
-2.490410539421948899e-01
-2.256172580777816850e-01
-2.022644316733389347e-01
-1.782894544959802430e-01
-1.531344626269401932e-01
-1.276699462405923580e-01
-1.001728352848766518e-01
-7.202176664671813833e-02
-4.194616103654395800e-02
-9.995084998633899098e-03
2.324041330469049302e-02
5.934769255398926469e-02
9.651727172907345609e-02
1.363657973592889150e-01
1.780203796860466148e-01
2.212317229921778317e-01
2.671537220318375150e-01
3.136771142648774324e-01
3.625888442861773253e-01
4.121617776447487058e-01
4.626029409215066668e-01
5.145230998008465395e-01
5.657509615997594610e-01
6.182017773209355083e-01
6.694403007693939811e-01
7.203100543168718950e-01
7.709310339497053022e-01
8.193774368018678089e-01
8.677035359686862126e-01
9.130923972141892220e-01
9.571142001685550849e-01
9.995158270715277515e-01
1.038911761733980921e+00
1.077359318762196594e+00
1.112205264057779308e+00
1.145465839324492974e+00
1.176618793070699054e+00
1.204995558358212593e+00
1.232398944723308576e+00
1.256580727545975940e+00
1.279706358563311941e+00
1.300906150110178183e+00
1.320220440991161093e+00
1.338779536274386395e+00
1.354886623042290017e+00
1.370383411487834602e+00
1.383981486446356657e+00
1.396266774782132902e+00
1.407329035481341917e+00
1.416131256058505095e+00
1.423755977022995500e+00
1.428601236951170694e+00
1.431598773052334739e+00
1.431727060298067622e+00
1.428740014731604946e+00
1.422786792509752374e+00
1.412304328403599651e+00
1.398446096560486351e+00
1.379389271721921162e+00
1.355837352652511152e+00
1.327148621451845090e+00
1.292309633435214211e+00
1.252661216868070193e+00
1.206121280049632594e+00
1.154465304083971411e+00
1.096546538065264587e+00
1.032378242954574032e+00
9.634094177192136232e-01
8.877797076785645114e-01
8.082943088086426142e-01
7.234251544834999770e-01
6.344815675482993189e-01
5.426811551343654338e-01
4.465884181426010291e-01
3.497218293671881528e-01
2.499864690688627378e-01
1.499371361443906092e-01
4.996037941778053160e-02
-5.100911542639456620e-02
-1.493136772430547765e-01
-2.479444878616527403e-01
-3.434196497207743226e-01
-4.367905308705224976e-01
-5.288176836594299379e-01
-6.163703179100480378e-01
-7.034547306542473510e-01
-7.859836537965403380e-01
-8.667720742816213964e-01
-9.460506102065699974e-01
-1.021730360785185532e+00
-1.098408375932781178e+00
-1.171604955142377502e+00
-1.245646435819179443e+00
-1.319692319705903172e+00
-1.392897511339174832e+00
-1.469506105001859408e+00
-1.544784300561560464e+00
-1.623781888503087023e+00
-1.704022362204852037e+00
-1.785824824556956569e+00
-1.872036547479893009e+00
-1.957894922588667264e+00
-2.048229582815578986e+00
-2.138775982029238687e+00
-2.230852030392886043e+00
-2.325315491791003719e+00
-2.417844710126386243e+00
-2.512403486299603195e+00
-2.603461905359798489e+00
-2.693256888971224949e+00
-2.780788336277509210e+00
-2.862851821545920661e+00
-2.942360624244974243e+00
-3.013559580304154384e+00
-3.079562800103949449e+00
-3.138153164641154902e+00
-3.187860715443638693e+00
-3.230511778662563227e+00
-3.261504192650869882e+00
-3.284346923128887319e+00
-3.296382567369695149e+00
-3.298161191212713561e+00
-3.290306457987743016e+00
-3.270384923060908111e+00
-3.241557592880675909e+00
-3.201224747262295889e+00
-3.151823566472768956e+00
-3.092572528824020672e+00
-3.023369130711611064e+00
-2.946466920742725648e+00
-2.859451966047438898e+00
-2.766179692115163569e+00
-2.664142396750411645e+00
-2.555532121096594445e+00
-2.440976541570730074e+00
-2.318462001371935699e+00
-2.192564977798164616e+00
-2.058893396311737067e+00
-1.921884165709944359e+00
-1.779827368828142742e+00
-1.631686342046619220e+00
-1.481878793415943640e+00
-1.324395126401078926e+00
-1.165844478074584023e+00
-1.001668799521124864e+00
-8.327668207282691304e-01
-6.623515610030873413e-01
-4.835719380665207678e-01
-3.049203702359467583e-01
-1.188523565905462709e-01
7.076499641903490068e-02
2.630493106161743699e-01
4.645541628726996275e-01
6.656040504861525653e-01
8.763506237385634279e-01
1.089298294170581105e+00
1.306798303079240275e+00
1.533846816811779368e+00
1.760618534388612710e+00
1.998839474912188274e+00
2.237381890926211092e+00
2.482033663815502500e+00
2.742263640549017722e+00
3.004211839698775588e+00
3.249511653628496699e+00
3.491086714959060977e+00
3.764744291566943790e+00
4.078075818574908418e+00
4.367041617596437497e+00
4.580722084623762846e+00
4.780978101202867592e+00
5.082597964805355417e+00
5.471938569737082148e+00
5.764890086204768060e+00
5.854944304951058776e+00
5.928884959193887028e+00
6.264005529177669729e+00
6.786618595317547076e+00
7.047503114962446524e+00
6.818747718856109863e+00
6.575203322584401988e+00
7.024675810801789488e+00
8.041237831787530155e+00
8.380596161870258243e+00
6.812824607937514543e+00
3.578547840213664788e+00
4.169855545245154671e-01
