BVP Signal
-4.305363562383210385e-02
-9.608529044036473454e-02
-1.381676935506961357e-01
-1.614165942529471320e-01
-1.613514512263382050e-01
-1.376046369258791535e-01
-9.382652228033505626e-02
-3.688331955954821106e-02
2.442432728413451715e-02
8.084202278410801412e-02
1.240796447074590803e-01
1.479625715806496822e-01
1.491820453249068090e-01
1.275854438756324483e-01
8.602703104432463110e-02
2.986789531174488532e-02
-3.375866627937579995e-02
-9.681827946861840117e-02
-1.513139521607835825e-01
-1.902231124333357837e-01
-2.083387834422713580e-01
-2.029040960964100249e-01
-1.739446429777421477e-01
-1.242425257107752090e-01
-5.894700730056157134e-02
1.512187754095339898e-02
9.035507247055990510e-02
1.592560192369062988e-01
2.152033848304250596e-01
2.529813263514791299e-01
2.690777295361111987e-01
2.618232008395603994e-01
2.314562049653714482e-01
1.801569697814425774e-01
1.120320616530313673e-01
3.298622490245611827e-02
-4.959983854323501973e-02
-1.274514739927067875e-01
-1.922503276346988754e-01
-2.366712707315973274e-01
-2.554381725329707420e-01
-2.461901062414653119e-01
-2.099714455101953092e-01
-1.512292454746615167e-01
-7.729206540472596809e-02
2.602778969146637977e-03
7.858001281297236074e-02
1.414770596333651542e-01
1.840421351658517723e-01
2.017989644374273972e-01
1.934913994918535662e-01
1.611100367473098371e-01
1.095524498370993860e-01
4.597887874570891209e-02
-2.107780248585374924e-02
-8.277710492391213148e-02
-1.311065533384602744e-01
-1.599455271409891410e-01
-1.658949244154069858e-01
-1.487224796244854264e-01
-1.113270259763354808e-01
-5.921975645305113667e-02
3.670947882297437292e-04
5.954892997099042740e-02
1.108217606751404627e-01
1.479008710782555858e-01
1.662985131880588274e-01
1.636531940476042002e-01
1.398610691593225042e-01
9.705920188938033100e-02
3.948350823203247706e-02
-2.681578027892683735e-02
-9.444725716069479748e-02
-1.553765186914486951e-01
-2.018320924451443843e-01
-2.273260355570096702e-01
-2.276292454963546597e-01
-2.015105066178567439e-01
-1.510709757361174410e-01
-8.158198443749221929e-02
-8.406824395832818153e-04
8.184027696971052368e-02
1.568274607436656587e-01
2.153523705135790833e-01
2.505336406056809517e-01
2.581454929516617813e-01
2.370953746428038911e-01
1.895946080739823458e-01
1.210031971545997564e-01
3.932917497926024381e-02
-4.561553764784473386e-02
-1.233532266515478121e-01
-1.840611903472998689e-01
-2.199067421094887675e-01
-2.261926776943951611e-01
-2.021105974807742567e-01
-1.509464932794061798e-01
-7.967441692094540118e-02
2.010323042882865285e-03
8.306102001336915230e-02
1.526271505293230191e-01
2.015346557637024971e-01
2.234797651247802941e-01
2.157805352667359622e-01
1.796154049215179793e-01
1.197612276422508198e-01
4.390351135962206053e-02
-3.837539826592045733e-02
-1.168068908155638352e-01
-1.817081740415659730e-01
-2.251684970104496086e-01
-2.420049106090112478e-01
-2.303678315658878872e-01
-1.919252923362772256e-01
-1.316166457368407317e-01
-5.702485180136235288e-02
2.254036876336107387e-02
9.713363214672665613e-02
1.573261937787401310e-01
1.953270800671237373e-01
2.059953721444391372e-01
1.876500229968329769e-01
1.425456822110010568e-01
7.686314368394953078e-02
9.777076179195987038e-05
-7.617145167038680276e-02
-1.400048918590390823e-01
-1.810438499774276178e-01
-1.923024887136110250e-01
-1.714353701920349471e-01
-1.211980113716333574e-01
-4.899175533829253082e-02
3.440616926992941249e-02
1.166474266139193305e-01
1.857803753432140659e-01
2.320218140764386539e-01
2.490628739303060724e-01
2.347572735861184201e-01
1.911557490457997111e-01
1.239570736723197564e-01
4.153548132737755472e-02
-4.624871666200525838e-02
-1.292635131257055814e-01
-1.982141747938938048e-01
-2.455793244712790591e-01
-2.663355326959088165e-01
-2.584298144961491017e-01
-2.229570911753253337e-01
-1.640185139144494375e-01
-8.827092093589641864e-02
-4.211360092732929772e-03
7.873155486333367759e-02
1.512047479654067272e-01
2.049327917021860346e-01
2.336265744080210371e-01
2.337346873068687214e-01
2.049786242372952927e-01
1.505914781618894194e-01
7.716232900036511244e-02
-5.987363498846310500e-03
-8.789435155083484552e-02
-1.574084479800161862e-01
-2.048123430309542470e-01
-2.233386438102576976e-01
-2.102941391201574861e-01
-1.675458257591050104e-01
-1.012443953449021772e-01
-2.083307172444101574e-02
6.244902026525564476e-02
1.372700709933088459e-01
1.938158340353730580e-01
2.250680171799717411e-01
2.275965365552148623e-01
2.018007368081861097e-01
1.516226557626656202e-01
8.383139340260462036e-02
7.025179073022955190e-03
-6.949196519574588060e-02
-1.368206411108673637e-01
-1.874531862767329637e-01
-2.160495038538626789e-01
-2.199314160833639453e-01
-1.992514301131586840e-01
-1.568341622273194680e-01
-9.773744837476676384e-02
-2.861557038489423443e-02
4.302135365535326994e-02
1.095651454026866645e-01
1.640159561288406231e-01
2.005944653047822268e-01
2.152451486569525729e-01
2.060302402012013645e-01
1.733998517460996203e-01
1.202897904962273723e-01
5.197728812391552711e-02
-2.435631542666243099e-02
-1.003502341517143459e-01
-1.674029330450000908e-01
-2.176994281293414824e-01
-2.451769013344291537e-01
-2.462828498872561001e-01
-2.204140582898507228e-01
-1.699840137150257502e-01
-1.001342095459555326e-01
-1.815484120202509599e-02
6.730275180474248886e-02
1.471437472569906424e-01
2.127983242602670411e-01
2.571473651678790051e-01
2.753032679489678669e-01
2.651581591589107778e-01
2.276418208135965737e-01
1.666609363611388783e-01
8.871750881759277174e-02
2.234888397381173952e-03
-8.334634554450398580e-02
-1.586139145780346982e-01
-2.152661392028770160e-01
-2.471109544603495300e-01
-2.508431610161976355e-01
-2.264618225737765611e-01
-1.772386721586805547e-01
-1.092441446643100389e-01
-3.053701046809842445e-02
4.982305627650612800e-02
1.227892419068811747e-01
1.802638397244210600e-01
2.159004706602750123e-01
2.257400123825437366e-01
2.086478591214232514e-01
1.665067024520499595e-01
1.041082811304613887e-01
2.869956921266228478e-02
-5.081397420099198481e-02
-1.249350761173532443e-01
-1.847740407766523263e-01
-2.232074466684023095e-01
-2.358183209175831463e-01
-2.214643031254169836e-01
-1.823725001840889592e-01
-1.237377842874046729e-01
-5.289562111630013302e-02
2.177025891037026595e-02
9.197191908186025389e-02
1.505074961907837405e-01
1.919591866528844726e-01
2.130541282770347378e-01
2.127221370781792187e-01
1.919256148289436581e-01
1.533472338424007320e-01
1.010159347618092007e-01
3.993339817015736926e-02
-2.427312468565484549e-02
-8.568849769876007993e-02
-1.384796876322230696e-01
-1.773342851623987970e-01
-1.979736058749897998e-01
-1.977015996762530037e-01
-1.759007426073335711e-01
-1.343483728430878155e-01
-7.722689267898899534e-02
-1.075519106831132263e-02
5.753493110792240461e-02
1.197554545764356604e-01
1.686757816604601556e-01
1.986236065082762625e-01
2.061508918318072370e-01
1.903998797585278457e-01
1.531534854152579450e-01
9.859420342261156212e-02
3.282280464633053479e-02
-3.680378184908626726e-02
-1.024618113479117687e-01
-1.567229657185842395e-01
-1.934130298150822935e-01
-2.083586000389901771e-01
-1.999017734841495031e-01
-1.690907516540882949e-01
-1.195140162051266941e-01
-5.681289258763538852e-02
1.203910587981488201e-02
7.957107238481381239e-02
1.386384092633992093e-01
1.831294165556704989e-01
2.084915915816956677e-01
2.120670718377304365e-01
1.932638855650002929e-01
1.535944970553241307e-01
9.659245733715537963e-02
2.759404830426781530e-02
-4.663883690934989001e-02
-1.184719079160786448e-01
-1.801219632425810069e-01
-2.245057642872054227e-01
-2.461219083926555196e-01
-2.418335328331038814e-01
-2.114057096567119876e-01
-1.576752436238109678e-01
-8.629208879082583827e-02
-5.054392548451636102e-03
7.706363495256285390e-02
1.510411833804115034e-01
2.089281608699946058e-01
2.447870514712228718e-01
2.553256285186642494e-01
2.401420147208747635e-01
2.015792352988095559e-01
1.442617500280630738e-01
7.443413505252760576e-02
-7.727685235780490380e-04
-7.405366408784291865e-02
-1.385685895107244825e-01
-1.884953958399523954e-01
-2.194908513131697270e-01
-2.290447366494562931e-01
-2.166898967343109383e-01
-1.840209182515168962e-01
-1.344928851593335806e-01
-7.301895459333557215e-02
-5.437401284725640327e-03
6.205546091116243002e-02
1.234232947895188559e-01
1.732153116914011415e-01
2.069002989130639403e-01
2.211427045183995688e-01
2.140649505735573443e-01
1.855191844772202114e-01
1.373395495739318795e-01
7.348492337807510655e-02
-4.961793905222666723e-05
-7.564752849575784310e-02
-1.448274408571987859e-01
-1.992649224991718260e-01
-2.319340359310394506e-01
-2.381869467469548418e-01
-2.165774936084866042e-01
-1.692523067450302787e-01
-1.017980189964735188e-01
-2.254244982796260732e-02
5.857519184718551486e-02
1.313693344967815646e-01
1.867863842987325107e-01
2.180919737340122344e-01
2.217075553272672694e-01
1.976001763954292056e-01
1.492020338424305814e-01
8.290266909402974060e-02
7.201615899695680556e-03
-6.836915100505358556e-02
-1.344322127504342934e-01
-1.829245311096752979e-01
-2.080782641026372171e-01
-2.070799441200848745e-01
-1.803145729518779161e-01
-1.311792668754102331e-01
-6.553034113002072225e-02
9.115530144305161731e-03
8.448157103678130553e-02
1.523986999470299253e-01
2.055497231427134697e-01
2.380611508634067341e-01
2.459671007476664228e-01
2.275817065657982363e-01
1.837789331271051374e-01
1.181206232561854558e-01
3.674038484818070716e-02
-5.209277901616016226e-02
-1.387517411483575602e-01
-2.133201867930163975e-01
-2.668353715861629949e-01
-2.925274137513563799e-01
-2.868419862000127218e-01
-2.500432278976408296e-01
-1.862612639170903028e-01
-1.029587549118716749e-01
-9.908278716088791960e-03
8.213630164313574789e-02
1.628455934765934421e-01
2.235746629449078537e-01
2.583062891145606610e-01
2.641869176233611061e-01
2.416474717375252101e-01
1.941605899100172783e-01
1.277106826820666452e-01
5.005357604541355032e-02
-3.016020619442971729e-02
-1.043183429117462702e-01
-1.647469070906386335e-01
-2.054888364924840061e-01
-2.228814007709931655e-01
-2.158688711095294588e-01
-1.860105163526033500e-01
-1.371828469784177607e-01
-7.502516358747057801e-02
-6.221935250045551591e-03
6.226349343741183207e-02
1.238966575750031635e-01
1.731412965509240010e-01
2.058471761242660347e-01
2.194529617567204383e-01
2.130364159025087967e-01
1.872650589012698763e-01
1.442963148967630893e-01
8.764878714338242283e-02
2.203219577713548538e-02
-4.689797078074142700e-02
-1.128959607613879285e-01
-1.696108855398793802e-01
-2.111945456505269769e-01
-2.329868431908808657e-01
-2.321844651918601177e-01
-2.083555899937469535e-01
-1.636590495272167711e-01
-1.026811249808077253e-01
-3.189931022366623847e-02
4.112653128031608374e-02
1.086862988640758254e-01
1.638236667932900237e-01
2.010890041756645541e-01
2.170610038004280040e-01
2.106035880110109504e-01
1.828667488128176977e-01
1.370688286595894145e-01
7.810862755769645838e-02
1.205323696493360366e-02
-5.445603474785475767e-02
-1.148344510319806444e-01
-1.631719882712570069e-01
-1.947902745496337129e-01
-2.066911327135697585e-01
-1.978456471633207037e-01
-1.692729155658720952e-01
-1.238812327183164419e-01
-6.609554627519206860e-02
-1.349464612273393316e-03
6.445638515010339298e-02
1.254476047958583695e-01
1.761830868002262074e-01
2.119789521731498261e-01
2.291762675020209139e-01
2.253872479915336180e-01
1.997477234097280174e-01
1.531773756722877855e-01
8.860359881464097143e-02
1.105699837454386832e-02
-7.247471815221692704e-02
-1.535232852806545922e-01
-2.229687463470605424e-01
-2.721525693044188343e-01
-2.941177067429580627e-01
-2.847532982069438945e-01
-2.436052384939684790e-01
-1.741636901192037401e-01
-8.354831297211129382e-02
1.835642487454847149e-02
1.201590762981163130e-01
2.104055649509451731e-01
2.790005324371607198e-01
3.184168075197417735e-01
3.245388177735104573e-01
2.970428090527205134e-01
2.392968496614447105e-01
1.578430525511630433e-01
6.157306251725463975e-02
-3.928200231519374253e-02
-1.342371665674333969e-01
-2.136186850587356023e-01
-2.695242703856708943e-01
-2.966051571452283930e-01
-2.926044535537530855e-01
-2.585900889894899302e-01
-1.988322120194350451e-01
-1.203108721398535724e-01
-3.190170263965257103e-02
5.664753551819084326e-02
1.358006929748120095e-01
1.972385936049783905e-01
2.346904213320406274e-01
2.445385246574753035e-01
2.261649037573087717e-01
1.820129864060756053e-01
1.173479542423274680e-01
3.972082203786125865e-02
-4.183113304539470834e-02
-1.177879388850808784e-01
-1.792644918851956648e-01
-2.191155906095100248e-01
-2.328701710895362820e-01
-2.193305787563507858e-01
-1.807072153627818922e-01
-1.222332364990996734e-01
-5.130619493393701047e-02
2.368694676148985767e-02
9.461881040819808408e-02
1.546755479223426155e-01
1.990050461525764702e-01
2.248815802215010928e-01
2.314639012434892285e-01
2.193336250806168508e-01
1.900279669849797570e-01
1.457327730970388591e-01
8.920987622070830625e-02
2.392640397883744052e-02
-4.574276877340016645e-02
-1.144249118801611287e-01
-1.759434988719729975e-01
-2.238765839210734576e-01
-2.524221782625530319e-01
-2.573881580909336275e-01
-2.370594029167513161e-01
-1.927062266613245312e-01
-1.285779736073678903e-01
-5.135536658181386049e-02
3.081832766427430176e-02
1.094938574275085008e-01
1.769932082239027427e-01
2.272003430068650909e-01
2.559799704955653121e-01
2.612633421130028388e-01
2.429179258651961160e-01
2.025337267738935854e-01
1.432267546713942297e-01
6.950074593856100935e-02
-1.286062833762263713e-02
-9.695700491110169350e-02
-1.750985895366458656e-01
-2.393774531355938873e-01
-2.824906002540341077e-01
-2.987320357290604300e-01
-2.849884446412942474e-01
-2.415185691533347501e-01
-1.722913063517950705e-01
-8.472160328090097559e-02
1.122631269172541524e-02
1.044384642229062576e-01
1.842880391644139970e-01
2.421798706348694541e-01
2.726980071043362264e-01
2.741537710957976937e-01
2.484756829338052864e-01
2.005308472531375230e-01
1.370852117573089779e-01
6.566512310562067078e-02
-6.442799962050854701e-03
-7.290622711861757810e-02
-1.287382874214321737e-01
-1.704136054052337035e-01
-1.958023860839810948e-01
-2.040237131920170088e-01
-1.952996635990890129e-01
-1.708516096861826816e-01
-1.328305203642299315e-01
-8.423623679789243868e-02
-2.877771721848936676e-02
2.934371796873627009e-02
8.570837654983463894e-02
1.359716575011234163e-01
1.761474307654589122e-01
2.028697370385414422e-01
2.136293443876263465e-01
2.069785139486293168e-01
1.826955300662977955e-01
1.419036916522365410e-01
8.713579539139582053e-02
2.231796851218745270e-02
-4.737131256958459352e-02
-1.158102870460293032e-01
-1.764285076410343767e-01
-2.228646783504807938e-01
-2.497239660299859776e-01
-2.533307823602167774e-01
-2.323398945194443121e-01
-1.880656420390896533e-01
-1.244398903545861634e-01
-4.760375887538575990e-02
3.477305051762966115e-02
1.143154535745326134e-01
1.827996919537631104e-01
2.329753164545675659e-01
2.593049627279399028e-01
2.585677037174091697e-01
2.302617722920255183e-01
1.767513504229462351e-01
1.031261034691261791e-01
1.676643634387225967e-02
-7.336789901434512262e-02
-1.576728573001652811e-01
-2.269626232793757747e-01
-2.735311056999748525e-01
-2.920757480779908044e-01
-2.803589015743443991e-01
-2.395061178915111610e-01
-1.738810861940200403e-01
-9.054129003248628793e-02
1.642956400917827686e-03
9.306028847316605290e-02
1.744541214552575437e-01
2.378986458203349308e-01
2.775561212149748047e-01
2.901612906898222710e-01
2.752181237652874812e-01
2.349320859564653086e-01
1.739288884987915396e-01
9.881015374201583545e-02
1.756922392972368185e-02
-6.113364555493122632e-02
-1.288286490106521354e-01
-1.781753723756268337e-01
-2.038787659018433951e-01
-2.034399339706248755e-01
-1.775940724512378166e-01
-1.303213896308014208e-01
-6.838777106710354492e-02
-4.647015244815741464e-04
6.403705976284283785e-02
1.162365385146818808e-01
1.489679560914848877e-01
1.577286597910158572e-01
1.412808463918701629e-01
1.018371154430076087e-01
4.479336905512002615e-02
-2.198139634677941101e-02
-8.922141514134671048e-02
-1.475587572165906192e-01
-1.888435257178723847e-01
-2.072907314854485761e-01
-2.002810982426992958e-01
-1.686963030563460031e-01
-1.167483445464951308e-01
-5.135293802471330160e-02
1.883337823017827706e-02
8.456620039912038367e-02
1.372195960085740296e-01
1.699259452228296663e-01
1.785314108180737214e-01
1.622415063382720568e-01
1.238393352434679073e-01
6.940098918693529684e-02
7.501713337477539101e-03
-5.201437236095163286e-02
-9.954566264942238396e-02
-1.272903868006810546e-01
-1.305651695791653077e-01
-1.086184874124135336e-01
-6.476948657297476597e-02
-5.847302310382856971e-03
5.895092856936953729e-02
1.195609262987016308e-01
1.666380476828198953e-01
1.929625703035633966e-01
1.944525641607995348e-01
1.706635965030915969e-01
1.247506318909870626e-01
6.294399547263226924e-02
-6.362745382656354032e-03
-7.379125013139734013e-02
-1.302818336240286201e-01
-1.683590061539959049e-01
-1.831868580376539435e-01
-1.732599229249772443e-01
-1.406200239156205622e-01
-9.055307091714290268e-02
-3.079774981421015689e-02
2.961550948137839367e-02
8.170175717599215126e-02
1.178060687226800685e-01
1.326288418580853778e-01
1.238570487077965410e-01
9.235606904931258077e-02
4.194971837912560286e-02
-2.114068538447549245e-02
-8.910539401503228540e-02
-1.534986067934026865e-01
-2.062258243423943371e-01
-2.404646374146574561e-01
-2.514294931983277470e-01
-2.369006965057409708e-01
-1.974482108832216198e-01
-1.363075483839097934e-01
-5.891933924715408999e-02
2.778567328238645828e-02
1.162185237311033487e-01
1.989273090867750005e-01
2.692319630592077129e-01
3.216357024625191574e-01
3.520219738968780598e-01
3.577079660226105684e-01
3.374594602091531836e-01
2.915612656468623554e-01
2.219818818800106675e-01
1.325912696092990117e-01
2.931939384901105505e-02
-7.989192147996532212e-02
-1.854772686463610487e-01
-2.770472950928527522e-01
-3.445696404638843857e-01
-3.797777620778909902e-01
-3.775446288569110354e-01
-3.369149622362089813e-01
-2.615468651503690678e-01
-1.594511538922828153e-01
-4.207205278017023264e-02
7.712888310383081425e-02
1.843591664647014072e-01
2.672059241168640575e-01
3.161422321861215856e-01
3.256532384269287261e-01
2.948786425134102274e-01
2.277333425047860516e-01
1.325075660769171604e-01
2.097104637554336737e-02
-9.296186662267225120e-02
-1.948951252171495785e-01
-2.717659335577682356e-01
-3.135806667666569680e-01
-3.148117081944293849e-01
-2.752077128219541091e-01
-1.998429971307954245e-01
-9.837013317930298761e-02
1.638895104915982781e-02
1.302360289425242845e-01
2.294403350057859781e-01
3.023455629243539944e-01
3.405646286710254378e-01
3.397020139738625710e-01
2.996206965079990514e-01
2.243099379462245579e-01
1.214257908141068987e-01
1.568962789335381913e-03
-1.226639219504347955e-01
-2.378440347553847922e-01
-3.310627240738158727e-01
-3.913851443928557661e-01
-4.112388990193983629e-01
-3.875146701136769067e-01
-3.221490212657675545e-01
-2.220158415719740708e-01
-9.807193971075163497e-02
3.613596958427314765e-02
1.663375314185978338e-01
2.794187703449312887e-01
3.649662784728866516e-01
4.162321943057607498e-01
4.304321612363460337e-01
4.084415781121158995e-01
3.540729796757706715e-01
2.731811091838676209e-01
1.728374231151979801e-01
6.073724765846678225e-02
-5.512728438071942683e-02
-1.666260963502907699e-01
-2.656546526931252705e-01
-3.444650760409680990e-01
-3.962445162519938613e-01
-4.159016095529288193e-01
-4.009076828402642345e-01
-3.519633444692513158e-01
-2.732540621248432666e-01
-1.721394353355929496e-01
-5.827577804258235461e-02
5.765626197618300974e-02
1.653322374147780938e-01
2.559741935076403907e-01
3.231363491615910633e-01
3.630051920191721404e-01
3.742667582034696627e-01
3.576935356863801818e-01
3.156456206816023458e-01
2.516542658726511061e-01
1.701740180177598316e-01
7.649031760761137999e-02
-2.330650461265712514e-02
-1.224015401142603543e-01
-2.134984441716123449e-01
-2.892874325478259623e-01
-3.431300257294567224e-01
-3.698721673633992846e-01
-3.666281471294479122e-01
-3.333468857718618894e-01
-2.729989978112099536e-01
-1.913033433507497771e-01
-9.601877349923704230e-02
4.071237553606305015e-03
1.002810262922584766e-01
1.850283618281992337e-01
2.525361283248626076e-01
2.991342535901051480e-01
3.231810858495706151e-01
3.247180348154892759e-01
3.050134031888573349e-01
2.661399757613219230e-01
2.106898338790967329e-01
1.416793106335006436e-01
6.263746268893224944e-02
-2.219873323089982531e-02
-1.077195529639001781e-01
-1.879611141145046127e-01
-2.564156503480027882e-01
-3.066540333162821597e-01
-3.331848668369178923e-01
-3.323931905692331101e-01
-3.033457769167936524e-01
-2.482363896374996937e-01
-1.722999145667297449e-01
-8.315488402638737675e-02
1.030083316416224859e-02
9.918624022502259274e-02
1.758282961655787124e-01
2.346028770620722514e-01
2.722950715385984433e-01
2.879843044397060736e-01
2.825813879967618569e-01
2.582187974920130413e-01
2.176987006383498124e-01
1.641386651255593299e-01
1.008565262051470263e-01
3.144626678794819330e-02
-4.006132705400548832e-02
-1.090857899282147159e-01
-1.705590240522365519e-01
-2.192434501355351728e-01
-2.503019390509397812e-01
-2.600164412783074752e-01
-2.464810836760938650e-01
-2.100837233120204373e-01
-1.536423614478641952e-01
-8.215505039329057402e-02
-2.217069606290679451e-03
7.877006695024381389e-02
1.534386311326233210e-01
2.151916604569641400e-01
2.587340924206831261e-01
2.803713101296994026e-01
2.781186544005468386e-01
2.517008885964472364e-01
2.025153256450447359e-01
1.335992038691353467e-01
4.959548361107991854e-02
-4.333694309164258518e-02
-1.377565350586310022e-01
-2.254019294863959244e-01
-2.979194521514544891e-01
-3.478006056884462849e-01
-3.693803565673183242e-01
-3.596903245564533891e-01
-3.189707718969043704e-01
-2.507213499678612179e-01
-1.612826549445041668e-01
-5.904545275962164858e-02
4.655038311607062607e-02
1.460506522515839234e-01
2.309103857515795166e-01
2.942231555752545802e-01
3.312370894734831817e-01
3.396740330750163128e-01
3.198650799930932154e-01
2.746940361870086056e-01
2.093310184599658785e-01
1.307533502867814501e-01
4.707909350174827035e-02
-3.323526608667037863e-02
-1.022622941374621286e-01
-1.534508097766019707e-01
-1.823560460208775158e-01
-1.871535179272498794e-01
-1.688517121229375917e-01
-1.311526435981544836e-01
-7.995959360391535764e-02
-2.259312655756345878e-02
3.316127340654192318e-02
8.001284807402640753e-02
1.119844595930203357e-01
1.250055775950636439e-01
1.172690148503514607e-01
8.938148353771663279e-02
4.432964975588449263e-02
-1.274690911246881275e-02
-7.499958330425236797e-02
-1.345418490715206417e-01
-1.833253176561205344e-01
-2.141552683100480525e-01
-2.217288758918983249e-01
-2.035298769443393274e-01
-1.603928904662566823e-01
-9.658742956097857157e-02
-1.936678141660891361e-02
6.195583705697832455e-02
1.372506223236088507e-01
1.969413999824567441e-01
2.333138358991626582e-01
2.415985514908703669e-01
2.207002735349136435e-01
1.734808827905445772e-01
1.065395757617797201e-01
2.947030063733180327e-02
-4.637130911855658066e-02
-1.094806811283940418e-01
-1.499896889624952045e-01
-1.613364645537542219e-01
-1.415052187623583868e-01
-9.357256514308184836e-02
-2.541546861518231143e-02
5.140984392862392449e-02
1.234544008603662979e-01
1.775396576047132968e-01
2.029359288352923230e-01
1.931906260948543785e-01
1.473051947348884561e-01
7.007094249910306161e-02
-2.849817670528453917e-02
-1.345706987389343467e-01
-2.325503456880695374e-01
-3.074687957367074898e-01
-3.473300776572108006e-01
-3.450093372835493222e-01
-2.993855836278776494e-01
-2.155289697017337969e-01
-1.039291847961983928e-01
2.108955487586583466e-02
1.434908494066124973e-01
2.478283154266587296e-01
3.213592977086956459e-01
3.556672035652101993e-01
3.476070658316876560e-01
2.995137918809382960e-01
2.187103989925041070e-01
1.164205305437795435e-01
6.240030065789436975e-03
-9.763760867395854248e-02
-1.822254699505618802e-01
-2.373626403710917820e-01
-2.569536122995408345e-01
-2.396649271684694327e-01
-1.889729393520782619e-01
-1.125507335187490021e-01
-2.110273924096284226e-02
7.314034633871768776e-02
1.580121244631764732e-01
2.228634169529722930e-01
2.597247149168426805e-01
2.640921066644547621e-01
2.352989711407576512e-01
1.764757093896510975e-01
9.413572225965922968e-02
-2.553503523879338717e-03
-1.027534715888567124e-01
-1.951288315354545722e-01
-2.691248515472493552e-01
-3.162176431407225374e-01
-3.309739828446423004e-01
-3.117585978575843075e-01
-2.609628777513144371e-01
-1.846920101975857431e-01
-9.193308725506410539e-02
6.674814489267877349e-03
1.002625402051688930e-01
1.791003520414338190e-01
2.356965192447852964e-01
2.654854583359509412e-01
2.670643249693416266e-01
2.420205273946347546e-01
1.944459335211243811e-01
1.302596235425745874e-01
5.646410010124425227e-02
-1.956259143984606652e-02
-9.068137217372251868e-02
-1.505039066796740599e-01
-1.938178443076585822e-01
-2.169346183910554338e-01
-2.179433477131211827e-01
-1.968354877470062103e-01
-1.554678959058675147e-01
-9.735604827351940216e-02
-2.732612042317528189e-02
4.890749639650104896e-02
1.251551611712214684e-01
1.950962246892228302e-01
2.525601524493301664e-01
2.918168442760893377e-01
3.079678695862164695e-01
2.974823870325669084e-01
2.588315578530355765e-01
1.930911411591713644e-01
1.043394562680584059e-01
-3.123702538703199139e-04
-1.111649796069826834e-01
-2.168672640256650297e-01
-3.057545204214413559e-01
-3.673976672699117429e-01
-3.941073721884622572e-01
-3.821239735263963766e-01
-3.322639348330209685e-01
-2.498790276244591269e-01
-1.441097429885047632e-01
-2.656376779431468549e-02
9.031639324771489896e-02
1.948677224242665318e-01
2.775083077393873943e-01
3.315500330154033115e-01
3.534948772734654021e-01
3.429082784067396528e-01
3.020251753052624055e-01
2.352485375942560686e-01
1.486605463655832349e-01
4.959774040729092448e-02
-5.373538427791890726e-02
-1.526918074296936823e-01
-2.387240688199341321e-01
-3.040709060710913292e-01
-3.425443566626125147e-01
-3.503074145515938653e-01
-3.264883074219522285e-01
-2.734656444990672952e-01
-1.966941624926477061e-01
-1.040348966789359508e-01
-4.689922329040641102e-03
9.203373806410120039e-02
1.778571848715291281e-01
2.463364958304730123e-01
2.932386471523678040e-01
3.165096216431386722e-01
3.159532332755574657e-01
2.927885732274990715e-01
2.492547175800154946e-01
1.883814661494191967e-01
1.139548369095138014e-01
3.060938989946926370e-02
-5.608328962986242061e-02
-1.396712162449373906e-01
-2.131320258382720656e-01
-2.694811024370213914e-01
-3.026333357904520405e-01
-3.083710802554602282e-01
-2.851890885373196127e-01
-2.347730363369979756e-01
-1.619455553528634795e-01
-7.405956000169666709e-02
2.002633416756793849e-02
1.111515434138006242e-01
1.909751314971153136e-01
2.528091964537608760e-01
2.920653620746556101e-01
3.063376891780222877e-01
2.952388738432460968e-01
2.601398744326957058e-01
2.039322694559970728e-01
1.308622516926050139e-01
4.641109644658314437e-02
-4.285433229225787954e-02
-1.295568845629979648e-01
-2.059926369001523483e-01
-2.648554940573859540e-01
-3.001511350256080846e-01
-3.081495778115197481e-01
-2.881536120897383313e-01
-2.428550622711069806e-01
-1.781244311709213601e-01
-1.022101862704172248e-01
-2.447105880855104942e-02
4.611382588768009327e-02
