0.000000000000000000e+00
1.449351133661841429e-01
1.205221809022808122e-01
9.974864966415147860e-02
-1.039764123090824999e-02
-1.658862827662467565e-01
-2.207953301027673620e-01
-2.047832164960102785e-01
-7.878386291881406267e-02
-2.096910959830735055e-01
4.535953296578926208e-02
1.099039522100919708e-01
2.265303616955900712e-01
2.210253338401961254e-01
1.750860290696916732e-01
1.073725596233416901e-01
-3.272682900545459406e-02
8.727412328770711714e-02
1.294142285320034613e-01
-2.083466964900188012e-02
-1.875575109276396424e-01
-1.137476126300737689e-01
-2.876819145466202321e-01
-2.317915501527816335e-01
-1.803647477937822541e-01
-3.482840462284886307e-02
7.396549029615473447e-02
1.078817044785328472e-01
1.656976087141877607e-01
1.274440753411675287e-01
6.296813318822724881e-02
4.308053681230483711e-02
2.357496995598575840e-01
1.433820151531527420e-01
3.908232486789176008e-03
-8.705571989336580163e-02
-6.524755619030520037e-02
-2.014901140505864774e-02
-1.937540317779650190e-01
-3.156572719822102191e-01
-1.671318841597768667e-01
1.838938494439902038e-01
1.393721477812285836e-01
1.988532949247844850e-01
5.346110838449585900e-02
5.909355924437009744e-02
1.426729779908300355e-01
2.040099950168549614e-01
1.665095624917280470e-01
-1.258226611487067714e-02
-7.011985709641122000e-02
-3.699072722929241941e-02
-4.796841076903246570e-02
-1.113313277655793021e-01
-3.088551863430877287e-01
-3.486803756793215303e-01
-1.006491024587493482e-01
1.004622616379889366e-01
1.344835569663942465e-01
8.973434000260571697e-02
4.726783245161836344e-02
1.345707713455404908e-01
8.458180497748390980e-02
8.799674083611019881e-02
8.096835354597153867e-03
-2.572244062475542714e-02
6.990689245620471115e-02
2.908595804700331300e-02
-5.547793514019472294e-02
-2.422666634985268796e-01
-2.555671675666858489e-01
-9.318312447972809665e-02
6.387002029463195729e-02
5.024050351817564014e-02
1.098537983135366991e-01
4.631827536300803239e-02
9.596025538643146446e-02
1.017000999501337932e-01
9.481695501646955626e-02
6.954594176722406207e-02
1.903164690350189758e-02
1.007978007066341886e-01
-2.881465985612619018e-03
-7.820410953412398891e-02
-1.703911288200935514e-01
-9.642043595729188343e-02
-1.792152134337564595e-01
-1.501263344515395559e-01
1.624974806168155705e-02
-1.443760681903897836e-01
2.444000261963685805e-02
2.072290770583444797e-01
1.238959559342655004e-01
2.152337720350473438e-01
5.580157943502861428e-02
2.223428627420037662e-02
1.053208870637338257e-01
-7.739224504129060822e-03
1.404245602118125436e-01
-1.874278792680068029e-01
-1.161539215854021229e-01
-4.725817196296555611e-02
-1.693090607325904440e-01
-2.323561196912233839e-01
-1.608916674586616802e-01
5.755337897068082964e-02
1.431564162585393929e-01
1.346898625738667810e-01
1.311656107848951924e-01
-7.785080207995154211e-02
3.165378683197050957e-02
2.468471717275169119e-01
9.885957694292724085e-02
5.658911217856339715e-02
-1.090505653618787374e-01
-4.827449280861961789e-02
-1.515380102945105278e-01
-1.301930188641362562e-01
-3.472111636507581034e-01
-2.424780020245389522e-01
-4.017616746388243121e-02
3.023952751308345288e-02
5.057233371854830128e-02
1.230808976858336901e-01
-2.032495239656528785e-02
7.601542157957696944e-02
1.800608078530873679e-01
9.294476794818229415e-02
4.021315759302956927e-02
-4.519797196507441273e-02
5.456413530424986114e-02
1.016302459360383104e-01
-1.597036663132656020e-02
-1.764112936564676826e-01
-2.822114070618996218e-01
-2.662523333490264266e-01
-6.942921945779123583e-02
5.269080312793121557e-02
1.729876636821048308e-02
-2.290750883100489688e-03
1.393433861791864570e-01
1.025058300704798364e-01
8.412888921024005984e-02
1.274314746577764890e-01
-7.134000457293621089e-02
8.476105392476468436e-02
2.701213585238801951e-01
-3.048074203821138362e-03
-4.678239956605573235e-03
-1.539533264411448998e-01
-2.150828810126254043e-02
-1.785525568467781765e-01
-1.775820528202570192e-01
-1.104578687347988475e-01
-1.069840281540745952e-01
9.995864591924991105e-02
2.525811601934382367e-01
4.816987779328685271e-02
8.858111532221468742e-02
2.407712821328147901e-02
1.348641603382508825e-01
1.939920341587066110e-01
9.596383139481451385e-02
-8.812105066236974871e-02
-4.960156802418236310e-02
6.413887476697563428e-02
-4.408328518736481794e-02
-7.653860723136418631e-02
-3.740948712426511169e-01
-2.894383074543148693e-01
-9.648523771451045228e-02
1.439184578131258441e-01
9.984822559174233447e-02
1.141337752523304827e-01
3.932638048587799862e-02
6.036156795526820273e-02
1.481701296009894087e-01
5.341304259166818058e-02
-1.583560281210372178e-02
1.312380843209093317e-02
9.124139667404446152e-02
-3.909026346077482117e-02
-1.399940340986811083e-01
-2.500460829173246635e-01
-1.945351074964003502e-01
-1.399056198183138422e-01
1.500326763226791926e-01
3.853077968612717008e-02
1.008124783628234766e-01
5.243760732392688251e-02
1.798033925993642868e-01
2.478767674564162915e-01
9.529148334882660276e-02
6.455357806588046810e-02
6.573253804964007685e-02
1.143247678016189317e-01
1.575801324626376343e-01
-1.354518841518834171e-01
-1.196244339561024495e-01
-3.179720497175774208e-01
-2.453486572571285107e-01
-4.972793247788320770e-03
6.055568692588753077e-02
-1.199151401492898339e-01
2.461629705057810646e-02
1.240423552690708558e-01
2.945358368464059962e-01
5.691311145722766085e-02
-8.356129893845787304e-02
7.409925291257135616e-02
1.053605965066815309e-01
6.492276300455190885e-02
-2.107630584532776963e-02
-1.223118399784800248e-01
-1.256459799490669271e-01
-1.045901904700129448e-01
-1.407580505327330478e-01
-2.184624159122844356e-01
-3.403742238400542242e-02
8.206660957330502715e-02
8.764373281561543827e-02
1.483897717195102606e-01
9.343771300047662431e-02
3.661130723296945888e-02
1.006171487294353351e-01
1.505942522711173348e-01
1.863604919768042656e-01
-1.575520855715499269e-01
-1.167774123398522546e-01
-1.210875116990127592e-01
-8.079445096156900874e-02
-1.676650386936817672e-01
-2.276723234025152809e-01
-1.841046458038753109e-01
-9.217733341884956633e-02
-8.333927709820998508e-03
4.559215611811151536e-02
-3.922593272508845264e-02
-5.314914347534127614e-02
1.763530681862769400e-01
1.224150897540346727e-01
5.865090831550037742e-02
-8.071411123794725029e-02
-2.424780677828808351e-02
-1.705716524491857067e-02
-6.652887974636223500e-02
2.642420275228640758e-02
-2.560780050576381695e-01
-2.811556206839110894e-02
1.297005306423434923e-01
1.915636607504778155e-01
2.066193403383816962e-01
-2.690246813796837166e-02
4.410935230722723421e-02
1.292939998998642870e-01
2.027254788120916862e-01
7.908340446532280410e-02
-1.251968374967086239e-01
-8.444556359566934844e-02
1.591355403378198752e-02
4.211914923744619621e-02
-3.985387390896205639e-02
-2.257719213038576478e-01
-2.174184101796751145e-01
7.029777470055453836e-02
1.454335320362538653e-01
1.292343832262315972e-01
1.377275744782480160e-02
-1.918194746609169776e-02
5.741361938582811852e-02
1.146129474622779032e-01
4.211841789657265467e-02
1.063896883776949409e-01
-8.870692331358934202e-02
-6.977714486513597603e-02
1.890115903157651989e-02
-1.263678602567679388e-01
-2.468194836096330169e-01
-9.432316325088208053e-02
5.527887539335560318e-02
8.906089387739124508e-02
2.001563693495522767e-02
4.689287703975586474e-03
1.860271828362120017e-01
5.932091822399554459e-02
1.475844972867124127e-01
1.147724324899527665e-01
-1.241087492591979036e-01
-1.191574505236629999e-01
-6.591076304847953704e-03
3.123914138112116046e-02
-8.614649032072078938e-02
-3.062169754003155608e-01
-6.824644861227607828e-02
1.269604594277681242e-01
-1.590291238270374885e-02
7.212451215890067213e-02
-3.232973164325741999e-02
5.816681381068012496e-02
1.714235149794036128e-01
8.081246689006776895e-02
4.860376870534233867e-02
-1.599841161489931607e-01
-1.129389992121262037e-01
-1.266508458588933017e-02
-1.342556343290526311e-01
-1.661332292809865607e-01
-2.282694404993036441e-01
-3.062313637268665456e-02
1.615248614258300019e-01
6.488200097359841934e-03
8.965238924614515881e-02
6.242865931292196358e-03
1.618029099630724776e-01
1.948011710308544531e-01
1.023646456820554995e-01
8.481756718191735267e-02
-5.925933190513110738e-02
-7.815851118976555045e-02
-5.316753913566740763e-02
-2.091325211284972285e-01
-2.485564703482238680e-01
-1.229511021695924300e-01
4.656694060125038392e-02
1.709245706996725955e-01
1.207921915314608685e-01
5.631493225299832872e-02
-7.244451481777580693e-02
1.339618665282672483e-01
1.455134677713916247e-01
1.074751901825433675e-01
-1.662809636020499970e-02
-3.789451705615254351e-02
-7.015171599599684393e-02
1.787614976895629537e-02
-3.631547755020447799e-02
-1.556152220798166508e-01
-2.322825990810803987e-01
6.896291463563913871e-02
1.973709995947955376e-01
9.262523814746759232e-02
5.850555188741311807e-02
4.208579348109453555e-02
1.750990201464009410e-01
1.226968360741926278e-01
4.081544189093172514e-02
-4.360960236980282456e-02
-9.540862988950971069e-02
4.909707245517086482e-02
1.481412039136725811e-01
-9.012453802507147671e-02
-1.419153337964146888e-01
-1.912722285990603455e-01
9.100423602694149294e-02
1.549976556773342007e-01
-5.759658377742615798e-03
7.407473119859872557e-02
2.354791925580557166e-02
1.463057403230752507e-01
1.102495201936729008e-01
-3.332670495386413911e-02
-9.442037790144697240e-02
-1.226988795434931223e-01
7.952707585739043905e-02
4.241905005492330183e-02
-1.712746982594159639e-01
-2.203018814736182329e-01
-1.527306553821924373e-01
1.253554292023488226e-01
1.795979663728153319e-01
4.229864815492151431e-02
2.083445681829476648e-02
-3.901009014374423600e-02
1.583223138888389392e-01
1.018063695816313341e-01
3.142120642777823658e-02
-4.147231094242687099e-02
-6.325105552957099864e-02
-1.826178387275929627e-01
-1.645477435504205665e-02
-1.878232867761672753e-01
-1.018500342276215664e-01
-6.741290258491183796e-03
1.684885241073506568e-01
2.011727948076510453e-01
6.101983986810499694e-03
-2.926100317684515728e-02
1.644655298872294003e-02
1.451825508348260074e-01
1.057934380665804808e-01
-8.171641903859228062e-02
-1.767358657617293383e-01
-3.289210718259866217e-02
-1.346130614435452344e-01
-1.121306929774557037e-02
-2.459750927240655916e-02
7.281939740163922981e-02
1.945983929678557489e-02
1.637362980081114305e-01
1.717874520959363771e-01
-3.988669812724709995e-02
7.410310252719543023e-03
-2.039466264902523029e-02
1.023525530225422586e-01
6.075151030594283519e-02
-9.240784128681750476e-02
-2.150750280811869475e-01
-2.040651673288183254e-01
5.371936374505104084e-02
1.068088273572354030e-01
-3.808485374544356983e-02
4.815898288814313144e-02
8.609805807879455930e-03
1.065550855956035603e-01
7.020145435076677320e-02
5.919112298784812154e-02
-8.182251986502145358e-02
1.297399565943211375e-01
1.156530305427461158e-02
-5.600945305999481538e-02
-9.834946825400020520e-02
-1.363043644261298371e-01
-9.836784062668435524e-02
4.969352084432682171e-02
1.515166776196330556e-01
-4.960897520500739954e-02
-3.472784262933625854e-02
4.283183917055276291e-02
5.974376836612316222e-02
1.129251394641107575e-01
-1.898779769732768796e-01
2.548354499533606043e-02
-9.621742789929363382e-02
-9.409598462018259335e-02
-9.512397348121026663e-02
-6.569268787743109961e-02
-6.448034471299601833e-02
1.230243864753906985e-02
4.496857877259885505e-02
1.313265335203996076e-01
-1.880375785513851983e-02
3.668162487207698996e-02
4.544443563786026985e-02
4.663163302586537107e-02
-7.886665670879706991e-03
-1.253736435373820346e-01
-9.550789122195113556e-02
-1.638299988945973729e-01
-1.114266887737972445e-01
4.543827499006725112e-03
-1.296149275414610891e-01
-6.648958302791130315e-02
1.378797945014155202e-01
1.172732584300968800e-01
1.090373280975312775e-01
-2.413257752457598215e-03
-3.667675286532556811e-03
7.001256712134934501e-02
2.280237707880611309e-02
7.266747892894076521e-02
-1.747177613833676979e-01
-2.688360253565136304e-01
-2.096106455572684657e-01
-1.331279553476544253e-01
-3.283294791613614039e-02
-3.328180734365579485e-02
6.436275628130949666e-02
2.241272305827857747e-01
1.889512947035576484e-01
1.456878764091522060e-01
-5.802003699273428072e-02
7.377431350242646957e-02
8.095213227035136239e-02
1.705604145968419583e-01
-3.528109191720568694e-02
-9.645621110469532189e-02
-1.611574133856780999e-01
-9.753412898315272361e-02
-1.494751559109888106e-01
-2.401371567372450333e-01
-3.330471292403973660e-01
-1.511582338346133536e-01
1.513050554550604554e-02
1.655980431019640764e-01
2.107212734927293996e-01
-2.650677722272631875e-02
1.423095373212499570e-01
2.519653321740553675e-01
1.999888091535250711e-01
2.344753588849054493e-01
-2.299113851954723287e-02
1.748771208639632313e-02
1.579393261213157262e-01
3.925827561281947098e-02
-5.127565502295605704e-02
-1.413841499906147992e-01
-1.900898346544933060e-01
-1.365716948673090236e-01
9.018924502876179972e-02
3.012367405917486529e-01
-1.365310719201986434e-01
-1.048694286994628078e-01
-7.179790949504827324e-03
1.625445337758975040e-01
-5.127657354683012869e-03
-7.653087761307886261e-02
3.353434396726373556e-02
1.001384952181694765e-01
7.906155698793376763e-02
1.210693528561496146e-02
-1.918176416412917806e-01
-2.143865110676658470e-02
-3.643251893840408068e-02
-8.297100302037230257e-02
-1.945253623965648715e-01
-2.361602641611971753e-01
-7.984822395349322477e-02
2.452642914541636188e-02
1.106149808081328123e-01
1.822620329753096846e-01
-2.914519001753101968e-02
1.541989837133993235e-01
1.456786406723373783e-01
1.183013375833587011e-01
8.761659019901085754e-02
1.588261264948231943e-02
-2.824728806591569885e-03
-3.800838008293805359e-02
-2.374024278927650000e-02
-9.918676567474984940e-02
-3.155533794457708874e-01
-1.725454276876979831e-01
1.042542657103073533e-01
-5.721546116295295192e-02
1.967001922630558786e-01
4.028756265805333303e-02
1.157499775699144529e-02
2.305283518249738040e-01
6.822139000447052792e-02
1.627328654181170453e-01
-3.715686407513990597e-02
1.012260929855179903e-02
3.753606078253986927e-02
9.762066519401013664e-02
-1.717668917486481206e-01
-7.260456099333278956e-02
-2.181859535238664660e-01
-1.655600388903047948e-01
-1.466245187242856129e-01
-4.486331969317652879e-02
-7.763199755696792437e-02
7.800132148095550999e-02
1.899013945989251329e-01
1.366124512509284128e-01
1.026336422479339205e-01
6.131203122210826528e-02
1.172582501318369941e-01
1.992786954112245879e-01
1.555507225345283406e-01
2.922567361155570254e-02
-1.610861729675017173e-01
6.728056343005291151e-02
1.897907648455312013e-01
-1.591017386734774330e-01
-3.211911420901869541e-01
-3.505154560459986524e-01
-5.690650150087284143e-02
1.358502968096447772e-01
6.072468128994878978e-02
1.055259372830008313e-01
-2.484352200526829257e-02
1.696058679255109669e-01
2.021558219287903913e-01
1.543295817828736483e-01
7.852077014238023622e-02
-9.774529964777367574e-02
9.445866638739669474e-02
1.611405070633624148e-01
1.939344492767247630e-02
-1.117308926186549867e-01
-2.378881878098088043e-01
-2.510214799421421339e-01
-2.033092403725011987e-02
-6.927520749004645317e-02
-4.139553366932158252e-02
-3.011023137951762685e-03
3.058045659261265925e-02
8.500988150072341654e-02
-9.690451236810060376e-03
1.472644159074187886e-02
-4.724909579781616520e-02
5.701294099975542928e-02
8.160016409462989007e-02
-6.757919829347952545e-03
-1.132644613207628020e-01
-2.191990264728077009e-01
-2.085876987094137380e-01
-1.126919489398646723e-01
-8.694010931158849265e-02
-6.310331462735951913e-02
-1.638467648513153296e-02
2.243802801453407825e-01
2.612205916230209701e-01
9.072665291538983823e-02
7.321584652234525148e-02
-7.903425441843581201e-03
1.651023780936107244e-01
6.659487399661889739e-02
-3.623626783537162166e-02
-1.177884941844700162e-01
2.296777250161669004e-03
-6.638083879713391200e-02
-2.933905090184041331e-02
-2.287287675073397253e-01
-1.410586197181417645e-01
-2.880581256824255032e-02
8.890436002208323973e-02
2.957459149934638099e-01
6.147606331244907796e-02
-3.957537936317179206e-02
1.241199754995275795e-01
1.294464859741374374e-01
1.782648261867130213e-01
-2.553078251207482191e-02
-7.864530594204977021e-02
-3.070694356696485050e-02
-4.337507263669893032e-02
3.781915699797894215e-02
-2.566749534755033979e-01
-1.131086758870954723e-01
-9.577732707220895647e-02
1.494815638542550951e-01
8.642090622700503155e-02
1.359767894683287515e-01
4.289812194135378398e-04
9.689144344597133696e-02
-8.290370269486702082e-03
2.386421732502606863e-01
3.280597072101665290e-02
5.107552467070911040e-02
-1.083960548902933585e-01
2.164152096182911378e-02
4.870600278595388355e-02
-2.167952763831321183e-01
-2.517979099460045944e-01
-1.306567364437800638e-01
3.968994772751921474e-03
1.363690071769224632e-01
2.441365229887373922e-02
-2.356182271863926925e-02
7.132558174824216168e-02
6.764610719303819353e-02
1.945596571190967294e-01
8.002011894670119085e-02
-3.213236319650975004e-02
-6.183048549266068061e-02
-1.232471451439232091e-03
3.866640168830448587e-02
-2.903586224432214147e-01
-2.720202776607739126e-01
-2.473021299924815231e-01
-4.327764592102928409e-02
5.759676137560010289e-04
9.856711066446935399e-03
2.659434059033183306e-03
1.454204906822242904e-01
2.025822582618013734e-01
1.318645492479969539e-01
4.821929918644941859e-02
5.295766812882984897e-02
1.426481076352039135e-01
1.586026947045214575e-01
6.629901949889718815e-02
-1.554214787677825615e-01
-2.121699903505464002e-01
-1.656291729010208047e-01
-2.599077365132299589e-01
-6.897899724134853860e-02
-1.006928358463966555e-01
1.923519113921445811e-02
1.690870254456134369e-01
1.708678657359962438e-01
1.588623729723692701e-01
2.399106566389219708e-02
1.636819009446444095e-02
1.202497011266136506e-01
8.163821086947375960e-02
8.775336308327957857e-02
-1.369685344930344217e-01
-3.101710154302605993e-02
-8.764781150343782523e-02
-8.378536538964342917e-02
-1.950957292858598313e-01
-2.754829571246607545e-01
-1.451004068745075370e-01
6.027767491175395342e-02
5.162393919598479153e-02
2.395250171721112209e-01
-2.441449262598482939e-03
8.680728680706767397e-02
1.902913703642451493e-01
7.492537123158757306e-02
1.335847077414356876e-01
-2.518699069058222273e-02
-4.090185187835057579e-02
1.059154069037505641e-01
1.038516010573169446e-01
-3.198701327941311234e-03
-1.691165392268085821e-01
-2.390236567681603419e-01
-1.847958782502663322e-01
3.564953445173180135e-02
5.301358444307813222e-02
2.685852774833985546e-02
2.677117373933790567e-02
2.048917700146082321e-01
1.025916873928862660e-01
1.185814081169400680e-01
-1.223307027488236276e-01
-5.731916069170939210e-02
5.162258656484947084e-02
9.315689604999233264e-03
2.086364177300747969e-02
-2.121859033811265283e-01
-2.192028389750890205e-01
-1.033628817719721288e-01
-1.179092079239881796e-01
-6.878100716850438223e-02
-1.132343633028034535e-01
-4.883881441594099815e-02
1.129527813399763270e-01
1.246236881148041764e-01
9.716245059764443137e-02
-5.558029420446553015e-02
1.937746831978681694e-02
1.349722085371121427e-01
1.987530900559406621e-01
9.350933109851933267e-02
-2.902537627351089444e-01
-1.126608623713092894e-01
-1.668394973735848330e-01
-9.153417525391202569e-02
-3.114193239944287872e-02
3.448692890400237993e-02
4.321639911475014251e-02
1.646491765023218035e-01
1.276879982497746147e-01
1.310986178593042117e-01
9.965005326261505703e-02
1.022630032293270069e-01
1.207319133548190315e-01
1.937433182956738165e-02
1.676454602574745101e-02
-1.311672708171091051e-01
-2.047338021453853907e-01
-3.695090814979126725e-02
-1.702710592334949480e-01
-1.248021423149773546e-01
-2.162983968586466021e-01
-1.277064951722278741e-02
1.597360155165614970e-01
1.476276466217018024e-01
1.886767432945244405e-01
-3.997856300383656469e-02
9.545103052308867575e-02
2.480447776130695337e-01
-1.137484093773022398e-02
1.383915987232173239e-01
-9.072807589732811984e-02
-7.944928327209066499e-02
6.388620746735884648e-02
-1.348525344228850287e-01
-1.871531147631591563e-01
-3.018153835068265733e-01
-8.005768310291044854e-02
1.083429323306516479e-01
1.276045183267062455e-01
1.109741139242165220e-01
4.521459282003759128e-02
-2.166583901826607539e-02
2.542602500545333433e-01
1.310689454774722207e-01
1.356186747704259676e-01
-1.536042835281238861e-01
-1.337691851436561830e-01
5.676387832680912515e-02
4.736069455678293405e-02
-1.042953263656419133e-01
-3.933426110281741384e-01
-4.967976291456033255e-02
7.905157739880805390e-02
5.639189875960298748e-02
1.178933665553493632e-01
-5.677426232302906772e-02
1.492079549321956300e-01
1.336033874553072542e-01
9.074003229497995537e-02
5.935573898942947402e-03
-8.573341231412401342e-03
-3.063196966567718893e-02
5.325139550158092261e-02
-6.867595152004590808e-02
-2.038950178081159470e-01
-3.074234187600034529e-01
-8.958540133986281351e-03
1.811811989455412997e-01
5.974674648291722345e-02
3.890339224581931821e-02
3.579113988710425076e-02
-8.804598031097399247e-03
2.146673675815827242e-01
1.899567621669273620e-02
-2.596749735999831846e-02
-1.334519438991461637e-01
-8.503972965480716129e-02
1.100822424036270175e-01
-1.490405262425631427e-01
-1.557630498980189238e-01
-3.313808088128321616e-01
-9.389419258411857427e-03
1.091345082333439187e-01
5.785092539434010667e-02
2.629885462441405863e-02
-2.511882851115476711e-03
1.323646697915760728e-01
2.147401021006962729e-01
1.128935241802029310e-01
1.623566496875067378e-02
-8.751741283029715324e-02
-1.061942381821412984e-01
4.559067541125771950e-02
-2.063882733358638477e-01
-2.116279826020739385e-01
-1.461636307900846532e-01
-4.520238012679519968e-03
2.078045016407876755e-01
1.616883840365427039e-01
6.763503158951778005e-02
8.135821486600713914e-02
1.135065478268628691e-01
1.286292407648306213e-01
6.044163622736370423e-02
-6.672789211946680843e-02
-6.712157661559003952e-02
-5.036315986094107300e-02
1.139663615628785376e-01
-1.657130602647797213e-01
-1.909537274580876687e-01
-1.988047971844264517e-01
8.952030629069634982e-02
1.640475195273154441e-01
1.498299491181753762e-01
-7.926908181788727692e-02
-3.064221514924481138e-02
1.501789937780165507e-01
1.808693883450949169e-01
4.054898699793672845e-02
9.721679863207266514e-03
-7.846059205856759089e-02
-5.038439704842606615e-03
3.189391605910918415e-02
-1.522048273781947403e-01
-2.560863377733834101e-01
-1.287894842133305850e-01
1.391606196889788871e-01
8.554179479935131170e-02
1.074477126624596157e-01
5.727444742099296882e-02
2.584718988302275866e-02
1.203932987770512386e-01
1.047969040888918624e-01
-3.543102839786922698e-02
-6.451219259008597606e-02
-5.310517415501839200e-02
-1.718187244750525033e-01
-5.891233704064735566e-02
-1.333775372158176875e-01
-8.651684128691539133e-02
-4.674407668069335831e-02
1.815419279420285026e-01
2.126626549639863972e-01
1.027981470413477233e-01
-9.997754449130424881e-03
-1.064889139351454794e-02
7.647966499381320116e-03
1.359547598201714391e-01
-4.379864936586702617e-02
-9.805002190866252132e-02
-2.633568882584379489e-01
-1.482048806355370507e-01
-8.626700159366817999e-02
-1.205078919168987017e-01
1.685190757869792222e-02
1.352692543766087496e-02
1.368290096422952462e-01
2.237518594189102095e-01
-6.220433983060183469e-02
1.141240576847593613e-01
4.243706609862762935e-02
-4.262998120574956751e-04
1.261544810965457009e-01
-8.171267474643922890e-02
-1.397290670566542770e-01
-2.576328234499656311e-01
-2.565714353260639680e-01
-6.123977313815093249e-02
2.673875854199347923e-02
2.860121949664007346e-03
1.311496448585446339e-01
2.089294193712242786e-01
1.501684831041448231e-01
1.703804742195635935e-02
3.024833025462470015e-02
9.861248420436063977e-02
1.416086406361072858e-01
1.540593312158569095e-01
-9.504648377143126714e-02
-1.274829780974200966e-01
-2.026416635352040196e-01
-1.739948715426826720e-01
7.155083353873714636e-03
7.692509204180852933e-03
-8.099864994842165267e-02
-2.672159548323937983e-02
1.387918239720973279e-01
2.553206671997948485e-01
1.725708343216388607e-01
8.859007743947737434e-02
-3.088482941951031790e-02
9.370625524212738977e-02
4.567786332967738172e-02
-9.359669475332443866e-02
-5.854502066534750249e-02
-8.617235829889630105e-02
-4.884780985114756113e-02
-1.871105060335310766e-01
-2.085430360942529537e-01
2.862582661940121787e-02
-1.023362379619646712e-02
1.634156440465008575e-01
1.706649014453869850e-01
1.272474680980388850e-01
-2.626570871840600008e-02
8.197944376704671687e-02
3.755454985079942354e-02
1.457036037516712401e-01
-8.586334461203312673e-02
-9.536053409080652576e-02
-1.111565486717256968e-01
5.322129215029147709e-02
-1.926554651391273465e-01
-1.333865247763540152e-01
-1.237792011224960187e-01
1.732642852069883888e-01
1.095665013596897053e-01
1.498879897061143607e-01
9.428923631870478328e-03
3.986484389258682093e-02
-1.019134562644699593e-02
4.926993271566212917e-02
3.909027866978498356e-02
-3.009624100940527791e-02
-1.460125289150744354e-01
-1.206137574549522445e-01
-1.887198435091685944e-01
5.571167899330986550e-03
-2.018029325707143551e-01
2.147021444743368868e-02
1.619700044602413458e-01
1.060745072807402489e-01
1.603679178583412857e-01
-3.468708935459725862e-02
1.948675510659814147e-02
1.022440435923840374e-01
3.631678735567933636e-02
-4.377951505951116484e-02
-5.827830093691630658e-02
-8.844256655942503431e-02
-1.668137635810496011e-01
-1.474816618636527465e-01
-4.941513994054691494e-02
-6.210467928737956056e-02
2.027645879026346298e-02
1.999530578502657363e-01
1.344562493166407968e-01
1.045189807549061767e-01
4.307251532260231164e-02
-4.354504000365355676e-02
5.113871956383470030e-02
1.036673783903541146e-01
8.723468888442437175e-02
-9.155565298436108002e-02
-2.143314450066078625e-01
-8.236666934846745280e-02
-1.055735782055906569e-01
-1.525365519723648755e-01
-1.636450340789181168e-01
-8.370694732102501590e-03
2.550347655560536442e-02
1.491756905057013416e-01
1.745704977101998900e-01
8.861680647756176032e-02
-3.275872917293298769e-02
1.422766636278967600e-01
1.726010188320211691e-01
1.366981052028084509e-01
-5.159355103001986298e-02
-1.544962454511641936e-02
1.541820567681062570e-02
-4.309478609433112228e-02
-4.012039790047006171e-02
-2.225368904949473481e-01
-1.928296091121192990e-01
-1.334884982608064430e-02
8.448417748869685440e-02
1.402606643005258613e-01
7.439221849949195775e-02
-8.283882907595616074e-03
7.324471340184435242e-02
1.168737051672259497e-01
9.277233886094338189e-02
-1.354798854498027172e-01
-2.219187600139949090e-02
4.474140189829389769e-02
2.183339134386436120e-02
5.568342716226554190e-02
-2.425792996092716869e-01
-2.130095050837467197e-01
-2.986169053833540588e-01
6.653176203919086706e-02
3.367501015126228570e-03
-2.985967155582563981e-02
1.210213881307065087e-02
1.223489048410760782e-01
6.685605986255030442e-02
1.473838180368562956e-01
2.331204880401249735e-02
5.114210944375088830e-02
8.523889235180753809e-02
9.475299314065975531e-02
6.178646850213331820e-02
-1.019605896360755437e-01
-2.243096029652883461e-01
-1.215224464599429233e-01
-2.106877515121421407e-01
-1.785520497207094825e-01
-1.177152987938336892e-01
-7.470109910747341209e-02
2.048545206223604254e-01
1.591367729245450335e-01
6.904461866277322724e-02
-8.622322376080404638e-02
1.430231787530334975e-01
1.356556194160316586e-01
1.534235442868111532e-01
3.020621544648460777e-02
-7.281551893819104837e-02
-7.579016032865479313e-02
-5.763610908114247255e-02
-1.208387131437297368e-01
-2.080401805199698639e-01
-2.805047725026267869e-01
-2.959663917624577589e-02
1.850046644161953968e-03
2.524323985840203344e-01
1.310869021833647174e-01
-8.721044387769494310e-03
7.771822459945443295e-02
1.905665205661297157e-01
1.148400153414594893e-01
3.048474814652002429e-02
-6.345101759383742213e-02
-4.851212150557671077e-02
6.164821340427173446e-02
-1.100743057414885762e-01
-1.937667277525685350e-01
-3.418544643497427593e-01
-3.296420027729052293e-02
6.727492823650660370e-02
2.750110930198523818e-01
1.888639779838818811e-02
-5.481844291486481779e-02
4.480757201126550626e-02
1.867760404071105995e-01
1.557491039639771202e-01
6.732257135493568967e-02
-5.464491865936338399e-02
-9.603794590864822567e-02
-2.865021490313779395e-02
-7.967050450221790925e-02
