-4.401586409802309141e-03
1.500383187760578885e-02
1.597604643883637765e-02
-6.608485279434694881e-03
-4.114143630454358824e-02
-6.790326283999725820e-02
-7.217103257673579408e-02
-5.171277327036216676e-02
-1.520923954354425067e-02
2.389324909889983806e-02
5.258755758344474396e-02
6.187918094140551495e-02
5.076952221876671056e-02
2.903909291569187201e-02
1.305963011183422506e-02
1.347250008706417368e-02
2.462578728733545719e-02
2.813013495165599814e-02
9.388962266775720267e-03
-2.904630650503489675e-02
-7.035578931603675423e-02
-9.729659496410969499e-02
-1.014537408635491911e-01
-8.197674522303433076e-02
-4.195632661750714476e-02
1.024603378516619756e-02
5.920784774753873325e-02
8.838213711248921189e-02
9.149967927399754730e-02
7.732657063471687353e-02
6.108197755732047707e-02
5.084423709459334750e-02
4.288346636822760322e-02
2.892676542496239178e-02
5.337502284023160071e-03
-2.490476530709673231e-02
-5.560982775410217016e-02
-7.950327618400715446e-02
-8.839839214876743512e-02
-7.627709745434130273e-02
-4.573540867091308026e-02
-1.014403312314332561e-02
1.453281630350472531e-02
2.234772481811142519e-02
2.123744750934661307e-02
2.338100852565286325e-02
3.244900654054796996e-02
4.149066294830537627e-02
4.211946000281843738e-02
3.259183768851453555e-02
1.597454386345176225e-02
-5.982260055984844893e-03
-3.276002761414215092e-02
-5.907368673070664822e-02
-7.332478859343288802e-02
-6.534598145142371528e-02
-3.535343967988013869e-02
5.875954506511113506e-03
4.471574608197090295e-02
7.132405440563407972e-02
8.050674162479060092e-02
7.080895683663133988e-02
4.639244055619572149e-02
1.853957968413769142e-02
1.109370529887854229e-04
-5.310598124745574689e-03
-7.712704863183580950e-03
-2.066380094937222967e-02
-4.583164597077911406e-02
-6.912637189756043465e-02
-7.344746395564678842e-02
-5.428206305594328318e-02
-2.201085008911202179e-02
9.080703586356597690e-03
3.114588399358278470e-02
4.293581655167305611e-02
4.475620504169228187e-02
3.776282733402714503e-02
2.703874666519040515e-02
1.973478582021536212e-02
1.679370802298274512e-02
9.040371701047822395e-03
-1.399502721703599351e-02
-5.043101846898184748e-02
-8.363321772165710488e-02
-9.494227581818248662e-02
-7.820387482549523428e-02
-4.206410934504539734e-02
-7.525620419866485555e-04
3.511906562251326802e-02
6.028686595294946438e-02
7.215442941978217339e-02
7.008171604429458412e-02
5.711978031972403391e-02
3.963721663494085279e-02
2.354431562616865481e-02
1.155722509629247829e-02
4.519186500093919090e-03
3.338421021897533536e-03
7.285171929479757058e-03
1.114364967646006011e-02
7.473002369480091778e-03
-6.021222065008269286e-03
-2.224912988065963493e-02
-2.985347676360783353e-02
-2.302267557367831952e-02
-5.664572456257621624e-03
1.330667317724509857e-02
2.650201471612212423e-02
2.938487829582614452e-02
1.859815341673587419e-02
-6.179937554716685710e-03
-3.755631246903323728e-02
-6.153660804701255316e-02
-6.824272268275999309e-02
-6.257609123604157553e-02
-6.109985698182163194e-02
-7.500264258801725425e-02
-9.593950173327669972e-02
-1.008845864139482629e-01
-7.236751512846817391e-02
-1.369466494407101109e-02
5.508456409130513265e-02
1.133920966286172671e-01
1.508847765357814730e-01
1.658502698424004773e-01
1.595568212933208829e-01
1.352271071774542310e-01
9.927920611414031704e-02
5.851650441262590263e-02
1.530367886411454492e-02
-3.128702671179284245e-02
-7.788840120384321608e-02
-1.129139450721572402e-01
-1.234319713147613573e-01
-1.061079466100429691e-01
-6.976448726436745851e-02
-2.762584904733467184e-02
1.050187887215592308e-02
3.837894917033313202e-02
5.035615071319610170e-02
4.351305345202344244e-02
2.328102120154629251e-02
2.797063695792585680e-03
-7.090772311417109508e-03
-7.197534678821837506e-03
-7.677541089519956952e-03
-1.628734339833770584e-02
-3.047654504149610588e-02
-4.135660242373107032e-02
-4.330243430586577791e-02
-3.755091616554451228e-02
-2.736276966919126696e-02
-1.311079736965869991e-02
5.812732693162847575e-03
2.596449468956307793e-02
4.005202724669398862e-02
4.319441297786530409e-02
3.734413521698443095e-02
2.851647291068892809e-02
2.112249461378037929e-02
1.633972904718930530e-02
1.425559132853586666e-02
1.428166704262857911e-02
1.284784680919912048e-02
3.837431246800748763e-03
-1.538532237940076763e-02
-3.838306405082664297e-02
-5.261178963631174543e-02
-4.968175572965410902e-02
-3.211589982015267131e-02
-9.236368916741177770e-03
1.211676521598725742e-02
3.045597881384548566e-02
4.402076595748416477e-02
4.679785214926746040e-02
3.402278797370689167e-02
1.057415987985022010e-02
-1.052617985717341220e-02
-2.015789326116176894e-02
-2.165590375964303316e-02
-2.510203341015119355e-02
-3.416953820894286231e-02
-4.130286215933384741e-02
-3.618628489682051974e-02
-1.650873497674681945e-02
1.085951299966714245e-02
3.678266176963568279e-02
5.494704245966897105e-02
6.167235196461789970e-02
5.588486485896199119e-02
4.192506180662597393e-02
2.942070446549685525e-02
2.557154686692791890e-02
2.620344153020394418e-02
1.728402626147779175e-02
-1.140999077980420565e-02
-5.360846127339927158e-02
-8.898599626391429096e-02
-9.912122308875345733e-02
-8.100102391665543744e-02
-4.606713766133692378e-02
-9.093415486515654678e-03
2.049940474156591863e-02
3.935984395246433509e-02
4.746720115420199892e-02
4.701612454595535673e-02
4.199390218003276609e-02
3.552907747370603886e-02
2.669338123935682816e-02
1.154570053800119123e-02
-1.149384439020645354e-02
-3.838190953551218199e-02
-6.261989122349850834e-02
-8.016657995840469064e-02
-8.889391557559311874e-02
-8.417855595598580654e-02
-5.962486177783224428e-02
-1.566448340982098952e-02
3.394352569925060403e-02
6.867120290635989055e-02
7.708242329540782034e-02
6.559082045981662334e-02
5.031725854379398566e-02
4.121040169780570972e-02
3.564458772984946400e-02
2.634408791968978480e-02
1.202598325302450810e-02
-1.464995852698713907e-03
-8.341067346721631193e-03
-8.215923277443970552e-03
-4.523895360156793277e-03
-3.859184534994730686e-04
2.722705701584129945e-03
4.365904586986303626e-03
5.965824771596850429e-03
1.174494617171545352e-02
2.546745316538046033e-02
4.419494665127399191e-02
5.710192452044182687e-02
5.359242728325974703e-02
3.309720275129307554e-02
5.152308811787853493e-03
-2.036088553108486576e-02
-4.066326673514361612e-02
-5.668847279332271671e-02
-6.551648060545144092e-02
-6.111221547722948955e-02
-4.360983711505269506e-02
-2.372745450299518222e-02
-1.359256241875628213e-02
-1.348020547153389037e-02
-1.152095406176456560e-02
1.271498498477310890e-03
1.787555995539302778e-02
2.049703646900774556e-02
-1.063270526651338699e-03
-3.921146846451606383e-02
-7.748141868244229347e-02
-1.057523360049920091e-01
-1.229366429027290430e-01
-1.272834851774849452e-01
-1.113246884469973330e-01
-7.026102993798913343e-02
-1.233631759581610421e-02
4.373624179768720310e-02
8.237532550115500563e-02
1.005910924567133824e-01
1.049777951443721102e-01
1.033898963885427347e-01
1.017113103930447904e-01
1.054505686589730512e-01
1.186678402645155450e-01
1.390169873651256882e-01
1.563908360336160319e-01
1.595908699700849809e-01
1.445440156647088692e-01
1.146817679288667513e-01
7.400099579446295373e-02
2.285372452612810523e-02
-3.755355842462042987e-02
-9.847782857777420684e-02
-1.453010360610657026e-01
-1.677575984365747286e-01
-1.676143304492220820e-01
-1.551703910599888658e-01
-1.391925658050880976e-01
-1.218493451399820238e-01
-1.023725868414459006e-01
-8.195055812573215359e-02
-6.286126393010138536e-02
-4.478548095383705352e-02
-2.522542602331168116e-02
-3.704310964919577120e-03
1.707717707474654123e-02
3.527940576203686396e-02
5.254767287457107194e-02
6.984467126206181375e-02
8.182723693894716765e-02
7.938173438316759034e-02
5.967910417253893818e-02
3.165662591298476491e-02
8.871999611170633404e-03
-2.841865794240283627e-03
-8.535865134972953072e-03
-1.474059073950167997e-02
-1.954062294417213685e-02
-1.457111252594756046e-02
3.676945798264996679e-03
2.724341414760139690e-02
4.269393458011438991e-02
4.281448550756417060e-02
3.176406067913203901e-02
1.987846723260022763e-02
1.455122048298562731e-02
1.510803062247888240e-02
1.431182982368062184e-02
4.488617866229383663e-03
-1.540695440406604499e-02
-3.630404539671336361e-02
-4.329977843097640444e-02
-2.702380494146855439e-02
6.641420272668452363e-03
3.895385223144454123e-02
5.284699615896198965e-02
4.646886913613118564e-02
3.249654545965052765e-02
2.443240563567050661e-02
2.406770246022960080e-02
2.182875519153459898e-02
7.653100861301109781e-03
-1.983148294982139959e-02
-5.387733958444840265e-02
-8.600780119177073302e-02
-1.093299835399034470e-01
-1.172327455853788003e-01
-1.041464637171489599e-01
-7.137479121755366251e-02
-3.057878637222129908e-02
2.946895703073104666e-03
2.233430181290968486e-02
3.299029978022918058e-02
4.354449871285942519e-02
5.486207822859574812e-02
5.988131844877189747e-02
5.305479766054937985e-02
3.698570305280643455e-02
1.886814145757581551e-02
2.698267764861816964e-03
-1.222572197786492287e-02
-2.536542682605014143e-02
-3.100528075866226807e-02
-2.300258470823379753e-02
-2.425296053547354447e-03
2.211001570247189685e-02
4.172898908848332589e-02
5.302566220947529940e-02
5.674107626842583851e-02
5.384929101020870246e-02
4.512091850739780030e-02
3.277098658287080912e-02
1.896091156527879296e-02
2.137148847975778310e-03
-2.171617420320381964e-02
-5.128323208425505930e-02
-7.480906744751913973e-02
-7.679919165820170424e-02
-5.207210227344638565e-02
-1.239927631124737584e-02
2.215992578351680398e-02
3.866885527702818015e-02
3.824538381869559134e-02
2.952325039864013567e-02
1.797707115611006656e-02
2.643814074381814483e-03
-1.869384996301440283e-02
-4.400377077068456932e-02
-6.704593868551797509e-02
-8.051096128239329519e-02
-7.781805284378123799e-02
-5.476027989046966526e-02
-1.405095529310176894e-02
3.110148048839950219e-02
6.243938813782207164e-02
7.013220239444059589e-02
6.089293227969641564e-02
5.014863709907671496e-02
4.544203326832360612e-02
3.943256087443575142e-02
2.039158613760861521e-02
-1.214397064719446515e-02
-4.429073391737560483e-02
-5.965123128114482864e-02
-5.221503578413903834e-02
-2.835447179934359740e-02
1.614299042529271366e-04
2.317819806114280318e-02
3.525886234168449512e-02
3.682956340225003455e-02
3.391429429651944549e-02
3.379440463038600739e-02
3.725360082144454910e-02
3.499143856089106941e-02
1.502749256449711912e-02
-2.358284981763474064e-02
-6.501701031782483597e-02
-8.711297930025459213e-02
-7.885342358022784381e-02
-4.759672592160271026e-02
-1.017687744375675440e-02
2.078747404446551483e-02
4.159564087320735681e-02
5.245955161223836427e-02
5.259265888792973020e-02
4.135934570708433428e-02
2.127689692420749873e-02
-3.113064789431331525e-03
-2.858091893407548739e-02
-5.242296025768282408e-02
-6.812058714507186752e-02
-6.577413262456077714e-02
-4.071131027250872447e-02
-1.243116675439581709e-03
3.528034163856283434e-02
5.569570050322519839e-02
5.966721377344857968e-02
5.532376940480010497e-02
4.853655646920151945e-02
3.822579667708597695e-02
2.087783248327718111e-02
-3.511200021080546074e-03
-3.100782062978887921e-02
-5.649825205641076376e-02
-7.391386615768842649e-02
-7.495756549645402056e-02
-5.250428185590426400e-02
-8.830041514268804903e-03
4.062604331322927642e-02
7.545178485640868793e-02
8.460093895106102213e-02
7.274936518723273959e-02
5.261754738353213723e-02
3.237046234194762562e-02
1.129672420509425512e-02
-1.399843913098258730e-02
-4.230614848658550975e-02
-6.745224742282393549e-02
-8.263184271610798937e-02
-8.297068274943483757e-02
-6.574166310430552829e-02
-3.247863851354806930e-02
7.424655357437165426e-03
3.842314092722354246e-02
4.863634245706174863e-02
3.941269855098600283e-02
2.372286320295052819e-02
1.399752359896028198e-02
1.184767776946110684e-02
9.548290737728670763e-03
-1.670709348161047991e-04
-1.726586488659809238e-02
-3.589520227285966647e-02
-4.915497634988275077e-02
-5.094957812007680498e-02
-3.632724216063482059e-02
-4.976295113590670227e-03
3.424316583139998954e-02
6.558965830658998464e-02
7.704622426431978477e-02
6.936905788778899296e-02
5.358626992643619746e-02
3.967811945181792810e-02
2.873096655726264936e-02
1.568997272959171685e-02
-2.597434597331527151e-03
-2.380476990044860797e-02
-4.341772991839769336e-02
-5.875218198427889504e-02
-6.834271185393107906e-02
-6.902238715325095808e-02
-5.663405097812709843e-02
-3.107550550882240414e-02
5.539511840581545776e-04
2.781238955143253144e-02
4.427975163320335694e-02
5.018000810537387446e-02
4.819943610460983296e-02
3.926323938645109868e-02
2.400642755445478449e-02
6.612431405006918839e-03
-6.082138902702330374e-03
-1.058734433793513674e-02
-1.070018850617546202e-02
-1.422904035520394794e-02
-2.591912119904071776e-02
-4.373319559619837094e-02
-6.063755364230138944e-02
-6.827093803343353695e-02
-5.967289633460359788e-02
-3.219626814401521653e-02
8.801231709126056124e-03
4.946797533051838780e-02
7.444585945353524026e-02
7.789289573226099161e-02
6.790133595990061055e-02
5.818119468652321880e-02
5.459663164418149250e-02
5.085520382795050143e-02
3.758997628468047081e-02
1.363360015641357226e-02
-1.324857270679852261e-02
-3.502617403337304758e-02
-4.955342050397826270e-02
-5.788274402808019081e-02
-5.913396590116179463e-02
-5.136146317795045602e-02
-3.668594945994224643e-02
-2.207860910031941848e-02
-1.332789776423035089e-02
-9.540697534823089354e-03
-5.197137098012893919e-03
2.682133427587551910e-03
1.063499083055863964e-02
1.211390385383517843e-02
3.626429925990269296e-03
-1.298612126298333627e-02
-3.292583840431528852e-02
-5.097192102742617581e-02
-6.182241342550834351e-02
-6.087054812528130965e-02
-4.717659747928704128e-02
-2.509559619386408924e-02
-8.201996141493639314e-04
2.310009557515435574e-02
4.830313420359105825e-02
7.514373021584908052e-02
9.851800881292008261e-02
1.113721479039004592e-01
1.122434354957767277e-01
1.069217119829316831e-01
1.010823718716004627e-01
9.276094707850568444e-02
7.464117409246943946e-02
4.386790193820437611e-02
7.407774487049517687e-03
-2.331522423993928617e-02
-4.144480416589568783e-02
-4.688124593529541251e-02
-4.140719087879235483e-02
-2.586238688835185151e-02
-4.039869298510745388e-03
1.355935059237745044e-02
1.471413377337693618e-02
-3.753358875166257214e-03
-3.195992362755806226e-02
-5.593360643837957946e-02
-7.053795487086961247e-02
-8.237991994497972925e-02
-1.007312528274463825e-01
-1.282258109814269631e-01
-1.613048385740075141e-01
-1.964734403446887212e-01
-2.315050497757408787e-01
-2.594895427460695014e-01
-2.652179439020978524e-01
-2.317432242971223522e-01
-1.522871603682798280e-01
-3.570439259827729028e-02
9.887831341872607704e-02
2.309800934869113420e-01
3.427326741186011994e-01
4.186294937478475253e-01
4.478181066886750550e-01
4.299013266641082409e-01
3.763961868782353948e-01
3.026155369106264814e-01
2.171853370756204882e-01
1.212645575438333623e-01
1.833156953653485022e-02
-7.799641836765744407e-02
-1.486824077267731581e-01
-1.822197299459612507e-01
-1.822498691730853881e-01
-1.630772442825252355e-01
-1.393366915629544178e-01
-1.195440043995862900e-01
-1.058845768869572240e-01
-9.638496785969065395e-02
-8.718345128395472987e-02
-7.591285997447597134e-02
-6.550285472359851369e-02
-6.398249031943264997e-02
-7.769286450951973233e-02
-1.029561798579327891e-01
-1.252542799970362830e-01
-1.282596289408203805e-01
-1.043166402937388548e-01
-5.674050112984579952e-02
5.388664650890384600e-03
7.118289351521583930e-02
1.271192095442114367e-01
1.580708856376929206e-01
1.555388478953224629e-01
1.261732259159613623e-01
8.888231874447800884e-02
6.080132429141135719e-02
4.598609593300904963e-02
3.713331515729688392e-02
2.498860652909843522e-02
3.950462729656586958e-03
-2.793185308083302038e-02
-6.759264783492813233e-02
-1.026694254077985535e-01
-1.128759484317140016e-01
-8.306480044261538298e-02
-1.905803581498138888e-02
5.104327322232204978e-02
9.550392297257492835e-02
1.019798327102935387e-01
8.358828996461759031e-02
6.381267311521132690e-02
5.657807693443339669e-02
5.921215209725144701e-02
5.970762811735969011e-02
4.687631705975014995e-02
1.536527330665551916e-02
-3.251013368884828059e-02
-8.491156676600808417e-02
-1.221622934952789619e-01
-1.266780618839438155e-01
-9.628929570708666397e-02
-4.805510226406767282e-02
-6.369779909659090134e-03
1.471601884029088980e-02
1.856894668231517942e-02
1.750501761743800122e-02
1.947293343242056940e-02
2.268823737918268524e-02
2.007249339984576442e-02
6.363702245111263478e-03
-1.778893357288491989e-02
-4.495020340031860573e-02
-6.267491478752976186e-02
-5.941329410301957048e-02
-3.329634592932943782e-02
3.786330837050932985e-03
3.366943699998550116e-02
4.625743061817867707e-02
4.635306376039532994e-02
4.522170632217456521e-02
4.678446768795141431e-02
4.501126607140226721e-02
3.471091841554799218e-02
2.035661874340347066e-02
1.043200049371773019e-02
4.892896754506742552e-03
-6.245003192776599210e-03
-2.922515361249117261e-02
-5.446297539533762055e-02
-6.269667429258579672e-02
-4.431706915148581061e-02
-1.031333520354515976e-02
1.759111815022013081e-02
2.663692885339270788e-02
2.181929492740337234e-02
1.684158757425455177e-02
1.960325992189632105e-02
2.726611928227617998e-02
3.222258874939204487e-02
2.922286137758411950e-02
1.706396453368169697e-02
-2.813875981776570168e-03
-2.663385964781411763e-02
-4.821354445851888659e-02
-6.125535563051404120e-02
-6.271044347532971075e-02
-5.315454573170332042e-02
-3.402659483473306767e-02
-6.552133330528023270e-03
2.521310576988851360e-02
5.206849414140826693e-02
6.407406119908234943e-02
5.922707165015317354e-02
4.650580275640874006e-02
3.793373203781408298e-02
3.691909463630622945e-02
3.538223562952966944e-02
2.262581471772051600e-02
-4.185544834327620256e-03
-3.840099916470690600e-02
-6.978400529052444790e-02
-8.933061852577871276e-02
-9.023870959280974602e-02
-6.983763455909680617e-02
-3.394939135451041645e-02
2.972472414930260598e-03
2.668981910240902922e-02
3.411436581654316014e-02
3.413046354946255162e-02
3.650371974175520284e-02
4.141211785627255115e-02
4.162971560960238016e-02
3.360188139156849996e-02
2.261895967130483909e-02
1.537259544053082294e-02
9.908182435866691451e-03
-3.137701827382266551e-03
-2.818439945798581481e-02
-5.594104240945377282e-02
-6.969741507837312611e-02
-6.067835397197790526e-02
-3.583441510562862531e-02
-1.023802325229766774e-02
6.626488178635203674e-03
1.621876977945181653e-02
2.472834616583721723e-02
3.465517177386621961e-02
4.311436770529571139e-02
4.580483319586489688e-02
4.020588515206580116e-02
2.585101714182108656e-02
4.589477010607301288e-03
-1.805089913408505775e-02
-3.352021931606544158e-02
-3.484875730077599543e-02
-2.158893680794513048e-02
2.904445452577841813e-04
2.353052593062526787e-02
4.364502911271492258e-02
5.769243615936220371e-02
6.143920840532757222e-02
5.108250771277976499e-02
2.832168567450429886e-02
1.155785890583072018e-03
-2.232594711377089425e-02
-4.016893905429919087e-02
-5.534007066732629654e-02
-6.941909901188177134e-02
-7.985635628171236511e-02
-8.352901329598877433e-02
-8.016980857617067580e-02
-7.044659883726933636e-02
-5.275127973499801892e-02
-2.539224910913209787e-02
7.725854735558777830e-03
3.685178883723193299e-02
5.434857674443188680e-02
6.175273272034560723e-02
6.631799769236640385e-02
7.072339101741338674e-02
6.910354554290210061e-02
5.464889515254148233e-02
2.905023899561785805e-02
2.111930803586604954e-03
-1.710564047906115714e-02
-2.612595912607780166e-02
-2.598262342009265147e-02
-1.601008682664765981e-02
4.431555029101696963e-03
2.917552446908398822e-02
4.430674591414158342e-02
3.815495691909916165e-02
1.319446144826438849e-02
-1.369385718805232743e-02
-2.454185550795436044e-02
-1.486272714957923013e-02
3.519640716492161703e-03
1.222580233193036603e-02
-8.366530462986816047e-04
-3.447605356878480354e-02
-7.515666332945954153e-02
-1.035739452357190699e-01
-1.041926146218204036e-01
-7.417898399145148036e-02
-2.592161749334646881e-02
2.058375993186574437e-02
5.081651499124054810e-02
6.334376583258828630e-02
6.581405584436039735e-02
6.492935485610099033e-02
6.111829181737574168e-02
5.147064867209401318e-02
3.476480307945977594e-02
1.217340261735648174e-02
-1.476252960209553655e-02
-4.314249835440132907e-02
-6.501722474764530524e-02
-6.864812492104707675e-02
-4.808285569227456480e-02
-1.179214942851692510e-02
2.169761011423011407e-02
3.907778858483074158e-02
4.234714798955033221e-02
4.285990444775149288e-02
4.694890833564918653e-02
4.947204825617053381e-02
4.099635346814081704e-02
1.862056367012894509e-02
-1.170218254053692619e-02
-4.136279424269375532e-02
-6.408151285678040376e-02
-7.466048114986480189e-02
-6.746694820328436037e-02
-4.115213606636818067e-02
-5.032383757527812695e-03
2.358408933822041947e-02
3.228940692529871231e-02
2.405681896770223496e-02
1.351328950162590525e-02
1.275307064683230823e-02
2.153400884785024172e-02
3.039647509014797855e-02
3.057951882625076917e-02
1.947309941512322118e-02
-1.096278781280450934e-03
-2.734903584809104948e-02
-5.261965394901238491e-02
-6.707434505627260513e-02
-6.276870454865295101e-02
-4.032694182851676024e-02
-9.008924897019699590e-03
2.085068336244409737e-02
4.446314503544965269e-02
6.128527692385954406e-02
6.953955477804890650e-02
6.518907939550280806e-02
4.674558112972262980e-02
1.878070023694491941e-02
-1.091176505008219222e-02
-3.656743150270335557e-02
-5.528820146524958401e-02
-6.365055792880805474e-02
-5.688451247787883885e-02
-3.381157596798778364e-02
-1.514245075304163080e-03
2.784823007105304699e-02
4.609811631381954128e-02
5.370704289688006672e-02
5.478780122146425374e-02
4.951444583150109435e-02
3.413517651830941940e-02
8.168168881267687254e-03
-2.126920829186425277e-02
-4.393824553468937688e-02
-5.434998213412839396e-02
-5.425456055563762647e-02
-4.851652883881713008e-02
-4.045682235847367081e-02
-3.109913934887989506e-02
-2.047906476438421386e-02
-7.757798203578088192e-03
8.837221879219155085e-03
2.933577789326160395e-02
4.829592030451267809e-02
5.594921394407290083e-02
4.590755436491916058e-02
2.207108707778183965e-02
-3.879756810515611054e-03
-2.255022730909504725e-02
-3.306569958905929141e-02
-3.868591562471455220e-02
-3.851227852606146917e-02
-2.696763692360908821e-02
-2.492894217062328888e-03
2.582125573788997264e-02
4.376848009758560476e-02
4.505975245687914021e-02
3.687065505414846567e-02
3.101177771960242358e-02
3.097290800299073998e-02
2.949945704208365577e-02
1.793710073355308382e-02
-4.575660427303951394e-03
-3.103327416676716910e-02
-5.234378060572267288e-02
-6.138323454786423494e-02
-5.421956209831378659e-02
-3.202486484733537558e-02
-2.926736259278306385e-03
2.131796749515293965e-02
3.381701972450179561e-02
3.747153076294248986e-02
3.924084721537735021e-02
3.944192523184519850e-02
2.949692202047404788e-02
2.358506880886679369e-03
-3.601004237903021599e-02
-6.808615951612617678e-02
-7.837809871339102008e-02
-6.455042578385430940e-02
-3.539213700644305849e-02
-7.607242295479266225e-04
3.379001973615725074e-02
6.386314582846630561e-02
8.259032510020891671e-02
8.362812905784028361e-02
6.702561594553718693e-02
3.932300366900572802e-02
6.975042470914162573e-03
-2.829181754085831335e-02
-6.569758653694116046e-02
-9.831067011092309293e-02
-1.132962716915023593e-01
-1.015425902614117970e-01
-6.664456752154901409e-02
-2.321008331760415072e-02
1.367938914385782856e-02
3.716406982969738815e-02
4.889909397863695384e-02
5.436843108080480214e-02
5.918624434100805409e-02
6.673738291350056473e-02
7.496232994353829726e-02
7.498493154870594646e-02
5.680398099880518137e-02
1.978919620089145126e-02
-2.295451946026528731e-02
-5.329256112239366683e-02
-6.230370321954811774e-02
-5.523695039942316809e-02
-4.246077829668448711e-02
-2.773546467500245805e-02
-7.555549759590357572e-03
1.904404039757751077e-02
4.381869887683859099e-02
5.466475481887059923e-02
4.654624128513489001e-02
2.560210322994891166e-02
3.104170174915203695e-03
-1.321155595107562086e-02
-2.245257552421116298e-02
-2.804329090857572010e-02
-3.398124271462210633e-02
-4.247901841077850182e-02
-5.203931415308199471e-02
-5.635765387806419835e-02
-4.740371106580262839e-02
-2.287130214642144749e-02
8.900530028370556151e-03
3.345842405464635044e-02
4.131410848711168649e-02
3.457287151557681543e-02
2.261890060363047281e-02
1.253585540238039489e-02
4.876831713008372704e-03
-2.447664447091584677e-03
-9.226446422512642187e-03
-1.337395738838927615e-02
-1.430459586254052839e-02
-1.290800788820930384e-02
-8.100904879186597574e-03
3.500049373068052014e-03
2.211414667872970558e-02
4.049551748984021871e-02
4.868612306332898571e-02
4.430385785998005449e-02
3.562474048938873983e-02
3.187454238675957452e-02
3.138395302919311236e-02
2.240694621350240029e-02
-3.209840869352269255e-03
-3.893995811798173223e-02
-6.766873806588125095e-02
-7.602643216610642518e-02
-6.352438145108306455e-02
-3.919803533086467506e-02
-1.292421592200461086e-02
8.803070027812151532e-03
2.219264345769694780e-02
2.621286310366097161e-02
2.431411975608247650e-02
2.282721977520704021e-02
2.453025301255942064e-02
2.413016698884184671e-02
1.264207722845047538e-02
-1.235375073014141623e-02
-4.157574960670436248e-02
-6.012390457051104697e-02
-5.853994526630416917e-02
-3.808223661455584219e-02
-7.521585120970272764e-03
2.238235772116589639e-02
4.205374338728240513e-02
4.590568126974005347e-02
3.641660822070259818e-02
2.462168835685255713e-02
2.213284643931742041e-02
2.975042365606362163e-02
3.491578173335044971e-02
2.303106108721638540e-02
-7.683950899180710947e-03
-4.336379553953700200e-02
-6.656945205081489514e-02
-6.979735680144852350e-02
-5.687664947738288457e-02
-3.438491205781164795e-02
-5.899085772145888987e-03
2.523204828961560231e-02
5.193231101557613250e-02
6.624318545236382305e-02
6.596168230526841536e-02
5.598965181068266128e-02
4.253372661148013822e-02
2.809642518637978092e-02
1.340047961757576123e-02
1.561157020599390766e-03
-4.071099722665449949e-03
-7.223495202324237141e-03
-1.970311119965584626e-02
-4.984900617110195331e-02
-8.898335811084465141e-02
-1.131187568173509239e-01
-1.021754525608840614e-01
-5.837634514660261509e-02
-4.825659045813723846e-03
3.367525490611184003e-02
4.777613509458644714e-02
4.420781102872436974e-02
3.469131919101586803e-02
2.739281929254194781e-02
2.648767365892085168e-02
3.332221036807764269e-02
4.362114810323475256e-02
4.567246257030527223e-02
2.725424356050951125e-02
-1.185500055065434599e-02
-5.518317636645883595e-02
-8.005203485775583272e-02
-7.409276628349309446e-02
-4.233219037335111956e-02
-6.562661658474633342e-04
3.516604338583831368e-02
5.575300603523629384e-02
5.944531245756262683e-02
5.202611751604518942e-02
4.403613323685973135e-02
4.352374400369410368e-02
4.818798784817795999e-02
4.546644877409100616e-02
2.311643435995447415e-02
-1.859880496756415730e-02
-6.502255203622338275e-02
-9.729169481182242674e-02
-1.043767963811147170e-01
-8.665885144793616934e-02
-5.152963817766503807e-02
-8.959990304676489908e-03
2.943277338739619386e-02
5.229703646391845040e-02
5.475327192701916201e-02
4.335111259060372979e-02
3.174959011505457118e-02
2.900877281811156672e-02
3.231378295152737001e-02
3.160316056766899334e-02
1.982014602220473487e-02
-2.595058372075270681e-03
-3.096372780932490909e-02
-5.955772014961657757e-02
-8.016946515603737278e-02
-8.180624500435801361e-02
-5.794905776501771411e-02
-1.615342480413403670e-02
2.296778807809068956e-02
4.093788993122145226e-02
3.708226899571905044e-02
2.759262997264623485e-02
2.792523620488983338e-02
3.703804788633272005e-02
3.994316581437451497e-02
2.454184098777378864e-02
-6.040509995934972842e-03
-3.712465275841296541e-02
-5.523959994414580355e-02
-5.588797697778548346e-02
-4.195916476768433989e-02
-1.954080533490898733e-02
3.519619587634595370e-03
1.907759723978880162e-02
2.357746316344738746e-02
2.225972433059403288e-02
2.570177377853055667e-02
3.957685680335187861e-02
5.763467305340186364e-02
6.611631259618422352e-02
5.617327902001822970e-02
3.228881048947929155e-02
8.541969836584950571e-03
-3.591583688312527389e-03
-4.607587404434537737e-03
