BVP Signal
-1.551232312605680536e-04
7.517888665915058166e-02
1.187245763994491388e-01
1.113686084750669103e-01
5.400173595640524182e-02
-3.366412244329723691e-02
-1.213912133204012589e-01
-1.798888614669399422e-01
-1.909580321123706126e-01
-1.529053304780179645e-01
-7.977121339439474657e-02
4.913002341870839444e-03
7.721606557898369472e-02
1.210665466348768982e-01
1.324367593625808692e-01
1.182242615402331193e-01
9.119938522858037078e-02
6.394734231949794623e-02
4.441711844634164963e-02
3.418089173431849287e-02
2.920011235660407989e-02
2.239212222680461717e-02
7.089341711879554309e-03
-1.984516911131897765e-02
-5.649386290714571851e-02
-9.641396748724111176e-02
-1.305998580513605123e-01
-1.498774851799207775e-01
-1.472000076772981836e-01
-1.197442942636662844e-01
-7.042672081114355331e-02
-7.956272044629383866e-03
5.519296150428440462e-02
1.063770596043824290e-01
1.364695306679397369e-01
1.422946994401259324e-01
1.273256068400572816e-01
1.006603053406786435e-01
7.416755000847688462e-02
5.790249543999231863e-02
5.510718255163979395e-02
5.945919980712429526e-02
5.700068097311104809e-02
3.277433288782137522e-02
-2.086313229401438180e-02
-9.861761956368711446e-02
-1.823420582197152751e-01
-2.469503109610945157e-01
-2.697008947723381622e-01
-2.391210580473094316e-01
-1.599333864986235421e-01
-5.174572710632030503e-02
5.812791949278572901e-02
1.445025100833020049e-01
1.923246835160137835e-01
1.997189862245202785e-01
1.759349753768113533e-01
1.363279813446717226e-01
9.675829942402414119e-02
6.882284385016040895e-02
5.665631527022046976e-02
5.598846001249015158e-02
5.593785915504292244e-02
4.322845686989584130e-02
7.612779347383816231e-03
-5.315990306203154103e-02
-1.305137499228319897e-01
-2.058403609985284266e-01
-2.556710304106284970e-01
-2.602155652077989823e-01
-2.119599830949404351e-01
-1.199913996954047185e-01
-7.414806337834636482e-03
9.712056799139685836e-02
1.697167596899087638e-01
1.988228070667902303e-01
1.875490643034592453e-01
1.506698467223085425e-01
1.079650863800565019e-01
7.623781791287934095e-02
6.262433637436812250e-02
6.177506978566733170e-02
5.853579409269127343e-02
3.560269499608245680e-02
-1.692626037854449983e-02
-9.459653551138236249e-02
-1.779801390024428609e-01
-2.394073731892349954e-01
-2.545030656317197049e-01
-2.132430566851487574e-01
-1.249767876533672273e-01
-1.472634516965196094e-02
8.728836294585362587e-02
1.574137075485232129e-01
1.859663291348471748e-01
1.776887927375766785e-01
1.466063152698777183e-01
1.088516925849301459e-01
7.668952841415027644e-02
5.529214899611968603e-02
4.244916088320904723e-02
3.078585452526672039e-02
1.162531679083650404e-02
-2.090750904441823765e-02
-6.702687876630847308e-02
-1.204726945352967843e-01
-1.697045145105517405e-01
-2.007906531987135867e-01
-2.016831085847207161e-01
-1.669860527277469142e-01
-1.012224410344167436e-01
-1.836706654529426941e-02
6.290087756469531222e-02
1.260926751900413867e-01
1.623753863056554003e-01
1.720701338930875623e-01
1.621840642679863165e-01
1.419189185102028850e-01
1.183726555884989373e-01
9.390163047602989588e-02
6.589716551895757890e-02
2.915775333696191129e-02
-1.990063343469861135e-02
-7.912860791713044462e-02
-1.390027535871295739e-01
-1.848489962557464950e-01
-2.022813837234427314e-01
-1.833674734708501952e-01
-1.305311988809423895e-01
-5.630043247040313059e-02
2.101298930622444439e-02
8.380997884414705112e-02
1.210955640194529837e-01
1.312940207027537554e-01
1.209969479335842035e-01
1.007029525809120252e-01
7.998218280005961467e-02
6.422346581809346144e-02
5.361600730609836218e-02
4.380259010617360005e-02
2.767375456603858586e-02
-1.642749639365162148e-03
-4.681102421270853797e-02
-1.028530869441441065e-01
-1.566358892010062398e-01
-1.906592393102072847e-01
-1.900072996499717060e-01
-1.491867948686443346e-01
-7.541865932366403902e-02
1.325566829240928945e-02
9.425303408584327636e-02
1.484958309798116161e-01
1.669509871581795202e-01
1.529691149659649363e-01
1.194986225564905746e-01
8.263332398117206878e-02
5.466699174661016070e-02
3.972809626006221229e-02
3.336959452322718622e-02
2.561960146336429017e-02
6.046790214379003936e-03
-3.083995554468438316e-02
-8.173877615023031340e-02
-1.341882720637116999e-01
-1.706860557109921572e-01
-1.760813478392766473e-01
-1.447759843838505311e-01
-8.386087695928892694e-02
-1.041539339869158171e-02
5.559940979915618808e-02
9.927856880806704143e-02
1.159063970074287464e-01
1.112096895763425852e-01
9.688907844259037061e-02
8.370576787629535609e-02
7.562675468709759152e-02
6.811572318200553866e-02
5.151183942317796860e-02
1.763077444294615381e-02
-3.404940097538369098e-02
-9.394846639531324872e-02
-1.450175406478393381e-01
-1.693431194748225566e-01
-1.558556779509165935e-01
-1.056756233980397086e-01
-3.240870493033387589e-02
4.311159952539259099e-02
1.012836120331223055e-01
1.311842157753811966e-01
1.333455131366352853e-01
1.169639690639110441e-01
9.372222031659965813e-02
7.179402738309620391e-02
5.278426065874988748e-02
3.241335367456989192e-02
4.092170123246002822e-03
-3.632450155573563322e-02
-8.663306556804414860e-02
-1.371416528027970261e-01
-1.733054255708026958e-01
-1.813582102091285675e-01
-1.543918248869900756e-01
-9.588685180523671969e-02
-1.900019498619515135e-02
5.795442644007230137e-02
1.178046386801353679e-01
1.501187226955125742e-01
1.540329560093546823e-01
1.371728701826269714e-01
1.110424332824152815e-01
8.503058290489673432e-02
6.213527109491795430e-02
3.864441518696684619e-02
7.723810350995008456e-03
-3.524112834041540077e-02
-8.832677834136908046e-02
-1.417986124096415335e-01
-1.806213279306259079e-01
-1.900870092285681934e-01
-1.624250326877301198e-01
-1.012663752117262117e-01
-2.134273173001489249e-02
5.689237943156791322e-02
1.151760644754883933e-01
1.439408102286889868e-01
1.445025272243625758e-01
1.265326214185438503e-01
1.025696858738529560e-01
8.213200568127385082e-02
6.774219031752795606e-02
5.443312386947128656e-02
3.310110394829460234e-02
-3.630717651070494711e-03
-5.590306076648934863e-02
-1.145162056063959155e-01
-1.636275882675860549e-01
-1.870671909709546998e-01
-1.752207564298762787e-01
-1.292755874468930199e-01
-6.097406584416474595e-02
1.197151637054764961e-02
7.278079566246248300e-02
1.117075730957856616e-01
1.284692741729899779e-01
1.298902247262266885e-01
1.242314025035975433e-01
1.155895047577493173e-01
1.016019466999836529e-01
7.552871080483068711e-02
3.125389738109944637e-02
-3.147135436470455128e-02
-1.040098121393172592e-01
-1.696735923579703043e-01
-2.087978576109789097e-01
-2.065122096123028217e-01
-1.597307975159309446e-01
-7.955668865949555579e-02
1.258854212046334187e-02
9.339048030431096326e-02
1.464415740347759232e-01
1.672333125768868944e-01
1.623906840169401788e-01
1.441220464963194892e-01
1.229317626447856693e-01
1.021919589352686120e-01
7.719924097984612321e-02
3.917876139046466699e-02
-1.785167330436340100e-02
-9.108459437633137368e-02
-1.671969428681323311e-01
-2.260778956713252186e-01
-2.483650743131338712e-01
-2.233355918176153920e-01
-1.536995772085863465e-01
-5.529081023339030287e-02
4.827453646440854618e-02
1.338469506514364804e-01
1.863877365400821717e-01
2.025869774695075454e-01
1.889950723033413660e-01
1.562004933429065601e-01
1.127556536274866988e-01
6.237713146856838087e-02
5.551878370412065278e-03
-5.619692285771255014e-02
-1.166059772001148409e-01
-1.642022883996142602e-01
-1.858211805684860662e-01
-1.725997987751515250e-01
-1.252629912359336517e-01
-5.539457923728430266e-02
1.864954180635219200e-02
7.930664691263916710e-02
1.166575289674368077e-01
1.307961839839419382e-01
1.288727953858561648e-01
1.191853294481221570e-01
1.060007914788608230e-01
8.771348210588640615e-02
5.878607826482087906e-02
1.419089403381024184e-02
-4.575750559374388432e-02
-1.125161636482890082e-01
-1.703023588702713143e-01
-2.013454506186672377e-01
-1.933676175666579622e-01
-1.455030684503389460e-01
-6.936289465910172591e-02
1.537358789434405126e-02
8.846445242370994111e-02
1.360069197963385268e-01
1.538695237647011715e-01
1.467640903642497552e-01
1.239706839100158109e-01
9.401359539367606932e-02
6.100324448259011878e-02
2.451568012303742550e-02
-1.718638592243981744e-02
-6.291612478003222320e-02
-1.062426199374134905e-01
-1.366840505797759509e-01
-1.438333545130511815e-01
-1.222719327509348974e-01
-7.483160290667167924e-02
-1.255814593563323034e-02
4.886727977892585395e-02
9.492427218398635791e-02
1.176933381539979340e-01
1.181361371404753835e-01
1.038098127139646665e-01
8.328348072478281017e-02
6.077720111983711537e-02
3.450814240384846021e-02
-2.755343058807729895e-04
-4.571694759034028444e-02
-9.692090687167517760e-02
-1.415883016937686811e-01
-1.643435922230023771e-01
-1.538460484129150485e-01
-1.090352670526341938e-01
-4.086439670136424174e-02
3.190610127803062551e-02
9.079081242818928810e-02
1.250018901695368889e-01
1.341250772399930624e-01
1.251072720463592414e-01
1.061651359618329682e-01
8.171281804830077267e-02
5.115189029745951382e-02
1.169161830621240350e-02
-3.691378113937016092e-02
-8.875444844824886825e-02
-1.317763959944054930e-01
-1.520635803978020173e-01
-1.404845455786390418e-01
-9.791035716853632720e-02
-3.560067591870989812e-02
2.971256084673726261e-02
8.301905719864025035e-02
1.161838533362347659e-01
1.285740245212013133e-01
1.239133049429346212e-01
1.062327084231073360e-01
7.760741044842744962e-02
3.862441751751901492e-02
-9.294330977284520623e-03
-6.150320273843305763e-02
-1.093663489095187819e-01
-1.419734693473440612e-01
-1.499182437397826306e-01
-1.294180616632236713e-01
-8.453749895203191422e-02
-2.616440502065026097e-02
3.178131978447268358e-02
7.700564387273053923e-02
1.023882590228694933e-01
1.073427031564492262e-01
9.680797361120041522e-02
7.828095215988950528e-02
5.797319574188342095e-02
3.790372080377821251e-02
1.570062561084640401e-02
-1.250357448125088977e-02
-4.775666377239548566e-02
-8.538094897821066342e-02
-1.155379984549893546e-01
-1.271446227991414601e-01
-1.130000459219164394e-01
-7.340622175528062343e-02
-1.653421826350201518e-02
4.451048599433671260e-02
9.644832605891373589e-02
1.301626430301518478e-01
1.426619666978168888e-01
1.360515554950548767e-01
1.145887481885632941e-01
8.185883829251877630e-02
3.971315144403758657e-02
-1.073200345260830191e-02
-6.697395313432531749e-02
-1.232528044310140097e-01
-1.700831482267296801e-01
-1.958876058445278012e-01
-1.907223417396575749e-01
-1.509219237197098606e-01
-8.236258003755864143e-02
-5.851323994598978118e-05
7.651866116239983140e-02
1.305747364238114550e-01
1.542234321800626251e-01
1.508154258691173366e-01
1.322772668432759535e-01
1.126526292497962989e-01
1.007012321101717622e-01
9.501510919519515208e-02
8.438938809131824037e-02
5.396889312998406907e-02
-5.409414881799384789e-03
-8.955130751787426791e-02
-1.795057239184614239e-01
-2.478876036166784425e-01
-2.701596997655171251e-01
-2.353913708685930473e-01
-1.513210699486979283e-01
-4.144236931110514138e-02
6.441114412464057914e-02
1.416369919265679234e-01
1.793935202136215101e-01
1.824306926982458277e-01
1.658725941514942737e-01
1.460293234203422774e-01
1.319873399177168560e-01
1.218094580590618758e-01
1.045276486915711900e-01
6.654035492064037938e-02
-3.345146492740522226e-04
-9.227412216431257752e-02
-1.913426708450639557e-01
-2.698633606456672940e-01
-3.006688348519569454e-01
-2.691132540755677982e-01
-1.807167498573285236e-01
-5.993521151423632232e-02
5.971931859325380065e-02
1.492163876234906539e-01
1.944773907377296829e-01
1.991309515437517663e-01
1.791566749137900871e-01
1.528886189867305623e-01
1.315557203033513312e-01
1.147289601946835796e-01
9.238727582260218563e-02
5.204860574495030756e-02
-1.287893824042780910e-02
-9.755097069323681591e-02
-1.852674981222008910e-01
-2.522469097719111653e-01
-2.759303649869346287e-01
-2.440025956637459359e-01
-1.605734679450818714e-01
-4.628143864593810275e-02
6.866981585941503430e-02
1.559093888724897847e-01
1.993926670716772431e-01
1.999661292371887056e-01
1.722353549358988101e-01
1.359507604136303005e-01
1.063946235418816166e-01
8.798934690360021849e-02
7.347652255136609412e-02
4.877390288613283470e-02
1.485866868480879843e-03
-7.071030264468138038e-02
-1.560579535143737651e-01
-2.316160711778428305e-01
-2.720994375219581984e-01
-2.605395481221628451e-01
-1.957699892605482273e-01
-9.345351939344856418e-02
1.961417616246355008e-02
1.154042796816142080e-01
1.746209410581256172e-01
1.925833512039523687e-01
1.786323642118131660e-01
1.497230665774323122e-01
1.216980808960516358e-01
1.025558234121360102e-01
9.037117481184750445e-02
7.583883420226036898e-02
4.761443273838719681e-02
-1.701685418224477275e-03
-7.081069618280955158e-02
-1.479304236552947405e-01
-2.133415045227777807e-01
-2.461500094128497018e-01
-2.327965917734371448e-01
-1.732789635198979106e-01
-8.185198431606333092e-02
1.817302280491117639e-02
1.029742370765891479e-01
1.563068912558547296e-01
1.739798297695967499e-01
1.632794866477235152e-01
1.379124054793884335e-01
1.108690669619113722e-01
8.856538849883213715e-02
6.895903242575050773e-02
4.422481370777276571e-02
6.309240511407957462e-03
-4.739321778892605086e-02
-1.106899918641748443e-01
-1.690424488166584749e-01
-2.041278384117472533e-01
-2.012584843876838447e-01
-1.565916691128387273e-01
-8.025508392190205953e-02
6.930463678704645858e-03
8.192449272605484278e-02
1.288002975165138120e-01
1.441525532323529313e-01
1.361945367659649353e-01
1.185953443743330560e-01
1.025225753852606614e-01
9.084649622212423448e-02
7.726645815176699794e-02
5.084669977654691919e-02
3.773856395961165677e-03
-6.181896572205433649e-02
-1.320140431807640957e-01
-1.857354892667603952e-01
-2.036759953941379986e-01
-1.769778958540074998e-01
-1.114106948450351298e-01
-2.527304623855153309e-02
5.774251674598184642e-02
1.174499100923689365e-01
1.440801824819042398e-01
1.404069724325413548e-01
1.183725748430589086e-01
9.206206274585890248e-02
7.067147053618658137e-02
5.493359584217307606e-02
3.834260413818053187e-02
1.195712726113111468e-02
-2.982980638217108682e-02
-8.503467479187112876e-02
-1.429480639371445982e-01
-1.867864509710661924e-01
-1.996538558084957060e-01
-1.717573902860364821e-01
-1.055676989714032510e-01
-1.606040946290567678e-02
7.441132891244091330e-02
1.442320442885386134e-01
1.799384468863768349e-01
1.799815919940881970e-01
1.536972511786911244e-01
1.161546168482896491e-01
8.101509977011987773e-02
5.448733306389750425e-02
3.331249133093940051e-02
7.952601182804858171e-03
-3.061814482100196078e-02
-8.419998982309341573e-02
-1.443365149251654156e-01
-1.944958531357133535e-01
-2.164551797084000861e-01
-1.981598371828290073e-01
-1.396892665551966728e-01
-5.444155539431820567e-02
3.548386181444448950e-02
1.078612127891483141e-01
1.487717387614896358e-01
1.568390236789884984e-01
1.416567766351659041e-01
1.179209598526053671e-01
9.850186122533274857e-02
8.933614037934618779e-02
8.757384614111485277e-02
8.319323153678767624e-02
6.356064032114006057e-02
1.959717563108724636e-02
-4.875888139416485745e-02
-1.303782445481581620e-01
-2.054930572161923763e-01
-2.522857703649448724e-01
-2.549373232056982852e-01
-2.098355446297980598e-01
-1.272980082190774687e-01
-2.793189354915851658e-02
6.495627276604745703e-02
1.336182865773793693e-01
1.710837106024862830e-01
1.811525744495885992e-01
1.737802960509712280e-01
1.588607350949405583e-01
1.417819183840056951e-01
1.224000733805405139e-01
9.680920254110447765e-02
6.021469829096896820e-02
9.675148116981030499e-03
-5.369422779261118217e-02
-1.233620505711476301e-01
-1.875893278795315866e-01
-2.318599748998608767e-01
-2.432378288856430204e-01
-2.151813086514345330e-01
-1.508065049978100092e-01
-6.297905831325772974e-02
2.923850924644562366e-02
1.067032753399167477e-01
1.564292759486946571e-01
1.751792290612388947e-01
1.688590500194926958e-01
1.483525072009755919e-01
1.241470037711055741e-01
1.022210894818473687e-01
8.244342034091560467e-02
5.946263515751468165e-02
2.562719300116259036e-02
-2.460178602432930295e-02
-8.996174012411897736e-02
-1.597435134498944032e-01
-2.155530735193078307e-01
-2.378466217656017290e-01
-2.145762891137989459e-01
-1.475064335165813534e-01
-5.269687111265436430e-02
4.530719852367365297e-02
1.228588858520296423e-01
1.658401468554203118e-01
1.737384547920980959e-01
1.575864568833757196e-01
1.330497182371180309e-01
1.121692392410043870e-01
9.777045365438137570e-02
8.307330223095815702e-02
5.638877110348780586e-02
8.425405199395469280e-03
-6.122605545149496786e-02
-1.413280378348610866e-01
-2.114269495982079861e-01
-2.490518701527407730e-01
-2.390565505613372888e-01
-1.807978613707035276e-01
-8.916690688193124048e-02
1.150752870657850702e-02
9.754087079372195102e-02
1.545558869036881555e-01
1.805999340909064665e-01
1.831692396915790555e-01
1.727289052063285812e-01
1.563382540689802203e-01
1.341955893871410177e-01
1.004103097965657332e-01
4.766034201203450671e-02
-2.634550077960681747e-02
-1.139822026648308895e-01
-1.975163542248425386e-01
-2.544446558389373281e-01
-2.661279751867478560e-01
-2.256386226763656966e-01
-1.411876046501597259e-01
-3.368335314033407690e-02
7.048183204811106495e-02
1.484887346561254984e-01
1.883968490926313799e-01
1.917725459753988893e-01
1.706646882161331757e-01
1.405210424810230951e-01
1.125211901650971513e-01
8.890215665126383060e-02
6.322199395259024690e-02
2.521942245174492447e-02
-3.196575691554096044e-02
-1.055121837129478629e-01
-1.808704503990001544e-01
-2.357758463381796066e-01
-2.492660146854072667e-01
-2.115991571503933466e-01
-1.298162441924986532e-01
-2.570402440468647076e-02
7.290257487863402441e-02
1.429737441601232339e-01
1.741061698094647781e-01
1.702768854337672888e-01
1.456264715400892862e-01
1.167317132383938055e-01
9.484055532093102481e-02
8.131650395643594265e-02
6.817358648812235633e-02
4.333825384137854342e-02
-1.939290820679534511e-03
-6.707088955119080986e-02
-1.402842702766224081e-01
-2.018199094627912971e-01
-2.310415060830492417e-01
-2.147896263695153185e-01
-1.535057948483606050e-01
-6.209451857673790182e-02
3.541732365173802521e-02
1.152478143542109146e-01
1.627322189194168045e-01
1.763332483120778060e-01
1.651981677817333516e-01
1.422460120267407535e-01
1.168157488266573507e-01
9.052324815944237657e-02
5.802148019720885369e-02
1.207858640596630451e-02
-4.958730466550953508e-02
-1.194579613577254618e-01
-1.806086983540753921e-01
-2.130093912527121214e-01
-2.028102533838750110e-01
-1.495042187660325095e-01
-6.684751164434409032e-02
2.291651031207942585e-02
9.816563964213742555e-02
1.455142908328471707e-01
1.625889628759941696e-01
1.555712471047578926e-01
1.336212585172030509e-01
1.033709260018604720e-01
6.629170818110363683e-02
2.015685906792106380e-02
-3.644175780724090430e-02
-9.940085216718672068e-02
-1.573468751017966794e-01
-1.943281167400994769e-01
-1.960321505632306449e-01
-1.566386174895050276e-01
-8.283287187141125107e-02
7.411849858766736410e-03
9.125277746862509032e-02
1.497936082721158801e-01
1.748991096010961976e-01
1.704741509494452911e-01
1.478288021824254728e-01
1.182142046451338524e-01
8.699828573484161276e-02
5.247597154976761658e-02
9.322618035881628795e-03
-4.572285216789162554e-02
-1.091125408143368281e-01
-1.691560775757928736e-01
-2.090967933212261043e-01
-2.137042891974727521e-01
-1.765477585943071304e-01
-1.041289409803191068e-01
-1.423487274375840120e-02
7.093605230449680221e-02
1.332249650802986851e-01
1.642155799856019338e-01
1.659094635419064434e-01
1.470438056651515168e-01
1.175826015712454486e-01
8.409309316446875182e-02
4.785962325140025175e-02
6.387505351316588587e-03
-4.243607939523338923e-02
-9.572034516568884988e-02
-1.434714927322664757e-01
-1.710819188915405631e-01
-1.658391522588210654e-01
-1.241083135831780315e-01
-5.495896979995001236e-02
2.224271303486900775e-02
8.548480052927150130e-02
1.193629154627621203e-01
1.213222488011350964e-01
1.016217932344862518e-01
7.690389865613361797e-02
6.074761316384402754e-02
5.641274724883549307e-02
5.580654261061351873e-02
4.508912816969826154e-02
1.355674836666215244e-02
-3.915771225565178870e-02
-1.012571277905023326e-01
-1.530758236715101805e-01
-1.754167352508309019e-01
-1.581606650990095564e-01
-1.051463039781710407e-01
-3.275846253818709419e-02
3.735444955296028657e-02
8.776030237614908247e-02
1.118503893533599192e-01
1.142244381995030228e-01
1.053425612811834944e-01
9.419996060369675850e-02
8.333255162982874942e-02
6.844790391159044640e-02
4.226295188084286392e-02
2.756941763923104194e-04
-5.448512752359460642e-02
-1.103423045825170923e-01
-1.506113768814529574e-01
-1.606793272973669195e-01
-1.349802958068324898e-01
-8.003757123172625110e-02
-1.191823220540676881e-02
5.040812307893127731e-02
9.241518886810985711e-02
1.088640894690997007e-01
1.043995722311397700e-01
8.988852989953685646e-02
7.616132342570439140e-02
6.811699572068796726e-02
6.229537870707581304e-02
4.940204059825951954e-02
2.049826411207242294e-02
-2.661444806381442485e-02
-8.435406062789072013e-02
-1.372419510237641860e-01
-1.677952002622355998e-01
-1.638183430922632855e-01
-1.239394532783883451e-01
-5.878786113970382865e-02
1.306417812440675841e-02
7.272948647734761574e-02
1.084673710640829958e-01
1.191747691772729600e-01
1.123768068971502110e-01
9.835993966908491981e-02
8.402808990660794175e-02
6.970469870693385417e-02
5.013664209283225093e-02
1.883585414525387053e-02
-2.648334605473941575e-02
-8.012947368002354409e-02
-1.286518452887756014e-01
-1.557127311820014903e-01
-1.496449508181024735e-01
-1.096352118065010428e-01
-4.677921584060312776e-02
2.076935131680995514e-02
7.573580306379470994e-02
1.083203594011439563e-01
1.182521893912021338e-01
1.119274475416993653e-01
9.684777055210927466e-02
7.673645969922868182e-02
5.012555053158207485e-02
1.320180706178214480e-02
-3.488795481470174931e-02
-8.787260866350607436e-02
-1.325533436101682394e-01
-1.538556437694328927e-01
-1.419242440822620910e-01
-9.705749842890309953e-02
-2.982086124382474224e-02
4.322296229946966800e-02
1.054651965664311908e-01
1.449888931016206917e-01
1.565343158390997691e-01
1.407792007427899617e-01
1.021874777745592627e-01
4.705451823474483125e-02
-1.716787858484990215e-02
-8.144594780972957970e-02
-1.349945023876375494e-01
-1.667743033537766317e-01
-1.687125970092598903e-01
-1.389796151018972137e-01
-8.315630812812785377e-02
-1.243641154529240983e-02
6.001225501772552984e-02
1.224608538164847077e-01
1.663848378781531412e-01
1.864926386952056869e-01
1.798946240485201353e-01
1.455725487536003171e-01
8.501093318102825869e-02
4.003598497643118259e-03
-8.556893921976281570e-02
-1.660308831654305484e-01
-2.177547260456298983e-01
-2.259097756748694730e-01
-1.870574856125249430e-01
-1.117885732656659359e-01
-2.139234930596141393e-02
6.020248683829945713e-02
1.154186637807325111e-01
1.387247846879320068e-01
1.364792912069794362e-01
1.212351547445019717e-01
1.036509706330836778e-01
8.656288956365348897e-02
6.466736699610928230e-02
2.990302219292907682e-02
-2.097310569779379380e-02
-8.144959392589287694e-02
-1.360264184405945986e-01
-1.663277011958644858e-01
-1.594107235776348608e-01
-1.142179224518666825e-01
-4.306909572722295021e-02
3.271591611867702420e-02
9.130184124540104140e-02
1.190708080658354762e-01
1.154081897812073709e-01
9.127681880831939321e-02
6.260770111347524480e-02
4.220089320112740960e-02
3.421696263331075460e-02
3.345980809899151698e-02
2.906350318215933370e-02
1.048317520974795247e-02
-2.678925152425934431e-02
-7.808337630365752569e-02
-1.304100790694269207e-01
-1.671433094794537721e-01
-1.744912156737765674e-01
-1.468164521749920626e-01
-8.862122386626891668e-02
-1.281608599396349968e-02
6.358713090970713466e-02
1.246756107331036811e-01
1.601361343870550402e-01
1.676964798936036449e-01
1.526468138520973017e-01
1.246196558278814259e-01
9.305288553768376048e-02
6.340314396765189819e-02
3.573082642413683008e-02
6.042715583726931960e-03
-3.044552298771070059e-02
-7.557257279131168737e-02
-1.255034647313040819e-01
-1.703052398048351401e-01
-1.965960748931239177e-01
-1.927531514590664075e-01
-1.544768570506236949e-01
-8.777846764228416920e-02
-7.625804903232807908e-03
6.718707052747366348e-02
1.205912155282119341e-01
1.445585728070735987e-01
1.413226256068465247e-01
1.217809026836154107e-01
1.005695722140354520e-01
8.955643387883699402e-02
9.237879702274970350e-02
1.024822864212705520e-01
1.056888924574797550e-01
8.631436320996777045e-02
3.438686989480591039e-02
-4.878797170597579114e-02
-1.488665765054523193e-01
-2.415898947514343309e-01
-3.003153983622866008e-01
-3.054936714892662053e-01
-2.521537263039411725e-01
-1.519345389588577511e-01
-2.882920641045161325e-02
8.911879230064312374e-02
1.784976019814203396e-01
2.265790485669494370e-01
2.333117394705278569e-01
2.092079485458290533e-01
1.701268418777936997e-01
1.308528467721745137e-01
9.982309034113601154e-02
7.688914365575272303e-02
5.467786477217162489e-02
2.271550112710710168e-02
-2.724713187889296617e-02
-9.635030139343175870e-02
-1.758136874290439633e-01
-2.477679910996096468e-01
-2.904372406583946020e-01
-2.863211982107060072e-01
-2.298411083384613862e-01
-1.305165506513272788e-01
-9.945033076907972003e-03
1.057755361631274871e-01
1.944626711628073545e-01
2.437389472299801851e-01
2.528683609399816068e-01
2.307181728229369955e-01
1.909796268756452364e-01
1.463609299096929606e-01
1.038559920280416327e-01
6.293515534672455836e-02
1.734888563158076824e-02
-4.024172155197824896e-02
-1.126126763184897989e-01
-1.934995300809252972e-01
-2.664844254748787167e-01
-3.088410765137044045e-01
-3.000962984263079170e-01
-2.321279009199086474e-01
-1.154706366788979532e-01
2.245977762568118763e-02
1.471534447666011380e-01
2.300251419767413430e-01
2.582953986294649340e-01
2.376261843025380682e-01
1.873379309263383252e-01
1.310633130623846676e-01
8.687485244579852550e-02
6.067097117592099020e-02
4.532598633472495475e-02
2.587569073910226183e-02
-1.163058497905482269e-02
-7.173259360520617411e-02
-1.455363145771312317e-01
-2.129739749069940458e-01
-2.505380903365200251e-01
-2.413400937121504275e-01
-1.830612387012985343e-01
-8.979590026802226899e-02
1.359139109112736388e-02
1.019792282645407555e-01
1.598096837644869539e-01
1.850381816891598086e-01
1.857109388383155479e-01
1.721016470299843448e-01
1.495700923721018372e-01
1.162112246082233624e-01
6.617317375005044022e-02
-3.613765507288480006e-03
-8.724696262711575945e-02
-1.680430177485700283e-01
-2.230666740170273998e-01
-2.326413044388611073e-01
-1.901456938367453442e-01
-1.063495837940490185e-01
-5.242638816769729093e-03
8.651204631013156843e-02
1.503483524438232743e-01
1.808090889944612978e-01
1.829211694657824905e-01
1.649093698162130972e-01
1.315602550355011446e-01
8.236591197754369875e-02
1.518818069434528517e-02
-6.726448556586753225e-02
-1.526707657311771604e-01
-2.199049245543061026e-01
-2.462444162528684144e-01
-2.177442131898184030e-01
-1.370027613116051590e-01
-2.363962378149667143e-02
9.290386620843776866e-02
1.842371296037310646e-01
2.321045410282480126e-01
2.320871793035984565e-01
1.915837249879793758e-01
1.243121824470122538e-01
4.458744571342393437e-02
-3.593842506376759838e-02
-1.082138868535045539e-01
-1.638507951728503109e-01
-1.941262538845685004e-01
-1.918944810746222862e-01
-1.556551180762037745e-01
-9.262125764102792369e-02
-1.778500965007931423e-02
5.128072322823048340e-02
1.010966947119652792e-01
1.266730740867882954e-01
1.314159499227824379e-01
1.229599582531477053e-01
1.074244110057260559e-01
8.538356710930750104e-02
5.214724820858690491e-02
2.705715534013705681e-03
-6.139496613160852490e-02
-1.279718356463652729e-01
-1.766097432241908738e-01
-1.873047290409719512e-01
-1.508087110260500352e-01
-7.460072688855634571e-02
1.919301182046123655e-02
1.029494264896854416e-01
1.549780556288400390e-01
1.675761423287280838e-01
1.480833938412661199e-01
1.128488017659887710e-01
7.750896419240993485e-02
4.888058922367921610e-02
2.288292254433405004e-02
-1.056757281567728690e-02
-5.879176214201808914e-02
-1.189559370272551264e-01
-1.764165379614709428e-01
-2.100099020889010792e-01
-2.018722883925008205e-01
-1.469890378247723506e-01
-5.748750890576942441e-02
4.108883438717648995e-02
1.202965028200893710e-01
1.609622726125773118e-01
1.605879363948686800e-01
1.321686076520467157e-01
9.558468394445415739e-02
6.679000061700492152e-02
5.065940004702841615e-02
4.065814115028157372e-02
2.461984330834571244e-02
-6.884781179227861259e-03
-5.391039231388611297e-02
-1.055228134456358546e-01
-1.441284426756691273e-01
-1.537063311082477735e-01
-1.276849343957566218e-01
-7.222569206123106988e-02
-3.290607463145689415e-03
6.049845135645781635e-02
1.050594117046310672e-01
1.246109423033047725e-01
1.210440976076404551e-01
1.003957130655122043e-01
6.892976623269000958e-02
3.091225125177411714e-02
-1.107490140209942478e-02
-5.396416624387317951e-02
-9.211364053494183746e-02
-1.173748850137342759e-01
-1.219433312977700745e-01
-1.023992475940677382e-01
-6.216978463866341953e-02
-1.063665259195109569e-02
4.051350436080618234e-02
8.136208615575160619e-02
1.060906510679937992e-01
1.129637436972740910e-01
1.028448375542118237e-01
7.765758017285287473e-02
3.985525437027642032e-02
-6.853358350183292452e-03
-5.624743816225066112e-02
-9.920341212544481202e-02
-1.252790388896433960e-01
-1.260405876872233155e-01
-9.848914498624203318e-02
-4.672719261130428570e-02
1.881615162243299721e-02
8.386110088449615085e-02
1.333108255193946878e-01
1.543306940215310175e-01
1.394835386517376263e-01
8.951785175388216054e-02
1.459611167903995810e-02
-6.728147086579208680e-02
-1.348250934434291615e-01
-1.697229732161885662e-01
-1.624779287061349498e-01
-1.155926426625055597e-01
-4.266464088047483560e-02
3.646226643510258603e-02
1.024613933624855533e-01
1.421242746585924255e-01
1.504729973940593935e-01
1.293371865939642595e-01
8.451888673593960233e-02
2.397574120330892011e-02
-4.229062330770050337e-02
-1.020559450409691815e-01
-1.423175784997083027e-01
-1.528134830626871610e-01
-1.300551526323301121e-01
-7.943657523236516416e-02
-1.383776353868311493e-02
5.092045585770860194e-02
1.016347687795836618e-01
1.315706680634799175e-01
1.408085678784735117e-01
1.332442874866264226e-01
1.123656213703297935e-01
7.869026176963178631e-02
3.065972472169470331e-02
-3.157423529860174660e-02
-1.020719168560536849e-01
-1.676984297838628180e-01
-2.109180871453966710e-01
-2.160619954293399037e-01
-1.763992026426026150e-01
-9.852086654229612328e-02
-1.351966588362486787e-03
9.043065087630390575e-02
1.557081139737517550e-01
1.843409906148721633e-01
1.790943500248021181e-01
1.516902659263935360e-01
1.158098265209307753e-01
8.091871396553543261e-02
4.948399343350462498e-02
1.800595615762548563e-02
-1.921540082737155375e-02
-6.530021081580464348e-02
-1.169865735444322596e-01
-1.637554515368398744e-01
-1.909293351869527644e-01
-1.858499058621474742e-01
-1.442384284696665298e-01
-7.333064350987582303e-02
1.003001025128524848e-02
8.548312931441337525e-02
1.365494005835892755e-01
1.560877106011550330e-01
1.476220447207359232e-01
1.221227978495042082e-01
9.178412726103769848e-02
6.389660580746830965e-02
3.810606802348140421e-02
8.580251229326804618e-03
-3.028781668899571677e-02
-7.812094996160998117e-02
-1.261917050364159965e-01
-1.599302038129018777e-01
-1.651909523322896700e-01
-1.352454513358601063e-01
-7.497971589347468546e-02
5.543661914379771627e-05
6.961160170915242640e-02
1.169163741577632365e-01
1.349465691615319707e-01
1.277569247890153747e-01
1.066232600322100932e-01
8.344478531958046674e-02
6.485362281580263344e-02
4.965162374001479140e-02
3.046660347613938669e-02
-1.201294859820956074e-03
-4.876370061825131830e-02
-1.062487969836841822e-01
-1.587024406214157524e-01
-1.879295715985855875e-01
-1.809797998767617155e-01
-1.366631568101054350e-01
-6.631425729327805607e-02
1.141935375325663082e-02
7.846043092126461782e-02
1.235567997735239065e-01
1.443636185165245167e-01
1.455216934986645616e-01
1.346831954274659016e-01
1.186465676156431837e-01
1.009297856684399780e-01
8.113879528636809557e-02
5.591386952392732312e-02
2.102938529852346750e-02
-2.589871577894405086e-02
-8.285761112856716848e-02
-1.420591412700109024e-01
-1.907994281906830736e-01
-2.150232288282765136e-01
-2.047070644888601687e-01
-1.586848039169386215e-01
-8.616700136992373749e-02
-3.741562919880161986e-03
7.074199407994835598e-02
1.242870676787558304e-01
1.521222962859593852e-01
1.574072056095866534e-01
1.481018813983400462e-01
1.326910207606689374e-01
1.165268135675020661e-01
1.001470509487235039e-01
8.006941114546931026e-02
5.140182615805483080e-02
1.080520075882879238e-02
-4.144127906371513487e-02
-1.005902903537222448e-01
-1.575663673568639400e-01
-2.002314701027406163e-01
-2.163168108049390304e-01
-1.978456566268222971e-01
-1.452714972965705731e-01
-6.877101635244105282e-02
1.460009311104347104e-02
8.669415611864256244e-02
1.342007109738082016e-01
1.522779008432543213e-01
1.449502345324741315e-01
1.226094466687477902e-01
9.760877015193122896e-02
7.938368846544367752e-02
7.083947741574923851e-02
6.745350374573332031e-02
5.947392429431358485e-02
3.633408431486129242e-02
-8.308787313008242359e-03
-7.254561000787369818e-02
-1.446537401797572120e-01
-2.051946637122997186e-01
-2.330828385692512716e-01
-2.140656830741068384e-01
-1.480042935153391692e-01
-5.085812469013364923e-02
5.054512261103260434e-02
1.289853259985202227e-01
1.675722417576229195e-01
1.655746786019824390e-01
1.368493599950902917e-01
1.019831604624558685e-01
7.801965378068742574e-02
7.054840121156413790e-02
7.179661918603125192e-02
6.556432313170662551e-02
3.649982341850943612e-02
-2.095575185532450035e-02
-9.831140895207479691e-02
-1.752914712244114104e-01
-2.274031329375547361e-01
-2.355529503154698834e-01
-1.938535055110542638e-01
-1.123668700982017737e-01
-1.335186764956243152e-02
7.752800286681521547e-02
1.408844440983341995e-01
1.695007998576401886e-01
1.681616929630390389e-01
1.487312845655379412e-01
1.238756755051329261e-01
1.022678900401213509e-01
8.627500752584599253e-02
7.196618569633624063e-02
5.119613888685425190e-02
1.546941215081476702e-02
-3.941849351350124042e-02
-1.097730615569605939e-01
-1.831912775478899968e-01
-2.412874509370303011e-01
-2.653420415053676096e-01
-2.431427574428282612e-01
-1.745167574868463356e-01
-7.293547606706547726e-02
3.823361261820871354e-02
1.337526988867449029e-01
1.953043856097851083e-01
2.169612453323095380e-01
2.050962485954423986e-01
1.735151293492475932e-01
1.367477224378755574e-01
1.045786388824209712e-01
7.954152626988883479e-02
5.757054913992642325e-02
3.104301504204907275e-02
-7.049750791737197098e-03
-5.927818652468468119e-02
-1.215658132867850072e-01
-1.832552817165934989e-01
-2.294770800376146336e-01
-2.454180612103011860e-01
-2.215805519126496370e-01
-1.583190435067751423e-01
-6.738856870891744844e-02
3.103450040307231816e-02
1.151650858323558513e-01
1.691782465159137883e-01
1.878761916714127844e-01
1.766138268241304321e-01
1.473759081211580002e-01
1.134238395862169069e-01
8.459504095226680342e-02
6.431807404523942617e-02
4.894128149454024523e-02
2.985551255679014943e-02
-1.857947141007426639e-03
-4.996459826410004634e-02
-1.094484375711132218e-01
-1.667615210567982564e-01
-2.041701932460248115e-01
-2.065703895115260091e-01
-1.680755248879460539e-01
-9.553552047671820535e-02
-7.033650368748436965e-03
7.455520965688938739e-02
1.302919762656397362e-01
1.520105184551431288e-01
1.439896949654912162e-01
1.191146486695315032e-01
9.202755759636996324e-02
7.268998491158179531e-02
6.281373783231325447e-02
5.607140718954484182e-02
4.176749615272563887e-02
1.064830325802231317e-02
-3.945063853397948184e-02
-1.008358911098692912e-01
-1.577851207441865466e-01
-1.924103499840137399e-01
-1.918448175502152631e-01
-1.534582541223619145e-01
-8.594457864780158385e-02
-6.063012800731182317e-03
6.745319081196923805e-02
1.203061070297063995e-01
1.467773683803048623e-01
1.499719238964274393e-01
1.383040760293540450e-01
1.202119022592974262e-01
9.988009009833147267e-02
7.594526733075054881e-02
4.342142966660923059e-02
-2.315758121645833389e-03
-6.117320425575585585e-02
-1.254188100093634461e-01
-1.799956764229759532e-01
-2.070769827594444723e-01
-1.936807981224867303e-01
-1.386388324056223031e-01
-5.467302082599934110e-02
3.610950786542280189e-02
1.110396139203846388e-01
1.553706394236305244e-01
1.663478213463986943e-01
1.514658329760688593e-01
1.225041710922815663e-01
8.881003651034632962e-02
5.339755214661311145e-02
1.379731028948826682e-02
-3.308198271385082156e-02
-8.528623055135037268e-02
-1.333145604098934511e-01
-1.629452486098096897e-01
-1.620453137274640298e-01
-1.272687170864150175e-01
-6.657497853171061297e-02
3.873737470138916006e-03
6.661782658697866510e-02
1.098373455248779496e-01
1.307310144778851546e-01
1.338042287544240483e-01
1.254425992802262746e-01
1.083824487275363846e-01
7.983545002448240446e-02
3.472517283311335468e-02
-2.798452244270330930e-02
-1.002365747840384957e-01
-1.649548620759137829e-01
-2.019683940865887040e-01
-1.968683496331291027e-01
-1.480688831179528819e-01
-6.830159119657164268e-02
2.029794671959062047e-02
9.514251534945139532e-02
1.418673888903561053e-01
1.585775154655003072e-01
1.537716224169662915e-01
1.393765979733063154e-01
1.229720699314948429e-01
1.036220512861277809e-01
7.347645315540016209e-02
2.393880173000192957e-02
-4.714002192588284679e-02
-1.309957730556804423e-01
-2.085373416762777432e-01
-2.562223861278914439e-01
-2.552275216699640414e-01
-2.000281748854235708e-01
-1.020910954020241568e-01
1.357977402859139593e-02
1.176046429793068393e-01
1.867439986920252926e-01
2.111780701224543200e-01
1.960270552276686118e-01
1.571909005996951492e-01
1.135096422098515190e-01
7.838679641472903747e-02
5.439042005241240263e-02
3.344465359042469998e-02
2.762341202794699191e-03
-4.639210231257778760e-02
-1.117609747818264776e-01
-1.787765815231217026e-01
-2.257552951399112440e-01
-2.332250381242614856e-01
-1.929947433333363827e-01
-1.126096991195294356e-01
-1.292481516978227774e-02
8.016390813385551595e-02
1.458607419275269601e-01
1.756102897860787881e-01
1.740779489728990770e-01
1.541640735122606354e-01
1.292193242160696309e-01
1.065558090985531947e-01
8.505695471097973748e-02
5.738794931861498916e-02
1.537079114545930603e-02
-4.394124831694476430e-02
-1.142084728310596986e-01
-1.799798117777820505e-01
-2.217262238844859290e-01
-2.238768510999569195e-01
-1.819680725872827587e-01
-1.051352548633683326e-01
-1.271585039382794324e-02
7.308075885184550646e-02
1.348533152786816069e-01
1.649793602067033405e-01
1.664138489297325441e-01
1.494478764023812190e-01
1.259665797325248138e-01
1.038325020025322315e-01
8.403383262029351375e-02
6.169542278255020495e-02
2.986721170161654726e-02
-1.614031540674380066e-02
-7.560161293345887823e-02
-1.410619077157735934e-01
-1.991360460579681968e-01
-2.337678931177328834e-01
-2.316588448866009897e-01
-1.880072140271228376e-01
-1.096170715740172052e-01
-1.334466084803197228e-02
7.954389273504679225e-02
1.502833671631433055e-01
1.877963448164767235e-01
1.907317053030246901e-01
1.665391425845715034e-01
1.283719233078745026e-01
9.063457355871004650e-02
6.423089333088016772e-02
5.296555563206239992e-02
5.242095115392679527e-02
5.176300155014983140e-02
3.791672049551830792e-02
9.405394497531416320e-04
-6.093576821629326234e-02
-1.385487507740565394e-01
-2.131919238478884038e-01
-2.626031545490944419e-01
-2.694328094323817369e-01
-2.282295790528608148e-01
-1.475445223663026661e-01
-4.642528409790369626e-02
5.262622870355565530e-02
1.309344235455284222e-01
1.784241902653247169e-01
1.946428307400698832e-01
1.864006941158845576e-01
1.636416403235852468e-01
1.355950077235729689e-01
1.086044771768413381e-01
8.564208272866657978e-02
6.651816161233409241e-02
4.808021984117683001e-02
2.483041956015868967e-02
-9.060358199888152164e-03
-5.630411326224310509e-02
-1.132585379954904603e-01
-1.692509866849634115e-01
-2.096186808408417868e-01
-2.213486050449676723e-01
-1.985598492931819337e-01
-1.451137925214181501e-01
-7.315389496092483679e-02
1.601945692203843308e-03
6.548801700821793581e-02
1.108180959380717923e-01
1.366037205597859794e-01
1.464789294015291787e-01
1.457027431660043171e-01
1.390112133715067644e-01
1.297014658129065356e-01
1.191497840575912182e-01
1.061341017416319588e-01
8.641260596827909923e-02
5.363765320363571287e-02
2.124491694189351021e-03
-6.925867752191466886e-02
-1.537760378921989024e-01
-2.359263729823162237e-01
-2.941988173661654882e-01
-3.074903576448240194e-01
-2.633904763365418900e-01
-1.648325657737592098e-01
-3.144232586639096605e-02
1.058874254099470558e-01
2.151759411926230658e-01
2.738241543970902914e-01
2.751002178415428157e-01
2.287180883378797658e-01
1.561960437423747239e-01
8.310813460956262277e-02
3.066788406490813385e-02
9.036389789355725455e-03
1.442575507892729370e-02
3.108569942638045314e-02
3.765318231053854658e-02
1.576119199278723515e-02
-4.206197345887828509e-02
-1.280534352736506787e-01
-2.203248986162333889e-01
-2.896840678294470006e-01
-3.102596557128608490e-01
-2.698868771407804124e-01
-1.755221321020534742e-01
-5.088712939820992653e-02
7.260801245072234789e-02
1.673053601387019251e-01
2.180619947692098992e-01
2.252304403557838230e-01
2.016544276161207905e-01
1.657164325467355981e-01
1.334858854440571507e-01
1.129537442762310329e-01
1.022972032042968465e-01
9.228100899387317591e-02
7.114833764696376628e-02
2.979696956558949839e-02
-3.424849759400414029e-02
-1.146790171448490436e-01
-1.965431686451041271e-01
-2.593944827509893636e-01
-2.835252891365253047e-01
-2.575579526874968161e-01
-1.839833600338011133e-01
-7.949104501294695924e-02
3.055665124919603598e-02
1.210718755350838616e-01
1.756216955311224459e-01
1.908988481651721081e-01
1.758929317342955434e-01
1.464966885094736160e-01
1.179763241429265253e-01
9.854580123166309380e-02
8.672366196349090561e-02
7.330664132445433023e-02
4.667251906757369229e-02
-1.057300105196889994e-03
-6.932782323237479671e-02
-1.474447794878072648e-01
-2.165945608625135244e-01
-2.555384517981302839e-01
-2.485498568797183117e-01
-1.924517035319689151e-01
-9.909871267696071517e-02
8.440322280190371007e-03
1.043259312567643426e-01
1.689187411403590411e-01
1.943945499747278816e-01
1.853456037859719796e-01
1.550628852428989624e-01
1.194689677777046599e-01
9.096996520321276591e-02
7.429846673550408176e-02
6.573223149992771241e-02
5.577065241350631641e-02
3.391230664043737297e-02
-6.505205727217189260e-03
-6.504033324585650755e-02
-1.332418726434379252e-01
-1.963419792576902578e-01
-2.374333934807081881e-01
-2.431730743285314134e-01
-2.088537248853004624e-01
-1.404024483773440024e-01
-5.232227429613588165e-02
3.720410784948605110e-02
1.116762223713420321e-01
1.602087099258348579e-01
1.792959353092333230e-01
1.724662466158472796e-01
1.482275200566774420e-01
1.169950192571699021e-01
8.796546743282762648e-02
6.680991967009120014e-02
5.453304965522982883e-02
4.738596808952541539e-02
3.780924615950129186e-02
1.674625997912061043e-02
-2.254963538301579112e-02
-8.020709082903772214e-02
-1.470983683413501775e-01
-2.060339539640345108e-01
-2.373180929717271792e-01
-2.267231606440959224e-01
-1.721834784821375530e-01
-8.573850134539900969e-02
1.051497956191480010e-02
9.276095415008511758e-02
1.443153002337540514e-01
1.609584472148948842e-01
1.504640029229060705e-01
1.270707955739998618e-01
1.042611893400893774e-01
8.962679884174640232e-02
8.361696291724510233e-02
8.134409023560291996e-02
7.543447061492411509e-02
5.857718792648501649e-02
2.563088549618758316e-02
-2.446507523339921941e-02
-8.724831697127755081e-02
-1.525549269090509807e-01
-2.062503248678561052e-01
-2.338483066153384526e-01
-2.252269079621872505e-01
-1.788935758853087421e-01
-1.037519616207292494e-01
-1.682645331613341622e-02
6.269970105119554438e-02
1.204676453268300196e-01
1.513861780348336739e-01
1.594463988367911256e-01
1.536832509452650264e-01
1.430989914420439102e-01
1.331503036561452746e-01
1.246362941337708086e-01
1.143772505042789656e-01
9.686935567848869999e-02
6.647393443927174239e-02
1.974413063105251442e-02
-4.270486935632211711e-02
-1.152526063648455223e-01
-1.873899378985675046e-01
-2.450391940496519094e-01
-2.734601118705290990e-01
-2.617216003001709979e-01
-2.073884027067166569e-01
-1.189434110227585162e-01
-1.405048511285474783e-02
8.592720142749710188e-02
1.625422355319736667e-01
2.051426820954004304e-01
2.126786127184601694e-01
1.926900208278498061e-01
1.582282493229732745e-01
1.233471775852452712e-01
9.807159300179375816e-02
8.444303082067794453e-02
7.546980380317774850e-02
5.794886519196140034e-02
1.852319018977632153e-02
-4.915684083009774080e-02
-1.390743240689937266e-01
-2.320187648837866434e-01
-3.007040585338052741e-01
-3.197394201814853787e-01
-2.765036500815397646e-01
-1.776356544689371431e-01
-4.754235656966807055e-02
8.058292640431163889e-02
1.769013706977818901e-01
2.247715208263695308e-01
2.246229001954088700e-01
1.911820792773842592e-01
1.459077409470538877e-01
1.079607435938165771e-01
8.729600871392717565e-02
8.232478526346054259e-02
8.238142498627176735e-02
7.316356480656793781e-02
4.263759437074637892e-02
-1.433265049787948997e-02
-9.331190677180427329e-02
-1.799868566755041255e-01
-2.529703230710457218e-01
-2.900727026943740183e-01
-2.765663882098498005e-01
-2.118765258866804613e-01
-1.109476873197256797e-01
9.476018560143351088e-04
9.760968192059360504e-02
1.610597917341475283e-01
1.864946649518315902e-01
1.814723761134227897e-01
1.604237079117701303e-01
1.374336907879897540e-01
1.206644356010825869e-01
1.105733232251340653e-01
1.017943071481580003e-01
8.669893573187453795e-02
5.855362069205141684e-02
1.356918773219378815e-02
-4.764385999095985258e-02
-1.188778632236132671e-01
-1.881610748442713033e-01
-2.398723010165322300e-01
-2.593238246336027619e-01
-2.381766499195018261e-01
-1.781269743752769974e-01
-9.104834604199762982e-02
4.519492353574849908e-03
8.913671949772114522e-02
1.483287670030224992e-01
1.764013131568424320e-01
1.768251613636229458e-01
1.592670390566912897e-01
1.348895517607201500e-01
1.121911076458793760e-01
9.489145410859411989e-02
8.186323776883336345e-02
6.822329808397470385e-02
4.703085752093355554e-02
1.174573420911273480e-02
-4.053874012970695717e-02
-1.061024059583624002e-01
-1.736196554950862336e-01
-2.264758088792988566e-01
-2.480813911852645104e-01
-2.282252064380293488e-01
-1.677083584620424617e-01
-7.900503220321150599e-02
1.763532800172221138e-02
1.011065933164420061e-01
1.563625145799482641e-01
1.783821899727289773e-01
1.719093504614970236e-01
1.478666770138539477e-01
1.185435695295920244e-01
9.335175318198002392e-02
7.600261053432541547e-02
6.351092395059834694e-02
4.754533092653480397e-02
1.839782269727010047e-02
-2.941055457674729423e-02
-9.244333138274535289e-02
-1.574640567963073723e-01
-2.055299015964257570e-01
-2.194825489619239289e-01
-1.913342990812775535e-01
-1.260920761334992923e-01
-4.029264640149313181e-02
4.411188282856803866e-02
1.078756844797784109e-01
1.410390472037225673e-01
1.451166451048605810e-01
1.302548158648474119e-01
1.093040640276727871e-01
9.203357374596971008e-02
8.190522859687809909e-02
7.588888364003706921e-02
6.645808089792368256e-02
4.481755225817088406e-02
4.753406216335409606e-03
-5.371200272619774951e-02
-1.222913138416807932e-01
-1.854928667974154455e-01
-2.251210024138736721e-01
-2.268311957376685783e-01
-1.860854688977405802e-01
-1.107962414663439255e-01
-1.916629413675538518e-02
6.673210714158742118e-02
1.290523339402256664e-01
1.603070664369253551e-01
1.646486972877097554e-01
1.538548355910119847e-01
1.403892416567239509e-01
1.312229263252336908e-01
1.251339276980173443e-01
1.140183530434055736e-01
8.707970785404281489e-02
3.624372482383514393e-02
-3.890857381534240655e-02
-1.285307946005258550e-01
-2.137968834146361519e-01
-2.723184993068326065e-01
-2.859045641368304080e-01
-2.474767788733160945e-01
-1.641829194831878613e-01
-5.541542816467568550e-02
5.347755938200354081e-02
1.394363619330815651e-01
1.888455180010790435e-01
2.008341184227753762e-01
1.853563284019927315e-01
1.570174137798573399e-01
1.277549120355547796e-01
1.019788642390132005e-01
7.620146345937434118e-02
4.272033779557929400e-02
-4.788837329528505826e-03
-6.626517435509360343e-02
-1.328930492804172303e-01
-1.886874583882586776e-01
-2.160714601475530461e-01
-2.034871403486780972e-01
-1.513465284662776633e-01
-7.282185787108857999e-02
1.135981433695082421e-02
8.143887973187147189e-02
1.259609171119146498e-01
1.444344429944900976e-01
1.445948848478419424e-01
1.362250601728425270e-01
1.248806204791256813e-01
1.087741586578139796e-01
8.054584973963013761e-02
3.305801382247858244e-02
-3.408786802185198583e-02
-1.112217647952461475e-01
-1.805408871033916673e-01
-2.224001704125492807e-01
-2.229279986393983559e-01
-1.796400271509110691e-01
-1.028002713657814871e-01
-1.196778774440115933e-02
7.096861113316893510e-02
1.294296602475861202e-01
1.571896671638778331e-01
1.587192432699075229e-01
1.450677761585050796e-01
1.277338697196118145e-01
1.136170807181614145e-01
1.029412085540973437e-01
9.018506541826279421e-02
6.700394955875654812e-02
2.611926291581288806e-02
-3.470131222428185502e-02
-1.097823192375298601e-01
-1.853165889362498597e-01
-2.426923566687672063e-01
-2.646769371827083495e-01
-2.420758312796083001e-01
-1.778630094463757305e-01
-8.671024984932293456e-02
1.009642745531527663e-02
9.218942806472937845e-02
1.467231312924667797e-01
1.711361195408554470e-01
1.712626375839169102e-01
1.565951350088268246e-01
1.358224343872976303e-01
1.147729372296381195e-01
9.652207823096790873e-02
8.189889033935315865e-02
6.922801729386196534e-02
5.390586005696328120e-02
2.928818311484607251e-02
-1.050491189368653322e-02
-6.686549892511765847e-02
-1.339390148054022400e-01
-1.984835785355632543e-01
-2.430947861625062378e-01
-2.522138068310245118e-01
-2.187183617115690537e-01
-1.478416873658236486e-01
-5.593932082064112521e-02
3.566692452365011201e-02
1.086404569547442522e-01
1.533587494124147299e-01
1.701115377802960293e-01
1.662639292342477371e-01
1.516726466390913297e-01
1.345986140263498165e-01
1.192845772868557086e-01
1.054316008361750878e-01
8.931902141159536734e-02
6.593380600387080404e-02
3.121306905365192619e-02
-1.626066976194842639e-02
-7.417826721617343244e-02
-1.359243865413052310e-01
-1.909065152470081073e-01
-2.265777826576213516e-01
-2.322257091778873739e-01
-2.031196011085839026e-01
-1.428147438231664457e-01
-6.228803664140508678e-02
2.351567342108196179e-02
9.986175485870185664e-02
1.554974790482821501e-01
1.844635156578461888e-01
1.866023683569306701e-01
1.669396638257081289e-01
1.340034099972089443e-01
9.733660532457788506e-02
6.477173615008474661e-02
4.014529232449498553e-02
2.207459445098002015e-02
4.421273590351215699e-03
-2.106298824566815719e-02
-6.023828918863288751e-02
-1.120319965189142397e-01
-1.665674894291606367e-01
-2.077552764641179273e-01
-2.196096217442090881e-01
-1.932256730239229614e-01
-1.309368928802203402e-01
-4.583689879630101216e-02
4.276503194896093957e-02
1.158085142665730150e-01
1.603850993620427046e-01
1.730567417225433169e-01
1.595567960097543647e-01
1.313356402800929801e-01
1.007992991671591843e-01
7.733501676941707814e-02
6.512339548494774921e-02
6.244283123803195945e-02
6.200205185251997375e-02
5.268456542607166670e-02
2.341859289589096407e-02
-3.134423505419813016e-02
-1.069265994892598659e-01
-1.874624384217253859e-01
-2.500931550333108100e-01
-2.730717314416066244e-01
-2.444356421133077606e-01
-1.674692120319505040e-01
-6.041982453623453986e-02
4.970761788435183737e-02
1.368286948866349328e-01
1.847384224647735107e-01
1.914252013932515317e-01
1.672591894601492268e-01
1.288065575346516167e-01
9.188261683872905872e-02
6.683457585524887890e-02
5.687665594820000281e-02
5.860216012415621345e-02
6.365532526204153996e-02
6.126063300147467638e-02
4.156976395073756769e-02
-7.213761693296780186e-04
-6.358378716920456974e-02
-1.367866898683793853e-01
-2.036041140511036240e-01
-2.451660340183651754e-01
-2.466470870547359251e-01
-2.032362967813381993e-01
-1.230274756625808485e-01
-2.486161719709789608e-02
6.826196848835081044e-02
1.371172898898898040e-01
1.719790708608015806e-01
1.742172754188688888e-01
1.539642238878684843e-01
1.253251815263205227e-01
1.008915616370690826e-01
8.723915029125428600e-02
8.289270725014125096e-02
7.957176374576149791e-02
6.623385239076357012e-02
3.413688360556685342e-02
-1.916702320613329624e-02
-8.815206411193171609e-02
-1.601408815466106861e-01
-2.183537443427459035e-01
-2.466965459812078820e-01
-2.351045576100264933e-01
-1.834027414080064700e-01
-1.018067745677697644e-01
-7.769233128790742349e-03
7.929568642260090283e-02
1.432772700392687115e-01
1.752053036650653706e-01
1.750724133330280041e-01
1.512731381533352071e-01
1.174698839254525728e-01
8.755220881996891857e-02
7.047298652715755507e-02
6.704565794116637556e-02
6.991453073242498428e-02
6.658452874571457736e-02
4.446536860578447631e-02
-3.560645098745780519e-03
-7.487344171491749911e-02
-1.560987831927126146e-01
-2.264869860269195512e-01
-2.648736381195965217e-01
-2.573453524488346078e-01
-2.022052954008128345e-01
-1.103857008592028510e-01
-1.821693796108136976e-03
1.003207796544811625e-01
1.757526869939559089e-01
2.122183913435197189e-01
2.084965261408465165e-01
1.740861043190624069e-01
1.253132224450301813e-01
7.919112744991896324e-02
4.742969810532621233e-02
3.271575137025588276e-02
2.832555056579060329e-02
2.121737935317994511e-02
-2.010369300131195636e-03
-4.808036686858734032e-02
-1.119904025042350038e-01
-1.770647293828532809e-01
-2.210306674862407839e-01
-2.256157125118466444e-01
-1.848614838279772077e-01
-1.079297035644733449e-01
-1.521333822534250493e-02
6.999767506681280060e-02
1.301718564389526822e-01
1.587375816852832355e-01
1.600624435190372563e-01
1.450121669502651978e-01
1.248559179255585572e-01
1.066489952967842325e-01
9.176558234831884431e-02
7.708626000035348480e-02
5.721139738136366004e-02
2.663951762518596000e-02
-1.801079518695353210e-02
-7.553858322456535879e-02
-1.383235426139678426e-01
-1.927943171663138444e-01
-2.231498006489815999e-01
-2.172951019771479642e-01
-1.722695405327867024e-01
-9.639763504988954623e-02
-6.985848718044113115e-03
7.552369485003979088e-02
1.345685183396564399e-01
1.628248737207810826e-01
1.636591827095826845e-01
1.480113783388198878e-01
1.282030448989490701e-01
1.117388484110903024e-01
9.811874380270659002e-02
8.001611806293829066e-02
4.798274727190818267e-02
-3.658021120589799446e-03
-7.235089616751100294e-02
-1.462095967483746928e-01
-2.069800750880759765e-01
-2.362494952371027579e-01
-2.225786632105847818e-01
-1.664627633799517503e-01
-8.075200723123832081e-02
1.373360468178411176e-02
9.543226187702257002e-02
1.490989773224676018e-01
1.700568075742917573e-01
1.642106007360290554e-01
1.439361868626531926e-01
1.215688919630144027e-01
1.033818363196497558e-01
8.692623221192447014e-02
6.310977890546515257e-02
2.208209662663623840e-02
-3.986701748203826112e-02
-1.157262464149939052e-01
-1.879758172250858284e-01
-2.341930087021468765e-01
-2.361901364604193088e-01
-1.886465050920300146e-01
-1.027047235651892265e-01
-2.170170081032297971e-03
8.606613778198929365e-02
1.425263316898515709e-01
1.614610639699828876e-01
1.505666114863600247e-01
1.252027825753606605e-01
1.003844381204562208e-01
8.405363071784385798e-02
7.416422998762671470e-02
6.067000446490852794e-02
3.171452534520043109e-02
-1.866715677368632753e-02
-8.524146563242579466e-02
-1.517999601393337505e-01
-1.972549012145470293e-01
-2.047257869412570930e-01
-1.691129235069557257e-01
-9.949564311739475531e-02
-1.531011107938098914e-02
6.177279428440782261e-02
1.163446028685868744e-01
1.440377308463825223e-01
1.504051427206579139e-01
1.449514841096747331e-01
1.341059078157195161e-01
1.173474770161704872e-01
8.849231453454255159e-02
4.097012051326243132e-02
-2.609011475957812021e-02
-1.041589313855354471e-01
-1.759308022063607035e-01
-2.205559946394193838e-01
-2.218262417935139008e-01
-1.757505823636873188e-01
-9.341082934579156283e-02
2.961123227091605470e-03
8.887828977426934229e-02
1.467295168415761464e-01
1.706524655102843457e-01
1.656316785346004239e-01
1.424845945674555747e-01
1.117510638380383586e-01
7.909316876322924905e-02
4.384934891385061650e-02
1.376042227558715858e-03
-5.168037949269677078e-02
-1.119335171586100519e-01
-1.672712447094066857e-01
-2.004276075483440445e-01
-1.967433506021433742e-01
-1.518701534300724021e-01
-7.507619170833561284e-02
1.362237984105804656e-02
9.103139382022742976e-02
1.395195570212265923e-01
1.531449072365526631e-01
1.386470621905030454e-01
1.110265924072131871e-01
8.586958968825084137e-02
7.209939445204810449e-02
6.851948262504335696e-02
6.544143183704979883e-02
5.014306483232881806e-02
1.340507774626256698e-02
-4.550936163866578510e-02
-1.170508140281029119e-01
-1.834129471587728766e-01
-2.241676391027941917e-01
-2.239180880214152736e-01
-1.788903497117079189e-01
-9.918911910504110696e-02
-5.354549524359472623e-03
7.920865623281503343e-02
1.364309960804228061e-01
1.590355957819440946e-01
1.514851337452080560e-01
1.265436061965142800e-01
9.908595484960178168e-02
7.971599649530361487e-02
7.081564937530504533e-02
6.654570242409407754e-02
5.641953597622423322e-02
3.054695199932594418e-02
-1.556813185279895539e-02
-7.805373097971927965e-02
-1.443191124756835475e-01
-1.959586221273982298e-01
-2.148377368471956761e-01
-1.905291408061796643e-01
-1.256407248351570360e-01
-3.593376852893018919e-02
5.525016643538946393e-02
1.256729771838920873e-01
1.620075333576873056e-01
1.635565577689887529e-01
1.406812623198658574e-01
1.088715760678325983e-01
8.107135464461884267e-02
6.172841311847160339e-02
4.551225158344981980e-02
2.147641719013273012e-02
-1.947746254121215936e-02
-7.784728758717640584e-02
-1.430697188494761407e-01
-1.965945423828983629e-01
-2.190466708232859938e-01
-1.983193335931855428e-01
-1.351532219492107556e-01
-4.375247988698421908e-02
5.301640971166551863e-02
1.318886253538818221e-01
1.772754828099911417e-01
1.856554762115306678e-01
1.648649397670667593e-01
1.294379905768267836e-01
9.446698507467529704e-02
7.015000499339224538e-02
5.833863201150779609e-02
5.197694415654441347e-02
3.805291779919434125e-02
3.683745226673439122e-03
-5.676719724890344487e-02
-1.368361860981863465e-01
-2.180886211645433614e-01
-2.757413749389183155e-01
-2.877438186178557511e-01
-2.436636293862634306e-01
-1.495996904506646796e-01
-2.681286253258385877e-02
9.555309970323984381e-02
1.905316557750871276e-01
2.417619843640991806e-01
2.469500070360706179e-01
2.158309070107581329e-01
1.647348931396546701e-01
1.106261666809310595e-01
6.640455593313421279e-02
3.789124249025388469e-02
2.259349331331482469e-02
1.081548033683582544e-02
-1.033252850699767356e-02
-5.070374572173874661e-02
-1.110662687397664383e-01
-1.803674348704363273e-01
-2.383263132487422609e-01
-2.628944938127494302e-01
-2.395918948283820571e-01
-1.684362578741610272e-01
-6.497464378963586917e-02
4.530583689106205958e-02
1.365402638292396165e-01
1.914549652049041817e-01
2.059202386821570308e-01
1.879746703557821363e-01
1.528622702925532817e-01
1.166427828293312985e-01
9.045897065187044617e-02
7.683589868749771123e-02
6.911905711245194817e-02
5.470710735486095100e-02
2.134469764701038552e-02
-3.605746201142137619e-02
-1.113239356278406117e-01
-1.877520374241466450e-01
-2.435517852928378857e-01
-2.598293836925933409e-01
-2.279593801426020860e-01
-1.533428588700220807e-01
-5.379456414630517935e-02
4.696633596719722303e-02
1.278011298809132723e-01
1.766068383132355923e-01
1.920799090438451429e-01
1.810396198661611278e-01
1.537927537103923326e-01
1.200785318170681515e-01
8.664678836715627996e-02
5.628059818998640274e-02
2.797212700758515413e-02
-1.691986120058011633e-03
-3.608149548522956301e-02
-7.586925822206581904e-02
-1.174319939943632152e-01
-1.531834586514171370e-01
-1.738620011547670208e-01
-1.719633556616768366e-01
-1.449572511147859677e-01
-9.681768353431877139e-02
-3.696968166511060971e-02
2.299631044802602498e-02
7.321468101021685881e-02
1.081052102181326580e-01
1.266977428244137338e-01
1.313338314175401533e-01
1.260461500991379158e-01
1.153319237937473069e-01
1.030649815091264632e-01
9.111865061663509957e-02
7.805460342082812253e-02
5.899471086599299835e-02
2.756421833962829221e-02
-2.039415336525313496e-02
-8.290401346603924748e-02
-1.498266283223851081e-01
-2.043537037612901397e-01
-2.283502632966769585e-01
-2.099372334861248357e-01
-1.498524679074940136e-01
-6.282604172901209982e-02
2.755267239238214094e-02
9.825273475314466598e-02
1.356776886477979172e-01
1.396232809121821794e-01
1.209702867373414759e-01
9.513627028459700763e-02
7.495226189365114533e-02
6.605465160180645778e-02
6.605556694067167556e-02
6.695983240093382471e-02
5.925213095662555662e-02
3.589736332494473936e-02
-4.988299143649635448e-03
-5.918810434231704110e-02
-1.169382145615233126e-01
-1.647914020642860522e-01
-1.888980314030228591e-01
-1.794881009044389519e-01
-1.351592571452473746e-01
-6.465609955888844407e-02
1.544120895000469090e-02
8.642461535530349126e-02
1.338386801009779359e-01
1.516643559678137188e-01
1.430076245873544982e-01
1.177449749130201201e-01
8.835058586665076041e-02
6.513538757185985406e-02
5.221923688502630445e-02
4.583696498241210393e-02
3.618173650458250679e-02
1.242311405026780280e-02
-3.129589136840390390e-02
-9.174404349299900008e-02
-1.563136773117087264e-01
-2.067933413178103530e-01
-2.258503226901573679e-01
-2.037822647720311797e-01
-1.427092231178234694e-01
-5.615489774298596665e-02
3.594845168476842878e-02
1.144174165841651131e-01
1.667340268020643113e-01
1.894430512161589530e-01
1.869449360962647522e-01
1.681181540512789729e-01
1.423451604567576301e-01
1.160299467843700638e-01
9.050367017003757564e-02
6.217023992362991081e-02
2.508261371679206680e-02
-2.511720380185580165e-02
-8.777255540155570745e-02
-1.557862640662855958e-01
-2.165869617271404535e-01
-2.551138747337979296e-01
-2.582088699635260998e-01
-2.194430461080936201e-01
-1.426681687989926617e-01
-4.229188535501519214e-02
6.061449826882978065e-02
1.450636647583127270e-01
1.967711180197105336e-01
2.118798699792587836e-01
1.967639862365647141e-01
1.645513081213510476e-01
1.297001925931008104e-01
1.022208527656336546e-01
8.357361393718010234e-02
6.633459677245084896e-02
3.840386141152507538e-02
-9.885019434704503394e-03
-7.923474673845494476e-02
-1.587553273595480874e-01
-2.286107010345240220e-01
-2.669430601457221108e-01
-2.583629689850470146e-01
-2.005682479484292846e-01
-1.061093478449083444e-01
1.815037806276284700e-03
9.784082495430571069e-02
1.632899241743186458e-01
1.914164854848637853e-01
1.872612961956220123e-01
1.631590533239831997e-01
1.325603084519399733e-01
1.047086236818864924e-01
8.171927737607562192e-02
5.871840244760646865e-02
2.703066449747311417e-02
-2.050132901247368744e-02
-8.412540776864479986e-02
-1.543594453293486990e-01
-2.136137022486719883e-01
-2.421452777263295442e-01
-2.260611199100225344e-01
-1.638364604052075235e-01
-6.817976709972754790e-02
3.791902612465777866e-02
1.293450647766936912e-01
1.875702289725766636e-01
2.061354647516571714e-01
1.908847440829671838e-01
1.554951586070678071e-01
1.147809586851888941e-01
7.870299241038865301e-02
4.920163956889012091e-02
2.075637879566959512e-02
-1.552887214396585225e-02
-6.570258571188279662e-02
-1.273023207006243607e-01
-1.874896314368508232e-01
-2.268747132241058506e-01
-2.278502604172830404e-01
-1.833153058545716196e-01
-1.010582105017396592e-01
-1.401587523783102973e-03
9.059512839337444112e-02
1.544754852708629944e-01
1.811347623405498708e-01
1.744630558407921361e-01
1.476458684218105166e-01
1.160307053417792555e-01
8.990920185802320219e-02
7.057624993065314545e-02
5.132417304295772142e-02
2.248669874885211861e-02
-2.219380246027741199e-02
-8.086366609901024516e-02
-1.425296505693815219e-01
-1.902780448723816187e-01
-2.077471171544889583e-01
-1.862775277840083843e-01
-1.292987785975071857e-01
-5.145642126154220675e-02
2.725549032619678513e-02
8.928489309530995843e-02
1.253775220211321706e-01
1.362219194233769137e-01
1.300072288790812269e-01
1.175508523471530398e-01
1.069998042663185128e-01
9.996726144988965501e-02
9.069585303947161337e-02
6.902108048826799402e-02
2.626400710336890265e-02
-3.856305049886699088e-02
-1.154329409506910098e-01
-1.849030768882625742e-01
-2.244667424219941587e-01
-2.173914683673410231e-01
-1.605109305448559898e-01
-6.729973476579798053e-02
3.599536209367193429e-02
1.202659906656194932e-01
1.651143193142163845e-01
1.663029829132072202e-01
1.353945130538519726e-01
9.229200363432624177e-02
5.508895507952710213e-02
3.236961467499810396e-02
2.107299468073331461e-02
1.012050390709817727e-02
-1.227826785031083112e-02
-5.104606864437299940e-02
-1.000724336334475328e-01
-1.438912562363932057e-01
-1.647249350323785055e-01
-1.512478162896033762e-01
-1.042326131335957751e-01
-3.611577737132787291e-02
3.483179456999963008e-02
9.220120123432229420e-02
1.270993352609035565e-01
1.395507120250072397e-01
1.357417632848110234e-01
1.229814503826078820e-01
1.050954979067042494e-01
8.068950472090086201e-02
4.522099132204637773e-02
-4.355386923721615844e-03
-6.517113911901795120e-02
-1.269183679030914114e-01
-1.742247564629320067e-01
-1.920000798049725788e-01
-1.715826608552690757e-01
-1.151176015098140937e-01
-3.598904876475916836e-02
4.548262107381972896e-02
1.095782510894194317e-01
1.444076350409284615e-01
1.491683776003913664e-01
1.321181289800237302e-01
1.051179913705597713e-01
7.812053568818333460e-02
5.594459217217256919e-02
3.763795402913738819e-02
1.773345946213389368e-02
-1.098607056247846714e-02
-5.343721779116794579e-02
-1.080732740391345814e-01
-1.649072989008946166e-01
-2.076450505224638476e-01
-2.197070984841680286e-01
-1.915262680314597787e-01
-1.255835811888736941e-01
-3.662889997693241639e-02
5.331035525379412832e-02
1.231754214957447857e-01
1.607492792690141670e-01
1.664339699907699810e-01
1.511442110439658038e-01
1.296548160181045795e-01
1.130927837836208649e-01
1.043121144222070029e-01
9.787067475392774440e-02
8.388084978658660873e-02
5.358425408306466409e-02
4.335595183064810954e-03
-5.784878397114212589e-02
-1.193079332329141096e-01
-1.632774039941367050e-01
-1.762645419807320479e-01
-1.533629121630752934e-01
-1.000261833335827077e-01
-2.981697890374590543e-02
4.028995735753149177e-02
9.479676687412386116e-02
1.232082234418845346e-01
1.216311393777991245e-01
9.247936225867903204e-02
4.270702050508390357e-02
-1.853137583576369707e-02
-8.165675072132927426e-02
-1.372860175645200798e-01
-1.762444673442900012e-01
-1.901812169429888399e-01
-1.734010191441655024e-01
-1.252004204682890531e-01
-5.126373807075168543e-02
3.685501160160686851e-02
