BVP Green Neck Signal
-6.238106556442012465e-03
-1.303498387814643576e-02
-1.739725365725524470e-02
-1.751692792083320988e-02
-1.252908774239987373e-02
-2.737860517579087608e-03
1.040558128729935326e-02
2.456889599998055701e-02
3.699415541837403065e-02
4.505011941061926040e-02
4.676788724972993916e-02
4.124834310734973308e-02
2.885484134486920871e-02
1.115218829026277600e-02
-9.385115855854718123e-03
-2.981600353535357462e-02
-4.721978527589749258e-02
-5.912875848094698711e-02
-6.384430035435183226e-02
-6.061506732374961209e-02
-4.968457932223674378e-02
-3.222784195419315517e-02
-1.019840751427891941e-02
1.389447838223904254e-02
3.726073139998595241e-02
5.713858258421029152e-02
7.111649545409670647e-02
7.743688112061261619e-02
7.523967814886324545e-02
6.470027698750184519e-02
4.702712455140543174e-02
2.430947760956705256e-02
-7.621338316469148701e-04
-2.525219404033372805e-02
-4.634901387670450207e-02
-6.168689218055362772e-02
-6.958279866404434855e-02
-6.917510389615327826e-02
-6.047321135716188928e-02
-4.433521478672221294e-02
-2.238564807938828172e-02
3.124598646106925472e-03
2.951849070965168603e-02
5.395002368794472869e-02
7.370348587476321933e-02
8.650732242200660782e-02
9.082401590933930624e-02
8.606921647985166235e-02
7.271272149779374472e-02
5.222775681800154862e-02
2.688577417378432144e-02
-5.666090442408484341e-04
-2.728088075761182091e-02
-5.065455948075225229e-02
-6.859498036724043235e-02
-7.967087155770162521e-02
-8.315552024082156768e-02
-7.898971956264022598e-02
-6.770387109101498602e-02
-5.033338819328291719e-02
-2.834305648105071851e-02
-3.554650270351343653e-03
2.194098411266117571e-02
4.590678723746352552e-02
6.612797101201033090e-02
8.062306791030680875e-02
8.787738774727145430e-02
8.706033019575931675e-02
7.817534270232694149e-02
6.209474922159638477e-02
4.045666189793867967e-02
1.544077763046059100e-02
-1.052390335020698085e-02
-3.505098016819654244e-02
-5.603019346805029888e-02
-7.177286099701589428e-02
-8.107254075514734593e-02
-8.321071437575741636e-02
-7.794806392568813525e-02
-6.553263321334011626e-02
-4.673143942813480500e-02
-2.286485228451583251e-02
4.193409749785064269e-03
3.208784903811333356e-02
5.814781995898223033e-02
7.965073060787562775e-02
9.415680769158008001e-02
9.986326500209297130e-02
9.590580536453742477e-02
8.253339816273827512e-02
6.110490063728984261e-02
3.389970375115143597e-02
3.784663111679570282e-03
-2.618326173387232336e-02
-5.312954998576847193e-02
-7.464093737334857870e-02
-8.892189957956833646e-02
-9.484393934637022627e-02
-9.193266749537046256e-02
-8.034209698465477612e-02
-6.084530350741614718e-02
-3.483921796591449987e-02
-4.336200154190747100e-03
2.809423929453715857e-02
5.946492035502935064e-02
8.660827966581009785e-02
1.065058824930614628e-01
1.166756424074020665e-01
1.155526760154159116e-01
1.027828162569949522e-01
7.935608783271086430e-02
4.754216119783455374e-02
1.063768134140667850e-02
-2.742382791801440539e-02
-6.252955054499398369e-02
-9.084605407311180381e-02
-1.092298985613671947e-01
-1.155605604404198045e-01
-1.089789710607591555e-01
-9.001746564036157416e-02
-6.060273431119665016e-02
-2.391213371467883209e-02
1.592615615843755855e-02
5.427668016686113678e-02
8.654458407109827389e-02
1.087643432929369658e-01
1.181485382468333983e-01
1.135073424368954476e-01
9.545481300033606398e-02
6.634551254606463333e-02
2.993691527661368826e-02
-9.163181171423692359e-03
-4.615480359311784769e-02
-7.668473316355658986e-02
-9.736295172746869953e-02
-1.060965410886517135e-01
-1.022272442698995976e-01
-8.649511764100570321e-02
-6.087002856188033356e-02
-2.829422375897416853e-02
7.631756729768098338e-03
4.300099673669995765e-02
7.397771756167421942e-02
9.718396055301654901e-02
1.100668761727802425e-01
1.112047587652226915e-01
1.005022145285113244e-01
7.922795442362207119e-02
4.986740422830134717e-02
1.579821013141800151e-02
-1.915872948056943775e-02
-5.122664978321440216e-02
-7.710878541591156821e-02
-9.430972155240366361e-02
-1.013202459552193513e-01
-9.767819490615195499e-02
-8.393469540530781869e-02
-6.155541065492953906e-02
-3.277675707072433969e-02
-4.243926249323918577e-04
3.230898104988195324e-02
6.213200268449598634e-02
8.596586423640169283e-02
1.012766494863346078e-01
1.063873644331191221e-01
1.007163241082879857e-01
8.488946370108824135e-02
6.068892338069018649e-02
3.082917306864431384e-02
-1.407942642891914318e-03
-3.260878038938175988e-02
-5.964460720325764215e-02
-7.999284367072488633e-02
-9.192480013327432309e-02
-9.456597542012917801e-02
-8.786497395953812850e-02
-7.251490001487283232e-02
-4.986116489751891978e-02
-2.181157090735174470e-02
9.254569445424154842e-03
4.059765841167547323e-02
6.927702497434906626e-02
9.238007381462121081e-02
1.073218362712535096e-01
1.121845176607661615e-01
1.060381529163637593e-01
8.916807604421672639e-02
6.313920875953228651e-02
3.065468551195687369e-02
-4.784916422722862092e-03
-3.935937340540348467e-02
-6.944214628085565444e-02
-9.204480182578446412e-02
-1.051202555308744652e-01
-1.077005568353729403e-01
-9.988651378061358388e-02
-8.272952782228749913e-02
-5.805082892785692200e-02
-2.823601876642308633e-02
3.971291527592605078e-03
3.566997716204443197e-02
6.400316899705182916e-02
8.637201575451251834e-02
1.006626601484729572e-01
1.054699020031095724e-01
1.002839454390684615e-01
8.559792667908656949e-02
6.289848043559576052e-02
3.452172204108706899e-02
3.389384906515664677e-03
-2.732779168445269996e-02
-5.455628724337985985e-02
-7.562110046404564578e-02
-8.847401751605604714e-02
-9.184805351897687431e-02
-8.535073056285935600e-02
-6.950558804424881998e-02
-4.573994409771476449e-02
-1.630809591031593883e-02
1.586276401578349399e-02
4.741245996412905145e-02
7.487184109260987264e-02
9.505111873837415737e-02
1.054489886943987820e-01
1.046179235697268783e-01
9.241315789173706885e-02
7.006455136681928597e-02
4.004163484063993222e-02
5.726561092021563784e-03
-2.904508506285322783e-02
-6.048589772340457610e-02
-8.530856495750586965e-02
-1.010607025154204447e-01
-1.063147686057775987e-01
-1.007223122989679143e-01
-8.496328758715869511e-02
-6.062435153141135930e-02
-3.003179616273497082e-02
3.946332661958493540e-03
3.812402357329095631e-02
6.924872911332805026e-02
9.428231287787866566e-02
1.107026189765215884e-01
1.167962571776645364e-01
1.118929080509580704e-01
9.648477267506418154e-02
7.218961378485395930e-02
4.154987138204838115e-02
7.702170179429217514e-03
-2.601493134884853148e-02
-5.643570016456516542e-02
-8.086060272741552035e-02
-9.723968950699669878e-02
-1.042573220884269319e-01
-1.013563867528676221e-01
-8.874216838760845549e-02
-6.738550843842525118e-02
-3.901639589469924063e-02
-6.078567119273637839e-03
2.838975840729977135e-02
6.097506698088287630e-02
8.821337620049506112e-02
1.069968730705589954e-01
1.150053964956293251e-01
1.110804549582503631e-01
9.545506792812764874e-02
6.977605789794882885e-02
3.690199106156344389e-02
5.148165961445668425e-04
-3.537344511661939112e-02
-6.692159103336113579e-02
-9.088506651537837933e-02
-1.049197427343181444e-01
-1.077559152192017478e-01
-9.926114949715483804e-02
-8.041584863517790838e-02
-5.321439768965643968e-02
-2.049153595058608029e-02
1.432980655746822658e-02
4.756477823415000000e-02
7.564829704586911729e-02
9.553824353735972108e-02
1.050919201906961170e-01
1.033567981415289827e-01
9.071612938915718516e-02
6.884759092176878648e-02
4.048993929012790344e-02
9.058306743169488098e-03
-2.181537256941968456e-02
-4.872982093970177481e-02
-6.887975920224531645e-02
-8.030262933023864236e-02
-8.200497410320248259e-02
-7.399042907132838409e-02
-5.721716851776898621e-02
-3.350221331846952449e-02
-5.373399523229049554e-03
2.413998209356865016e-02
5.178289455397889346e-02
7.440662465546375726e-02
8.932896463881365157e-02
9.467852279209011679e-02
8.966817259372179827e-02
7.473954071150454292e-02
5.153243091781841562e-02
2.266611538985173480e-02
-8.632234646196430480e-03
-3.897340368284037820e-02
-6.523189368708717795e-02
-8.487569609152904870e-02
-9.616393087235863835e-02
-9.821695864464552450e-02
-9.099125852872111397e-02
-7.520125997155713282e-02
-5.222365275556668102e-02
-2.400119903986277364e-02
7.059378009164648041e-03
3.821738794884579210e-02
6.658077038066512188e-02
8.935348469953766082e-02
1.041370222198401835e-01
1.092495722635502819e-01
1.040044186039946333e-01
8.887838440957906982e-02
6.551067347950383091e-02
3.650784022864383971e-02
5.084184219146055742e-03
-2.538422223261447425e-02
-5.179380492913084749e-02
-7.165490385000136686e-02
-8.329955649700869491e-02
-8.595695656896520931e-02
-7.972623033160272654e-02
-6.548605143028017606e-02
-4.477449134632823652e-02
-1.965627099721397111e-02
7.423651488162133841e-03
3.381259944664775918e-02
5.685995007204916463e-02
7.416234013983356854e-02
8.382486533950532503e-02
8.470381090994412443e-02
7.658739358253913165e-02
6.026995247082047452e-02
3.748667200916885184e-02
1.070431124179608597e-02
-1.719710539538713001e-02
-4.328433850861909682e-02
-6.489925161508322549e-02
-7.990494870596061283e-02
-8.683579451103021207e-02
-8.496715097024641616e-02
-7.433311104065469521e-02
-5.571626240470894248e-02
-3.061852218071810933e-02
-1.203561320969359725e-03
2.981284908119936211e-02
5.935035079634800453e-02
8.424119956305747836e-02
1.015826137758453762e-01
1.091210017266511373e-01
1.056037939618359456e-01
9.102705287125931188e-02
6.671620415465864817e-02
3.520608538970265017e-02
-6.766312394621562878e-05
-3.520640781008702730e-02
-6.632943203000812860e-02
-9.001767342288743978e-02
-1.036690981914951126e-01
-1.057460653298769593e-01
-9.591405979827988260e-02
-7.507637933456315360e-02
-4.530772370521252146e-02
-9.687321409353527243e-03
2.796843469987209813e-02
6.347085361333716647e-02
9.270746453890316152e-02
1.121391400913310521e-01
1.192840334158521698e-01
1.131061971863048105e-01
9.422526569930059215e-02
6.488704589004194723e-02
2.868048236942856433e-02
-9.957279915282909663e-03
-4.635735778401359891e-02
-7.624371948420018141e-02
-9.626265442410310291e-02
-1.043494808956745845e-01
-9.990812809027321828e-02
-8.381272994402653997e-02
-5.825616747343061869e-02
-2.647297981543562245e-02
7.636331301350595194e-03
3.994921868601401110e-02
6.659621761405841445e-02
8.442306606230688681e-02
9.138842671894220615e-02
8.683975755038329802e-02
7.161082665990292639e-02
4.790157535019523571e-02
1.893944737167511938e-02
-1.152587083006963685e-02
-3.979411956695522862e-02
-6.273083894757357226e-02
-7.812362952331777799e-02
-8.482309715361321945e-02
-8.267697121840800190e-02
-7.232151054941855783e-02
-5.492365293737587473e-02
-3.196182629585989088e-02
-5.098104340748572591e-03
2.385364031886910707e-02
5.290056959368325679e-02
7.984495246148685943e-02
1.023218796449948675e-01
1.179458980677804830e-01
1.245780988380059962e-01
1.206802778577603097e-01
1.056790989570934036e-01
8.023885864870039519e-02
4.635121896986862250e-02
7.194408715793557466e-03
-3.322441788748482089e-02
-7.057680610384359232e-02
-1.007758990576443359e-01
-1.204997624949436380e-01
-1.276003976996600842e-01
-1.213537752951760890e-01
-1.025357454487829112e-01
-7.332951148519424589e-02
-3.708124459091850095e-02
2.072660410000753874e-03
3.967356083768765890e-02
7.145766223724819843e-02
9.386483307101342599e-02
1.044768420200148373e-01
1.023249002075527214e-01
8.801531477793235470e-02
6.364091014033232407e-02
3.247934920866259872e-02
-1.475154946500702256e-03
-3.405920828359600833e-02
-6.146404054062547945e-02
-8.065280586266568297e-02
-8.963053049584050747e-02
-8.756755300399349240e-02
-7.480257586147261162e-02
-5.275724368849458307e-02
-2.378577439527609569e-02
9.031379443298752710e-03
4.215289130335048845e-02
7.190544919574518024e-02
9.486758090591139447e-02
1.082760583696231321e-01
1.103989643991887537e-01
1.008075045275046155e-01
8.048400890050363965e-02
5.172675754642263451e-02
1.785115914598914971e-02
-1.726544332225424944e-02
-4.970732256012492384e-02
-7.601015258850671308e-02
-9.353583900806149154e-02
-1.006953551975704464e-01
-9.702614496406289368e-02
-8.315510921652574661e-02
-6.068055832133143618e-02
-3.199655013289481181e-02
-7.221245301768661543e-05
3.180783800393575250e-02
6.033760887460492411e-02
8.250996776143469658e-02
9.594297167965161466e-02
9.917525650525871317e-02
9.187925238275426731e-02
7.493980625138289831e-02
5.036384287664131404e-02
2.102219153637088778e-02
-9.733215387823226580e-03
-3.850160432646285852e-02
-6.223242527464151880e-02
-7.852895702484580243e-02
-8.583242421180653503e-02
-8.350013787697954659e-02
-7.181062062942263069e-02
-5.192379162962781208e-02
-2.580370705432393982e-02
3.908435766186950724e-03
3.409019051165819436e-02
6.141402660215489889e-02
8.269731587118811511e-02
9.529628599586877080e-02
9.748919691400087517e-02
8.877544378472665421e-02
7.001628791156321030e-02
4.336710383508205618e-02
1.199728796047645936e-02
-2.035289616993189027e-02
-4.989001162306431342e-02
-7.326045769094903515e-02
-8.793812608966178335e-02
-9.246291936966820335e-02
-8.652659164464715502e-02
-7.093214856895591058e-02
-4.746345855786327644e-02
-1.869352648610331930e-02
1.225603440317559779e-02
4.200192558630003875e-02
6.722775366172623057e-02
8.503741995991719038e-02
9.330116087004250436e-02
9.094872767354522658e-02
7.815621426097819902e-02
5.637602051582605439e-02
2.818069772914815266e-02
-3.068147537574317327e-03
-3.366852223703215713e-02
-6.005746540878566936e-02
-7.923604070087159057e-02
-8.908234829636289820e-02
-8.853073612005335491e-02
-7.762390685491901698e-02
-5.746026371737959770e-02
-3.006222801304996722e-02
1.815020143216440531e-03
3.492582772586332734e-02
6.582597419826251295e-02
9.120867998682212485e-02
1.082636026274311630e-01
1.150184852829941595e-01
1.106100038105823913e-01
9.542894361131483427e-02
7.109723004478522845e-02
4.026231060872510065e-02
6.236332464406158307e-03
-2.744913377105322877e-02
-5.747931042733103041e-02
-8.110257421072002149e-02
-9.634764863937121671e-02
-1.021184183849406096e-01
-9.820090649816236306e-02
-8.521903667927069326e-02
-6.456059965654056820e-02
-3.827607541061541635e-02
-8.939884758183585731e-03
2.054054342398950461e-02
4.717663920832527308e-02
6.820400394928893828e-02
8.141087987248368796e-02
8.543899105514422831e-02
7.999670107803441566e-02
6.593058151345042306e-02
4.512333950073783156e-02
2.022217374094050987e-02
-5.754206729422351937e-03
-2.984489219322736947e-02
-4.951748321037750117e-02
-6.291084732884542896e-02
-6.892999942428114368e-02
-6.722159188122062146e-02
-5.808458550355147937e-02
-4.236873277450635411e-02
-2.139254647274002261e-02
3.114117922350460779e-03
2.906075009888943461e-02
5.407276139501520501e-02
7.562861513334193098e-02
9.127793564991025510e-02
9.893254203584345152e-02
9.718917604393166598e-02
8.561739824938489896e-02
6.493836670364284969e-02
3.703455471694287737e-02
4.766153107683192627e-03
-2.838172348570078968e-02
-5.875346890927824611e-02
-8.299157889705789659e-02
-9.844203775516308097e-02
-1.034489222763845667e-01
-9.752127963844048342e-02
-8.137308441895327316e-02
-5.684137965760514832e-02
-2.668812517657413730e-02
5.703111242248407389e-03
3.671251016498156688e-02
6.291422950536867953e-02
8.150163691188583304e-02
9.064823100203073247e-02
8.974272474804359523e-02
7.944824986266176003e-02
6.156445961332802225e-02
3.871309947114731642e-02
1.391039563066020883e-02
-9.881647273343131463e-03
-3.013069106201996666e-02
-4.497006032480069943e-02
-5.327903106038471559e-02
-5.464334510758514507e-02
-4.926376066781436996e-02
-3.787735974150576584e-02
-2.172087121388826397e-02
-2.517564464414789958e-03
1.756478695334204310e-02
3.604158107855814225e-02
5.035606616984981271e-02
5.822945337912113772e-02
5.805954152055665951e-02
4.927738891799850890e-02
3.256281953210049540e-02
9.844398381058173594e-03
-1.593554326413876981e-02
-4.124582681455683797e-02
-6.249042929430296406e-02
-7.652960745105580331e-02
-8.111486793261156458e-02
-7.518595936921440570e-02
-5.900759958778904052e-02
-3.414502775171417842e-02
-3.290776331807103525e-03
3.003709886347053631e-02
6.189927297325264338e-02
8.840792999569870025e-02
1.062212435692243273e-01
1.129972503895079333e-01
1.077351752396015216e-01
9.093798015425114123e-02
6.455503641127141590e-02
3.170502125961900675e-02
-3.773340744043742010e-03
-3.785598544596308762e-02
-6.685136641877499619e-02
-8.781405338603892607e-02
-9.880562813751680995e-02
-9.900039164155184646e-02
-8.866717415325733875e-02
-6.906885254095937454e-02
-4.231067338175725084e-02
-1.115031683572841568e-02
2.123044063091552441e-02
5.149592078909161902e-02
7.646673623280353382e-02
9.345531085399952365e-02
1.005928798163841092e-01
9.709440265471064313e-02
8.339898585878784132e-02
6.113614285013273947e-02
3.290426689965748885e-02
1.896475439701167300e-03
-2.854853233511078087e-02
-5.537470312841619169e-02
-7.613322603151058410e-02
-8.915916309339373680e-02
-9.360395586983405458e-02
-8.936716925464471828e-02
-7.698680898929516347e-02
-5.753637495064248958e-02
-3.254890026628860789e-02
-3.960244328475878359e-03
2.595299850649973594e-02
5.467000370184577768e-02
7.958042879291150895e-02
9.820736508401034515e-02
1.084861766787277582e-01
1.090596874058918364e-01
9.952805813962137260e-02
8.058634100836876979e-02
5.400072915770876697e-02
2.241303610339761415e-02
-1.099086060077210207e-02
-4.287736376708483482e-02
-7.014528489991626869e-02
-9.022781370836754911e-02
-1.012913809805123383e-01
-1.023423898924872427e-01
-9.327051934542349154e-02
-7.485148569375862926e-02
-4.871236556169448312e-02
-1.724519843337279229e-02
1.655005918343190052e-02
4.930458621471438957e-02
7.759865478664113025e-02
9.833707486232343142e-02
1.091397253828437913e-01
1.086855662026471048e-01
9.694001556641299033e-02
7.520599135631170218e-02
4.596982463521863405e-02
1.255822301350732230e-02
-2.133092811221772717e-02
-5.212854423444156921e-02
-7.682488279716968849e-02
-9.325731550385260582e-02
-1.002303424256084236e-01
-9.749212732638207202e-02
-8.562174868526792326e-02
-6.588304310376083550e-02
-4.008117537739325220e-02
-1.043258208858810314e-02
2.055982666288815736e-02
5.024309760367639405e-02
7.597993304599767739e-02
9.535455922954633179e-02
1.064139889691013835e-01
1.079171024042160920e-01
9.954264032306364696e-02
8.199920497022174237e-02
5.699343908272984371e-02
2.704523149499687973e-02
-4.820157633057311694e-03
-3.544048683934849370e-02
-6.187240733201345572e-02
-8.167675715883448984e-02
-9.310696925199200835e-02
-9.520720980673613720e-02
-8.784590786383780769e-02
-7.170898345123062623e-02
-4.826123514032674283e-02
-1.966728665268389908e-02
1.134453601752894759e-02
4.168915244041693918e-02
6.820532124914813199e-02
8.799564652750235805e-02
9.878980323645342176e-02
9.927295791822370041e-02
8.930990946688965870e-02
7.000448725803228023e-02
4.356579892708454388e-02
1.299989300882927780e-02
-1.830922949996982574e-02
-4.703951965304702804e-02
-7.030602421683146419e-02
-8.591678347606286625e-02
-9.249952264480838793e-02
-8.952822476824860709e-02
-7.729582389793082653e-02
-5.686909294638969881e-02
-3.003440281794635819e-02
7.829013524802640699e-04
3.265359177274892305e-02
6.235622941058100582e-02
8.667028491234694820e-02
1.027325618523472067e-01
1.084142007071458857e-01
1.026553967633072606e-01
8.568769495834389904e-02
5.908619567700928998e-02
2.562618648275412012e-02
-1.103852136010167150e-02
-4.682011458399971265e-02
-7.768863879417954588e-02
-1.001377780968092379e-01
-1.115693915580401180e-01
-1.105656668740479659e-01
-9.703798586309653196e-02
-7.225185944403955673e-02
-3.872762329868678632e-02
-1.444483921057013523e-05
3.965965989491870153e-02
7.584285981039390334e-02
1.043782893687066615e-01
1.219252874533334474e-01
1.264097398508933490e-01
1.173281404941462075e-01
9.584093264271265067e-02
6.461964858759194907e-02
2.746042507592471454e-02
-1.126741625348245089e-02
-4.722746494278113466e-02
-7.665990399839772707e-02
-9.677555468559834173e-02
-1.059628242865099518e-01
-1.038184838136322202e-01
-9.104621793726708212e-02
-6.927871481692271516e-02
-4.087000607604841101e-02
-8.681964882558448546e-03
2.413481466014567867e-02
5.437784552919076170e-02
7.905570230833140755e-02
9.567031366745247511e-02
1.024933652951138391e-01
9.879613153387176161e-02
8.498362294458100541e-02
6.258840165021090085e-02
3.410313537880840795e-02
2.671290346634277914e-03
-2.830483637835270322e-02
-5.556172651660565981e-02
-7.631312654237668025e-02
-8.849594690381396012e-02
-9.092138530189670942e-02
-8.334715708470265272e-02
-6.648896101610163312e-02
-4.198007750713444314e-02
-1.227397933908000970e-02
1.952661093062976749e-02
4.993197707828202908e-02
7.542244509088585902e-02
9.287571027947430502e-02
1.000081844111913865e-01
9.575098745364868380e-02
8.047577950190731855e-02
5.600237020226934287e-02
2.536042104794420174e-02
-7.663314090248963747e-03
-3.910042711321769920e-02
-6.537252260147805027e-02
-8.374230515939699859e-02
-9.257574110913903420e-02
-9.140822283914727675e-02
-8.085437815439579234e-02
-6.242044395102184368e-02
-3.827319098463290853e-02
-1.100106052223431309e-02
1.661847597227515683e-02
4.184894609931341658e-02
6.223303570159952752e-02
7.584156534943352346e-02
8.151445811902396921e-02
7.905017865046885805e-02
6.928620169816662733e-02
5.401983329365398628e-02
3.574850276767723573e-02
1.725640842912728318e-02
1.126681978805608216e-03
-1.070636035582413388e-02
-1.725192898579368597e-02
-1.853458002590710474e-02
-1.544111430751745652e-02
-9.404909004825998467e-03
-2.027836351958408039e-03
5.256610620452345853e-03
1.140014621838243182e-02
1.579959188663264749e-02
1.821195723432480346e-02
1.858176359306291589e-02
1.686406438510264574e-02
1.292199808405325619e-02
6.541873810263431135e-03
-2.442676284882795267e-03
-1.396957763287375899e-02
-2.758029348260856300e-02
-4.232454450790644473e-02
-5.676991513697565023e-02
-6.911916532129235013e-02
-7.741650433706619150e-02
-7.981264428221582219e-02
-7.485494895169098051e-02
-6.176831840610323004e-02
-4.068923368736100665e-02
-1.280946804991687886e-02
1.961542691084498802e-02
5.342583472309101605e-02
8.489172864241802119e-02
1.101901652962162803e-01
1.259616649708882319e-01
1.298536232365024023e-01
1.209456998621729618e-01
9.996122006242048885e-02
6.920760921432195234e-02
3.225253799306049274e-02
-6.592448811964543229e-03
-4.287063313631599842e-02
-7.255144128897735023e-02
-9.249383665838509239e-02
-1.007591863291170120e-01
-9.676314267773167277e-02
-8.127727087955657903e-02
-5.630164876756642289e-02
-2.483151436808067603e-02
9.462013583688541965e-03
4.261886326614159476e-02
7.082070519719230184e-02
9.082803596289638903e-02
1.003715783887627472e-01
9.843894405535361103e-02
8.540317549098140615e-02
6.295876841245494349e-02
3.386262646829913542e-02
1.519250533587043674e-03
-3.050974340084744441e-02
-5.897047862381535333e-02
-8.126673899081306163e-02
-9.564714888330523579e-02
-1.012334776849687507e-01
-9.793437353488183839e-02
-8.630630157154772775e-02
-6.741792703791220365e-02
-4.275240787437670914e-02
-1.415254406916731204e-02
1.621471404160598762e-02
4.591576880608786576e-02
7.237081245905442606e-02
9.305855266012820481e-02
1.057956282568350698e-01
1.090498132821793309e-01
1.022228774886993624e-01
8.582977638190819603e-02
6.151217684941014813e-02
3.186038815352324610e-02
7.119204399915054701e-05
-3.048245292990641592e-02
-5.667469916748574948e-02
-7.596551705885620787e-02
-8.661724225106667840e-02
-8.779121292141964239e-02
-7.955114331515535098e-02
-6.280590796859665537e-02
-3.921680905035204029e-02
-1.107928335430605725e-02
1.882766318876331196e-02
4.744157964520594878e-02
7.168032994942401259e-02
8.876488375211671888e-02
9.656955428112029560e-02
9.394421124357556219e-02
8.094115669808842062e-02
5.888439498024323343e-02
3.024358826850431087e-02
-1.682098436073779877e-03
-3.321483208853952956e-02
-6.079174179089524149e-02
-8.140505429401312387e-02
-9.292066473836632645e-02
-9.425051666810847772e-02
-8.539139661138396564e-02
-6.736171122854442417e-02
-4.206874046390587235e-02
-1.212861262149449691e-02
1.935288465883591019e-02
4.904202308217341794e-02
7.368661727519519589e-02
9.046596415730738527e-02
9.734959219354923088e-02
9.340799587439393981e-02
7.900604458829708909e-02
5.581907896065688851e-02
2.664408109351019266e-02
-4.973781717965952351e-03
-3.523120374621366985e-02
-6.057668409331392473e-02
-7.814618620205417143e-02
-8.606166798339948132e-02
-8.357417235101910480e-02
-7.107054218834862880e-02
-4.997898817319355175e-02
-2.260364246463349852e-02
8.096122374973794070e-03
3.877608668945319720e-02
6.602241513331878753e-02
8.669968834720437334e-02
9.830750979426594593e-02
9.930593621695787965e-02
8.935582180286105736e-02
6.941740014171371431e-02
4.166857225388443525e-02
9.242647034843511425e-03
-2.417081258465713506e-02
-5.478851247636781080e-02
-7.918092187842896978e-02
-9.464321360296774899e-02
-9.945560410319706501e-02
-9.302607072381521847e-02
-7.592643873291801682e-02
-4.983699039230714972e-02
-1.740719047460834168e-02
1.796950840469350302e-02
5.246951642078778039e-02
8.223190386941620078e-02
1.037996473739675185e-01
1.145582715812556024e-01
1.131068663144598196e-01
9.949270005754087820e-02
7.525126244516594509e-02
4.322339669205846335e-02
7.168963787837859605e-03
-2.875236518059955809e-02
-6.053120214638122581e-02
-8.479051360633853285e-02
-9.913295328546996299e-02
-1.023291505631669929e-01
-9.435796418517589101e-02
-7.632982179087695329e-02
-5.032842531242019690e-02
-1.919741448100859005e-02
1.371646896756922342e-02
4.486363836530184862e-02
7.083385958579647979e-02
8.872312822345902739e-02
9.648620000823542042e-02
9.321974710600633429e-02
7.931821437326511126e-02
5.645690464542953146e-02
2.738520627200383833e-02
-4.445504351566846243e-03
-3.535178406078247348e-02
-6.189344093067827152e-02
-8.126842792094819690e-02
-9.157550667812365541e-02
-9.193548100908091603e-02
-8.249322225855661161e-02
-6.433412456312741223e-02
-3.934403324147298792e-02
-1.003050543366055918e-02
2.068774468967814195e-02
4.972390354678291741e-02
7.409996536393009814e-02
9.124938137846176633e-02
9.931924083531819269e-02
9.742683711857316742e-02
8.581571264855458736e-02
6.586264684678037884e-02
3.991154983874890122e-02
1.094948301638962347e-02
-1.781652456073324481e-02
-4.339275836333058439e-02
-6.335124129789217184e-02
-7.603992358975091015e-02
-8.063723853110009443e-02
-7.708262148786657053e-02
-6.593916223861420733e-02
-4.824415698264613445e-02
-2.538603768693901974e-02
9.765465624586799030e-04
2.895966122734589671e-02
5.648835701705561679e-02
8.135748151624815072e-02
1.013534462796240321e-01
1.144510992252458781e-01
1.190687746578679984e-01
1.143348134514089731e-01
1.003005993961615383e-01
7.803423072054033183e-02
4.954841177240227462e-02
1.755550299409400911e-02
-1.490780466163401340e-02
-4.490414671081510017e-02
-6.997484913007276375e-02
-8.840384670445107507e-02
-9.933414901521432638e-02
-1.027427348704780530e-01
-9.930539449376302175e-02
-9.019529474936779923e-02
-7.686085638299616773e-02
-6.082196935298029433e-02
-4.351031776381120847e-02
-2.616389638542367807e-02
-9.773859670328960067e-03
4.923232311270004172e-03
1.741576888006901580e-02
2.735982876420979537e-02
3.450698817868438212e-02
3.863020130932297291e-02
3.945747349291243988e-02
3.662163738914528399e-02
2.964164894721062898e-02
1.796463712264020560e-02
1.105072122091330013e-03
-2.109791518312725128e-02
-4.812514209142799287e-02
-7.839673329608495833e-02
-1.089817790625530192e-01
-1.355293902569572329e-01
-1.525311963155669137e-01
-1.539659083145099583e-01
-1.342876562090958570e-01
-8.962211542551579146e-02
-1.895435242028222639e-02
7.494794872258189744e-02
1.851211117718322696e-01
3.006838636366745976e-01
4.078803909761118396e-01
4.918189320319872881e-01
5.386832054462054042e-01
5.380601336895060038e-01
4.849496615481805328e-01
3.810325105200662033e-01
2.348831769437264572e-01
6.101452193516739703e-02
-1.221147880057012469e-01
-2.947691197702658750e-01
-4.387722315627471947e-01
-5.399843130723028795e-01
-5.900076173679315028e-01
-5.869083459144633919e-01
-5.349553823099576499e-01
-4.435442055667883632e-01
-3.255712257235039431e-01
-1.955528325310986193e-01
-6.776194040990518586e-02
4.539692653997900312e-02
1.346167511749827017e-01
1.944268273325278629e-01
2.234038527418264197e-01
2.238731445750620774e-01
2.011755662312405268e-01
1.626315394251459656e-01
1.163728160746590190e-01
7.022038836844243792e-02
3.075878681588048447e-02
2.702971709793321100e-03
-1.140873345270571569e-02
-1.121804251520486760e-02
1.693067521740956784e-03
2.420986199940399625e-02
5.219058332761753599e-02
8.101706344767045653e-02
1.061500667515968138e-01
1.236525222677680169e-01
1.306397414454839867e-01
1.256117597067306080e-01
1.086249581558030447e-01
8.127089698389089456e-02
4.645217530140020173e-02
7.979041971469503017e-03
-2.995056436756261126e-02
-6.329737241740024389e-02
-8.866266706110474682e-02
-1.036418265806545308e-01
-1.070254179137840045e-01
-9.885713901145179450e-02
-8.037380678781487486e-02
-5.385243934257667731e-02
-2.238214121834391362e-02
1.042795686975834558e-02
4.079524788658350082e-02
6.515052063154098960e-02
8.053848590168823096e-02
8.498750621448039611e-02
7.778958799482471598e-02
5.963102998238902636e-02
3.253287527420647973e-02
-4.039207982766347856e-04
-3.541023896798144860e-02
-6.854195378104380176e-02
-9.616259424922922461e-02
-1.153354101396244363e-01
-1.240797222321813054e-01
-1.214885916755572837e-01
-1.077354730796936666e-01
-8.400567837035491370e-02
-5.237717862252114914e-02
-1.565767428766410424e-02
2.282655543272407023e-02
5.949539246416214039e-02
9.083093950088087787e-02
1.137293320956758030e-01
1.258557955851411225e-01
1.259537228964871802e-01
1.140493916701227906e-01
9.150005850982351197e-02
6.085742309554013213e-02
2.555615780562581207e-02
-1.052285083894668148e-02
-4.353654495378794093e-02
-7.012657953525350263e-02
-8.776153870655481470e-02
-9.493959712840641108e-02
-9.125230361227959497e-02
-7.733583093287627053e-02
-5.474443925694469359e-02
-2.577440357679149779e-02
6.745122731022521259e-03
3.968635630405644571e-02
6.987735895575436507e-02
9.437101770349751173e-02
1.107182783388935277e-01
1.172257843630294116e-01
1.131649848216541021e-01
9.889030003206671082e-02
7.582696879626452113e-02
4.630914956677099903e-02
1.328248734872604538e-02
-2.007772328502855502e-02
-5.075607680569025476e-02
-7.621585741115451118e-02
-9.459370147878187751e-02
-1.047592890724339532e-01
-1.062717826782031555e-01
-9.928919377356762443e-02
-8.448384706711946357e-02
-6.299181164918760123e-02
-3.639236852615838208e-02
-6.690010521558485343e-03
2.373812516117389942e-02
5.226316531084688327e-02
7.621297840503367393e-02
9.316251214195062080e-02
1.012688004511382300e-01
9.958518577221807389e-02
8.827635036083006370e-02
6.866555508756515269e-02
4.307799700534765269e-02
1.449350131977701801e-02
-1.392389738959822452e-02
-3.931110020991002846e-02
-5.948951049855886325e-02
-7.316324748020001933e-02
-7.990916958942026471e-02
-7.999937927163533469e-02
-7.413830343551683355e-02
-6.320507784633537518e-02
-4.807304894805959627e-02
-2.954449747826616568e-02
-8.400847020451766498e-03
1.446674491376921841e-02
3.790776543681541322e-02
6.041420945736095116e-02
8.013205164488072796e-02
9.501005946381380074e-02
1.030747379428049587e-01
1.027822534464059578e-01
9.336863994296636104e-02
7.510629736732737927e-02
4.938712923945905164e-02
1.859490312591707134e-02
-1.420951839474635624e-02
-4.571273172377265243e-02
-7.278402734450657718e-02
-9.283719446510352302e-02
-1.040715178564565052e-01
-1.055835228761146521e-01
-9.736990243535212364e-02
-8.025627509790576875e-02
-5.578554582041943960e-02
-2.608694299448824361e-02
6.270145216359180110e-03
3.844546130618278074e-02
6.753007992284286443e-02
9.078426597855639157e-02
1.059021961763077779e-01
1.112809121810030000e-01
1.062550363724607400e-01
9.124520544895116381e-02
6.776782087530903997e-02
3.827712462311450015e-02
5.855532992900496295e-03
-2.618493412306783369e-02
-5.470341801447454327e-02
-7.705691222830700349e-02
-9.131181541948835134e-02
-9.633961158181567064e-02
-9.182561496107383148e-02
-7.823108899927300186e-02
-5.674094026024498888e-02
-2.920677901273993626e-02
1.930008720428229210e-03
3.376512146890236349e-02
6.313477810809259294e-02
8.690362599389203635e-02
1.023191254356750762e-01
1.073885855389076216e-01
1.012135864554021825e-01
8.420515624499121110e-02
5.811125605544358724e-02
2.582323296717465091e-02
-9.015599574591566176e-03
-4.252022251280581505e-02
-7.108497409417337265e-02
-9.181627256825876382e-02
-1.028143928721584610e-01
-1.032864950058886289e-01
-9.351126920235690310e-02
-7.469920654750319966e-02
-4.879827674964459100e-02
-1.828422698901498861e-02
1.404493472222355550e-02
4.526927088237524960e-02
7.255066981553046079e-02
9.334724312658035372e-02
1.056360916457188409e-01
1.081286151296842468e-01
1.004481119744185941e-01
8.322861803218681298e-02
5.809476457160325791e-02
2.750236568625006456e-02
-5.543660155895161964e-03
-3.783975627082134668e-02
-6.633119528443637281e-02
-8.839789652683552323e-02
-1.020519756763366981e-01
-1.060519660736949504e-01
-9.995636476336687559e-02
-8.414056839521197317e-02
-5.978995409140747813e-02
-2.886391333484925048e-02
5.990452522868791943e-03
4.160142703526176905e-02
7.452853964338147785e-02
1.014043101522326684e-01
1.193284669139719756e-01
1.262589672412026964e-01
1.213305596811262294e-01
1.050306222058092487e-01
7.917941739711252536e-02
4.670091506654598656e-02
1.122291731886749556e-02
-2.340970028744750880e-02
-5.360934703449016930e-02
-7.642833644639568380e-02
-8.981122699278405730e-02
-9.271831401281435681e-02
-8.514652985695861376e-02
-6.808002370963617267e-02
-4.339315953727618247e-02
-1.371091410572635415e-02
1.778430338433192870e-02
4.761467282513020399e-02
7.234107576686085728e-02
8.894852499201957863e-02
9.523655261466942856e-02
9.015046446968463800e-02
7.398432768658369518e-02
4.839739324137742188e-02
1.621608308071261634e-02
-1.895741980577966140e-02
-5.325547890620189323e-02
-8.306593691359687170e-02
-1.054594682842141251e-01
-1.184580898405888649e-01
-1.211320647996165512e-01
-1.135554171162577175e-01
-9.667192623937469198e-02
-7.212388635186790797e-02
-4.208092702498941046e-02
-9.083136981120494211e-03
2.410977224024949545e-02
5.468422889100298806e-02
7.997185787438644555e-02
9.768454751777368161e-02
1.061673446599238207e-01
1.046321246629256796e-01
9.332227181097130231e-02
7.355609538745727649e-02
4.761102663584613343e-02
1.844608200117076741e-02
-1.069161028177441179e-02
-3.669170944704914367e-02
-5.694520566968497982e-02
-6.958424576950772433e-02
-7.357834325804864239e-02
-6.870981249123880863e-02
-5.547566583285326591e-02
-3.496697930818917083e-02
-8.762921838397571758e-03
2.114826297438768266e-02
5.243577389527253468e-02
8.251272728512007437e-02
1.086768473868081619e-01
1.283249405502971674e-01
1.392354216936771139e-01
1.398844677007256010e-01
1.297356746400363525e-01
1.094282430844725623e-01
8.079503818160667372e-02
4.667619515748598624e-02
1.054965488886190801e-02
-2.394552630146563194e-02
-5.349014091253704445e-02
-7.547783572645511141e-02
-8.826521353133578995e-02
-9.126722661448431750e-02
-8.491969834361556835e-02
-7.054871292570075170e-02
-5.018817439320255591e-02
-2.637524281333408077e-02
-1.935967578517874908e-03
2.024005081783933346e-02
3.743985366111497043e-02
4.737815732467211272e-02
4.844240884221976545e-02
3.990295330843638549e-02
2.205079947248677480e-02
-3.776486526014878695e-03
-3.530894209643192089e-02
-6.959722957166880608e-02
-1.033632693915433748e-01
-1.333774295156923972e-01
-1.567906466083448802e-01
-1.713779773492843661e-01
-1.756874792142009145e-01
-1.691141521008465154e-01
-1.519247549175781475e-01
-1.252496834185312657e-01
-9.104104764083900680e-02
-5.197935698970327506e-02
-1.130222516463082714e-02
2.746575422162698260e-02
6.087992625245428752e-02
8.600376784973801092e-02
1.008319793544844301e-01
1.046257361997396662e-01
9.808094746062367975e-02
8.327505612159658011e-02
6.338272240055353723e-02
4.220766589575151301e-02
2.362722564053546664e-02
1.106457410377297869e-02
7.082176385174729707e-03
1.314264344263992891e-02
2.953458422613870066e-02
5.543016939561162121e-02
8.903207849223300496e-02
1.277737796403722037e-01
1.685498922886805584e-01
2.079664914299420575e-01
2.426101541414982798e-01
2.693349902307278221e-01
2.855568433767461389e-01
2.895271873690286046e-01
2.805447081060374881e-01
2.590582264249783884e-01
2.266243272243493589e-01
1.857074537916587331e-01
1.393467619629789600e-01
9.075269665999000090e-02
4.291914375938076648e-02
-1.670702106746974145e-03
-4.120343903297438853e-02
-7.456588096571287183e-02
-1.012891620643558560e-01
-1.214601593773623756e-01
-1.356420872721846582e-01
-1.448226573967361652e-01
-1.503842563712009528e-01
-1.540719554358864762e-01
-1.579249282349420580e-01
-1.641389855552921606e-01
-1.748450243921855218e-01
-1.918165371778809969e-01
-2.161490866412363321e-01
-2.479757600216486724e-01
-2.862894294882298851e-01
-3.289324423686999510e-01
-3.727844914808223220e-01
-4.141311526965465450e-01
-4.491423133190667327e-01
-4.743555623616103611e-01
-4.870629750579331674e-01
-4.855377933682339942e-01
-4.690893761880164381e-01
-4.379781336115295964e-01
-3.932453489098312605e-01
-3.365153081941555380e-01
-2.698141724226685856e-01
-1.954282350238973898e-01
-1.158007287357508269e-01
-3.344842609236981651e-02
4.912770226523740374e-02
1.295586747895966784e-01
2.057581202197002745e-01
2.760972353175085159e-01
3.395748902741138608e-01
3.959377216973276048e-01
4.457014165003349015e-01
4.900427017605764601e-01
5.305704396991168803e-01
5.690256631126712206e-01
6.069807769508011042e-01
6.455975256149386610e-01
6.854720555373908786e-01
7.265628369685706023e-01
7.681772675021363295e-01
8.089894420760268545e-01
8.470720346951085000e-01
8.799432767083510409e-01
9.046472422603365482e-01
9.178931084905483928e-01
9.162714702042751291e-01
8.965456454147898713e-01
8.559918895326238397e-01
7.927428208226624529e-01
7.060769181191575150e-01
5.965954407887805733e-01
4.662404253557861367e-01
3.181374455724971240e-01
1.562898965042901211e-01
-1.480986527653239092e-02
-1.905732690159199216e-01
-3.666493290782432135e-01
-5.391702819443328076e-01
-7.049113995005261701e-01
-8.613852654098761441e-01
-1.006893576441691751e+00
-1.140550190760867943e+00
-1.262272001532337651e+00
-1.372715775208886768e+00
-1.473128613174428780e+00
-1.565085072616889894e+00
-1.650106018725797652e+00
-1.729186398982404782e+00
-1.802292869352134286e+00
-1.867921039223266133e+00
-1.922819299929281911e+00
-1.961981381809225322e+00
-1.978972575287875957e+00
-1.966586230490084963e+00
-1.917747898499744919e+00
-1.826523284089007326e+00
-1.689060658424816452e+00
-1.504306379487026835e+00
-1.274362044495634949e+00
-1.004395870231375998e+00
-7.020780198202934974e-01
-3.765791897314539338e-01
-3.724869493716815444e-02
3.078372915868328175e-01
6.532070688940090353e-01
9.969232667632295097e-01
1.340844344060936111e+00
1.690024529099339201e+00
2.051196708999836638e+00
2.430470558896018929e+00
2.830583675278320666e+00
3.248224092059779355e+00
3.672053539273456568e+00
