BVP Green Neck Signal
-6.392555582224958635e-03
-9.934327177504417156e-03
-1.230234226945252536e-02
-1.413991214301684937e-02
-1.599925910803958254e-02
-1.760692141086295584e-02
-1.841797437237062407e-02
-1.812753746668385388e-02
-1.691396551933065442e-02
-1.503446492378766181e-02
-1.247563998056242657e-02
-9.058358252897530036e-03
-4.816052121477440440e-03
6.205909662219000894e-05
5.355608778663061530e-03
1.087449053424654512e-02
1.662277618918922215e-02
2.235442851339498882e-02
2.787684967019867302e-02
3.300243243189528858e-02
3.748087180088476716e-02
4.129358569725063294e-02
4.419292953271805602e-02
4.608445826392487676e-02
4.689619333015242891e-02
4.649923022874403317e-02
4.495859651936848222e-02
4.219752163842700743e-02
3.829899928453703306e-02
3.332535260779813380e-02
2.736527069845506518e-02
2.057720443219691539e-02
1.309060840282787706e-02
5.098286385380139743e-03
-3.234344729309996617e-03
-1.167668743522989015e-02
-2.007960260713917075e-02
-2.819121523561503653e-02
-3.586332739717661144e-02
-4.290966451238183849e-02
-4.911961985550050008e-02
-5.444687517620363376e-02
-5.864847297498177597e-02
-6.173621776126420740e-02
-6.357270484940687194e-02
-6.409046633041068364e-02
-6.336205023941336723e-02
-6.126102198768147017e-02
-5.795739838447534070e-02
-5.340898631225441534e-02
-4.771598202218993445e-02
-4.102679206983108479e-02
-3.338473561819338409e-02
-2.501980071073072603e-02
-1.601680504180390610e-02
-6.575875498215999829e-03
3.135478230093587983e-03
1.292186079422435671e-02
2.262140035797515630e-02
3.202336171256040670e-02
4.094587063625715340e-02
4.925258029380343711e-02
5.668592485254585894e-02
6.324596340805306582e-02
6.865845573618314934e-02
7.287151290338376997e-02
7.582492827726949880e-02
7.732883157473241509e-02
7.756405538453395310e-02
7.630860730378642709e-02
7.368727401089619766e-02
6.974479476559536373e-02
6.446309053487822571e-02
5.811740245102500757e-02
5.065762523233949960e-02
4.232364687751991039e-02
3.325182114999373356e-02
2.359841763615321691e-02
1.359911280221126097e-02
3.401409689560771967e-03
-6.775054520083242937e-03
-1.675688136129760072e-02
-2.630964219894914649e-02
-3.534473874307970248e-02
-4.359171029841570760e-02
-5.097443591915020583e-02
-5.734228686158970856e-02
-6.250511358410620888e-02
-6.654826415820305763e-02
-6.919432400391729854e-02
-7.054926017482363032e-02
-7.052518835038257272e-02
-6.905909118972537730e-02
-6.635449262432797923e-02
-6.223926065750982201e-02
-5.694683900134826782e-02
-5.048065194902744829e-02
-4.292452017137053655e-02
-3.451408896105735702e-02
-2.525756030684760817e-02
-1.541031508822404694e-02
-5.087105494451906254e-03
5.525780568908518486e-03
1.623421063051895888e-02
2.684949517075304465e-02
3.720650146900701671e-02
4.709457361401014203e-02
5.632137010815576467e-02
6.478748715295075400e-02
7.221201002789252865e-02
7.860201739950813116e-02
8.372018276075818277e-02
8.747589028265159716e-02
8.989737791264716671e-02
9.074791850453624298e-02
9.022499958513610641e-02
8.816413249769508576e-02
8.463521124829428977e-02
7.979298852309930912e-02
7.355173540220323603e-02
6.622873576326662737e-02
5.780400724170795673e-02
4.846914810720344413e-02
3.845023029428307204e-02
2.782650544815916741e-02
1.688619792337959363e-02
5.757890854157066141e-03
-5.367072273009136640e-03
-1.628110185774109958e-02
-2.680742128111462605e-02
-3.683635255051964652e-02
-4.613353607290521935e-02
-5.462666852743420370e-02
-6.219121973071720794e-02
-6.863627962727174292e-02
-7.408698866518367843e-02
-7.825774440003024912e-02
-8.123377779121138120e-02
-8.298314978395764097e-02
-8.336160552485433195e-02
-8.265898579834150828e-02
-8.061240510462057418e-02
-7.741465185674209493e-02
-7.310774344203201103e-02
-6.763591415045981659e-02
-6.130908205201757860e-02
-5.399278682855502415e-02
-4.589615424551452688e-02
-3.712687024518186024e-02
-2.773214984974804731e-02
-1.794647976770361725e-02
-7.823711297852701391e-03
2.483292544957393239e-03
1.280205453312549188e-02
2.300156775283421912e-02
3.296628435713878924e-02
4.246700198344927069e-02
5.145754072678775798e-02
5.972685778997992301e-02
6.712252400439527866e-02
7.366015397318408098e-02
7.903069239472348961e-02
8.332398796929668672e-02
8.635614760825532921e-02
8.803795869185830625e-02
8.851322274502555765e-02
8.752776345824582471e-02
8.530191017269897480e-02
8.175436563819599156e-02
7.691349360900461007e-02
7.101726631252536226e-02
6.396346028136593032e-02
5.603298638549041033e-02
4.727798719381878789e-02
3.782008678279965425e-02
2.790883064526645738e-02
1.760506791605694760e-02
7.124336291264052150e-03
-3.373870322167675951e-03
-1.375910921872023490e-02
-2.386260116987841060e-02
-3.350904072604452694e-02
-4.265519125293051189e-02
-5.107637664739050898e-02
-5.870675049060020134e-02
-6.549736777061827830e-02
-7.121858828274833797e-02
-7.601720130185349311e-02
-7.963994413162500674e-02
-8.210661327350970984e-02
-8.346530509316806012e-02
-8.349540760623415381e-02
-8.246441698005926857e-02
-8.014730498070145315e-02
-7.663428835570310071e-02
-7.203455199063550640e-02
-6.621584214251088896e-02
-5.946595234455381157e-02
-5.168233634632275059e-02
-4.300121377834918712e-02
-3.358010341472175697e-02
-2.344654948027752664e-02
-1.282017312027659145e-02
-1.805919084597230276e-03
9.452652938490716319e-03
2.075829570767466145e-02
3.191804631101359535e-02
4.284970635340280831e-02
5.323909671344560085e-02
6.300185958999246494e-02
7.194224315968782146e-02
7.979689463095739066e-02
8.664828862913291629e-02
9.210281743741630112e-02
9.620527623793813377e-02
9.883777695365938976e-02
9.981119495593573920e-02
9.936598959475469173e-02
9.720742170922914982e-02
9.353502662348811558e-02
8.837098587964142826e-02
8.169584559802466062e-02
7.384404705871629171e-02
6.473092918704873022e-02
5.463996428352613233e-02
4.372574108984172286e-02
3.211933203441106471e-02
2.011979508702023758e-02
7.851229091192494028e-03
-4.467131190460641235e-03
-1.661445392104496724e-02
-2.841063048859030979e-02
-3.971504119640208857e-02
-5.026627312033016964e-02
-6.003227433096416238e-02
-6.878698014073153510e-02
-7.639536184164807953e-02
-8.290686158382093440e-02
-8.800679658816899786e-02
-9.186416158348036098e-02
-9.427907182085987214e-02
-9.520223182598885892e-02
-9.481224697795009870e-02
-9.283201791739104092e-02
-8.954874610636708032e-02
-8.483002983166577915e-02
-7.871949885711534978e-02
-7.144418296316373818e-02
-6.287107284350119951e-02
-5.329373782930602738e-02
-4.272093768910091571e-02
-3.128099536390586272e-02
-1.919902436388344624e-02
-6.565419676098721569e-03
6.417115575975884320e-03
1.954182095628326579e-02
3.263604796034230010e-02
4.550689437850260338e-02
5.785601579724950622e-02
6.964292336296250274e-02
8.049214577541498328e-02
9.027106605660664695e-02
9.885915111408639933e-02
1.058821254221233854e-01
1.114999398256055346e-01
1.153041770665587662e-01
1.173026572426120323e-01
1.174998026031913584e-01
1.156362778887722736e-01
1.120493391005572686e-01
1.064793671334327840e-01
9.911646634598350603e-02
9.011150531343736780e-02
7.945369204700798715e-02
6.753830259166762606e-02
5.437947138928840574e-02
4.027175603176975233e-02
2.546778791706207773e-02
1.020111748789011459e-02
-5.257528434914596552e-03
-2.060873132263513208e-02
-3.561611466091938599e-02
-5.000871922563258215e-02
-6.344385625508676407e-02
-7.588191845576924832e-02
-8.686693729317883361e-02
-9.635348730785585347e-02
-1.041296541910501083e-01
-1.099235419343083942e-01
-1.139182046191285352e-01
-1.157005504347615593e-01
-1.154534239800878437e-01
-1.130861065064733550e-01
-1.085393424837700488e-01
-1.021306652751423488e-01
-9.367994562551619497e-02
-8.353224170473541599e-02
-7.176579588050922831e-02
-5.857375724504925579e-02
-4.429370458975721153e-02
-2.907013121989384871e-02
-1.326512218966034717e-02
2.871673663219067273e-03
1.899188017341459783e-02
3.484640941124143854e-02
5.003885817172315509e-02
6.436333446065260755e-02
7.747687208664894021e-02
8.907413784183670913e-02
9.907828838961237061e-02
1.070532063341856771e-01
1.130727907962011669e-01
1.168454342627509440e-01
1.182998269309807060e-01
1.175647660852017634e-01
1.143990655327085798e-01
1.091531005978390728e-01
1.017245246512091528e-01
9.233441136499902224e-02
8.126719127126508235e-02
6.859043679625284606e-02
5.476738712864871739e-02
3.992871434554411819e-02
2.445744363125734733e-02
8.661559629527115431e-03
-7.151771609256132867e-03
-2.265834955761763733e-02
-3.756006663344802626e-02
-5.154565221990089346e-02
-6.441932434954285303e-02
-7.581341724896878409e-02
-8.572164176501061161e-02
-9.379348024689188046e-02
-9.996401141635995191e-02
-1.042048649891494788e-01
-1.062592727897112704e-01
-1.064330961395827529e-01
-1.044411949535534040e-01
-1.004846758428472181e-01
-9.467526913088780693e-02
-8.696439769763415761e-02
-7.780252488304709169e-02
-6.707807767951144695e-02
-5.514006762290792757e-02
-4.218538843078425971e-02
-2.838247794124377013e-02
-1.410621599392122838e-02
5.067178823925243443e-04
1.513717211363515766e-02
2.955255730208889917e-02
4.345118436125691014e-02
5.668199343057551964e-02
6.889408104229838292e-02
7.995036650211111151e-02
8.963955033020168384e-02
9.768188038078613744e-02
1.041754456631771159e-01
1.087241156835866557e-01
1.114395276172956833e-01
1.122052818782021816e-01
1.109102596841814725e-01
1.078475428949117465e-01
1.027692989302478460e-01
9.599440724211392995e-02
8.755835060480424148e-02
7.757110073714179599e-02
6.640252066302362866e-02
5.405900653552481172e-02
4.091603583110123982e-02
2.715364440644999974e-02
1.302199685290945236e-02
-1.183616973712775956e-03
-1.523575031258493293e-02
-2.889693604068909252e-02
-4.191088869647929122e-02
-5.404223357336961076e-02
-6.517965782087366267e-02
-7.499642111643962938e-02
-8.351322304235433980e-02
-9.047472695948008403e-02
-9.578099254845588717e-02
-9.951231116584813297e-02
-1.013761976969085044e-01
-1.016308538122729366e-01
-1.000867570540013712e-01
-9.681275256295551745e-02
-9.201113306816730009e-02
-8.553194231694671856e-02
-7.774321324176976244e-02
-6.858596732881848401e-02
-5.825501148594106754e-02
-4.699311142859510099e-02
-3.485232389931228886e-02
-2.215344349701836232e-02
-9.019651091933138243e-03
4.318092259760380677e-03
1.763544413595640944e-02
3.069737048120426207e-02
4.335498441249178991e-02
5.531132316337929178e-02
6.640859232527740463e-02
7.648768909227596224e-02
8.523840394629464412e-02
9.274714596453241533e-02
9.864162992892276660e-02
1.029302992443243414e-01
1.055670614658580225e-01
1.063185692142379901e-01
1.054908806599914872e-01
1.027883622216256843e-01
9.841002154518438405e-02
9.244923713881023075e-02
8.485891446552389084e-02
7.605552062252265988e-02
6.594244490489858945e-02
5.482650874417960285e-02
4.291024589226904301e-02
3.033617367237514267e-02
1.743919941031223109e-02
4.361551507090355786e-03
-8.649496876619228170e-03
-2.136399522328219155e-02
-3.355491270742085724e-02
-4.510808103784952339e-02
-5.572351594389804430e-02
-6.534633525118259401e-02
-7.379249593804775020e-02
-8.086747252346129788e-02
-8.669964966880970569e-02
-9.094515242310553804e-02
-9.375985435804161383e-02
-9.503386760713881942e-02
-9.467118017103025307e-02
-9.295131035490039606e-02
-8.959802270159097914e-02
-8.489202278028248894e-02
-7.880928821427608810e-02
-7.137161146835249714e-02
-6.288311393021607520e-02
-5.323724758832100445e-02
-4.271737300826723704e-02
-3.141062700351988923e-02
-1.944491785165183839e-02
-7.060159839677440305e-03
5.621648996436494870e-03
1.841464144534879846e-02
3.110053655589090776e-02
4.349091664999150952e-02
5.544619539029271849e-02
6.664894506418907183e-02
7.707111851152995130e-02
8.639988706707404931e-02
9.447371737716707407e-02
1.012706929138486173e-01
1.064174846146745679e-01
1.100707084755033899e-01
1.119378406824421690e-01
1.119879911642418929e-01
1.103360352865124794e-01
1.067360694058329812e-01
1.015078317044206674e-01
9.451774737113205482e-02
8.591356654990525699e-02
7.593723199314209027e-02
6.458386325000044226e-02
5.223221378854630420e-02
3.897638965879150069e-02
2.507155662488608910e-02
1.081000432230477294e-02
-3.602014846647763353e-03
-1.790274032614559002e-02
-3.181294516044205767e-02
-4.513236354147744794e-02
-5.763253139304277961e-02
-6.902859932711559454e-02
-7.932350661263119773e-02
-8.815500475072021724e-02
-9.551087791508505731e-02
-1.012962969663244728e-01
-1.052779486552355703e-01
-1.077356431992184949e-01
-1.083254687037623759e-01
-1.072369843236279791e-01
-1.045058199732845500e-01
-1.000275973140681979e-01
-9.421721079441558455e-02
-8.685781530424724339e-02
-7.824073391921462783e-02
-6.849652895031251021e-02
-5.766952835897526386e-02
-4.612337658133698615e-02
-3.385808306969056297e-02
-2.112952343711801614e-02
-8.134543099739904859e-03
4.969334171080699684e-03
1.797632462074635548e-02
3.066542391065682840e-02
4.291485781638208763e-02
5.448706336598511946e-02
6.518492482910644148e-02
7.498822774235185118e-02
8.353985212747240541e-02
9.089703371945208332e-02
9.683357491058611211e-02
1.012100729776856944e-01
1.041698025497383856e-01
1.053739065270155179e-01
1.050484720728278032e-01
1.030581954264054995e-01
9.940138049225982764e-02
9.433240186863008081e-02
8.768041176004894022e-02
7.976720091090216957e-02
7.061060128112268963e-02
6.035458786133542086e-02
4.928027912597909149e-02
3.744787530583675722e-02
2.514343304279778937e-02
1.253882810367741053e-02
-1.566166154011328776e-04
-1.273361752625026475e-02
-2.494735652784491747e-02
-3.668147066544264617e-02
-4.766325480132779790e-02
-5.773268121831251487e-02
-6.681231487165587013e-02
-7.458347368797590971e-02
-8.115472478279334156e-02
-8.622793980961984683e-02
-8.977141291465222384e-02
-9.183540987135355160e-02
-9.215502998361385645e-02
-9.101456674206656605e-02
-8.818373744539979853e-02
-8.377792702101737043e-02
-7.793847181875108998e-02
-7.056808153680045603e-02
-6.201027630667709650e-02
-5.220559087273297233e-02
-4.137626489686508507e-02
-2.971785590606112679e-02
-1.735536246326146656e-02
-4.557882477137231714e-03
8.500325082170112276e-03
2.158232045977089703e-02
3.447704758391642588e-02
4.688391719336463398e-02
5.871801395597674861e-02
6.960719562084341505e-02
7.941955125459816689e-02
8.798693032523396962e-02
9.497824736032166315e-02
1.005468988101683725e-01
1.042699159719936014e-01
1.062163338515704353e-01
1.063332692500486010e-01
1.044407000478594916e-01
1.008694006498266349e-01
9.536271032822191129e-02
8.818318274857200878e-02
7.943254662408538724e-02
6.916691662663114470e-02
5.777647179926433813e-02
4.527484128453874296e-02
3.199790216572875878e-02
1.816764594763579238e-02
4.016324272593813777e-03
-1.016652912832802583e-02
-2.413441821549574401e-02
-3.766117328662541008e-02
-5.049104023360120874e-02
-6.236553361057169814e-02
-7.321264166569865783e-02
-8.267818640136685715e-02
-9.077253810196136974e-02
-9.728395219243590741e-02
-1.020594083919829920e-01
-1.052483372545889445e-01
-1.065261361815182939e-01
-1.061331885937128044e-01
-1.039476820638869509e-01
-9.997450560942038045e-02
-9.449426309035431626e-02
-8.732418738823614912e-02
-7.881712667199770872e-02
-6.897594124468436894e-02
-5.794013976832986662e-02
-4.601072348623286984e-02
-3.321265691897269667e-02
-1.985758471330378860e-02
-6.100299835629159617e-03
7.858839455654603734e-03
2.177823661536150771e-02
3.543318132216259631e-02
4.867703908791207179e-02
6.121486972376421337e-02
7.288324575162055674e-02
8.354635892288615751e-02
9.287429339516763138e-02
1.009484178445820973e-01
1.074159952002135821e-01
1.122437040880243375e-01
1.154336617701544748e-01
1.167011341339726088e-01
1.163457703046799352e-01
1.140904898134251638e-01
1.100741729636704330e-01
1.044440123240018559e-01
9.708542568261177563e-02
8.841579334165497461e-02
7.834398434017690593e-02
6.712459375192776634e-02
5.500112216948534888e-02
4.205579576506573297e-02
2.864516605538083849e-02
1.489589032521096944e-02
1.038987630941048870e-03
-1.267595797666504556e-02
-2.603570900821689307e-02
-3.891542933175422964e-02
-5.100532680026866050e-02
-6.222895342417892467e-02
-7.240037906834896619e-02
-8.127579706142641636e-02
-8.900016153275083775e-02
-9.517085108400376303e-02
-9.989926560573923753e-02
-1.030825608768385776e-01
-1.045363089822661795e-01
-1.045712249965761731e-01
-1.028296875383987313e-01
-9.955097734799950304e-02
-9.472174677710147594e-02
-8.828475829208552728e-02
-8.058392797471738977e-02
-7.144928873777113554e-02
-6.115918099515244705e-02
-4.981536646779620436e-02
-3.752235470451847216e-02
-2.456195599233231691e-02
-1.104110457488361244e-02
2.811755507239595796e-03
1.676545920037311732e-02
3.059004177157410159e-02
4.411903745877628763e-02
5.700392671056566524e-02
6.915101910106934147e-02
8.024930068435635888e-02
9.006211124486482311e-02
9.857416230365029230e-02
1.053619395994857960e-01
1.105329647449572877e-01
1.138168612888817016e-01
1.151186451438178660e-01
1.145920690742715381e-01
1.119500665714924376e-01
1.075007158946786057e-01
1.011392457818220958e-01
9.298630376249027163e-02
8.332509902865442575e-02
7.213131694161849239e-02
5.979850069338556867e-02
4.643332333401293394e-02
3.230303730064038037e-02
1.771078918013880774e-02
2.870983395712438206e-03
-1.193034835429346123e-02
-2.642229080895847418e-02
-4.035649011829065685e-02
-5.352666080454721032e-02
-6.560767615802567954e-02
-7.657062600933053909e-02
-8.607102055819047803e-02
-9.402251227650339216e-02
-1.003663906330803796e-01
-1.048130126097813752e-01
-1.076025147040458735e-01
-1.084187431854827383e-01
-1.073807172723581227e-01
-1.045618865873972625e-01
-9.982357705454739105e-02
-9.356006618315042267e-02
-8.559652598819555980e-02
-7.620194567795185447e-02
-6.554756354701027354e-02
-5.370314015866477914e-02
-4.104872908844950374e-02
-2.764365109463210249e-02
-1.378539572310156364e-02
2.944211783721143935e-04
1.435128513277758762e-02
2.817148159562215398e-02
4.145719220321029269e-02
5.402605143243236624e-02
6.564287165448609573e-02
7.602230272150432844e-02
8.517854672776713210e-02
9.271523184106737758e-02
9.866357257558715232e-02
1.028634813575072526e-01
1.051524994129306584e-01
1.057510757426551040e-01
1.043631992798572938e-01
1.012396163377435737e-01
9.636105008397673199e-02
8.978019417591713569e-02
8.182961472788839730e-02
7.244562980560205478e-02
6.198788213314410100e-02
5.058181274540025224e-02
3.845328546837326056e-02
2.590172092345934679e-02
1.309490199200103247e-02
3.177810850603147476e-04
-1.221759599995666558e-02
-2.425214621722483754e-02
-3.564161021269515728e-02
-4.608872535785799029e-02
-5.552673752462270601e-02
-6.372862606480717007e-02
-7.053868266565706258e-02
-7.599589735655619405e-02
-7.980620519449158068e-02
-8.214029335777978114e-02
-8.281603616525114175e-02
-8.184592331341519755e-02
-7.939484018633294338e-02
-7.529171949262401797e-02
-6.985018255883441995e-02
-6.299387860892922963e-02
-5.489064957207399897e-02
-4.575247774747185497e-02
-3.560941705640639776e-02
-2.477665137592687666e-02
-1.333851222475914561e-02
-1.543944947231263697e-03
1.040925198872225642e-02
2.229406803670492751e-02
3.392530020622731152e-02
4.505780303457205399e-02
5.547786612368094811e-02
6.505253329552658503e-02
7.346199109961083773e-02
8.073648312711174946e-02
8.655629373848588992e-02
9.085818847201880544e-02
9.362161665211919670e-02
9.459208619933348605e-02
9.402419698688116445e-02
9.166424368211165130e-02
8.765042230336426987e-02
8.209799406925594178e-02
7.493917203859602749e-02
6.656148144506945918e-02
5.689168091265140587e-02
4.620514103563333475e-02
3.471608378128762662e-02
2.255210942979849961e-02
1.005306465191212716e-02
-2.647744963978182053e-03
-1.529902190187764147e-02
-2.767590259448282630e-02
-3.955010959632421219e-02
-5.080016868196297192e-02
-6.114088712637742035e-02
-7.049269683606640413e-02
-7.869344385825666199e-02
-8.553352730330468501e-02
-9.113936349402061710e-02
-9.518248274370019746e-02
-9.778572073548950916e-02
-9.887259314103064023e-02
-9.832584932429751234e-02
-9.643048880771817877e-02
-9.292352838157827422e-02
-8.805597610813639675e-02
-8.183906729774698130e-02
-7.427398391916491260e-02
-6.567553000714347611e-02
-5.594439576192664076e-02
-4.534577800917304058e-02
-3.399310633904002732e-02
-2.199738591400764165e-02
-9.611222619583179028e-03
3.047369433214155380e-03
1.579626736312290600e-02
2.840967398123976292e-02
4.071484020892569139e-02
5.256300250006575719e-02
6.365787720539138606e-02
7.396540552672280222e-02
8.318974067460452315e-02
9.118756892516260981e-02
9.793554130279799597e-02
1.030962175648301865e-01
1.068151644083331214e-01
1.088334525538444814e-01
1.091366206069517286e-01
1.078406842995532355e-01
1.047341014622480276e-01
1.001190207696364687e-01
9.388963462292027051e-02
8.619646673801328873e-02
7.727091907400457371e-02
6.711877338093777401e-02
5.609002352082326920e-02
4.427574795183495532e-02
3.191259638288861805e-02
1.926040057281424439e-02
6.503393529193101340e-03
-6.129179921510099355e-03
-1.839677212934652528e-02
-3.012496742705665295e-02
-4.112734309353520412e-02
-5.115641337590143278e-02
-6.022497652696765652e-02
-6.802515539934372857e-02
-7.455001093831814529e-02
-7.973053135887087084e-02
-8.336201357194297779e-02
-8.569005950645988690e-02
-8.641991849915267587e-02
-8.571406968323531939e-02
-8.360408590005985463e-02
-7.999489442459505051e-02
-7.524350212566725815e-02
-6.915638585809855132e-02
-6.198693434782228534e-02
-5.383773671763351920e-02
-4.475804421787835802e-02
-3.505314984545566254e-02
-2.472864540390711310e-02
-1.401962973107103577e-02
-3.083129963528167834e-03
7.905855152584989609e-03
1.878916617839499620e-02
2.934785448429669263e-02
3.945373207952872913e-02
4.891977249646914383e-02
5.752490526911278879e-02
6.528110382735842487e-02
7.185352373508561985e-02
7.727342927047876897e-02
8.137954337444167074e-02
8.401660749854336641e-02
8.534883108001045660e-02
8.508319426674051944e-02
8.341318061549635177e-02
8.027372833819658438e-02
7.565999349109653327e-02
6.983405417054494579e-02
6.267833132127023643e-02
5.448049356582558567e-02
4.530936738214667858e-02
3.530931617157648250e-02
2.474490098704024144e-02
1.371063118849821100e-02
2.454628298686158637e-03
-8.845359459921483397e-03
-1.998666900260026927e-02
-3.080812075081445015e-02
-4.106420093031922652e-02
-5.067591824213732443e-02
-5.941513125562771641e-02
-6.713069142289569691e-02
-7.381356416063664105e-02
-7.916870728374619803e-02
-8.332476669631980193e-02
-8.605961000708695074e-02
-8.733579337724683977e-02
-8.726788703464793961e-02
-8.561744860692789560e-02
-8.265524075750148303e-02
-7.822972103333646066e-02
-7.242401891078052711e-02
-6.541772938398984771e-02
-5.712695005069279297e-02
-4.784727437032369746e-02
-3.757895267122512289e-02
-2.649255632792496193e-02
-1.478974836971614151e-02
-2.596845352094199252e-03
9.879245067000460775e-03
2.243093994046539696e-02
3.486891926291785931e-02
4.700026657676398267e-02
5.852524472159205404e-02
6.940905929228587123e-02
7.927392696169877073e-02
8.801098431219073204e-02
9.548393881077654743e-02
1.013595000734457130e-01
1.058125837308288297e-01
1.084405611018074977e-01
1.093045047977024981e-01
1.083862975490156588e-01
1.054968425451893593e-01
1.009763011257372861e-01
9.458897148011899403e-02
8.657378398774902284e-02
7.706060457639654637e-02
6.610987831319221908e-02
5.408421664341185597e-02
4.104361198184288545e-02
2.729134879710173878e-02
1.306517801975680404e-02
-1.375727105347717295e-03
-1.579453852445991680e-02
-2.987945314843374819e-02
-4.342865966722229965e-02
-5.618194823044991154e-02
-6.783403374360683080e-02
-7.836625983891958025e-02
-8.735946506044801885e-02
-9.482851064357128434e-02
-1.005678422634073005e-01
-1.043818398021194027e-01
-1.064535439046717658e-01
-1.064330404081406944e-01
-1.045522461579526802e-01
-1.007188297346960359e-01
-9.493981167626551476e-02
-8.750765376747035584e-02
-7.829437643583955775e-02
-6.764837748163442244e-02
-5.563764340051725182e-02
-4.247013639073769081e-02
-2.844276759264613777e-02
-1.371508057278547632e-02
1.397483323384117807e-03
1.665396419792745941e-02
3.174634511793919533e-02
4.645557701356890085e-02
6.040456997555337937e-02
7.345213363973600307e-02
8.524795190668196798e-02
9.555131342940166583e-02
1.042818358242967314e-01
1.110388043400408059e-01
1.159394240819275196e-01
1.186695300378353274e-01
1.192106378765271785e-01
1.176561282968223987e-01
1.138001562809535516e-01
1.079949714852931203e-01
1.001174550892003773e-01
9.040827813217498787e-02
7.910943712375063941e-02
6.631388933428115917e-02
5.245384589538498732e-02
3.766046720449237051e-02
2.230249839005882945e-02
6.671153115776770094e-03
-8.918072908002077151e-03
-2.417689914171053736e-02
-3.878199444879468216e-02
-5.245983965134289745e-02
-6.498935945838241190e-02
-7.602323801188608232e-02
-8.557066769600649159e-02
-9.325242158848151552e-02
-9.905417552023280947e-02
-1.028916653542921306e-01
-1.045669071744581569e-01
-1.043714352845681592e-01
-1.020190157895564526e-01
-9.776369694788053510e-02
-9.166111466464675617e-02
-8.376000710359203516e-02
-7.445399951671395622e-02
-6.369344883958234782e-02
-5.186112484927026672e-02
-3.912333605572954759e-02
-2.573954306801056607e-02
-1.202942318980874253e-02
1.800387594947550291e-03
1.542788353505240850e-02
2.862689164530879404e-02
4.107207690858784982e-02
5.263100740949819278e-02
6.295238483147459763e-02
7.193277855865876091e-02
7.936439445803031290e-02
8.503644792538422870e-02
8.903959681434911455e-02
9.106362874540123442e-02
9.128326079913820501e-02
8.959844563793292749e-02
8.603049264159688680e-02
8.085027841266362314e-02
7.394232835614317212e-02
6.568173913158752153e-02
5.612258006563382307e-02
4.549439728380651193e-02
3.412518262938746966e-02
2.212159024297077892e-02
9.858727321385636275e-03
-2.493236573879408207e-03
-1.465231223817325609e-02
-2.639584856163129309e-02
-3.748720452806301312e-02
-4.776705074572230175e-02
-5.703172446031341825e-02
-6.511450410634989083e-02
-7.199818554017853311e-02
-7.742730460818209037e-02
-8.154340352216947474e-02
-8.416093263649970790e-02
-8.528463869899302607e-02
-8.507338236964934186e-02
-8.331261086522227799e-02
-8.034896154866694173e-02
-7.603037245808903777e-02
-7.047168457299678168e-02
-6.389762401630694200e-02
-5.616816639028687080e-02
-4.764714703354464703e-02
-3.825653741178193512e-02
-2.813253866937584155e-02
-1.748112618377582056e-02
-6.290299641808739031e-03
5.210679569015867589e-03
1.694032837685998868e-02
2.878902806796199490e-02
4.058423763866039063e-02
5.216120359188654299e-02
6.348457097800055959e-02
7.425518834532084111e-02
8.440749298442004611e-02
9.379243674292345179e-02
1.020966481589411085e-01
1.094695778682246157e-01
1.154544180820517019e-01
1.200594950725730609e-01
1.231893313693649961e-01
1.245249587559159321e-01
1.243494834247228509e-01
1.222559506505239840e-01
1.183674177464554556e-01
1.127164064423496759e-01
1.051619775804433637e-01
9.605334663816840479e-02
8.525808653675488735e-02
7.301028661372298278e-02
5.951543803782457370e-02
4.488931612593878573e-02
2.946402097460101496e-02
1.344401142717303876e-02
-2.920738933684790487e-03
-1.929960395507621454e-02
-3.540825942290867778e-02
-5.104593277613602570e-02
-6.578591515388559907e-02
-7.951480923311417259e-02
-9.189155338118812355e-02
-1.026522050795931895e-01
-1.118038036960524451e-01
-1.189057121640233472e-01
-1.240809334108064488e-01
-1.270920752732504211e-01
-1.278597312501964234e-01
-1.265845447528793632e-01
-1.230061654425638473e-01
-1.174573474071677476e-01
-1.098797751830369457e-01
-1.004294534083726154e-01
-8.941191129444013563e-02
-7.685092013125133237e-02
-6.314796200000913351e-02
-4.844986953861157852e-02
-3.306693163103865962e-02
-1.729814151457030949e-02
-1.424548030735322147e-03
1.426923257567642295e-02
2.947061048396457106e-02
4.388710915669112589e-02
5.732262284541198016e-02
6.938917369981652261e-02
8.006272195092586919e-02
8.897605190724257318e-02
9.602874484969918523e-02
1.011861237545960690e-01
1.041551385245655104e-01
1.052011475918465805e-01
1.040498423448911469e-01
1.008699448147769712e-01
9.578998839945851440e-02
8.875785134204744464e-02
8.021335580813589161e-02
7.008800241797559505e-02
5.874273006718856716e-02
4.640255536506897316e-02
3.326400141525698989e-02
1.972073114286734818e-02
5.928762478155187067e-03
-7.756343749921694800e-03
-2.112073250183731099e-02
-3.384017586912898418e-02
-4.577350078144304391e-02
-5.660719238162922190e-02
-6.618103377335705917e-02
-7.437040917157423936e-02
-8.088166520361260436e-02
-8.588447031807479315e-02
-8.902179249080763301e-02
-9.039434723635973723e-02
-8.998476348581763151e-02
-8.765881880770481915e-02
-8.376257791584623691e-02
-7.806191516913786599e-02
-7.083962939124757718e-02
-6.217765607342006645e-02
-5.214941151521812479e-02
-4.111114897190308592e-02
-2.906464465782059373e-02
-1.633540605968841070e-02
-3.097433547443388061e-03
1.040651659241726042e-02
2.393339226192458050e-02
3.723317253693207013e-02
5.007995798172519553e-02
6.223642590711437467e-02
7.341109736850115475e-02
8.353692325322795154e-02
9.223375177497479538e-02
9.948084396780088046e-02
1.050575285319326063e-01
1.087823757819779413e-01
1.107782838683393639e-01
1.107321478359798300e-01
1.088563809258549092e-01
1.050522289626644595e-01
9.935472001809698972e-02
9.203525164912115808e-02
8.300611796096053763e-02
7.262737303566761671e-02
6.098200150189864860e-02
4.829665133320460574e-02
3.488585461033450602e-02
2.091078273028144918e-02
6.696243256542767225e-03
-7.522369621553599492e-03
-2.147540350857510966e-02
-3.493628292375368372e-02
-4.760149505177436319e-02
-5.936219953687300183e-02
-6.991732290909437320e-02
-7.911935636068559430e-02
-8.690475376248815720e-02
-9.297447519791079973e-02
-9.749430578826763505e-02
-1.001865213231834945e-01
-1.011004885640769541e-01
-1.003210806235742963e-01
-9.767031579671789365e-02
-9.350051762299889380e-02
-8.764063950269213032e-02
-8.030323325913633903e-02
-7.166348225537315375e-02
-6.172883529049245227e-02
-5.087314504280106287e-02
-3.910843972076444991e-02
-2.670654585876416562e-02
-1.387928601880831017e-02
-8.145592342099646464e-04
1.224957538665574254e-02
2.508857511433203874e-02
3.749809098123604162e-02
4.927440704141346911e-02
6.013346491588997256e-02
7.006701400485586262e-02
7.870105415589578879e-02
8.600338167904884867e-02
9.183173645217897196e-02
9.595282864715026783e-02
9.857507626893734221e-02
9.934875223971861846e-02
9.844601359449997591e-02
9.584230463916451614e-02
9.148247766752828913e-02
8.570210211088839791e-02
7.834535551761431793e-02
6.972274015450485862e-02
5.994431947932760824e-02
4.915319138188558451e-02
3.767723085816140211e-02
2.560678480988459044e-02
1.324044460972977587e-02
7.766207687920660338e-04
-1.154044945661314263e-02
-2.352576056978845226e-02
-3.491152969941075518e-02
-4.556529684928116442e-02
-5.527333562164072484e-02
-6.382747633343607840e-02
-7.124118981799466843e-02
-7.719472655498865743e-02
-8.177976645436658976e-02
-8.482256456759365570e-02
-8.624415159748903548e-02
-8.620886136550012790e-02
-8.447344071013701550e-02
-8.129487346793991265e-02
-7.658513227291828540e-02
-7.042168766464904084e-02
-6.302999184696161938e-02
-5.435031527838869725e-02
-4.468638540111000840e-02
-3.408879870012302554e-02
-2.276079710422883318e-02
-1.091860080795569073e-02
1.271400552293279907e-03
1.358068924531124350e-02
2.579692102313888014e-02
3.767937751272059516e-02
4.906833405436133305e-02
5.963963301678690265e-02
6.933527482093124195e-02
7.784063106140091948e-02
8.500403610930971909e-02
9.076691493865193805e-02
9.481334955620181193e-02
9.729965803407933378e-02
9.794837362804705017e-02
9.680163623048861077e-02
9.393777840730029027e-02
8.922232705000934794e-02
8.298385871734152708e-02
7.512313469132317345e-02
6.587799814673858667e-02
5.544820569832520363e-02
4.394602646651578348e-02
3.172622145817903527e-02
1.891792517020357903e-02
5.823560896144273566e-03
-7.319036191785560641e-03
-2.023216772365515545e-02
-3.272431381517861004e-02
-4.449560357245492537e-02
-5.536334997650404349e-02
-6.514881260159689769e-02
-7.356781352323069068e-02
-8.069259732374574334e-02
-8.617489039875293744e-02
-9.005819807911608077e-02
-9.227167424908443161e-02
-9.266506610184309378e-02
-9.150621234488269529e-02
-8.854835475275474321e-02
-8.402664513511513833e-02
-7.797909106463238316e-02
-7.044651739913325439e-02
-6.175057950144376834e-02
-5.184971409614388266e-02
-4.104937272748085397e-02
-2.948577185560079597e-02
-1.736379331050691768e-02
-4.931773895976685612e-03
7.619649979831359318e-03
2.005429754852807236e-02
3.215835330157275351e-02
4.366314499318346004e-02
5.446457698063757874e-02
6.422132443696731974e-02
7.287418407784879149e-02
8.019065980376682834e-02
8.597885877838512547e-02
9.029825602822122432e-02
9.282524734550075263e-02
9.371703728476149520e-02
9.281874491041318398e-02
9.012849232890363105e-02
8.584442052462895600e-02
7.982881270182631828e-02
7.239923351134003315e-02
6.356084700386133157e-02
5.351295226445330205e-02
4.251664996593390589e-02
3.068522223534693449e-02
1.834494236502574177e-02
5.668616317050257161e-03
-7.057652312888825288e-03
-1.962250814580762323e-02
-3.173321246018529634e-02
-4.323323781892101508e-02
-5.384895533738125878e-02
-6.337244861490960723e-02
-7.172740071005383189e-02
-7.858522043943190483e-02
-8.405017437372935829e-02
-8.784061901204275047e-02
-8.993297532708545428e-02
-9.039589022082650249e-02
-8.900053818371296555e-02
-8.606250840474795327e-02
-8.138588489604199616e-02
-7.513146252113897527e-02
-6.746859770346960716e-02
-5.835395280526513295e-02
-4.816626675779160649e-02
-3.688172773313628389e-02
-2.475925803160077682e-02
-1.201656726793495951e-02
1.189416605464656707e-03
1.458095223778933629e-02
2.796308131674632089e-02
4.110532144618631034e-02
5.378831539697782188e-02
6.572443638096157892e-02
7.685456669258672324e-02
8.680820465371009986e-02
9.550496108220671299e-02
1.027821096891850250e-01
1.083685729008508070e-01
1.124350731095082878e-01
1.146046564014983477e-01
1.150032158118904357e-01
1.135897186893511934e-01
1.102482011372056675e-01
1.053178119426063791e-01
9.858835411283305150e-02
9.035139666941051362e-02
8.071752139585980368e-02
6.976776001028935081e-02
5.788442846837453526e-02
4.509779321687824166e-02
3.172397368950537200e-02
1.798646056542233321e-02
4.081646729279303151e-03
-9.715675271484884926e-03
-2.318500773232256770e-02
-3.615597489841615442e-02
-4.837067600645356125e-02
-5.965155345332882192e-02
-6.992112766866598328e-02
-7.887905403890570211e-02
-8.658588343884823790e-02
-9.281062416807729643e-02
-9.748540795008481252e-02
-1.007110581699820900e-01
-1.022191234893228134e-01
-1.022602215503934792e-01
-1.006744315938512269e-01
-9.752576711067006965e-02
-9.301345611095870880e-02
-8.699952634256222228e-02
-7.980907577601190073e-02
-7.140635058872085716e-02
-6.195861263877201069e-02
-5.169023264026443437e-02
-4.065368630593647892e-02
-2.912301609144970008e-02
-1.722891988567562191e-02
-5.173393119662974063e-03
6.841939037241807735e-03
1.859500871067196887e-02
2.996084889253888481e-02
4.066225119739343141e-02
5.055958619403762982e-02
5.951582550097939128e-02
6.725115705607483119e-02
7.384338967018351518e-02
7.897125789554643172e-02
8.264848668556537548e-02
8.484656564274631330e-02
8.537627387292155701e-02
8.450646848992632298e-02
8.200836930367756683e-02
7.807427684247632282e-02
7.279992263420247134e-02
6.617966977218406321e-02
5.857292567108594861e-02
4.993247620726806030e-02
4.054692710466082511e-02
3.059020526801625381e-02
2.022086187154955791e-02
9.716919475293669950e-03
-7.873811081587629539e-04
-1.106478887761044513e-02
-2.095054750098090598e-02
-3.022397505713000573e-02
-3.883255323914538287e-02
-4.652289627070207989e-02
-5.325069145625821454e-02
-5.891765998897650208e-02
-6.334244895695247124e-02
-6.669514567991879916e-02
-6.869525235055345957e-02
-6.947920350494660169e-02
-6.901529874409151333e-02
-6.721106407042408415e-02
-6.434585065605065435e-02
-6.020324871212943268e-02
-5.501063029699972129e-02
-4.879317067292646137e-02
-4.156548269554657254e-02
-3.358894332162132290e-02
-2.480313880064612467e-02
-1.542407135950088840e-02
-5.550205380837627822e-03
4.696472713517425845e-03
1.514482687972255708e-02
2.564564750224772663e-02
3.606591145801098242e-02
4.621717580308984386e-02
5.590577894696179689e-02
6.506842407362424530e-02
7.338725606677555524e-02
8.085402157603163720e-02
8.722794755417841162e-02
9.233185464397634934e-02
9.621355853143434556e-02
9.853276388822901355e-02
9.942755374571657367e-02
9.871038468375596675e-02
9.632958009611540529e-02
9.244717295939287871e-02
8.687853562361722015e-02
7.988643719137925037e-02
7.144906164859020359e-02
6.168940117476174462e-02
5.085530050066626451e-02
3.901235121807461459e-02
2.645016159649335452e-02
1.334869012079718115e-02
-6.393321393988269513e-05
-1.353488438082134024e-02
-2.679873938252377158e-02
-3.968769870053274335e-02
-5.188329992459906476e-02
-6.320271683542488805e-02
-7.348057267334794085e-02
-8.240020705293202297e-02
-9.001980210695521845e-02
-9.599725897333917513e-02
-1.003189736153686923e-01
-1.029534606475953629e-01
-1.036856124481584929e-01
-1.027879412394054753e-01
-1.000146531590042215e-01
-9.554612839854766115e-02
-8.948130055429688590e-02
-8.179913360311011350e-02
-7.287290080574714002e-02
-6.264976444729920824e-02
-5.142427982047861890e-02
-3.939414634000267673e-02
-2.672953477622299137e-02
-1.374546856383280710e-02
-6.143903340367468623e-04
1.240377959859274154e-02
2.506911173142222296e-02
3.712880729144258513e-02
4.844588152083750127e-02
5.870769471417269098e-02
6.783104663154752856e-02
7.561296242332993245e-02
8.187677786772377952e-02
8.670115585336279906e-02
8.979905552485319131e-02
9.132331995368996036e-02
9.118176232369086531e-02
8.938181011926042696e-02
8.617125960757249237e-02
8.142107823883001916e-02
7.545395089600352712e-02
6.830974949798689078e-02
6.016500597647408272e-02
5.131061522453751744e-02
4.180112838908205120e-02
3.195795965792291166e-02
2.190864282967357538e-02
1.187699703402161737e-02
2.055455452613201561e-03
-7.385849860181923840e-03
-1.629514257414054965e-02
-2.451888791365004067e-02
-3.191512875882195760e-02
-3.844964138831023781e-02
-4.392714736366924722e-02
-4.841425884839984511e-02
-5.176332062843476411e-02
-5.396609891604581266e-02
-5.509563504463581285e-02
-5.500604024751480636e-02
-5.390055579069989028e-02
-5.166330781304013381e-02
-4.840317419214315575e-02
-4.421870409078312858e-02
-3.908523420028503503e-02
-3.322378832222306483e-02
-2.661344843358962389e-02
-1.944441145858322867e-02
-1.180937569452612454e-02
-3.855999906166981007e-03
4.259399781082951440e-03
1.240324185069164968e-02
2.035931729445632568e-02
2.804008005187575911e-02
3.516531709445158693e-02
4.169253947313082687e-02
4.736982857109452855e-02
5.205092481801056048e-02
5.568094529376182295e-02
5.799975921053958372e-02
5.910662175641902272e-02
5.877900803736338387e-02
5.704100428661852684e-02
5.392530360758899383e-02
4.936828414359921424e-02
4.358658453742750294e-02
3.654657329781156594e-02
2.845746532221469019e-02
1.945493627372519088e-02
9.734489376347068776e-03
-4.818285082202455188e-04
-1.099008343931802585e-02
-2.151495952787215934e-02
-3.188040899644197651e-02
-4.173874827103755264e-02
-5.100290960448043004e-02
-5.932910224550811545e-02
-6.655015335352586214e-02
-7.254148427619248884e-02
-7.699872841091516540e-02
-8.002731059796344693e-02
-8.132154428224327991e-02
-8.092437610589746366e-02
-7.882315748851626003e-02
-7.491279331433794986e-02
-6.944486313993802895e-02
-6.230360976605777562e-02
-5.371857834094546230e-02
-4.380631915095313522e-02
-3.270325622337642152e-02
-2.069644253734266581e-02
-7.924542865959408044e-03
5.323825038519749801e-03
1.882272691073952689e-02
3.227923938868502984e-02
4.548583475654472547e-02
5.810541241255467310e-02
6.995468471933682930e-02
8.076185938251002894e-02
9.024792547488923178e-02
9.836701125347392660e-02
1.047459828875149795e-01
1.094292224563004484e-01
1.122040388878446787e-01
1.129719457415090528e-01
1.118753329880236985e-01
1.086921446430799687e-01
1.037026473127138776e-01
9.685260325283703842e-02
8.828194348506664124e-02
7.826921427411019649e-02
6.684249930733834888e-02
5.438357224545335017e-02
4.102683010823421350e-02
2.705375208263141248e-02
1.275779971734094034e-02
-1.625042070334578159e-03
-1.582489032366026296e-02
-2.956971702527277576e-02
-4.262105529166981127e-02
-5.479134855633453760e-02
-6.576971163077474647e-02
-7.555376570300662009e-02
-8.382022756646960449e-02
-9.051464083420088236e-02
-9.560067334625936553e-02
-9.882619383604084040e-02
-1.004554330134237172e-01
-1.002024206016383923e-01
-9.821732501932786685e-02
-9.458641337291928686e-02
-8.920611188125886215e-02
-8.247191632521658211e-02
-7.423078496998966602e-02
-6.475738592359195356e-02
-5.421589983787728634e-02
-4.268812106031678877e-02
-3.052484118731431037e-02
-1.779010174868415547e-02
-4.757214825558698720e-03
8.365568764900750687e-03
2.134472871127631941e-02
3.401021331605474235e-02
4.607206076498555208e-02
5.738224297828816572e-02
6.773149993416661963e-02
7.685056673040988051e-02
8.478802766219041553e-02
9.115731808048031792e-02
9.601055318765894242e-02
9.920721958784654848e-02
1.005851444488881363e-01
1.003866738987174850e-01
9.831349072737129158e-02
9.461714225601081107e-02
8.929221797480932366e-02
8.236556775124773133e-02
7.418982383305777750e-02
6.467775883182295960e-02
5.417670023054610429e-02
4.282115929825944245e-02
3.078684985826987339e-02
1.839735644391725031e-02
5.774398744428067831e-03
-6.814794752533178887e-03
-1.915828466133364175e-02
-3.105783545316815816e-02
-4.235029117040513963e-02
-5.279118099986294249e-02
-6.233374130325853441e-02
-7.075827072174756260e-02
-7.795214342199195678e-02
-8.395197125643553970e-02
-8.848270668496052704e-02
-9.173092332693111306e-02
-9.350641465839455713e-02
-9.380993211250383823e-02
-9.281667502121709878e-02
-9.029531190198160362e-02
-8.656234880976636237e-02
-8.149026045484659975e-02
-7.516463828583096196e-02
-6.781002554753921829e-02
-5.931242550793221907e-02
-4.998139675938314402e-02
-3.981200673522414246e-02
-2.893418184036118321e-02
-1.756561235354311620e-02
-5.767223328674141863e-03
6.264566929328767644e-03
1.835804782585225003e-02
3.038283684186633346e-02
4.215292734896176896e-02
5.343852033181136635e-02
6.421422830054521191e-02
7.414546480329618772e-02
8.315743685557654141e-02
9.112290720990767756e-02
9.773685413518862219e-02
1.031619848530554440e-01
1.070095044055250078e-01
1.093220606088819991e-01
1.100770941012197829e-01
1.090412699335095992e-01
1.065387071457626900e-01
1.022865279483482631e-01
9.646912833880173788e-02
8.920070647704549105e-02
8.043356190195115329e-02
7.055181618599652704e-02
5.950272451353893349e-02
4.754535057962526456e-02
3.490191855260429965e-02
2.171501885348012251e-02
8.267120445959015573e-03
-5.243683627899405064e-03
-1.862414297592402193e-02
-3.162307351103178094e-02
-4.400970557221974694e-02
-5.570872511493833029e-02
-6.636940519813486206e-02
-7.597258408405616059e-02
-8.430794873403545109e-02
-9.117468166880332570e-02
-9.670975839269679852e-02
-1.005390240798223200e-01
-1.028310674910402900e-01
-1.034540600170048008e-01
-1.023187234523286193e-01
-9.969176539737631404e-02
-9.530915888083492382e-02
-8.945727399516023581e-02
-8.211718821919476718e-02
-7.334788163889761903e-02
-6.344548598505511672e-02
-5.236609762247971395e-02
-4.040701108323375285e-02
-2.769748271539495751e-02
-1.442357357969209150e-02
-8.340931684719713433e-04
1.286759075428465897e-02
2.648408186979763282e-02
3.974422168010779965e-02
5.242390432492880642e-02
6.437595326606196378e-02
7.524134989744410418e-02
8.501118642081961774e-02
9.335319239914609268e-02
1.001333737465771728e-01
1.053480844391884719e-01
1.086581154997222631e-01
1.102786911626894573e-01
1.099501345169215244e-01
1.077260998603348091e-01
1.037616149114032743e-01
9.789836953435439304e-02
9.051954876180980103e-02
8.154881408345203420e-02
7.121666049316169311e-02
5.978962799611638179e-02
4.733918144303720515e-02
3.425613761500707205e-02
2.066881386324834549e-02
6.850849470279425646e-03
-6.927875225601193981e-03
-2.044350260593548116e-02
-3.349447749384058121e-02
-4.580755802596398613e-02
-5.723504356596935405e-02
-6.760568346244745508e-02
-7.666698164485785671e-02
-8.451506099012263962e-02
-9.081238833071574035e-02
-9.562001096565142522e-02
-9.889478431619955212e-02
-1.004432942196847728e-01
-1.006089719827657908e-01
-9.906713642900930039e-02
-9.604468203479160637e-02
-9.159838995590670330e-02
-8.564553233806401766e-02
-7.859190849465473583e-02
-7.024638643190503351e-02
-6.088081051106846581e-02
-5.062537208443046444e-02
-3.952327217311844137e-02
-2.789211394993710777e-02
-1.575764290839890350e-02
-3.328301479138672404e-03
9.200682379063285926e-03
2.168165808087719679e-02
3.395475843596285070e-02
4.577596156872188599e-02
5.706747869295047959e-02
6.758966430585085228e-02
7.715558931452753955e-02
8.577171263680574698e-02
9.307302665248397278e-02
9.914141975355882097e-02
1.037553753610327006e-01
1.067857521105465002e-01
1.083873032583132640e-01
1.082369534900989028e-01
1.065677624671826501e-01
1.032663254492214439e-01
9.834117290419210067e-02
9.205511330770455025e-02
8.426879340197171442e-02
7.529834830468071227e-02
6.519565587076153745e-02
5.410546500727404784e-02
4.231710681283046283e-02
2.991499678817707494e-02
1.716633047530069858e-02
4.272233760524238484e-03
-8.578216967867273793e-03
-2.117172264700291351e-02
-3.326462305919412193e-02
-4.477104119331173221e-02
-5.540519434207994559e-02
-6.504720479639689024e-02
-7.362038777456933469e-02
-8.083098575369634942e-02
-8.681976971398204512e-02
-9.128928713450076837e-02
-9.425079383208276318e-02
-9.575498271222646074e-02
-9.556605159853295839e-02
-9.398779806641316403e-02
-9.079263809399570895e-02
-8.611919697675290974e-02
-8.010454241839375100e-02
-7.266232469384012460e-02
-6.413623964122838750e-02
-5.446238035793980053e-02
-4.385570364263672444e-02
-3.250605323428507748e-02
-2.052140426281178626e-02
-8.159032460536610673e-03
4.420104808606567341e-03
1.701030283577424987e-02
2.940081304546813407e-02
4.133029631154290506e-02
5.272366341692602543e-02
6.322660643835165128e-02
7.274432163282870678e-02
8.109863145715666410e-02
8.800537815512049500e-02
9.360454795163311581e-02
9.749628011310519649e-02
9.977043921898764989e-02
1.003529527557251166e-01
9.909411042042275131e-02
9.629816876555578886e-02
9.171473063030809170e-02
8.560548174810021782e-02
7.804176646498228731e-02
6.907975172682859211e-02
5.907910451294084292e-02
4.803301933243324384e-02
3.625841424781107991e-02
2.394107822907028810e-02
1.128543162513837711e-02
-1.443452216292915886e-03
-1.404075325341285624e-02
-2.630265433679503106e-02
-3.800540500998182691e-02
-4.892592591491066317e-02
-5.899751045420537771e-02
-6.790687213339927086e-02
-7.566876558923844864e-02
-8.208240290804184880e-02
-8.701148560128606213e-02
-9.057915968816979135e-02
-9.247798835109473370e-02
-9.292096783363230916e-02
-9.176611542486004525e-02
-8.900663649249776488e-02
-8.486695383173369078e-02
-7.915746120226169191e-02
-7.218192667179255950e-02
-6.390535198692692820e-02
-5.444786752458741913e-02
-4.404781727053265483e-02
-3.272641382827542328e-02
-2.075430659536484784e-02
-8.259945532203407520e-03
4.551685727508871480e-03
1.748147536213992548e-02
3.028111727517819596e-02
4.281568625136471240e-02
5.478988931246853156e-02
6.600301950242662419e-02
7.633280297109816537e-02
8.540479564956475478e-02
9.328334813232878886e-02
9.959962429494430280e-02
1.042709828118614374e-01
1.072906187233944320e-01
1.083422573482992063e-01
1.076916002171452308e-01
1.050582726407567474e-01
1.005529049214801268e-01
9.430518669190865455e-02
8.622267344609214901e-02
7.668480176395281456e-02
6.564116354364567252e-02
5.336275904194238279e-02
4.008317127853867207e-02
2.597850250197565256e-02
1.137165778178620378e-02
-3.516073074367074332e-03
-1.839832154300591327e-02
-3.302074767173118069e-02
-4.703524468827163796e-02
-6.034563503965221370e-02
-7.253003664938875716e-02
-8.345635773233869847e-02
-9.293498177236295121e-02
-1.006277370486264588e-01
-1.066985399760364550e-01
-1.107061287575068081e-01
-1.127510788612095666e-01
-1.127625190548971340e-01
-1.105747857520437277e-01
-1.065283094267630987e-01
-1.003534239792239491e-01
-9.234464880952375498e-02
-8.257643569206923884e-02
-7.113004882511245186e-02
-5.838734157037345912e-02
-4.437314681151171419e-02
-2.944768280601607266e-02
-1.383060881322982841e-02
2.197627046165832616e-03
1.834090756745110698e-02
3.429106192830360528e-02
4.978949040650190033e-02
6.452326357111418109e-02
7.817094906416119371e-02
9.061440080929805685e-02
1.014179806508768988e-01
1.105647246375724702e-01
1.177596594026399379e-01
1.228303859852425683e-01
1.258767834637756211e-01
1.265572482961955791e-01
1.251366381086647661e-01
1.214641852956664381e-01
1.156244752877667870e-01
1.079013079592480717e-01
9.820626330052467656e-02
8.698080709461576687e-02
7.428412568845957353e-02
6.040404835140509437e-02
4.569053618956945423e-02
3.031361582861529999e-02
1.466823856392677518e-02
-1.010878775360133947e-03
-1.641970950749703853e-02
-3.129259660678943011e-02
-4.532563712344413881e-02
-5.838351974109358411e-02
-7.014724003101385774e-02
-8.048052052407804469e-02
-8.928854375797512510e-02
-9.628235814298509443e-02
-1.016500386113668719e-01
-1.050777976702895744e-01
-1.066600342142634272e-01
-1.064584304672623466e-01
-1.043013715389586177e-01
-1.005900249418762715e-01
-9.509911939127319025e-02
-8.808764595941741271e-02
-7.971060888178042869e-02
-6.996245288941760343e-02
-5.926240878161385950e-02
-4.756147376155916984e-02
-3.515500291354698575e-02
-2.224211371181327238e-02
-8.982813932213220762e-03
4.356626456054195871e-03
1.759220090785234419e-02
3.051862215609923643e-02
4.292418647291428718e-02
5.455021694390861653e-02
6.536322784233176975e-02
7.499650754999015456e-02
8.342157762866030113e-02
9.046052475526797365e-02
9.588554809397807632e-02
9.987194791386594384e-02
1.020439314515409063e-01
1.025694512650256046e-01
1.013693300110164314e-01
9.836882057784226974e-02
9.387765238921948197e-02
8.768941103493475830e-02
8.011135638771572920e-02
7.120568502062574190e-02
6.108860541923424869e-02
5.008905986130438720e-02
3.825099929964863310e-02
2.588551774284594126e-02
1.317564230538444472e-02
3.522401035603332439e-04
-1.236337273617681316e-02
-2.472352540832748954e-02
-3.656589362572008894e-02
-4.765217276615293929e-02
-5.776827274252593208e-02
-6.686947703315340719e-02
-7.462563273965820698e-02
-8.109718054222933570e-02
-8.605804411249304287e-02
-8.941445349696590383e-02
-9.127667587706420060e-02
-9.137106643044676235e-02
-8.994209560783378299e-02
-8.684215379306699234e-02
-8.213852921526743067e-02
-7.602652849136004587e-02
-6.841004659883244410e-02
-5.960611365181297389e-02
-4.961691589870511482e-02
-3.864672598079548632e-02
-2.691307004593904845e-02
-1.455488890956319406e-02
-1.835068907184660755e-03
1.105310095219022744e-02
2.385452712209247539e-02
3.637579560820216468e-02
4.829747852234004407e-02
5.951797090413610963e-02
6.970095194234561531e-02
7.867288785433558529e-02
8.631934327976603649e-02
9.230461197259907935e-02
9.675283571042517239e-02
9.933031348421526852e-02
1.000651396000461907e-01
9.898122279891681530e-02
9.591138778324126424e-02
9.118775652856980773e-02
8.464201158727066576e-02
7.652224643453733877e-02
6.700272686359315388e-02
5.616519037265228081e-02
4.441657136590291405e-02
3.182539691075858546e-02
1.872918582274371579e-02
5.378180423127114709e-03
-7.977035840321472504e-03
-2.106352434912882668e-02
-3.362900060552571901e-02
-4.545538491782608742e-02
-5.633122026043924091e-02
-6.600854828129865126e-02
-7.447581375888781552e-02
-8.142927124400424488e-02
-8.689509504083585412e-02
-9.076573641827946626e-02
-9.292301217568477156e-02
-9.358313844806330495e-02
-9.251053168134044935e-02
-8.994237292781298576e-02
-8.587521446470279540e-02
-8.034725808125030289e-02
-7.366927817522701816e-02
-6.574711768036922699e-02
-5.689492027951609243e-02
-4.719860191584653725e-02
-3.680470336726792552e-02
-2.599289326119330959e-02
-1.483308033673744891e-02
-3.576122929541584918e-03
7.610812091560286916e-03
1.855893381202247325e-02
2.908157627246960378e-02
3.899092760844869582e-02
4.818836976719789722e-02
5.645731882131635460e-02
6.370447888669195091e-02
6.985387181133455303e-02
7.471424756947853130e-02
7.836933942968807298e-02
8.063417402487843555e-02
8.156672367530391765e-02
8.120931283389419553e-02
7.949102568251312229e-02
7.664904199874324198e-02
7.261846835034675707e-02
6.760771779848114005e-02
6.176020567143234580e-02
5.516346764763408600e-02
4.810693529535937929e-02
4.066139912522814120e-02
3.307650462472128128e-02
2.552291616886058143e-02
1.816041727565854275e-02
1.117908566756637551e-02
4.709138192348655966e-03
-1.119020893707344758e-03
-6.205892414725789480e-03
-1.045181644463940955e-02
-1.387213393558109006e-02
-1.636420264183918380e-02
-1.799924666682419308e-02
-1.878239994592909023e-02
-1.873039544087606867e-02
-1.802962029479697470e-02
-1.662437713764087707e-02
-1.472261985431459058e-02
-1.237379127726229676e-02
-9.666993026066080311e-03
-6.808694278213130169e-03
-3.767583200540850549e-03
-7.447159914871445165e-04
2.245924152647869008e-03
5.106298503655196108e-03
7.755891582455655756e-03
1.019448693226479574e-02
1.232874072797352817e-02
1.419757319872829576e-02
1.570805559643181915e-02
1.693899800753746743e-02
1.781723135022354049e-02
1.835383681321026833e-02
1.859387930254911836e-02
1.842740266258745263e-02
1.801160440113259639e-02
1.719458958212217309e-02
1.602719062149581680e-02
1.452336739043725428e-02
1.256219713008554020e-02
1.029206167438933249e-02
7.554705915318730633e-03
4.401647473872765531e-03
8.424595486234264657e-04
-3.189465522723110725e-03
-7.590510658518677053e-03
-1.240577333236318747e-02
-1.758411539148696523e-02
-2.306496060103544257e-02
-2.879304106040217123e-02
-3.471796873413748874e-02
-4.069906436878618916e-02
-4.669258218203399535e-02
-5.256851387069683829e-02
-5.815003255582715941e-02
-6.345102078068473594e-02
-6.817717829192926349e-02
-7.232312382842709386e-02
-7.572815827746436079e-02
-7.817270549098517818e-02
-7.974425853995358027e-02
-8.011940981395165862e-02
-7.936366581871300008e-02
-7.736470112466650728e-02
-7.397491079070381281e-02
-6.935345144353147195e-02
-6.330886422954895565e-02
-5.598281900819652990e-02
-4.740369122437206040e-02
-3.758229234617822823e-02
-2.673647150859725583e-02
-1.492529074661166216e-02
-2.325637648607336867e-03
1.083459440306308065e-02
2.439142439144969740e-02
3.810397999628179627e-02
5.166824627079571325e-02
6.496458272199469308e-02
7.760050996585710070e-02
8.937722168590638006e-02
1.001041219075363004e-01
1.093844892714253975e-01
1.172654425406261663e-01
1.233331171407470866e-01
1.275226233019005340e-01
1.297834750361371581e-01
1.298465550933262935e-01
1.279747416265963333e-01
1.239178339825047492e-01
1.178410174288047341e-01
1.098783388575341330e-01
1.000348631127433580e-01
8.870394374696669026e-02
7.591434733180101035e-02
6.198915410995465419e-02
4.719589779878390762e-02
3.178942493074279202e-02
1.608883113074070087e-02
3.898202891705069076e-04
-1.503068534347772739e-02
-2.988337439615760746e-02
-4.383245351869973633e-02
-5.678958319284824890e-02
-6.833167358106015388e-02
-7.840335779059451338e-02
-8.678728396811644097e-02
-9.325314254671697445e-02
-9.796418215756455550e-02
-1.005464108685926866e-01
-1.012080499849438570e-01
-9.985202263386627752e-02
-9.646259610635050941e-02
-9.135766157604716109e-02
-8.435782333435552782e-02
-7.583913689659080304e-02
-6.584414440922339851e-02
-5.456918647800396843e-02
-4.234812918347855004e-02
-2.926196807093847316e-02
-1.568396972017969265e-02
-1.791490011234030382e-03
1.211048484594232089e-02
2.578740463980240191e-02
3.894635450768788726e-02
5.138417992930073563e-02
6.283938213289216868e-02
7.305755277119679869e-02
8.197433855778298029e-02
8.923533346991918691e-02
9.490711473892048111e-02
9.874516878822328647e-02
1.006827873113258776e-01
1.008450012540500068e-01
9.898857936628395471e-02
9.543344193328852365e-02
9.005691613287980513e-02
8.301210166373756971e-02
7.456554277198407243e-02
6.467926530525792972e-02
5.378208361701556500e-02
4.191825594276350070e-02
2.935806462576499853e-02
1.639691236027762677e-02
3.173652054314049682e-03
-9.990100352591920960e-03
-2.291351641998847291e-02
-3.538142754631517367e-02
-4.719014715848891123e-02
-5.812233339949425537e-02
-6.812664558340268683e-02
-7.694278525141995395e-02
-8.452827880703120411e-02
-9.082081016175785892e-02
-9.560757079331075325e-02
-9.911745591131304600e-02
-1.010605209051736453e-01
-1.015639653433086792e-01
-1.006774626202867479e-01
-9.823989392427588674e-02
-9.463295685765743537e-02
-8.960491175650409090e-02
-8.336699168096609047e-02
-7.603507487286940980e-02
-6.754133042965256017e-02
-5.824641244035517335e-02
-4.804689948272345551e-02
-3.714129289938960382e-02
-2.569797023491028273e-02
-1.377843430696723548e-02
-1.603220462220324768e-03
1.069164462742446843e-02
2.298531613283938055e-02
3.505484803038471514e-02
4.672599552218649477e-02
5.793506414174281333e-02
6.834382463081592474e-02
7.794212478494833007e-02
8.648718006030338412e-02
9.377827740095208420e-02
9.989751970667846981e-02
1.044531129937460862e-01
1.075718097514994226e-01
1.090775639553847876e-01
1.088660202351084544e-01
1.071480392217277477e-01
1.036634379173569237e-01
9.866980872245328937e-02
9.214522316497188170e-02
8.415660781556880132e-02
7.499389050506712062e-02
6.463869216585527155e-02
5.339623442385075386e-02
4.141536273025885062e-02
2.889286130192831453e-02
1.609461499378526950e-02
3.219162466603323058e-03
-9.529294652245104066e-03
-2.189469992260395514e-02
-3.367947784568563890e-02
-4.474578549867373745e-02
-5.479207218395962947e-02
-6.383040325619206146e-02
-7.158083188923056173e-02
-7.795929650989895376e-02
-8.298508004225962909e-02
-8.637720618838458375e-02
-8.836254889898571829e-02
-8.870631397107016369e-02
-8.747554363050183412e-02
-8.480111716993943283e-02
-8.052322629902047835e-02
-7.497744098893020792e-02
-6.804394269884929403e-02
-5.990803336791900718e-02
-5.074989335280195163e-02
-4.059611459270762168e-02
-2.975015965337638249e-02
-1.827559061849989841e-02
-6.401358235630184856e-03
5.683713191505368814e-03
1.776502549409197940e-02
2.968438962095300282e-02
4.117752804135611788e-02
5.206762934942620047e-02
6.219017728352855406e-02
7.123245374662322271e-02
7.924297135284785742e-02
8.584217742986305355e-02
9.100100843826647301e-02
9.463110686290134022e-02
9.647973298283200883e-02
9.680126604841599036e-02
9.526948858437202239e-02
9.205051943240229184e-02
8.718511892725873402e-02
8.062510554992315115e-02
7.272670140494263968e-02
6.339557761794145652e-02
5.292973950033746239e-02
4.150101828587673958e-02
2.928033301347271466e-02
1.658606906414837948e-02
3.583227711697765418e-03
-9.450699986749402579e-03
-2.228211262236441323e-02
-3.464071322265351721e-02
-4.638033663976471460e-02
-5.718241697298952209e-02
-6.694607222939839841e-02
-7.546533850217845840e-02
-8.252796192276659615e-02
-8.820589828812827604e-02
-9.217665289400604756e-02
-9.456810336421314633e-02
-9.525759711194103918e-02
-9.418928892461118918e-02
-9.158797439001103990e-02
-8.725709060007703910e-02
-8.148052755039568440e-02
-7.424776825980348993e-02
-6.567213466993204740e-02
-5.601962109864806055e-02
-4.530151184391030539e-02
-3.382076253714818431e-02
-2.170059851943073950e-02
-9.165303665343431036e-03
3.565344158989445546e-03
1.626793054104958350e-02
2.875028703701979285e-02
4.076186432873199483e-02
5.207477024197317006e-02
6.256314510943368490e-02
7.188896611433508166e-02
8.005425715646788398e-02
8.675624840843812469e-02
9.188898539239977181e-02
9.545073481977008056e-02
9.716249222338659008e-02
9.723746972928332122e-02
9.545558546202263794e-02
9.191517326962114764e-02
8.674821462651596815e-02
7.988779685924925211e-02
7.168293648356661996e-02
6.211006725870828193e-02
5.143970233852437207e-02
3.989278526746784653e-02
2.764346849410621865e-02
1.501053859370811601e-02
2.181774536673029407e-03
-1.055157403122536190e-02
-2.297646303763599407e-02
-3.478602687461546800e-02
-4.586782342185757866e-02
-5.590317482002055832e-02
-6.475311319672416577e-02
-7.229740194150444110e-02
-7.825546914852983538e-02
-8.278764017377501783e-02
-8.556166758417882434e-02
-8.666690982538648169e-02
-8.609886238572743433e-02
-8.372822402520882501e-02
-7.988747698777028117e-02
-7.436586971738502749e-02
-6.742354455398025248e-02
-5.915435629962151332e-02
-4.963093973141442100e-02
-3.918641715613816606e-02
-2.783870074187489579e-02
-1.588648794632098460e-02
-3.500486208704388109e-03
9.083581696075570741e-03
2.165391084756234513e-02
3.396106556250139824e-02
4.580211584080851744e-02
5.696281867678808924e-02
6.715910791311377470e-02
7.635713448550618399e-02
8.418714677026783999e-02
9.063728470175737295e-02
9.551732581336484784e-02
9.864328402590229194e-02
1.001580854865988940e-01
9.975665887312198943e-02
9.763853302326411243e-02
9.372637751715043319e-02
8.804167948587540704e-02
8.085050573405766494e-02
7.206975802766478478e-02
6.202824080625221614e-02
5.081439629125224927e-02
3.864276484820811791e-02
2.579682437504288162e-02
1.244976150608703182e-02
-1.107856699995151632e-03
-1.464517179737443928e-02
-2.788379269028086818e-02
-4.063943236115018925e-02
-5.257665185644725542e-02
-6.360366248122703570e-02
-7.342471167296361900e-02
-8.185477349376962808e-02
-8.886872297340046856e-02
-9.412333209302940762e-02
-9.777913480896144316e-02
-9.957037794726872337e-02
-9.949892892907946651e-02
-9.768225657344532797e-02
-9.391578220933521903e-02
-8.853614548763574787e-02
-8.140628125311094587e-02
-7.271117843984184481e-02
-6.265668749045193164e-02
-5.126835134916694903e-02
-3.890750827692032732e-02
-2.564876155525548304e-02
-1.177268486845251677e-02
2.481144360693503508e-03
1.686165390559914851e-02
3.113878675911127894e-02
4.501342841837793762e-02
5.824965279315456879e-02
7.063315728414575057e-02
8.180649798516852200e-02
9.177958026934947278e-02
1.001293772785720043e-01
1.068033209749648937e-01
1.116840488510755375e-01
1.144946210949269738e-01
1.155008581559420489e-01
1.143428927134944456e-01
1.112112526258419026e-01
1.061435164112379259e-01
9.909800518963909899e-02
9.047656445925367219e-02
8.017315818145091810e-02
6.853789805459696571e-02
5.575925625383804096e-02
4.203243953576471514e-02
2.773069294037549745e-02
1.302496288014827822e-02
-1.759730786216448430e-03
-1.636165607076782436e-02
-3.048862564333916156e-02
-4.395344723290722094e-02
-5.641971012548280956e-02
-6.776801536372667467e-02
-7.775832242180140408e-02
-8.617396439412390585e-02
-9.306801845793934158e-02
-9.809755149177769307e-02
-1.014071105901864361e-01
-1.028406852016575668e-01
-1.023600934447586319e-01
-1.001917867834462988e-01
-9.612537071776336428e-02
-9.048610537692776401e-02
-8.323834448516131967e-02
-7.452712280394721556e-02
-6.463318396442432889e-02
-5.356360062288920143e-02
-4.166707650341167773e-02
-2.905454400694259740e-02
-1.598055113536958616e-02
-2.682892850023640540e-03
1.061277950232617819e-02
2.368463717195562826e-02
3.628221623186148048e-02
4.816319763074852073e-02
5.919076574625069254e-02
6.902313924538817924e-02
7.766145085977430029e-02
8.479379449544970082e-02
9.031929292853961566e-02
9.423676891025105362e-02
9.625937562653763546e-02
9.662502426835246905e-02
9.509309255329949362e-02
9.177505962184760724e-02
8.680992064199592739e-02
8.010959397324822484e-02
7.205914058834778091e-02
6.260066625578349087e-02
5.201205163788442942e-02
4.052222335747388687e-02
2.826897092460756850e-02
1.560632574678207096e-02
2.681178139009795635e-03
-1.021698786110064247e-02
-2.286606938479227372e-02
-3.499804180684919219e-02
-4.647192780850300381e-02
-5.699894260035224397e-02
-6.644334173651758602e-02
-7.467117862091661451e-02
-8.142103338212611230e-02
-8.683518936763093277e-02
-9.058054678156995942e-02
-9.274219535041144935e-02
-9.329668536830169889e-02
-9.209982200828817356e-02
-8.947549172595151146e-02
-8.517924772502474817e-02
-7.945611790787732165e-02
-7.238016514195791395e-02
-6.397136760580143799e-02
-5.457671054839191571e-02
-4.414596105424048456e-02
-3.296151010478647059e-02
-2.118047394381211354e-02
-8.964802325483963580e-03
3.434728043432029414e-03
1.584771473828985866e-02
2.807491093949117736e-02
3.989728695371381334e-02
5.109393391045308208e-02
6.156802505494200772e-02
7.100299707710823471e-02
7.936766729877620108e-02
8.643657986989659869e-02
9.204838485924207725e-02
9.627272165887346134e-02
9.879985235719489223e-02
9.979577955760887686e-02
9.911687659293472175e-02
9.675794605955490013e-02
9.293154950863753705e-02
8.748286221605103274e-02
8.072343641914597745e-02
7.265952667158057099e-02
6.344807341191265049e-02
5.336983889260533964e-02
4.247792254038402354e-02
3.108958626847435278e-02
1.935599251067347121e-02
7.494329972476145713e-03
-4.264261604133864555e-03
-1.571753558212675081e-02
-2.671281852559565309e-02
-3.701827659967363987e-02
-4.649278518569015944e-02
-5.504941812248244359e-02
-6.243575223417483638e-02
-6.875501083202763264e-02
-7.375599358236742398e-02
-7.744098355097384090e-02
-7.987509913438102516e-02
-8.082549870960496763e-02
-8.060479217844249145e-02
-7.898140397074659980e-02
-7.607260368808049789e-02
-7.203534204883146885e-02
-6.669954497032179463e-02
-6.044859266689547178e-02
-5.312189922397944630e-02
-4.487894251344979463e-02
-3.590743880935192561e-02
-2.614267353794381618e-02
-1.589588832737745885e-02
-5.152367497887579834e-03
5.949880981052525948e-03
1.721798822273609003e-02
2.857826504655303426e-02
3.987903954648803345e-02
5.093437050297203172e-02
6.166613992528765381e-02
7.188397572919456857e-02
8.139220967774193904e-02
9.021855874080463022e-02
9.801190069047636955e-02
1.047821429214050304e-01
1.103750123000693806e-01
1.145659235735587006e-01
1.175318043204035129e-01
1.189090611666269864e-01
1.188169564913511278e-01
1.172051154979860260e-01
1.139363271499853059e-01
1.093077034013752030e-01
1.031003523219721635e-01
9.553742218284534682e-02
8.672378458277719970e-02
7.666544004022392278e-02
6.572257421026583835e-02
5.388521101987694267e-02
4.140526467258169585e-02
2.852019106671016199e-02
1.532425729681783332e-02
2.138491641234803280e-03
-1.089693832943821467e-02
-2.362889223521015547e-02
-3.577500742290683905e-02
-4.727092581901225915e-02
-5.793274351007876577e-02
-6.758192136477111922e-02
-7.625447452599340425e-02
-8.370604747680902846e-02
-8.998051877127144493e-02
-9.505895584021666067e-02
-9.880322917406481054e-02
-1.014251555254304660e-01
-1.027565335030816707e-01
-1.029379301213638187e-01
-1.020710165500112176e-01
-1.000806330760081880e-01
-9.725409659966412212e-02
-9.350722214325078718e-02
-8.900184396958368827e-02
-8.389001471554614897e-02
-7.814861518302720911e-02
-7.201836507011022404e-02
-6.550183029547976266e-02
-5.870131463362256857e-02
-5.176515245818548439e-02
-4.470859722989208723e-02
-3.764021146827395414e-02
-3.065467565506728095e-02
-2.375392046538665758e-02
-1.705371306926035252e-02
-1.060891952005247121e-02
-4.363172337438955481e-03
1.494312522203398389e-03
7.053139494841456809e-03
1.224583906311880674e-02
1.695759617520402676e-02
2.140418279347443622e-02
2.530244745481465343e-02
2.879140785967846186e-02
3.185916319227945909e-02
3.430444048574862737e-02
3.647117181230671856e-02
3.799083460889822461e-02
3.900411437664057235e-02
3.954607807507946882e-02
3.933369850142251489e-02
3.876814192385817648e-02
3.743981108934824054e-02
3.545293902239424894e-02
3.285785353616738763e-02
2.937671151157137187e-02
2.530393246408013316e-02
2.034546484864587293e-02
1.453700343827774195e-02
7.918862220657987144e-03
3.784063115093174411e-04
-8.022791084019983282e-03
-1.726004828512549619e-02
-2.734460148509318400e-02
-3.820804153474102738e-02
-4.959669848699384959e-02
-6.172464669789579778e-02
-7.404214922180216152e-02
-8.656131699888704178e-02
-9.909938630961516448e-02
-1.109434782797486391e-01
-1.225270367901534485e-01
-1.327610272301052718e-01
-1.416590379231474905e-01
-1.489107314599880383e-01
-1.535249868878092450e-01
-1.560656589452976695e-01
-1.552472195111169462e-01
-1.511769831494454708e-01
-1.435940089578689460e-01
-1.316862613997863696e-01
-1.160961278529865637e-01
-9.597331025854528852e-02
-7.163550305489418957e-02
-4.319975271389685928e-02
-1.051834868380410737e-02
2.571501598173585312e-02
6.534117133772009145e-02
1.078485588952441815e-01
1.524845860933182473e-01
1.985809741329867817e-01
2.454838579460373871e-01
2.919238271089054648e-01
3.374559519867075252e-01
3.807681640554513303e-01
4.207542670387522943e-01
4.570302360358931559e-01
4.877609100757823168e-01
5.130015530203554386e-01
5.313770969726825388e-01
5.420791517739410592e-01
5.453087161435189456e-01
5.395926303763793896e-01
5.258081218041420479e-01
5.032063919220949311e-01
4.718697548996809710e-01
4.327625385212955367e-01
3.854994958231665048e-01
3.316443086998398515e-01
2.715205382983684745e-01
2.060599031533491554e-01
1.368011550242320962e-01
6.447831448774392349e-02
-9.340563411704945820e-03
-8.335870389967769967e-02
-1.565172128668675944e-01
-2.272336180938834271e-01
-2.943049001359712147e-01
-3.570196004638820364e-01
-4.136561033714021285e-01
-4.639158158970845824e-01
-5.067195839399218915e-01
-5.412380496614516145e-01
-5.679872633266886961e-01
-5.855198639053008636e-01
-5.946623801729121750e-01
-5.950850902437327949e-01
-5.867921038780836707e-01
-5.711870819386665188e-01
-5.475806431685571463e-01
-5.175436626055334166e-01
-4.814154022661331078e-01
-4.398895748600577527e-01
-3.945695923945927164e-01
-3.455817905620602315e-01
-2.944440467745362278e-01
-2.419273344062476128e-01
-1.888777800540768215e-01
-1.364762464967439470e-01
-8.539499472645736833e-02
-3.637522108419886935e-02
9.637466885251723403e-03
5.221402954739635255e-02
9.087812078636176016e-02
1.248428801683033329e-01
1.544270925682314222e-01
1.787418122857754033e-01
1.980706649848625600e-01
2.125610331045181267e-01
2.216977388473681254e-01
2.266186062127746037e-01
2.266683232056882491e-01
2.227351182775083038e-01
2.152846183468228036e-01
2.042373149691251721e-01
1.909644863798060921e-01
1.751249834896685120e-01
1.577926579869170509e-01
1.394138675938168814e-01
1.202482295007946261e-01
1.013015103993736427e-01
8.252564149088760515e-02
6.471106521022595981e-02
4.808224090620861341e-02
3.299795646089991735e-02
1.978269010445261183e-02
8.592356540989483024e-03
-3.333206460340173115e-04
-7.005780199421430404e-03
-1.119438124521507025e-02
-1.319601764932795684e-02
-1.277855261838186859e-02
-1.022923369515786780e-02
-5.692016823425407115e-03
8.165641170992396849e-04
8.691065919511357235e-03
1.810161229820291331e-02
2.847039926374006144e-02
3.963492669880650660e-02
5.134620305248847882e-02
6.304714991566180704e-02
7.475376586547440028e-02
8.589939247468156291e-02
9.638005800866926431e-02
1.058449705572849786e-01
1.140284986549400803e-01
1.208108529528773289e-01
1.258725357472845474e-01
1.292186194308682645e-01
1.305821982093582634e-01
1.300469146063745751e-01
1.274895234944711797e-01
1.229191726032301396e-01
1.164782858297857687e-01
1.081267208179646916e-01
9.816914841708757056e-02
8.664673815623695485e-02
7.379633344045498367e-02
5.988214727510280527e-02
4.509115271483675469e-02
2.974761034010405675e-02
1.410684820846094464e-02
-1.578604303974366890e-03
-1.699218893877595810e-02
-3.185728819923010907e-02
-4.600648362003291469e-02
-5.905752221649625960e-02
-7.093896336492871990e-02
-8.136771637962111892e-02
-9.015058626205391112e-02
-9.733897041984082565e-02
-1.025745346394547619e-01
-1.060326206024354012e-01
-1.075263184462766919e-01
-1.070519622479903649e-01
-1.048189372361616051e-01
-1.006341633049757378e-01
-9.483981649460866692e-02
-8.738866155882392406e-02
-7.847226212196423134e-02
-6.834597767007080660e-02
-5.706596852896743399e-02
-4.498313789442216770e-02
-3.221797820844991833e-02
-1.907448979553679966e-02
-5.758124042484699667e-03
7.439562458944032342e-03
2.031619941118111353e-02
3.260048319943104761e-02
4.401458365903974240e-02
5.446400098747204710e-02
6.354588848899116182e-02
7.130637893560605456e-02
7.741434943968525384e-02
8.175888560892656531e-02
8.439004734153214560e-02
8.498078951271617609e-02
8.383201620040962865e-02
8.069377489964996153e-02
7.569148393906720285e-02
6.901510061716077671e-02
6.056157935975706175e-02
5.077630318386764513e-02
3.960256806384312295e-02
2.734192896802877318e-02
1.425914002003908498e-02
4.976625999491496657e-04
-1.355462390888863278e-02
-2.774026992671260045e-02
-4.175064222225022270e-02
-5.535161420410070893e-02
-6.825259850402222439e-02
-8.031599401163465324e-02
-9.123159408047565311e-02
-1.008532820755464882e-01
-1.090576395909571006e-01
-1.155467215605654463e-01
-1.204977865563430645e-01
-1.235486873335862879e-01
-1.247795509185024576e-01
-1.241958928338292578e-01
-1.216136569589342104e-01
-1.174002284446426236e-01
-1.112969898750845732e-01
-1.035422351982290406e-01
-9.425739508068464723e-02
-8.343214704148758931e-02
-7.145711866434339976e-02
-5.829872557588082482e-02
-4.423072048901350445e-02
-2.947854443009228012e-02
-1.419595597659505798e-02
1.331220327509987809e-03
1.687549155555352620e-02
3.225228914592526142e-02
4.715839567396448717e-02
6.136050387234527614e-02
7.474414478981485088e-02
8.690618797983591659e-02
9.784367027768911540e-02
1.072451949883698741e-01
1.149314942330257883e-01
1.209754929180392596e-01
1.249786794119352035e-01
1.271519187965002573e-01
1.272821111768554503e-01
1.253605728477188430e-01
1.216205782115535733e-01
1.158502310775151589e-01
1.084179628369533188e-01
9.929685385716030543e-02
8.866967609214766732e-02
7.685045695794727461e-02
6.389357153352379082e-02
5.017483181975795903e-02
3.586480296008055096e-02
2.123573866649654598e-02
6.562841366768603149e-03
-7.889779758024576678e-03
-2.192272988126247810e-02
-3.523327191507329148e-02
-4.761935560044448096e-02
-5.894475743328568551e-02
-6.887096553949703659e-02
-7.748411378741304478e-02
-8.444363373121029082e-02
-8.972801730845916812e-02
-9.336491435131916150e-02
-9.507411782659924704e-02
-9.519415800336569755e-02
-9.343807998971127848e-02
-8.996942918245595666e-02
-8.493702066921282601e-02
-7.820834965386286308e-02
-7.022718487371081009e-02
-6.084786519037279490e-02
-5.033749560977163889e-02
-3.890623637180944117e-02
-2.660493622161971827e-02
-1.380515823170828937e-02
-5.704074653879436657e-04
1.284663080260983921e-02
2.622278717848908550e-02
3.935260077005710982e-02
5.207163376200021898e-02
6.410267573905133187e-02
7.531667319932877636e-02
8.552149956489196736e-02
9.445237516569436609e-02
1.021949168121345924e-01
1.083580602648994556e-01
1.129977585034404874e-01
1.160064904744829012e-01
1.171885986488580139e-01
1.168291231984475292e-01
1.146001677729072826e-01
1.107306496608639057e-01
1.052472422676822977e-01
9.810775389986167716e-02
8.970317566115217078e-02
7.989825751226953265e-02
6.900555898485623285e-02
5.718987881915755384e-02
4.455003973306464332e-02
3.145041583833598636e-02
1.796980709035706641e-02
4.355083441949660072e-03
-9.147455541206401392e-03
-2.239303428686771624e-02
-3.517239097790266639e-02
-4.726053665950621929e-02
-5.860583249651309806e-02
-6.895326476667096305e-02
-7.820825190936377125e-02
-8.636718222973978343e-02
-9.314681934631482974e-02
-9.871398793581476205e-02
-1.028473609698393049e-01
-1.055355528593484582e-01
-1.069301538079868025e-01
-1.067650273695460589e-01
-1.053388531270612188e-01
-1.024924011938089380e-01
-9.828152452301353037e-02
-9.292361487194948644e-02
-8.624827296468223770e-02
-7.856383122766703864e-02
-6.982609741925642488e-02
-6.013582054439311347e-02
-4.971718316878202815e-02
-3.856857539463554724e-02
-2.691370793259000027e-02
-1.488192430349185441e-02
-2.593997191924165158e-03
9.741397469192178762e-03
2.194229748448952438e-02
3.392349260741852474e-02
4.538134706952223069e-02
5.622321575173170466e-02
6.627939394632220704e-02
7.526456404457818050e-02
8.326149955960024385e-02
8.988684710070880823e-02
9.514905329214402852e-02
9.896938053816867198e-02
1.011051381744373645e-01
1.018154714728998489e-01
1.007896700691025133e-01
9.818939027902845451e-02
9.407903699201097814e-02
8.837659481057255628e-02
8.146949730533718792e-02
7.323320315784884182e-02
6.394471347700644848e-02
5.380062277662251563e-02
4.288454595020265575e-02
3.157371076535544357e-02
1.993885996128417701e-02
8.229636136250361930e-03
-3.316546130238709218e-03
-1.455381770784308290e-02
-2.528661824931237659e-02
-3.532461593044841641e-02
-4.459909920964978680e-02
-5.293234784063076404e-02
-6.022618751182142599e-02
-6.653758573558407607e-02
-7.164080286896443162e-02
-7.568271618385187527e-02
-7.857233036930148795e-02
-8.027639027748036116e-02
-8.104035428594003054e-02
-8.063133807441016931e-02
-7.931505915356140690e-02
-7.705321232763052974e-02
-7.382835657970372722e-02
-6.993722355003510749e-02
-6.516345678495717719e-02
-5.975387816697248083e-02
-5.370349708812432316e-02
-4.698007309278762200e-02
-3.982378466934656525e-02
-3.210045455794089536e-02
-2.395378463113186085e-02
-1.544476561368951853e-02
-6.552987290385628438e-03
2.566967486531779134e-03
1.188297803183432401e-02
2.136004025930029679e-02
3.082133465214036833e-02
4.022837027089476436e-02
4.949037497945680403e-02
5.837998237676741281e-02
6.694418528251136480e-02
7.489420251042402943e-02
8.213501317662315337e-02
8.863154743878078057e-02
9.404097649143541848e-02
9.848933826845086836e-02
1.016684402099260059e-01
1.035024897990819148e-01
1.040450211013639881e-01
1.029994259692470077e-01
1.005889850550894665e-01
9.662557555818775124e-02
9.114384362097718850e-02
8.431936953788850275e-02
7.604600838845908262e-02
6.662002316176637851e-02
5.606759375526432221e-02
4.454341067007398097e-02
3.231268089809191668e-02
1.948820567158116371e-02
6.324646380176335465e-03
-6.947989260424622740e-03
-2.015856132924821395e-02
-3.305104245996148132e-02
-4.538123452623023246e-02
-5.708334482473056276e-02
-6.780401441602537660e-02
-7.748758576006259391e-02
-8.597437575906519136e-02
-9.300775093141695760e-02
-9.877621342523257297e-02
-1.028944020190076802e-01
-1.054800782260661846e-01
-1.064950937556655569e-01
-1.057682231688866076e-01
-1.036503042764969906e-01
-9.984520925453839457e-02
-9.459203607512643719e-02
-8.795911631337319236e-02
-7.990832926531911407e-02
-7.080870045642648214e-02
-6.055252199579645028e-02
-4.939774632858418002e-02
-3.750371286201709120e-02
-2.496608761515885927e-02
-1.205851714041468285e-02
1.092987629192695032e-03
1.431023881548480065e-02
2.735709059336106919e-02
4.005192987012471534e-02
5.227197949043308617e-02
6.369999409466345353e-02
7.430629637412401733e-02
8.382021163450090184e-02
9.206556208928237672e-02
9.908074013177940731e-02
1.044890790645616324e-01
1.084370624324327570e-01
1.107027831162396281e-01
1.112166694062313166e-01
1.101629581822390208e-01
1.072718868656798857e-01
1.028399395599282201e-01
9.678675222794104471e-02
8.920146149032033567e-02
8.036585123609570058e-02
7.022742417938136750e-02
5.913137256084385202e-02
4.717713533113315760e-02
3.456352344870342042e-02
2.157250024802490410e-02
8.361133000636931240e-03
-4.835700450701705191e-03
-1.777896593611047807e-02
-3.028485991535072655e-02
-4.217579589950614521e-02
-5.317902282068976555e-02
-6.329246417370876232e-02
-7.221021641166470995e-02
-7.986817225616786586e-02
-8.623310306073231346e-02
-9.102455010473475827e-02
-9.447472617374981507e-02
-9.628291726375323711e-02
-9.652997517743606981e-02
-9.529616543513423632e-02
-9.238676389777819575e-02
-8.815869192662460774e-02
-8.240295311059307737e-02
-7.530529401909247245e-02
-6.701353956653570421e-02
-5.749566515729297167e-02
-4.708782223555309232e-02
-3.577502845947415355e-02
-2.377910695202338498e-02
-1.129211793794641407e-02
1.522883648063491809e-03
1.446844833356347032e-02
2.730762456128691534e-02
3.986616855333544041e-02
5.193071792071784348e-02
6.320388184893159511e-02
7.368730070697893098e-02
8.295989856181613942e-02
9.098147001540310419e-02
9.757521949822019203e-02
1.024636937205126302e-01
1.058358895111187886e-01
1.072882416414336765e-01
1.069650040915779698e-01
1.048091019885201980e-01
1.007179196436638058e-01
9.502119309805999448e-02
8.752501289512273908e-02
7.853242049837315386e-02
6.815384340341341940e-02
5.651115720142833171e-02
4.397025145781363609e-02
3.061388703647598478e-02
1.676958193251091786e-02
2.674752717836755608e-03
-1.142147639962120230e-02
-2.526375508028731037e-02
-3.857284058592510417e-02
-5.117777789876699207e-02
-6.281179718854688898e-02
-7.326127337308105392e-02
-8.248247194535943128e-02
-9.014246605931355849e-02
-9.632794834017573138e-02
-1.008240892591888288e-01
-1.035620799646556345e-01
-1.046992850165258948e-01
-1.039718012154881716e-01
-1.016800262951999684e-01
-9.770444917813028707e-02
-9.213007814102157356e-02
-8.521978388902337609e-02
-7.685703307860193567e-02
-6.740804712988036906e-02
-5.687957329097145798e-02
-4.544770339788782587e-02
-3.337732484921040327e-02
-2.073441332272744908e-02
-7.791249127693054138e-03
5.291780513765169565e-03
1.833394432207927430e-02
3.113128299292490520e-02
4.345517984031831843e-02
5.523111904896953889e-02
6.615543888889463542e-02
7.612399569154976176e-02
8.502393566895499744e-02
9.255051949998369110e-02
9.885530355553681647e-02
1.035726545832691692e-01
1.067330949836411136e-01
1.083365149484480788e-01
1.081315700352743908e-01
1.064533995370938457e-01
1.030099113825919677e-01
9.797726995622266233e-02
9.147891908780152181e-02
8.342719612170178267e-02
7.423073299685359339e-02
6.379319485429751913e-02
5.237231772900916016e-02
4.018552483518602475e-02
2.733443184532731440e-02
1.413574802671309534e-02
7.334576883712951544e-04
-1.266334746263209077e-02
-2.581557086849385618e-02
-3.850160367150642221e-02
-5.063216712087825061e-02
-6.187358075320559953e-02
-7.217872987325363310e-02
-8.135300809536458178e-02
-8.916228105184090258e-02
-9.575449841147053165e-02
-1.007274455745992142e-01
-1.042167057830451077e-01
-1.061053150454611266e-01
-1.062343235965161892e-01
-1.049040629924578444e-01
-1.017811909734931547e-01
-9.712550894657925871e-02
-9.092178682581117388e-02
-8.314256355958883626e-02
-7.412798213706314754e-02
-6.374172450448424565e-02
-5.227384419773157403e-02
-3.984220108078258965e-02
-2.656309868211229053e-02
-1.273070226504285224e-02
1.529831367613758387e-03
1.599553607850963399e-02
3.040811371947360620e-02
4.456265414205317493e-02
5.826643457306972945e-02
7.118733452500078385e-02
8.325699474192641003e-02
9.413831046956615267e-02
1.036566481596569861e-01
1.117628349633528057e-01
1.180827046402856545e-01
1.227564675952581147e-01
1.254943756936785781e-01
1.262752898431108439e-01
1.252148926817215902e-01
1.220856667675774554e-01
1.172141301510626898e-01
1.104838321876939616e-01
1.020672220517410828e-01
9.221184401073778680e-02
8.093707184452836323e-02
6.862683111270442837e-02
5.538590540772778820e-02
4.148833052109716923e-02
2.721413255215046623e-02
1.278853888658740973e-02
-1.539257518651220100e-03
-1.548884196746776881e-02
-2.885217927742432867e-02
-4.142398627344030804e-02
-5.290199415448711140e-02
-6.330421527678874172e-02
-7.226451275461903689e-02
-7.976330092766592550e-02
-8.571482449152473260e-02
-8.987219435654482391e-02
-9.250649144184337758e-02
-9.327156771663316914e-02
-9.234866625253083938e-02
-8.975879351196770772e-02
-8.540855651633778856e-02
-7.968551925967005956e-02
-7.238745306884622477e-02
-6.381674334606945997e-02
-5.407985365515649567e-02
-4.328903992595365541e-02
-3.176611809838351258e-02
-1.957449194582471658e-02
-7.010372868772546048e-03
5.748900300590908431e-03
1.842359699451521365e-02
3.086046585519518562e-02
4.274119431597412505e-02
5.389434790974734907e-02
6.411179673079948904e-02
7.307554419478790031e-02
8.083636315146129625e-02
8.697116797340641303e-02
9.151835829601252803e-02
9.432242773986619644e-02
9.518925291168751912e-02
9.436243710271548235e-02
9.151930676521340124e-02
8.691934684613707163e-02
8.054636857565990182e-02
7.242681439122977682e-02
6.292823586127471724e-02
5.196680509279196641e-02
3.992281030653365564e-02
2.694158096720737985e-02
1.322868521003707845e-02
-8.574891231458996350e-04
-1.516738098580855745e-02
-2.938998753931843996e-02
-4.328173869846183019e-02
-5.660977669822315345e-02
-6.916720379811233665e-02
-8.068379722159796374e-02
-9.108470434110542413e-02
-1.001170637434057181e-01
-1.076619503260536487e-01
-1.137219420829807676e-01
-1.180281392440168386e-01
-1.207714769673282340e-01
-1.217500879897833038e-01
-1.210008320417622213e-01
-1.186878956084957276e-01
-1.146283321259254501e-01
-1.091682411581253453e-01
-1.022020010580837190e-01
-9.387440494285698156e-02
-8.442240230235938114e-02
-7.380208190501647003e-02
-6.234974356952605740e-02
-5.010999944066893419e-02
-3.725303551904041166e-02
-2.402468773580287292e-02
-1.053941001679444683e-02
3.007460479917942187e-03
1.638410452978221465e-02
2.947353944810522305e-02
4.205286543647403230e-02
5.388918778390329456e-02
6.498991518454556859e-02
7.497314331104174001e-02
8.383895726714030161e-02
9.142107847076877403e-02
9.747516912299994396e-02
1.022093840215062693e-01
1.052200046579226389e-01
1.066599609428432044e-01
1.064684866121827084e-01
1.045217894716734680e-01
1.011588536204200278e-01
9.612811094849203764e-02
8.970877135440398498e-02
8.197744730686362669e-02
7.300409321449746747e-02
6.313107932347947204e-02
5.237008826327720773e-02
4.101680362272221159e-02
2.925452974833703951e-02
1.729691561557858415e-02
5.357519926756473469e-03
-6.328220210224444475e-03
-1.759511521098675729e-02
-2.823527675864998324e-02
-3.801338014107563668e-02
-4.693912134116422219e-02
-5.466383959878785143e-02
-6.124553248181401760e-02
-6.651738738275028706e-02
-7.031916807701504846e-02
-7.287081782440067712e-02
-7.381819533833258729e-02
-7.341575375534176162e-02
-7.156014192169872501e-02
-6.819680836168072469e-02
-6.365226430476135511e-02
-5.765759446233416352e-02
-5.054936856718219435e-02
-4.230252710886944073e-02
-3.295794650513294427e-02
-2.283526215965981862e-02
-1.183095862716625896e-02
-2.402054605819014567e-04
1.185005817213777117e-02
2.432647811134051180e-02
3.693969356234828860e-02
4.958497734564318304e-02
6.208972809833554485e-02
7.423409097252441080e-02
8.587314336503172607e-02
9.684888985023848429e-02
1.068915557211449069e-01
1.159893822202813646e-01
1.238385320172250698e-01
1.303347001820152062e-01
1.354315095614267717e-01
1.388308770873334375e-01
1.406909781900536893e-01
1.407515935126155415e-01
1.390287997532033137e-01
1.356181034626048332e-01
1.303561307709372452e-01
1.235384063016162215e-01
1.150872146284686454e-01
1.051607287644372030e-01
9.399529504280794423e-02
8.164308223977705115e-02
6.843054717695794265e-02
5.451547181994503138e-02
4.010879242439534947e-02
2.551518386786798959e-02
1.094280884248114566e-02
-3.411776182651336375e-03
-1.721739686151493517e-02
-3.036589404630251135e-02
-4.258990553356636205e-02
-5.366650110000805579e-02
-6.363928527532784762e-02
-7.212114371901293119e-02
-7.920832651814446734e-02
-8.473410820233612251e-02
-8.859211143437373259e-02
-9.101020613055187114e-02
-9.169331136879166344e-02
-9.091006172189372569e-02
-8.860042402581004561e-02
-8.482883096272697543e-02
-7.986906823107173259e-02
-7.362104374664289741e-02
-6.640710876019581543e-02
-5.826071802233743352e-02
-4.940132047835086443e-02
-4.001275072712606046e-02
-3.023849239087700660e-02
-2.032016693270105590e-02
-1.037544665210626132e-02
-7.117027850587162065e-04
8.650826045231275671e-03
1.735591703459843718e-02
2.534002937708517561e-02
3.242661566434037329e-02
3.832297400665207049e-02
4.318354787015236951e-02
4.655849170635756318e-02
4.860098077892666818e-02
4.913909339736463600e-02
4.800109849948420299e-02
4.548669651557958604e-02
4.121642608870933200e-02
3.552984537727821301e-02
2.834256783731337048e-02
1.966314856579574194e-02
9.873866266945930878e-03
-1.206564452552938514e-03
-1.315764917927693053e-02
-2.592687770252920590e-02
-3.935708094847863853e-02
-5.308317243500298988e-02
-6.706416164468992358e-02
-8.095836362590454194e-02
-9.459537778666805841e-02
-1.077799344670360288e-01
-1.202697023895465955e-01
-1.318730679376530213e-01
-1.424596728209537588e-01
-1.518022738325625898e-01
-1.597760341599284706e-01
-1.663104803220242789e-01
-1.711690132065545877e-01
-1.744560762173840707e-01
-1.759604374540832683e-01
-1.756727037098529953e-01
-1.736788978417608820e-01
-1.698012672575464899e-01
-1.642979124323437901e-01
-1.570645578211527504e-01
-1.481904873006800738e-01
-1.378854566388752478e-01
-1.261132459776683756e-01
-1.131633425502560908e-01
-9.913299723782469097e-02
-8.415253024617183608e-02
-6.853191638633940319e-02
-5.239712218739669969e-02
-3.596168813868913516e-02
-1.955597826276231702e-02
-3.264399022025589545e-03
1.254138570629621634e-02
2.766021852482285909e-02
4.201175727481500088e-02
5.514286280635013332e-02
6.710863794156918249e-02
7.755935285614051766e-02
8.639246304052497494e-02
9.365990721474770631e-02
9.901203510100911598e-02
1.026906080047400444e-01
1.044701278908186926e-01
1.044941427133327799e-01
1.028989994048951084e-01
9.962746113101074441e-02
9.505286787244840441e-02
8.912499783169533507e-02
8.224541910122259991e-02
7.452038762018475815e-02
6.622756794511693024e-02
5.770001754928340970e-02
4.902377101911081780e-02
4.071623634434025363e-02
3.271272392888017327e-02
2.551909097041440977e-02
1.923044240332331956e-02
1.398529853091750631e-02
1.022408534822893608e-02
7.643271900769441768e-03
6.814721548645506777e-03
7.507549536136552334e-03
9.851924106774699944e-03
1.408835187543108422e-02
1.972875896626916786e-02
2.726948731617726690e-02
3.622177023446891686e-02
4.667281804537327938e-02
5.864489638905399926e-02
7.159012582630583377e-02
8.583040564099837788e-02
1.007842552458304702e-01
1.164628557731633568e-01
1.327287777159773252e-01
1.490933031220793015e-01
1.656621440437399673e-01
1.819356964316757030e-01
1.978286630462147144e-01
2.131401786429725775e-01
2.275223504101483163e-01
2.408978243555328913e-01
2.529740464307293490e-01
2.635999224869741142e-01
2.726112978775721007e-01
2.798580347439406646e-01
2.851797705355913481e-01
2.885460183647520771e-01
2.898323306862601867e-01
2.889788767376584855e-01
2.860727983157862475e-01
2.809818405980741285e-01
2.739129056587119582e-01
2.648713685568480081e-01
2.538951065959386688e-01
2.413047605208047119e-01
2.270423835050362771e-01
2.114448789922435679e-01
1.946876672216770465e-01
1.768118253385160821e-01
1.583015697732112481e-01
1.391231713783230017e-01
1.195922125787841767e-01
1.000062493117826190e-01
8.028312080444723053e-02
6.096694192170445253e-02
4.194914164962437741e-02
2.343764917420296245e-02
5.746856618360567451e-03
-1.137896185088984637e-02
-2.740901182111438877e-02
-4.259096055546358200e-02
-5.678858185859227831e-02
-6.977904620442892947e-02
-8.192467274071224548e-02
-9.274326693511138198e-02
-1.026303217045042709e-01
-1.114127232455570105e-01
-1.190624244681678656e-01
-1.259187265281821178e-01
-1.315908437139926002e-01
-1.366044053201583008e-01
-1.406574092258690567e-01
-1.440100721584166021e-01
-1.468578700540791038e-01
-1.489681827950596615e-01
-1.509611000638347023e-01
-1.523797817915670538e-01
-1.538104152131990199e-01
-1.552264111468978081e-01
-1.566053800706586063e-01
-1.585883520800670243e-01
-1.605907365249485408e-01
-1.634540891370905302e-01
-1.668886399785997343e-01
-1.710653211130307716e-01
-1.765226196289740035e-01
-1.825861526719341210e-01
-1.901728496866283702e-01
-1.987178499406922760e-01
-2.084913665137611283e-01
-2.197929505138942474e-01
-2.318952747818658899e-01
-2.455773681408679465e-01
-2.600418402147170460e-01
-2.755461170345904209e-01
-2.920810779265854418e-01
-3.089347060303807568e-01
-3.266092419584726847e-01
-3.442104329779181460e-01
-3.619310164273907837e-01
-3.795099525916360017e-01
-3.963788133408033820e-01
-4.127555853640925698e-01
-4.278666009115347224e-01
-4.418679909234350944e-01
-4.543973896435613002e-01
-4.651768367932808679e-01
-4.742129280890402532e-01
-4.810513210675257390e-01
-4.858553200876342126e-01
-4.882890240501004953e-01
-4.884419804024021095e-01
-4.861643833962625005e-01
-4.813969914622345803e-01
-4.743141404461428401e-01
-4.646348871247074075e-01
-4.527962393814189968e-01
-4.384974259837803867e-01
-4.220247842881585942e-01
-4.035426759270690500e-01
-3.827799383676876444e-01
-3.604516892761538416e-01
-3.360976120972032910e-01
-3.102431134596407847e-01
-2.830358686430395898e-01
-2.541644738434353790e-01
-2.245515588529461426e-01
-1.935794106968189432e-01
-1.619390091933383957e-01
-1.297436615483127942e-01
-9.664088105115584137e-02
-6.368964931248298489e-02
-3.012277082412919207e-02
3.219786935069571775e-03
3.633015181452767944e-02
6.955135915687001014e-02
1.017907244909470599e-01
1.339630931992833174e-01
1.650809909330142322e-01
1.953659975759604872e-01
2.250782268793171392e-01
2.532384173816766282e-01
2.809058561023831113e-01
3.069672800810709368e-01
3.320034219252021024e-01
3.561090799847145827e-01
3.785763514574947419e-01
4.005673885454743011e-01
4.208781154819928316e-01
4.405060207479976064e-01
4.592765981126595287e-01
4.768571453934835058e-01
4.943915034840830058e-01
5.106073981450776067e-01
5.268513758640959166e-01
5.425626395324111284e-01
5.578045905081694400e-01
5.735222836423280457e-01
5.884086644427816148e-01
6.039950594872617318e-01
6.192774588089382526e-01
6.346866179800719765e-01
6.508099396982170992e-01
6.663989153249147979e-01
6.829712078494099003e-01
6.991481957250801349e-01
7.156685684834606098e-01
7.326770399727949856e-01
7.491279140047226726e-01
7.663195816444383635e-01
7.826828604921255428e-01
7.991534497271207682e-01
8.154222256484237041e-01
8.307849491391599006e-01
8.461231980015324616e-01
8.599212260654691686e-01
8.731480838899874364e-01
8.850938292747080327e-01
8.954918579803421430e-01
9.046601508599469987e-01
9.113929120135101369e-01
9.165280905661188360e-01
9.190747844546922618e-01
9.192667280371467076e-01
9.168137182045482669e-01
9.110627027863307248e-01
9.026160149703484903e-01
8.903794157593449832e-01
8.751309624608829552e-01
8.560300000842977486e-01
8.331847862869710131e-01
8.069115161886695198e-01
7.762057181743847734e-01
7.423953499821565050e-01
7.042164985732366489e-01
6.625930421023843442e-01
6.175798765600728490e-01
5.683817624937346213e-01
5.167993570601321363e-01
4.612486502967153568e-01
4.033828213550126884e-01
3.429840913342127040e-01
2.794936116430982720e-01
2.150020463529219439e-01
1.476406236591981669e-01
7.962557059567679230e-02
1.037469884857368171e-02
-6.044150740760809853e-02
-1.306881277755768123e-01
-2.024992375918492626e-01
-2.732606991906704197e-01
-3.440350498366409049e-01
-4.148772833714425845e-01
-4.838576328804057303e-01
-5.533047831174190412e-01
-6.203259902412305848e-01
-6.865574278567549982e-01
-7.516566181606996189e-01
-8.141402961458794607e-01
-8.763922650248717749e-01
-9.353503097534748845e-01
-9.932678764600463284e-01
-1.049254981865354264e+00
-1.102509043144411560e+00
-1.155271228909451331e+00
-1.204468357525942501e+00
-1.252916515402691111e+00
-1.299076623942218900e+00
-1.343007483057734985e+00
-1.386559084316450807e+00
-1.426869266989376772e+00
-1.467093286763423876e+00
-1.505041258517055169e+00
-1.541666817234678799e+00
-1.578141058887721604e+00
-1.612051309033462498e+00
-1.646470917792643318e+00
-1.678677657964517289e+00
-1.710341292157859350e+00
-1.741683971567982825e+00
-1.770941383886643905e+00
-1.800570451450370202e+00
-1.827567495518624741e+00
-1.853968625614432764e+00
-1.878908218108990003e+00
-1.901419091742766687e+00
-1.922882161810793189e+00
-1.940407887138161369e+00
-1.956024636231608271e+00
-1.967891940305551923e+00
-1.975979468473263001e+00
-1.980398459278324363e+00
-1.978900992692069316e+00
-1.973260622331608705e+00
-1.961051992928624976e+00
-1.943334763487842398e+00
-1.919050300350275018e+00
-1.887181537146213062e+00
-1.849114738334451502e+00
-1.802373639975428432e+00
-1.749212821527309947e+00
-1.687623456432110203e+00
-1.618321413558318156e+00
-1.542149088508524946e+00
-1.457045185893299788e+00
-1.366414549717701599e+00
-1.267450511635239252e+00
-1.162747015902441783e+00
-1.052416998239672719e+00
-9.350240756502958828e-01
-8.148423445014829625e-01
-6.881539729084791279e-01
-5.593804328653553259e-01
-4.274212886811750711e-01
-2.914952588517610854e-01
-1.561940137433114884e-01
-1.661927558524701684e-02
1.212507231611288927e-01
2.603296491361843934e-01
4.057507408587513464e-01
5.471231877598490279e-01
6.772740286881269167e-01
8.056083804782028235e-01
9.501844090655796604e-01
1.112924667826793224e+00
1.257055555085296206e+00
1.363333381391789167e+00
1.471226169070019685e+00
1.637413067547914380e+00
1.847563430229311576e+00
2.002846005889856951e+00
2.062875899825089565e+00
2.137206520365789508e+00
2.361455692563970921e+00
2.680737235189472045e+00
2.858267667537962797e+00
2.800949725438380611e+00
2.775899119364984902e+00
3.136028337529516818e+00
3.781470450203756606e+00
4.046400648950029932e+00
3.310991622671553003e+00
1.722770798958876748e+00
1.749177441368712782e-01
